wavelength,x,y,z
0.0,-19.534057617188,16.781372070312,1.8468017578125
0.0005,-20.494995117188,14.899536132812,4.7296142578125
0.001,-20.494995117188,12.136840820312,7.4122314453125
0.0015,-20.535034179688,8.9737548828125,10.615356445312
0.002,-19.654174804688,4.2091064453125,14.539184570312
0.0025,-18.252807617188,-0.2352294921875,17.582153320312
0.003,-16.651245117188,-3.4383544921875,19.223754882812
0.0035,-14.769409179688,-6.3612060546875,20.344848632812
0.004,-11.606323242188,-9.2840576171875,20.104614257812
0.0045,-6.7215576171875,-13.207885742188,19.343872070312
0.005,-2.1971435546875,-16.491088867188,18.222778320312
0.0055,2.4473876953125,-19.173706054688,16.581176757812
0.006,5.2901611328125,-20.214721679688,14.979614257812
0.0065,8.0528564453125,-20.454956054688,12.657348632812
0.007,10.935668945312,-20.494995117188,10.054809570312
0.0075,14.979614257812,-19.293823242188,5.0499267578125
0.008,17.982543945312,-17.812377929688,0.6055908203125
0.0085,19.784301757812,-16.290893554688,-2.6375732421875
0.009,20.545043945312,-14.288940429688,-5.4002685546875
0.0095,20.304809570312,-11.245971679688,-8.2430419921875
0.01,19.904418945312,-7.2420654296875,-11.886596679688
0.0105,19.143676757812,-3.1580810546875,-15.249877929688
0.011,17.742309570312,1.2462158203125,-18.172729492188
0.0115,15.820434570312,4.2491455078125,-19.293823242188
0.012,13.578247070312,7.0518798828125,-19.934448242188
0.0125,10.214965820312,10.054809570312,-20.094604492188
0.013,4.8497314453125,14.338989257812,-18.653198242188
0.0135,0.3253173828125,17.341918945312,-17.452026367188
0.014,-3.3983154296875,19.383911132812,-16.010620117188
0.0145,-6.1610107421875,20.304809570312,-14.369018554688
0.015,-9.0438232421875,20.184692382812,-11.566284179688
0.0155,-12.206909179688,19.904418945312,-8.3231201171875
0.016,-15.770385742188,18.823364257812,-3.7987060546875
0.0165,-18.733276367188,16.981567382812,0.8858642578125
0.017,-19.894409179688,15.339965820312,3.6885986328125
0.0175,-20.494995117188,13.137817382812,6.4112548828125
0.018,-20.334838867188,10.134887695312,9.2540283203125
0.0185,-19.534057617188,5.3702392578125,13.257934570312
0.019,-18.533081054688,1.4063720703125,16.180786132812
0.0195,-17.171752929688,-2.4373779296875,18.743286132812
0.02,-15.169799804688,-5.3201904296875,19.664184570312
0.0205,-12.367065429688,-8.1229248046875,19.704223632812
0.021,-8.8035888671875,-11.526245117188,19.664184570312
0.0215,-3.2781982421875,-15.089721679688,18.222778320312
0.022,1.2462158203125,-18.092651367188,16.621215820312
0.0225,4.2091064453125,-19.534057617188,15.299926757812
0.023,6.9317626953125,-20.254760742188,13.538208007812
0.0235,9.8145751953125,-20.054565429688,10.695434570312
0.024,13.297973632812,-19.333862304688,6.5313720703125
0.0245,16.501098632812,-18.252807617188,2.4473876953125
0.025,19.023559570312,-16.571166992188,-1.7567138671875
0.0255,19.704223632812,-14.649291992188,-4.2391357421875
0.026,19.904418945312,-12.126831054688,-7.0018310546875
0.0265,19.784301757812,-8.9637451171875,-10.044799804688
0.027,18.903442382812,-4.3592529296875,-13.808471679688
0.0275,17.622192382812,-0.2752685546875,-16.651245117188
0.028,16.300903320312,2.9278564453125,-18.453002929688
0.0285,14.258911132812,5.7706298828125,-19.373901367188
0.029,11.215942382812,8.6534423828125,-19.213745117188
0.0295,6.8917236328125,12.377075195312,-18.733276367188
0.03,2.2071533203125,15.780395507812,-17.652221679688
0.0305,-2.2772216796875,18.302856445312,-16.010620117188
0.031,-4.7596435546875,19.223754882812,-14.649291992188
0.0315,-7.4422607421875,19.824340820312,-12.687377929688
0.032,-10.325073242188,19.584106445312,-10.004760742188
0.0325,-14.048706054688,18.583129882812,-5.2801513671875
0.033,-17.051635742188,17.301879882812,-1.0760498046875
0.0335,-19.093627929688,15.820434570312,2.4473876953125
0.034,-19.654174804688,13.858520507812,4.8897705078125
0.0345,-19.654174804688,11.015747070312,7.7325439453125
0.035,-19.373901367188,7.2921142578125,11.215942382812
0.0355,-18.573120117188,3.0880126953125,14.619262695312
0.036,-17.171752929688,-1.1160888671875,17.421997070312
0.0365,-15.610229492188,-3.8787841796875,18.663208007812
0.037,-13.608276367188,-6.6815185546875,19.463989257812
0.0375,-10.124877929688,-9.7645263671875,19.183715820312
0.038,-5.2801513671875,-13.488159179688,18.222778320312
0.0385,-0.7957763671875,-16.651245117188,17.101684570312
0.039,3.1680908203125,-18.853393554688,15.580200195312
0.0395,5.5704345703125,-19.453979492188,14.018676757812
0.04,8.4532470703125,-19.774291992188,11.656372070312
0.0405,11.696411132812,-19.494018554688,8.2530517578125
0.041,15.219848632812,-18.573120117188,3.8487548828125
0.0415,17.942504882812,-16.851440429688,-0.3553466796875
0.042,19.303833007812,-15.249877929688,-3.2781982421875
0.0425,19.744262695312,-13.087768554688,-5.8406982421875
0.043,19.584106445312,-9.9647216796875,-8.8436279296875
0.0435,18.943481445312,-5.7606201171875,-12.447143554688
0.044,18.102661132812,-1.7567138671875,-15.650268554688
0.0445,16.701293945312,2.1671142578125,-18.092651367188
0.045,14.739379882812,4.8096923828125,-18.853393554688
0.0455,12.417114257812,7.6925048828125,-19.413940429688
0.046,8.3331298828125,11.296020507812,-19.093627929688
0.0465,3.5684814453125,14.739379882812,-17.892456054688
0.047,-0.9158935546875,17.582153320312,-16.571166992188
0.0475,-4.1990966796875,19.343872070312,-15.209838867188
0.048,-6.6815185546875,19.744262695312,-13.408081054688
0.0485,-9.6043701171875,19.824340820312,-10.765502929688
0.049,-13.127807617188,19.303833007812,-6.5614013671875
0.0495,-16.531127929688,17.942504882812,-2.2772216796875
0.05,-18.973510742188,16.340942382812,1.8067626953125
0.0505,-19.894409179688,14.539184570312,4.4893798828125
0.051,-20.254760742188,12.056762695312,7.2520751953125
0.0515,-19.974487304688,8.4132080078125,10.695434570312
0.052,-19.093627929688,4.1290283203125,14.098754882812
0.0525,-17.972534179688,0.0050048828125,17.141723632812
0.053,-16.411010742188,-3.6385498046875,19.223754882812
0.0535,-14.168823242188,-6.2811279296875,19.664184570312
0.054,-11.406127929688,-9.2039794921875,19.864379882812
0.0545,-6.6815185546875,-13.127807617188,19.183715820312
0.055,-1.7967529296875,-16.370971679688,17.742309570312
0.0555,2.4473876953125,-18.773315429688,16.180786132812
0.056,5.2901611328125,-20.014526367188,14.739379882812
0.0565,8.0128173828125,-20.294799804688,12.577270507812
0.057,10.975708007812,-20.054565429688,9.2940673828125
0.0575,14.579223632812,-19.053588867188,5.1300048828125
0.058,17.702270507812,-17.612182617188,0.6856689453125
0.0585,19.704223632812,-15.890502929688,-3.0379638671875
0.059,19.984497070312,-13.768432617188,-5.4403076171875
0.0595,20.224731445312,-11.045776367188,-8.3231201171875
0.06,19.664184570312,-6.8416748046875,-12.046752929688
0.0605,18.663208007812,-2.7576904296875,-15.169799804688
0.061,17.301879882812,1.2462158203125,-17.772338867188
0.0615,15.700317382812,4.4493408203125,-19.373901367188
0.062,13.177856445312,7.0919189453125,-19.614135742188
0.0625,9.7344970703125,10.335083007812,-19.494018554688
0.063,5.1300048828125,13.978637695312,-18.613159179688
0.0635,0.2452392578125,17.301879882812,-17.251831054688
0.064,-3.5584716796875,19.183715820312,-15.650268554688
0.0645,-6.0408935546875,19.864379882812,-14.088745117188
0.065,-8.8436279296875,20.304809570312,-11.846557617188
0.0655,-12.407104492188,19.584106445312,-7.8426513671875
0.066,-15.570190429688,18.543090820312,-3.7586669921875
0.0665,-18.453002929688,17.021606445312,0.5655517578125
0.067,-20.134643554688,15.299926757812,3.8887939453125
0.0675,-20.414916992188,12.937622070312,6.4512939453125
0.068,-20.334838867188,9.8946533203125,9.5343017578125
0.0685,-19.654174804688,5.4102783203125,13.297973632812
0.069,-18.573120117188,1.2061767578125,16.501098632812
0.0695,-17.011596679688,-2.5975341796875,18.703247070312
0.07,-15.249877929688,-5.4403076171875,19.824340820312
0.0705,-12.567260742188,-8.3231201171875,20.144653320312
0.071,-8.1629638671875,-12.046752929688,19.504028320312
0.0715,-3.6385498046875,-15.249877929688,18.382934570312
0.072,1.2061767578125,-18.292846679688,16.941528320312
0.0725,4.6495361328125,-20.014526367188,15.339965820312
0.073,7.1719970703125,-20.214721679688,13.297973632812
0.0735,9.9346923828125,-20.494995117188,10.975708007812
0.074,13.898559570312,-19.534057617188,6.2911376953125
0.0745,16.981567382812,-18.252807617188,1.9669189453125
0.075,19.263793945312,-16.651245117188,-1.8367919921875
0.0755,20.464965820312,-14.809448242188,-4.8397216796875
0.076,20.464965820312,-12.086791992188,-7.5223388671875
0.0765,20.224731445312,-8.3231201171875,-11.085815429688
0.077,19.383911132812,-4.2391357421875,-14.369018554688
0.0775,18.222778320312,0.2052001953125,-17.612182617188
0.078,16.461059570312,3.7286376953125,-19.373901367188
0.0785,14.218872070312,6.3712158203125,-19.854370117188
0.079,11.536254882812,9.2940673828125,-20.254760742188
0.0795,6.2510986328125,13.498168945312,-19.253784179688
0.08,1.7266845703125,16.501098632812,-17.932495117188
0.0805,-2.4373779296875,18.943481445312,-16.491088867188
0.081,-5.7606201171875,20.344848632812,-14.929565429688
0.0815,-8.2430419921875,20.344848632812,-12.487182617188
0.082,-11.245971679688,20.304809570312,-9.6444091796875
0.0825,-15.049682617188,19.303833007812,-5.0799560546875
0.083,-18.212768554688,17.662231445312,-0.3553466796875
0.0835,-20.014526367188,15.980590820312,3.1280517578125
0.084,-20.695190429688,13.938598632812,5.7706298828125
0.0845,-20.775268554688,11.175903320312,8.4932861328125
0.085,-20.174682617188,6.5313720703125,12.737426757812
0.0855,-19.133666992188,2.6075439453125,15.660278320312
0.086,-17.892456054688,-1.5164794921875,18.503051757812
0.0865,-16.010620117188,-4.9197998046875,20.104614257812
0.087,-13.528198242188,-7.6824951171875,20.104614257812
0.0875,-10.325073242188,-10.605346679688,20.224731445312
0.088,-4.9197998046875,-14.729370117188,19.063598632812
0.0885,0.0850830078125,-17.812377929688,17.421997070312
0.089,3.6085205078125,-19.614135742188,15.900512695312
0.0895,6.4512939453125,-20.655151367188,14.338989257812
0.09,9.2940673828125,-20.575073242188,11.656372070312
0.0905,12.777465820312,-20.014526367188,7.6925048828125
0.091,15.980590820312,-18.973510742188,3.6885986328125
0.0915,18.983520507812,-17.331909179688,-0.9158935546875
0.092,20.344848632812,-15.490112304688,-3.9989013671875
0.0925,20.304809570312,-13.167846679688,-6.5213623046875
0.093,20.545043945312,-10.285034179688,-9.4842529296875
0.0935,19.704223632812,-5.2801513671875,-13.648315429688
0.094,18.543090820312,-1.2362060546875,-16.571166992188
0.0945,17.141723632812,2.4073486328125,-18.733276367188
0.095,15.299926757812,5.5303955078125,-20.094604492188
0.0955,12.176879882812,8.3731689453125,-19.894409179688
0.096,8.2530517578125,11.896606445312,-19.574096679688
0.0965,3.5684814453125,15.460083007812,-18.573120117188
0.097,-1.4764404296875,18.503051757812,-16.931518554688
0.0975,-4.5594482421875,19.824340820312,-15.329956054688
0.098,-7.2020263671875,20.424926757812,-13.448120117188
0.0985,-10.004760742188,20.585083007812,-11.165893554688
0.099,-14.088745117188,19.504028320312,-6.1610107421875
0.0995,-17.171752929688,18.302856445312,-1.9569091796875
0.1,-19.614135742188,16.741333007812,2.0069580078125
0.1005,-20.735229492188,14.859497070312,5.0098876953125
0.101,-20.655151367188,11.976684570312,7.7325439453125
0.1015,-20.655151367188,8.6934814453125,11.055786132812
0.102,-19.854370117188,4.0489501953125,14.859497070312
0.1025,-18.453002929688,-0.5155029296875,18.022583007812
0.103,-16.651245117188,-3.7987060546875,19.584106445312
0.1035,-14.729370117188,-6.7215576171875,20.625122070312
0.104,-11.566284179688,-9.6844482421875,20.505004882812
0.1045,-6.3612060546875,-13.848510742188,19.544067382812
0.105,-1.7967529296875,-17.011596679688,18.302856445312
0.1055,2.8477783203125,-19.654174804688,16.661254882812
0.106,5.8507080078125,-20.735229492188,14.979614257812
0.1065,8.7335205078125,-20.815307617188,12.417114257812
0.107,11.656372070312,-20.895385742188,9.7745361328125
0.1075,15.700317382812,-19.654174804688,4.6895751953125
0.108,18.863403320312,-17.972534179688,-0.1551513671875
0.1085,20.545043945312,-16.330932617188,-3.3582763671875
0.109,21.385864257812,-14.248901367188,-6.2410888671875
0.1095,21.065551757812,-11.045776367188,-9.1639404296875
0.11,20.505004882812,-6.7215576171875,-13.047729492188
0.1105,19.624145507812,-2.5574951171875,-16.290893554688
0.111,18.142700195312,1.9669189453125,-19.373901367188
0.1115,16.020629882812,5.1700439453125,-20.454956054688
0.112,13.498168945312,8.0128173828125,-21.015502929688
0.1125,10.094848632812,11.376098632812,-20.855346679688
0.113,4.2891845703125,15.540161132812,-19.494018554688
0.1135,-0.5955810546875,18.623168945312,-17.932495117188
0.114,-4.3192138671875,20.545043945312,-16.370971679688
0.1145,-7.2020263671875,21.465942382812,-14.569213867188
0.115,-10.365112304688,21.185668945312,-11.406127929688
0.1155,-13.688354492188,20.785278320312,-7.8426513671875
0.116,-17.291870117188,19.504028320312,-3.1580810546875
0.1165,-20.374877929688,17.542114257812,1.9268798828125
0.117,-21.415893554688,15.580200195312,4.8096923828125
0.1175,-21.856323242188,13.137817382812,7.6925048828125
0.118,-21.656127929688,9.7745361328125,10.855590820312
0.1185,-20.655151367188,4.7696533203125,14.979614257812
0.119,-19.373901367188,0.5255126953125,17.982543945312
0.1195,-17.852416992188,-3.5584716796875,20.464965820312
0.12,-15.570190429688,-6.6815185546875,21.385864257812
0.1205,-12.327026367188,-9.6844482421875,21.185668945312
0.121,-8.4432373046875,-13.328002929688,20.985473632812
0.1215,-2.8377685546875,-17.051635742188,19.383911132812
0.122,2.2872314453125,-19.974487304688,17.421997070312
0.1225,5.6104736328125,-21.215698242188,15.780395507812
0.123,8.3731689453125,-21.856323242188,13.778442382812
0.1235,11.536254882812,-21.536010742188,10.535278320312
0.124,15.259887695312,-20.494995117188,5.8907470703125
0.1245,18.543090820312,-19.173706054688,1.5264892578125
0.125,21.105590820312,-17.251831054688,-3.0379638671875
0.1255,21.706176757812,-15.009643554688,-5.7606201171875
0.126,21.746215820312,-12.126831054688,-8.7635498046875
0.1265,21.425903320312,-8.4832763671875,-12.086791992188
0.127,20.304809570312,-3.5584716796875,-15.930541992188
0.1275,18.703247070312,0.9659423828125,-18.853393554688
0.128,17.021606445312,4.3292236328125,-20.535034179688
0.1285,14.699340820312,7.3721923828125,-21.335815429688
0.129,11.015747070312,10.535278320312,-21.015502929688
0.1295,6.3311767578125,14.459106445312,-20.214721679688
0.13,1.2862548828125,17.902465820312,-18.853393554688
0.1305,-3.5584716796875,20.464965820312,-16.971557617188
0.131,-6.2811279296875,21.225708007812,-15.169799804688
0.1315,-9.2440185546875,21.626098632812,-12.847534179688
0.132,-12.447143554688,21.265747070312,-9.4842529296875
0.1325,-16.250854492188,19.904418945312,-4.5194091796875
0.133,-19.373901367188,18.342895507812,0.1251220703125
0.1335,-21.415893554688,16.501098632812,3.9688720703125
0.134,-21.816284179688,14.098754882812,6.6915283203125
0.1345,-21.736206054688,10.815551757812,9.9346923828125
0.135,-21.175659179688,6.6915283203125,13.538208007812
0.1355,-20.134643554688,2.0870361328125,17.061645507812
0.136,-18.332885742188,-2.5174560546875,19.904418945312
0.1365,-16.370971679688,-5.5604248046875,21.025512695312
0.137,-13.968627929688,-8.6033935546875,21.666137695312
0.1375,-9.8446044921875,-12.046752929688,21.145629882812
0.138,-4.6395263671875,-15.810424804688,19.864379882812
0.1385,0.3653564453125,-19.093627929688,18.422973632812
0.139,4.6895751953125,-21.255737304688,16.541137695312
0.1395,7.3721923828125,-21.736206054688,14.539184570312
0.14,10.575317382812,-21.856323242188,11.736450195312
0.1405,14.138793945312,-21.295776367188,7.8126220703125
0.141,17.662231445312,-19.894409179688,3.0079345703125
0.1415,20.585083007812,-18.012573242188,-1.7567138671875
0.142,22.026489257812,-15.890502929688,-4.9197998046875
0.1425,22.226684570312,-13.448120117188,-7.8826904296875
0.143,21.906372070312,-9.6444091796875,-11.366088867188
0.1435,20.985473632812,-5.0799560546875,-15.049682617188
0.144,19.824340820312,-0.6356201171875,-18.332885742188
0.1445,17.942504882812,3.7686767578125,-20.855346679688
0.145,15.500122070312,6.6514892578125,-21.415893554688
0.1455,12.657348632812,9.8946533203125,-21.816284179688
0.146,7.9327392578125,13.858520507812,-21.175659179688
0.1465,2.6876220703125,17.341918945312,-19.614135742188
0.147,-2.2371826171875,20.224731445312,-17.932495117188
0.1475,-5.9207763671875,21.946411132812,-16.170776367188
0.148,-8.6834716796875,22.146606445312,-13.848510742188
0.1485,-11.926635742188,22.066528320312,-10.725463867188
0.149,-15.810424804688,21.105590820312,-6.1209716796875
0.1495,-19.253784179688,19.504028320312,-1.2362060546875
0.15,-21.776245117188,17.462036132812,3.3682861328125
0.1505,-22.577026367188,15.299926757812,6.3311767578125
0.151,-22.817260742188,12.337036132812,9.4542236328125
0.1515,-22.296752929688,7.9727783203125,13.378051757812
0.152,-21.055541992188,3.3282470703125,16.781372070312
0.1525,-19.574096679688,-1.3162841796875,19.864379882812
0.153,-17.652221679688,-5.3201904296875,21.946411132812
0.1535,-14.809448242188,-8.1229248046875,22.106567382812
0.154,-11.606323242188,-11.406127929688,22.146606445312
0.1545,-6.3211669921875,-15.530151367188,21.185668945312
0.155,-0.8358154296875,-18.933471679688,19.343872070312
0.1555,3.7286376953125,-21.215698242188,17.582153320312
0.156,7.0118408203125,-22.456909179688,15.620239257812
0.1565,10.014770507812,-22.496948242188,12.937622070312
0.157,13.498168945312,-21.936401367188,9.0938720703125
0.1575,17.061645507812,-20.815307617188,4.5294189453125
0.158,20.384887695312,-19.013549804688,-0.5155029296875
0.1585,22.346801757812,-16.931518554688,-4.4793701171875
0.159,22.546997070312,-14.409057617188,-7.2020263671875
0.1595,22.587036132812,-11.286010742188,-10.405151367188
0.16,21.786254882812,-6.4012451171875,-14.449096679688
0.1605,20.464965820312,-1.9569091796875,-17.652221679688
0.161,18.743286132812,2.2872314453125,-20.334838867188
0.1615,16.781372070312,5.9307861328125,-21.936401367188
0.162,13.738403320312,8.9337158203125,-21.936401367188
0.1625,9.7745361328125,12.457153320312,-21.616088867188
0.163,4.7296142578125,16.260864257812,-20.494995117188
0.1635,-0.9559326171875,19.584106445312,-18.773315429688
0.164,-4.7596435546875,21.505981445312,-16.851440429688
0.1645,-7.5623779296875,22.146606445312,-14.929565429688
0.165,-10.685424804688,22.386840820312,-12.206909179688
0.1655,-14.609252929688,21.465942382812,-7.6024169921875
0.166,-17.892456054688,20.144653320312,-3.1580810546875
0.1665,-20.855346679688,18.302856445312,1.5665283203125
0.167,-22.496948242188,16.220825195312,5.2501220703125
0.1675,-22.456909179688,13.418090820312,8.0128173828125
0.168,-22.416870117188,9.9747314453125,11.456176757812
0.1685,-21.495971679688,5.0899658203125,15.420043945312
0.169,-20.134643554688,0.3653564453125,18.743286132812
0.1695,-18.212768554688,-3.6385498046875,20.905395507812
0.17,-16.170776367188,-6.8016357421875,22.066528320312
0.1705,-13.087768554688,-9.9246826171875,22.146606445312
0.171,-8.0828857421875,-13.968627929688,21.305786132812
0.1715,-3.2381591796875,-17.211791992188,19.984497070312
0.172,1.9669189453125,-20.414916992188,18.222778320312
0.1725,5.7706298828125,-22.056518554688,16.300903320312
0.173,8.4532470703125,-22.136596679688,13.938598632812
0.1735,11.616333007812,-22.376831054688,11.255981445312
0.174,15.860473632812,-21.175659179688,6.0509033203125
0.1745,19.023559570312,-19.534057617188,1.3663330078125
0.175,21.385864257812,-17.772338867188,-2.7176513671875
0.1755,22.546997070312,-15.610229492188,-6.0408935546875
0.176,22.346801757812,-12.487182617188,-8.9637451171875
0.1765,22.026489257812,-8.4031982421875,-12.767456054688
0.177,20.945434570312,-3.9989013671875,-16.210815429688
0.1775,19.584106445312,0.9259033203125,-19.574096679688
0.178,17.421997070312,4.7296142578125,-21.295776367188
