wavelength,x,y,z
0.0,1.4013671875,3.443359375,-5.1650390625
0.0005,0.3203125,4.404296875,-5.125
0.001,-0.7607421875,4.484375,-4.1640625
0.0015,-1.44140625,5.0048828125,-3.8837890625
0.002,-2.8828125,5.1650390625,-2.6826171875
0.0025,-3.68359375,5.2451171875,-1.9619140625
0.003,-4.4443359375,5.0849609375,-1.0810546875
0.0035,-5.0048828125,4.8046875,-0.2802734375
0.004,-5.0849609375,3.923828125,0.6806640625
0.0045,-5.4052734375,3.6435546875,1.28125
0.005,-5.4052734375,2.3623046875,2.5625
0.0055,-5.4052734375,1.921875,3.04296875
0.006,-5.3251953125,0.880859375,3.9638671875
0.0065,-4.64453125,-0.16015625,4.2041015625
0.007,-4.0439453125,-1.201171875,4.6044921875
0.0075,-3.2431640625,-2.2021484375,4.8046875
0.008,-2.322265625,-3.2431640625,4.9248046875
0.0085,-1.681640625,-3.84375,4.8046875
0.009,-0.720703125,-4.6845703125,4.6845703125
0.0095,0.3203125,-4.8046875,3.84375
0.01,1.0009765625,-5.28515625,3.6435546875
0.0105,2.4423828125,-5.4453125,2.40234375
0.011,3.04296875,-5.5654296875,1.921875
0.0115,3.8037109375,-5.4052734375,1.0009765625
0.012,4.2041015625,-5.044921875,0.240234375
0.0125,4.404296875,-4.32421875,-0.640625
0.013,4.64453125,-3.8837890625,-1.3212890625
0.0135,4.7646484375,-2.802734375,-2.5224609375
0.014,4.6044921875,-2.2822265625,-2.8828125
0.0145,4.6044921875,-1.361328125,-3.7236328125
0.015,3.763671875,-0.3203125,-3.923828125
0.0155,3.36328125,0.6005859375,-4.404296875
0.016,2.40234375,1.681640625,-4.5244140625
0.0165,1.8017578125,2.5224609375,-4.7646484375
0.017,1.12109375,3.04296875,-4.564453125
0.0175,0.2802734375,3.763671875,-4.404296875
0.018,-0.6806640625,3.8837890625,-3.603515625
0.0185,-1.361328125,4.404296875,-3.36328125
0.019,-2.72265625,4.484375,-2.2021484375
0.0195,-3.1630859375,4.6044921875,-1.8818359375
0.02,-3.8837890625,4.484375,-1.0009765625
0.0205,-4.1240234375,3.9638671875,-0.3203125
0.021,-4.404296875,3.5234375,0.4404296875
0.0215,-4.564453125,2.9228515625,1.1611328125
0.022,-4.8046875,2.2421875,2.08203125
0.0225,-4.64453125,1.6416015625,2.5224609375
0.023,-4.6845703125,0.9208984375,3.2431640625
0.0235,-3.84375,-0.2001953125,3.4833984375
0.024,-3.84375,-1.0009765625,4.1240234375
0.0245,-2.6826171875,-2.08203125,4.083984375
0.025,-2.40234375,-2.72265625,4.484375
0.0255,-1.5615234375,-3.283203125,4.2041015625
0.026,-0.8408203125,-3.84375,4.00390625
0.0265,0.0400390625,-4.1240234375,3.443359375
0.027,0.880859375,-4.6044921875,3.123046875
0.0275,2.001953125,-4.8447265625,2.162109375
0.028,2.40234375,-4.884765625,1.841796875
0.0285,3.1630859375,-4.8046875,1.0810546875
0.029,3.3232421875,-4.244140625,0.3603515625
0.0295,3.7236328125,-4.00390625,-0.3203125
0.03,3.84375,-3.203125,-1.1611328125
0.0305,4.1240234375,-2.8427734375,-1.8818359375
0.031,3.9638671875,-2.1220703125,-2.40234375
0.0315,3.923828125,-1.4814453125,-3.0029296875
0.032,3.04296875,-0.5205078125,-3.2431640625
0.0325,3.0029296875,0.2802734375,-3.84375
0.033,2.0419921875,1.4013671875,-4.00390625
0.0335,1.921875,1.921875,-4.2041015625
0.034,1.0810546875,2.5224609375,-4.00390625
0.0345,0.400390625,2.8828125,-3.68359375
0.035,-0.400390625,3.3232421875,-3.3232421875
0.0355,-1.28125,3.68359375,-2.7626953125
0.036,-2.162109375,3.9638671875,-2.2421875
0.0365,-2.5625,3.8837890625,-1.76171875
0.037,-3.1630859375,3.923828125,-1.201171875
0.0375,-3.36328125,3.3232421875,-0.48046875
0.038,-3.84375,3.283203125,0.080078125
0.0385,-3.923828125,2.482421875,1.0009765625
0.039,-4.2841796875,2.322265625,1.4814453125
0.0395,-4.1640625,1.5615234375,2.08203125
0.04,-4.00390625,0.9609375,2.4423828125
0.0405,-3.4833984375,-0.16015625,3.0029296875
0.041,-3.203125,-0.9609375,3.3232421875
0.0415,-2.6025390625,-1.76171875,3.763671875
0.042,-2.2822265625,-2.2021484375,3.8837890625
0.0425,-1.6015625,-2.8828125,3.84375
0.043,-0.880859375,-3.203125,3.443359375
0.0435,-0.16015625,-3.84375,3.283203125
0.044,0.9208984375,-4.1240234375,2.5625
0.0445,1.5615234375,-4.484375,2.2822265625
0.045,2.08203125,-4.32421875,1.6416015625
0.0455,2.5625,-4.3642578125,1.2412109375
0.046,2.802734375,-3.8037109375,0.4404296875
0.0465,3.2431640625,-3.68359375,-0.16015625
0.047,3.4833984375,-2.962890625,-1.0810546875
0.0475,3.68359375,-2.72265625,-1.521484375
0.048,3.5634765625,-1.9619140625,-2.162109375
0.0485,3.203125,-1.28125,-2.5224609375
0.049,2.962890625,-0.3203125,-3.123046875
0.0495,2.40234375,0.48046875,-3.36328125
0.05,2.0419921875,1.2412109375,-3.763671875
0.0505,1.6015625,1.6015625,-3.7236328125
0.051,1.0810546875,2.2421875,-3.7236328125
0.0515,0.2802734375,2.5224609375,-3.203125
0.052,-0.400390625,3.123046875,-3.123046875
0.0525,-1.4013671875,3.36328125,-2.3623046875
0.053,-1.921875,3.68359375,-2.2421875
0.0535,-2.4423828125,3.5634765625,-1.5615234375
0.054,-2.72265625,3.4833984375,-1.2412109375
0.0545,-3.123046875,3.123046875,-0.4404296875
0.055,-3.443359375,2.8427734375,0.16015625
0.0555,-3.84375,2.40234375,0.9609375
0.056,-3.8837890625,2.001953125,1.3212890625
0.0565,-4.00390625,1.4013671875,2.0419921875
0.057,-3.5234375,0.560546875,2.40234375
0.0575,-3.4033203125,-0.16015625,3.04296875
0.058,-2.72265625,-1.12109375,3.283203125
0.0585,-2.642578125,-1.681640625,3.763671875
0.059,-1.9619140625,-2.2421875,3.5634765625
0.0595,-1.4814453125,-2.7626953125,3.6435546875
0.06,-0.6005859375,-3.203125,3.1630859375
0.0605,0.2001953125,-3.8037109375,2.962890625
0.061,1.1611328125,-4.1240234375,2.3623046875
0.0615,1.6015625,-4.2841796875,2.0419921875
0.062,2.2021484375,-4.244140625,1.44140625
0.0625,2.482421875,-3.923828125,0.880859375
0.063,3.0029296875,-3.7236328125,0.16015625
0.0635,3.1630859375,-3.1630859375,-0.640625
0.064,3.6435546875,-2.8828125,-1.28125
0.0645,3.443359375,-2.2822265625,-1.8017578125
0.065,3.5234375,-1.681640625,-2.4423828125
0.0655,2.7626953125,-0.6005859375,-2.72265625
0.066,2.6826171875,0.1201171875,-3.283203125
0.0665,2.001953125,1.12109375,-3.5634765625
0.067,1.841796875,1.5615234375,-3.84375
0.0675,1.0810546875,2.1220703125,-3.603515625
0.068,0.48046875,2.5625,-3.4833984375
0.0685,-0.3203125,2.9228515625,-3.04296875
0.069,-1.201171875,3.36328125,-2.5625
0.0695,-2.08203125,3.7236328125,-2.0419921875
0.07,-2.4423828125,3.5634765625,-1.6015625
0.0705,-2.962890625,3.603515625,-1.041015625
0.071,-3.1630859375,3.04296875,-0.3603515625
0.0715,-3.5634765625,2.9228515625,0.2001953125
0.072,-3.8037109375,2.2021484375,1.0810546875
0.0725,-4.083984375,1.921875,1.5615234375
0.073,-3.8037109375,1.201171875,2.0419921875
0.0735,-3.8037109375,0.6005859375,2.6025390625
0.074,-3.0830078125,-0.4404296875,2.962890625
0.0745,-2.8828125,-1.12109375,3.443359375
0.075,-2.2822265625,-2.08203125,3.763671875
0.0755,-1.8818359375,-2.4423828125,3.68359375
0.076,-1.1611328125,-3.0830078125,3.6435546875
0.0765,-0.48046875,-3.443359375,3.2431640625
0.077,0.3603515625,-3.8837890625,2.9228515625
0.0775,1.4013671875,-4.244140625,2.2421875
0.078,2.162109375,-4.564453125,1.76171875
0.0785,2.482421875,-4.2041015625,1.1611328125
0.079,3.04296875,-4.2841796875,0.6806640625
0.0795,3.1630859375,-3.5634765625,-0.16015625
0.08,3.5634765625,-3.36328125,-0.80078125
0.0805,3.84375,-2.6025390625,-1.8017578125
0.081,3.84375,-2.2021484375,-2.2822265625
0.0815,3.5234375,-1.2412109375,-2.8427734375
0.082,3.1630859375,-0.4404296875,-3.203125
0.0825,2.5224609375,0.560546875,-3.5234375
0.083,2.08203125,1.3212890625,-3.84375
0.0835,1.4814453125,2.2822265625,-4.1640625
0.084,0.80078125,2.5625,-3.8037109375
0.0845,0.2001953125,3.1630859375,-3.7236328125
0.085,-0.720703125,3.36328125,-3.0830078125
0.0855,-1.521484375,3.84375,-2.72265625
0.086,-2.642578125,4.083984375,-1.8818359375
0.0865,-3.283203125,4.1240234375,-1.28125
0.087,-3.5634765625,3.6435546875,-0.560546875
0.0875,-4.00390625,3.5234375,0.0
0.088,-4.00390625,2.72265625,0.7607421875
0.0885,-4.32421875,2.3623046875,1.44140625
0.089,-4.564453125,1.5615234375,2.4423828125
0.0895,-4.244140625,0.9609375,2.7626953125
0.09,-4.00390625,0.080078125,3.36328125
0.0905,-3.4033203125,-0.80078125,3.68359375
0.091,-2.8828125,-1.681640625,3.923828125
0.0915,-2.2021484375,-2.6025390625,4.1640625
0.092,-1.521484375,-3.4833984375,4.32421875
0.0925,-0.6806640625,-3.7236328125,3.7236328125
0.093,-0.080078125,-4.3642578125,3.8037109375
0.0935,1.0009765625,-4.5244140625,2.8427734375
0.094,1.841796875,-4.8447265625,2.40234375
0.0945,3.0029296875,-5.125,1.4814453125
0.095,3.5234375,-4.884765625,0.80078125
0.0955,3.8037109375,-4.4443359375,0.0400390625
0.096,4.1240234375,-4.1640625,-0.640625
0.0965,4.244140625,-3.2431640625,-1.6015625
0.097,4.404296875,-2.72265625,-2.322265625
0.0975,4.6044921875,-1.8017578125,-3.36328125
0.098,3.9638671875,-0.8408203125,-3.603515625
0.0985,3.68359375,0.0400390625,-4.2041015625
0.099,2.802734375,1.1611328125,-4.3642578125
0.0995,2.08203125,2.0419921875,-4.564453125
0.1,1.3212890625,3.0029296875,-4.6845703125
0.1005,0.5205078125,3.84375,-4.6845703125
0.101,-0.5205078125,3.9638671875,-3.84375
0.1015,-1.1611328125,4.484375,-3.7236328125
0.102,-2.5625,4.64453125,-2.482421875
0.1025,-3.203125,4.7646484375,-1.9619140625
0.103,-4.32421875,4.8447265625,-1.0009765625
0.1035,-4.6044921875,4.404296875,-0.240234375
0.104,-4.8447265625,3.8037109375,0.560546875
0.1045,-5.0849609375,3.2431640625,1.3212890625
0.105,-5.125,2.2021484375,2.40234375
0.1055,-5.125,1.6015625,3.0029296875
0.106,-5.2451171875,0.720703125,4.00390625
0.1065,-4.32421875,-0.3603515625,4.1240234375
0.107,-4.0439453125,-1.201171875,4.64453125
0.1075,-2.8828125,-2.482421875,4.724609375
0.108,-2.2021484375,-3.36328125,4.8447265625
0.1085,-1.3212890625,-4.1640625,4.8046875
0.109,-0.4404296875,-4.884765625,4.6044921875
0.1095,0.560546875,-5.0048828125,3.763671875
0.11,1.3212890625,-5.4853515625,3.5234375
0.1105,2.8427734375,-5.6455078125,2.1220703125
0.111,3.4033203125,-5.6455078125,1.6015625
0.1115,4.4443359375,-5.6455078125,0.6005859375
0.112,4.64453125,-5.044921875,-0.2802734375
0.1125,4.8447265625,-4.4443359375,-1.041015625
0.113,5.0849609375,-3.7236328125,-2.001953125
0.1135,5.0849609375,-2.5625,-3.0830078125
0.114,4.96484375,-1.8818359375,-3.603515625
0.1145,4.96484375,-0.9208984375,-4.564453125
0.115,3.84375,0.3603515625,-4.64453125
0.1155,3.443359375,1.2412109375,-5.0849609375
0.116,2.162109375,2.6826171875,-5.1650390625
0.1165,1.4013671875,3.4833984375,-5.2451171875
0.117,0.48046875,4.1640625,-5.0048828125
0.1175,-0.5205078125,4.8046875,-4.64453125
0.118,-1.5615234375,4.8447265625,-3.7236328125
0.1185,-2.4423828125,5.28515625,-3.2431640625
0.119,-3.9638671875,5.4052734375,-1.8017578125
0.1195,-4.3642578125,5.205078125,-1.2412109375
0.12,-5.205078125,4.96484375,-0.240234375
0.1205,-5.4052734375,4.2041015625,0.640625
0.121,-5.4853515625,3.5634765625,1.4013671875
0.1215,-5.7255859375,2.6826171875,2.482421875
0.122,-5.7255859375,1.6416015625,3.5234375
0.1225,-5.28515625,0.9208984375,3.8837890625
0.123,-5.205078125,0.0,4.724609375
0.1235,-4.0439453125,-1.3212890625,4.7646484375
0.124,-3.68359375,-2.1220703125,5.125
0.1245,-2.2822265625,-3.603515625,5.205078125
0.125,-1.6416015625,-4.244140625,5.205078125
0.1255,-0.6005859375,-4.884765625,4.8046875
0.126,0.3603515625,-5.4453125,4.404296875
0.1265,1.3212890625,-5.4853515625,3.4833984375
0.127,2.322265625,-5.92578125,2.9228515625
0.1275,3.8037109375,-6.005859375,1.5615234375
0.128,4.1240234375,-5.765625,1.0009765625
0.1285,4.8447265625,-5.5654296875,0.0400390625
0.129,4.96484375,-4.724609375,-0.9609375
0.1295,5.125,-4.083984375,-1.6416015625
0.13,5.2451171875,-3.04296875,-2.802734375
0.1305,5.3251953125,-2.162109375,-3.7236328125
0.131,4.8046875,-1.28125,-4.083984375
0.1315,4.6845703125,-0.2802734375,-4.8447265625
0.132,3.36328125,1.0810546875,-4.884765625
0.1325,3.0029296875,1.841796875,-5.2451171875
0.133,1.5615234375,3.3232421875,-5.28515625
0.1335,1.041015625,3.84375,-5.205078125
0.134,0.0,4.4443359375,-4.724609375
0.1345,-1.0009765625,4.9248046875,-4.2841796875
0.135,-2.001953125,4.96484375,-3.36328125
0.1355,-3.04296875,5.28515625,-2.642578125
0.136,-4.3642578125,5.4052734375,-1.4814453125
0.1365,-4.564453125,4.884765625,-0.80078125
0.137,-5.2451171875,4.6044921875,0.080078125
0.1375,-5.28515625,3.763671875,1.0810546875
0.138,-5.4453125,3.203125,1.76171875
0.1385,-5.4853515625,2.08203125,2.8828125
0.139,-5.525390625,1.4013671875,3.6435546875
0.1395,-4.9248046875,0.4404296875,3.9638671875
0.14,-4.6845703125,-0.48046875,4.6044921875
0.1405,-3.5234375,-1.7216796875,4.6044921875
0.141,-3.203125,-2.4423828125,4.96484375
0.1415,-1.8818359375,-3.84375,5.044921875
0.142,-1.3212890625,-4.1640625,4.8046875
0.1425,-0.3203125,-4.8046875,4.404296875
0.143,0.6005859375,-5.125,3.84375
0.1435,1.521484375,-5.28515625,3.1630859375
0.144,2.5625,-5.6455078125,2.2822265625
0.1445,3.68359375,-5.8056640625,1.4013671875
0.145,3.84375,-5.2451171875,0.6806640625
0.1455,4.5244140625,-5.0849609375,0.0
0.146,4.5244140625,-4.083984375,-1.0009765625
0.1465,4.8046875,-3.7236328125,-1.6416015625
0.147,4.8447265625,-2.5625,-2.8828125
0.1475,4.8447265625,-2.001953125,-3.36328125
0.148,4.2841796875,-0.9609375,-3.84375
0.1485,3.9638671875,0.0,-4.404296875
0.149,2.8427734375,1.201171875,-4.5244140625
0.1495,2.482421875,1.921875,-4.8447265625
0.15,1.4013671875,3.1630859375,-5.0048828125
0.1505,0.80078125,3.443359375,-4.6044921875
0.151,-0.16015625,4.083984375,-4.2841796875
0.1515,-1.0810546875,4.32421875,-3.5634765625
0.152,-1.8818359375,4.5244140625,-3.0830078125
0.1525,-3.04296875,4.724609375,-2.1220703125
0.153,-3.8837890625,4.8046875,-1.44140625
0.1535,-4.0439453125,4.2041015625,-0.6005859375
0.154,-4.64453125,4.1240234375,0.0400390625
0.1545,-4.564453125,3.1630859375,0.9609375
0.155,-4.8447265625,2.8427734375,1.521484375
0.1555,-4.96484375,1.841796875,2.642578125
0.156,-4.8046875,1.361328125,2.9228515625
0.1565,-4.3642578125,0.3603515625,3.5234375
0.157,-3.923828125,-0.5205078125,3.84375
0.1575,-3.1630859375,-1.5615234375,4.1240234375
0.158,-2.642578125,-2.2822265625,4.32421875
0.1585,-1.921875,-3.283203125,4.5244140625
0.159,-1.28125,-3.4833984375,4.083984375
0.1595,-0.5205078125,-4.1640625,4.00390625
0.16,0.4404296875,-4.3642578125,3.2431640625
0.1605,1.201171875,-4.8447265625,2.9228515625
0.161,2.3623046875,-5.044921875,1.9619140625
0.1615,2.8828125,-5.044921875,1.521484375
0.162,3.2431640625,-4.564453125,0.720703125
0.1625,3.68359375,-4.484375,0.16015625
0.163,3.8837890625,-3.68359375,-0.80078125
0.1635,4.1240234375,-3.283203125,-1.361328125
0.164,4.3642578125,-2.5224609375,-2.40234375
0.1645,4.083984375,-1.9619140625,-2.642578125
0.165,3.84375,-1.0009765625,-3.36328125
0.1655,3.123046875,0.0,-3.603515625
0.166,2.6826171875,0.880859375,-4.00390625
0.1665,2.0419921875,1.76171875,-4.2041015625
0.167,1.5615234375,2.5224609375,-4.4443359375
0.1675,0.720703125,2.7626953125,-3.8837890625
0.168,0.080078125,3.36328125,-3.8837890625
0.1685,-0.9208984375,3.5234375,-3.0830078125
0.169,-1.6416015625,3.9638671875,-2.802734375
0.1695,-2.72265625,4.2041015625,-1.921875
0.17,-3.04296875,4.083984375,-1.44140625
0.1705,-3.5234375,3.763671875,-0.6806640625
0.171,-3.7236328125,3.443359375,-0.16015625
0.1715,-3.9638671875,2.8828125,0.640625
0.172,-4.1640625,2.40234375,1.28125
0.1725,-4.4443359375,1.921875,2.0419921875
0.173,-4.00390625,1.28125,2.2421875
0.1735,-4.0439453125,0.560546875,2.962890625
0.174,-3.203125,-0.5205078125,3.1630859375
0.1745,-3.0830078125,-1.201171875,3.68359375
0.175,-2.322265625,-2.08203125,3.84375
0.1755,-2.08203125,-2.5224609375,3.923828125
0.176,-1.28125,-3.0029296875,3.5634765625
0.1765,-0.6806640625,-3.5634765625,3.5234375
0.177,0.2802734375,-3.8837890625,2.8828125
0.1775,1.041015625,-4.2841796875,2.6025390625
0.178,1.9619140625,-4.564453125,1.9619140625
0.1785,2.2021484375,-4.3642578125,1.5615234375
0.179,2.802734375,-4.3642578125,0.9609375
0.1795,3.0029296875,-3.84375,0.240234375
0.18,3.4833984375,-3.5634765625,-0.5205078125
0.1805,3.6435546875,-2.9228515625,-1.2412109375
0.181,3.923828125,-2.6025390625,-1.8818359375
0.1815,3.4833984375,-1.7216796875,-2.2822265625
0.182,3.4833984375,-1.12109375,-2.8828125
0.1825,2.642578125,0.0400390625,-3.203125
0.183,2.5224609375,0.6806640625,-3.7236328125
0.1835,1.921875,1.6015625,-3.9638671875
0.184,1.521484375,1.921875,-3.8837890625
0.1845,0.7607421875,2.482421875,-3.6435546875
0.185,0.0,2.8427734375,-3.36328125
0.1855,-0.8408203125,3.283203125,-2.8828125
0.186,-1.6416015625,3.6435546875,-2.40234375
0.1865,-2.40234375,3.84375,-1.8818359375
0.187,-2.6025390625,3.4833984375,-1.3212890625
0.1875,-3.1630859375,3.5634765625,-0.880859375
0.188,-3.2431640625,2.8427734375,0.0
0.1885,-3.68359375,2.72265625,0.48046875
0.189,-3.8837890625,2.1220703125,1.28125
0.1895,-4.00390625,1.8818359375,1.6015625
0.19,-3.6435546875,0.9609375,2.162109375
0.1905,-3.5634765625,0.4404296875,2.6025390625
0.191,-2.962890625,-0.6005859375,3.0029296875
0.1915,-2.7626953125,-1.2412109375,3.443359375
0.192,-2.2822265625,-2.001953125,3.68359375
0.1925,-1.8818359375,-2.2822265625,3.443359375
0.193,-1.28125,-2.962890625,3.5234375
0.1935,-0.400390625,-3.2431640625,3.04296875
0.194,0.3203125,-3.8037109375,2.8427734375
0.1945,1.2412109375,-4.1240234375,2.2822265625
0.195,1.681640625,-4.32421875,2.001953125
0.1955,2.08203125,-4.00390625,1.3212890625
0.196,2.5224609375,-4.1240234375,0.9609375
0.1965,2.9228515625,-3.5234375,0.0
0.197,3.3232421875,-3.3232421875,-0.6005859375
0.1975,3.6435546875,-2.7626953125,-1.44140625
0.198,3.5234375,-2.322265625,-1.76171875
0.1985,3.36328125,-1.44140625,-2.482421875
0.199,2.9228515625,-0.6005859375,-2.8427734375
0.1995,2.5625,0.2802734375,-3.36328125
0.2,2.2021484375,1.041015625,-3.7236328125
0.2005,1.76171875,1.681640625,-3.923828125
0.201,1.041015625,2.0419921875,-3.5634765625
0.2015,0.48046875,2.6826171875,-3.603515625
0.202,-0.5205078125,3.0029296875,-2.9228515625
0.2025,-1.28125,3.5234375,-2.6826171875
0.203,-2.2021484375,3.7236328125,-2.001953125
0.2035,-2.5625,3.68359375,-1.5615234375
0.204,-2.962890625,3.4033203125,-0.9208984375
0.2045,-3.2431640625,3.1630859375,-0.3603515625
0.205,-3.5634765625,2.642578125,0.4404296875
0.2055,-3.84375,2.2822265625,1.041015625
0.206,-4.083984375,1.841796875,1.8017578125
0.2065,-3.68359375,1.0810546875,2.08203125
0.207,-3.68359375,0.400390625,2.72265625
0.2075,-2.962890625,-0.5205078125,2.9228515625
0.208,-2.7626953125,-1.28125,3.4033203125
0.2085,-2.2021484375,-2.08203125,3.6435546875
0.209,-1.76171875,-2.5625,3.6435546875
0.2095,-1.041015625,-2.8828125,3.3232421875
0.21,-0.5205078125,-3.4833984375,3.2431640625
0.2105,0.560546875,-3.763671875,2.5625
0.211,1.2412109375,-4.2041015625,2.3623046875
0.2115,2.08203125,-4.404296875,1.7216796875
0.212,2.3623046875,-4.1240234375,1.201171875
0.2125,2.8427734375,-4.0439453125,0.640625
0.213,3.0830078125,-3.5634765625,-0.080078125
0.2135,3.443359375,-3.203125,-0.8408203125
0.214,3.68359375,-2.642578125,-1.6015625
0.2145,3.84375,-2.162109375,-2.2421875
0.215,3.2431640625,-1.1611328125,-2.6025390625
0.2155,3.2431640625,-0.5205078125,-3.2431640625
0.216,2.40234375,0.5205078125,-3.443359375
0.2165,2.2021484375,1.2412109375,-3.923828125
0.217,1.521484375,2.08203125,-4.1240234375
0.2175,0.8408203125,2.5625,-3.84375
0.218,0.1201171875,3.04296875,-3.5634765625
0.2185,-0.6806640625,3.4833984375,-3.1630859375
0.219,-1.76171875,3.7236328125,-2.40234375
0.2195,-2.4423828125,4.00390625,-1.9619140625
0.22,-3.203125,4.083984375,-1.3212890625
0.2205,-3.4033203125,3.5234375,-0.6005859375
0.221,-3.84375,3.443359375,0.0
0.2215,-3.9638671875,2.642578125,0.880859375
0.222,-4.244140625,2.2421875,1.5615234375
0.2225,-4.32421875,1.521484375,2.2822265625
0.223,-4.244140625,0.9609375,2.8427734375
0.2235,-3.5634765625,-0.080078125,3.123046875
0.224,-3.443359375,-0.80078125,3.603515625
0.2245,-2.4423828125,-1.9619140625,3.7236328125
0.225,-2.2021484375,-2.5625,4.00390625
0.2255,-1.4013671875,-3.283203125,4.0439453125
0.226,-0.640625,-3.603515625,3.6435546875
0.2265,0.0,-4.0439453125,3.4033203125
0.227,1.12109375,-4.4443359375,2.6826171875
0.2275,2.0419921875,-4.64453125,2.001953125
0.228,2.6826171875,-4.7646484375,1.4814453125
0.2285,3.3232421875,-4.7646484375,0.880859375
0.229,3.443359375,-4.1240234375,0.080078125
0.2295,3.84375,-4.00390625,-0.48046875
