wavelength,x,y,z
0.0,-3.0830078125,3.84375,-1.2412109375
0.0005,-3.3232421875,3.283203125,-0.5205078125
0.001,-3.7236328125,3.203125,0.0
0.0015,-3.8837890625,2.4423828125,0.9609375
0.002,-4.1640625,2.2021484375,1.521484375
0.0025,-4.2041015625,1.4814453125,2.2822265625
0.003,-3.8837890625,0.6806640625,2.6826171875
0.0035,-3.4833984375,-0.2001953125,3.1630859375
0.004,-3.0830078125,-1.0009765625,3.4833984375
0.0045,-2.4423828125,-1.9619140625,3.8037109375
0.005,-2.001953125,-2.5224609375,3.8837890625
0.0055,-1.3212890625,-3.203125,3.84375
0.006,-0.560546875,-3.443359375,3.3232421875
0.0065,0.080078125,-3.923828125,3.203125
0.007,1.2412109375,-4.2041015625,2.3623046875
0.0075,1.921875,-4.5244140625,1.9619140625
0.008,2.5625,-4.4443359375,1.28125
0.0085,3.04296875,-4.3642578125,0.6806640625
0.009,3.203125,-3.84375,0.0
0.0095,3.603515625,-3.5634765625,-0.640625
0.01,3.84375,-2.72265625,-1.6416015625
0.0105,3.8837890625,-2.40234375,-2.08203125
0.011,3.923828125,-1.6015625,-2.8828125
0.0115,3.36328125,-0.6806640625,-3.203125
0.012,3.0029296875,0.16015625,-3.6435546875
0.0125,2.3623046875,1.12109375,-3.8837890625
0.013,1.841796875,1.9619140625,-4.2041015625
0.0135,1.201171875,2.5224609375,-4.1240234375
0.014,0.400390625,3.2431640625,-4.00390625
0.0145,-0.5205078125,3.443359375,-3.36328125
0.015,-1.2412109375,3.9638671875,-3.1630859375
0.0155,-2.5224609375,4.1640625,-2.08203125
0.016,-3.123046875,4.2841796875,-1.6015625
0.0165,-3.763671875,4.083984375,-0.80078125
0.017,-4.1240234375,3.763671875,-0.16015625
0.0175,-4.244140625,3.1630859375,0.560546875
0.018,-4.5244140625,2.6826171875,1.361328125
0.0185,-4.7646484375,1.921875,2.40234375
0.019,-4.5244140625,1.2412109375,2.7626953125
0.0195,-4.484375,0.400390625,3.5234375
0.02,-3.603515625,-0.640625,3.68359375
0.0205,-3.283203125,-1.44140625,4.1240234375
0.021,-2.322265625,-2.6025390625,4.2841796875
0.0215,-1.76171875,-3.36328125,4.4443359375
0.022,-0.9208984375,-3.8037109375,4.0439453125
0.0225,-0.2001953125,-4.3642578125,3.923828125
0.023,0.720703125,-4.4443359375,3.123046875
0.0235,1.521484375,-4.884765625,2.7626953125
0.024,2.8427734375,-5.125,1.6015625
0.0245,3.3232421875,-5.0048828125,1.0009765625
0.025,3.8837890625,-4.7646484375,0.2001953125
0.0255,4.1240234375,-4.244140625,-0.5205078125
0.026,4.244140625,-3.603515625,-1.2412109375
0.0265,4.4443359375,-2.8828125,-2.08203125
0.027,4.6044921875,-2.08203125,-3.04296875
0.0275,4.1240234375,-1.28125,-3.36328125
0.028,4.1240234375,-0.400390625,-4.1640625
0.0285,3.04296875,0.6806640625,-4.1640625
0.029,2.72265625,1.4013671875,-4.564453125
0.0295,1.6416015625,2.6826171875,-4.724609375
0.03,1.0009765625,3.36328125,-4.8046875
0.0305,0.0,3.84375,-4.2041015625
0.031,-0.80078125,4.404296875,-4.00390625
0.0315,-1.76171875,4.4443359375,-3.0830078125
0.032,-2.642578125,4.8046875,-2.5625
0.0325,-4.00390625,5.0048828125,-1.4013671875
0.033,-4.4443359375,4.564453125,-0.640625
0.0335,-4.96484375,4.244140625,0.2001953125
0.034,-5.125,3.68359375,1.0009765625
0.0345,-5.205078125,2.962890625,1.76171875
0.035,-5.28515625,2.0419921875,2.7626953125
0.0355,-5.4453125,1.2412109375,3.763671875
0.036,-4.64453125,0.1201171875,3.9638671875
0.0365,-4.5244140625,-0.7607421875,4.6845703125
0.037,-3.3232421875,-1.921875,4.6044921875
0.0375,-2.8427734375,-2.642578125,4.8447265625
0.038,-1.681640625,-3.9638671875,4.96484375
0.0385,-0.8408203125,-4.564453125,4.7646484375
0.039,0.16015625,-4.884765625,4.083984375
0.0395,0.9208984375,-5.28515625,3.8037109375
0.04,1.9619140625,-5.3251953125,2.6826171875
0.0405,2.802734375,-5.60546875,2.08203125
0.041,4.1240234375,-5.765625,0.9609375
0.0415,4.32421875,-5.0849609375,0.1201171875
0.042,4.8046875,-4.7646484375,-0.640625
0.0425,4.8046875,-3.8837890625,-1.44140625
0.043,4.8447265625,-3.2431640625,-2.2421875
0.0435,4.9248046875,-2.2822265625,-3.203125
0.044,4.96484375,-1.44140625,-4.0439453125
0.0445,4.083984375,-0.2802734375,-4.244140625
0.045,3.8837890625,0.5205078125,-4.8447265625
0.0455,2.6826171875,1.681640625,-4.7646484375
0.046,2.2421875,2.40234375,-5.044921875
0.0465,1.12109375,3.68359375,-5.125
0.047,0.240234375,4.1240234375,-4.7646484375
0.0475,-0.80078125,4.564453125,-4.1240234375
0.048,-1.6015625,4.9248046875,-3.68359375
0.0485,-2.7626953125,4.96484375,-2.642578125
0.049,-3.5634765625,5.0849609375,-1.9619140625
0.0495,-4.8046875,5.2451171875,-0.9609375
0.05,-4.9248046875,4.4443359375,0.080078125
0.0505,-5.4453125,4.2041015625,0.7607421875
0.051,-5.4453125,3.203125,1.7216796875
0.0515,-5.525390625,2.5625,2.482421875
0.052,-5.4853515625,1.5615234375,3.4833984375
0.0525,-5.4453125,0.6806640625,4.244140625
0.053,-4.4443359375,-0.640625,4.484375
0.0535,-4.2041015625,-1.4013671875,5.0048828125
0.054,-2.8828125,-2.6826171875,4.9248046875
0.0545,-2.40234375,-3.36328125,5.0849609375
0.055,-1.2412109375,-4.5244140625,5.0849609375
0.0555,-0.2802734375,-4.8447265625,4.484375
0.056,0.6005859375,-5.205078125,3.9638671875
0.0565,1.5615234375,-5.525390625,3.2431640625
0.057,2.6826171875,-5.60546875,2.2421875
0.0575,3.4033203125,-5.6455078125,1.5615234375
0.058,4.404296875,-5.60546875,0.6005859375
0.0585,4.4443359375,-4.6845703125,-0.3603515625
0.059,4.8447265625,-4.5244140625,-0.9208984375
0.0595,4.8046875,-3.36328125,-1.9619140625
0.06,4.884765625,-2.8427734375,-2.6025390625
0.0605,4.8447265625,-1.841796875,-3.5634765625
0.061,4.6044921875,-1.0009765625,-4.1640625
0.0615,3.7236328125,0.240234375,-4.404296875
0.062,3.4033203125,0.9609375,-4.8046875
0.0625,2.2421875,2.162109375,-4.8046875
0.063,1.841796875,2.72265625,-4.96484375
0.0635,0.7607421875,3.84375,-4.96484375
0.064,-0.2802734375,4.1240234375,-4.2041015625
0.0645,-1.0009765625,4.484375,-3.923828125
0.065,-2.1220703125,4.724609375,-3.0830078125
0.0655,-3.04296875,4.8447265625,-2.2822265625
0.066,-3.84375,4.9248046875,-1.4814453125
0.0665,-4.64453125,4.8447265625,-0.640625
0.067,-4.724609375,3.9638671875,0.2802734375
0.0675,-5.125,3.84375,0.80078125
0.068,-5.1650390625,2.6826171875,2.001953125
0.0685,-5.28515625,2.2421875,2.5224609375
0.069,-5.205078125,1.2412109375,3.5234375
0.0695,-4.7646484375,0.3203125,3.923828125
0.07,-4.0439453125,-0.80078125,4.2841796875
0.0705,-3.5634765625,-1.6416015625,4.6044921875
0.071,-2.5224609375,-2.802734375,4.6845703125
0.0715,-2.001953125,-3.36328125,4.6845703125
0.072,-1.041015625,-4.244140625,4.6044921875
0.0725,0.0,-4.5244140625,3.84375
0.073,0.560546875,-4.9248046875,3.6435546875
0.0735,1.841796875,-5.125,2.5625
0.074,2.5224609375,-5.205078125,2.08203125
0.0745,3.283203125,-5.125,1.2412109375
0.075,3.84375,-4.96484375,0.560546875
0.0755,3.8837890625,-4.1640625,-0.3203125
0.076,4.2841796875,-4.00390625,-0.8408203125
0.0765,4.32421875,-2.962890625,-1.921875
0.077,4.3642578125,-2.6025390625,-2.322265625
0.0775,4.404296875,-1.681640625,-3.2431640625
0.078,3.8037109375,-0.80078125,-3.5634765625
0.0785,3.4033203125,0.1201171875,-3.9638671875
0.079,2.72265625,1.0009765625,-4.1640625
0.0795,2.08203125,1.921875,-4.4443359375
0.08,1.5615234375,2.5224609375,-4.4443359375
0.0805,0.7607421875,3.203125,-4.3642578125
0.081,-0.2001953125,3.443359375,-3.68359375
0.0815,-0.8408203125,3.9638671875,-3.603515625
0.082,-2.08203125,4.1640625,-2.5224609375
0.0825,-2.642578125,4.484375,-2.2421875
0.083,-3.4833984375,4.404296875,-1.361328125
0.0835,-3.8837890625,4.1240234375,-0.6806640625
0.084,-4.1640625,3.6435546875,0.1201171875
0.0845,-4.484375,3.2431640625,0.720703125
0.085,-4.64453125,2.482421875,1.7216796875
0.0855,-4.64453125,1.9619140625,2.2021484375
0.086,-4.6845703125,1.201171875,3.04296875
0.0865,-3.9638671875,0.16015625,3.2431640625
0.087,-3.8037109375,-0.640625,3.84375
0.0875,-2.8828125,-1.681640625,3.9638671875
0.088,-2.5224609375,-2.40234375,4.2841796875
0.0885,-1.76171875,-3.0830078125,4.1240234375
0.089,-1.041015625,-3.68359375,3.9638671875
0.0895,-0.16015625,-3.84375,3.36328125
0.09,0.48046875,-4.3642578125,3.203125
0.0905,1.6416015625,-4.5244140625,2.2421875
0.091,2.08203125,-4.6845703125,1.9619140625
0.0915,2.8427734375,-4.6044921875,1.201171875
0.092,3.04296875,-4.2041015625,0.560546875
0.0925,3.443359375,-3.923828125,-0.080078125
0.093,3.5634765625,-3.36328125,-0.80078125
0.0935,3.8837890625,-2.9228515625,-1.5615234375
0.094,3.84375,-2.2822265625,-2.08203125
0.0945,3.8837890625,-1.681640625,-2.72265625
0.095,3.1630859375,-0.6806640625,-2.962890625
0.0955,3.1630859375,0.0,-3.5634765625
0.096,2.2822265625,1.0009765625,-3.68359375
0.0965,2.2021484375,1.4814453125,-4.1240234375
0.097,1.3212890625,2.2021484375,-4.00390625
0.0975,0.720703125,2.6826171875,-3.8037109375
0.098,-0.1201171875,3.04296875,-3.4033203125
0.0985,-0.9208984375,3.5234375,-3.04296875
0.099,-1.8818359375,3.84375,-2.40234375
0.0995,-2.40234375,3.9638671875,-2.001953125
0.1,-3.0830078125,3.9638671875,-1.361328125
0.1005,-3.283203125,3.5234375,-0.6806640625
0.101,-3.8037109375,3.443359375,-0.1201171875
0.1015,-3.923828125,2.6826171875,0.7607421875
0.102,-4.32421875,2.482421875,1.361328125
0.1025,-4.1640625,1.7216796875,2.0419921875
0.103,-4.1640625,1.12109375,2.5625
0.1035,-3.5234375,0.0400390625,2.9228515625
0.104,-3.36328125,-0.640625,3.443359375
0.1045,-2.6025390625,-1.681640625,3.6435546875
0.105,-2.40234375,-2.162109375,3.8837890625
0.1055,-1.6015625,-2.802734375,3.8037109375
0.106,-1.0009765625,-3.123046875,3.443359375
0.1065,-0.3203125,-3.5634765625,3.203125
0.107,0.6005859375,-3.8837890625,2.642578125
0.1075,1.3212890625,-4.244140625,2.2822265625
0.108,1.921875,-4.2041015625,1.7216796875
0.1085,2.40234375,-4.244140625,1.28125
0.109,2.6025390625,-3.7236328125,0.560546875
0.1095,3.0830078125,-3.7236328125,0.080078125
0.11,3.2431640625,-3.04296875,-0.80078125
0.1105,3.5634765625,-2.8828125,-1.28125
0.111,3.5234375,-2.1220703125,-1.9619140625
0.1115,3.36328125,-1.5615234375,-2.322265625
0.112,2.962890625,-0.640625,-2.8828125
0.1125,2.6826171875,0.0400390625,-3.283203125
0.113,2.2421875,0.9208984375,-3.7236328125
0.1135,1.9619140625,1.4013671875,-3.8037109375
0.114,1.2412109375,2.162109375,-3.8037109375
0.1145,0.48046875,2.482421875,-3.36328125
0.115,-0.2001953125,3.123046875,-3.283203125
0.1155,-1.2412109375,3.36328125,-2.6025390625
0.116,-1.8818359375,3.8037109375,-2.3623046875
0.1165,-2.4423828125,3.68359375,-1.6416015625
0.117,-2.9228515625,3.68359375,-1.2412109375
0.1175,-3.203125,3.2431640625,-0.48046875
0.118,-3.6435546875,3.04296875,0.1201171875
0.1185,-3.923828125,2.4423828125,1.0009765625
0.119,-4.083984375,2.08203125,1.4814453125
0.1195,-4.083984375,1.3212890625,2.2421875
0.12,-3.603515625,0.560546875,2.5625
0.1205,-3.36328125,-0.3603515625,3.0830078125
0.121,-2.7626953125,-1.201171875,3.36328125
0.1215,-2.4423828125,-1.8818359375,3.763671875
0.122,-1.8818359375,-2.3623046875,3.5634765625
0.1225,-1.28125,-2.9228515625,3.603515625
0.123,-0.5205078125,-3.203125,3.0830078125
0.1235,0.16015625,-3.7236328125,2.962890625
0.124,1.201171875,-4.00390625,2.2421875
0.1245,1.7216796875,-4.2041015625,1.921875
0.125,2.2421875,-4.083984375,1.2412109375
0.1255,2.5224609375,-3.8837890625,0.80078125
0.126,2.8828125,-3.5634765625,0.16015625
0.1265,3.1630859375,-3.203125,-0.5205078125
0.127,3.4833984375,-2.802734375,-1.28125
0.1275,3.443359375,-2.2822265625,-1.681640625
0.128,3.5234375,-1.681640625,-2.40234375
0.1285,2.8828125,-0.80078125,-2.6826171875
0.129,2.8427734375,-0.16015625,-3.2431640625
0.1295,2.162109375,0.880859375,-3.4833984375
0.13,2.001953125,1.4013671875,-3.8837890625
0.1305,1.2412109375,2.0419921875,-3.68359375
0.131,0.6806640625,2.5625,-3.603515625
0.1315,-0.2001953125,2.8828125,-3.1630859375
0.132,-1.0009765625,3.443359375,-2.8828125
0.1325,-1.9619140625,3.763671875,-2.2021484375
0.133,-2.4423828125,3.8037109375,-1.76171875
0.1335,-3.0830078125,3.763671875,-1.12109375
0.134,-3.3232421875,3.3232421875,-0.5205078125
0.1345,-3.8037109375,3.1630859375,0.2001953125
0.135,-3.9638671875,2.482421875,1.041015625
0.1355,-4.2841796875,2.08203125,1.7216796875
0.136,-4.1240234375,1.1611328125,2.2021484375
0.1365,-4.00390625,0.560546875,2.8427734375
0.137,-3.203125,-0.5205078125,3.0830078125
0.1375,-3.0830078125,-1.12109375,3.603515625
0.138,-2.2822265625,-2.162109375,3.84375
0.1385,-1.8818359375,-2.6025390625,3.8837890625
0.139,-1.12109375,-3.203125,3.6435546875
0.1395,-0.4404296875,-3.5634765625,3.3232421875
0.14,0.3603515625,-3.8837890625,2.8828125
0.1405,1.28125,-4.244140625,2.3623046875
0.141,2.2021484375,-4.5244140625,1.7216796875
0.1415,2.5625,-4.2041015625,1.0810546875
0.142,3.0830078125,-4.2041015625,0.560546875
0.1425,3.123046875,-3.5634765625,-0.16015625
0.143,3.5234375,-3.36328125,-0.720703125
0.1435,3.68359375,-2.5625,-1.6416015625
0.144,3.763671875,-2.322265625,-2.2421875
0.1445,3.4833984375,-1.3212890625,-2.72265625
0.145,3.3232421875,-0.6806640625,-3.3232421875
0.1455,2.6025390625,0.3203125,-3.4033203125
0.146,2.3623046875,1.041015625,-3.84375
0.1465,1.6015625,2.0419921875,-4.1240234375
0.147,1.0810546875,2.40234375,-3.923828125
0.1475,0.3203125,3.0830078125,-3.8037109375
0.148,-0.48046875,3.3232421875,-3.283203125
0.1485,-1.28125,3.763671875,-2.8828125
0.149,-2.322265625,4.0439453125,-2.162109375
0.1495,-3.203125,4.32421875,-1.521484375
0.15,-3.5234375,3.84375,-0.720703125
0.1505,-4.0439453125,3.84375,-0.2001953125
0.151,-4.1640625,3.04296875,0.640625
0.1515,-4.484375,2.6826171875,1.28125
0.152,-4.724609375,1.76171875,2.2822265625
0.1525,-4.564453125,1.1611328125,2.8427734375
0.153,-4.244140625,0.0400390625,3.443359375
0.1535,-3.7236328125,-0.6806640625,3.84375
0.154,-2.962890625,-1.6416015625,4.00390625
0.1545,-2.4423828125,-2.482421875,4.2841796875
0.155,-1.6015625,-3.5634765625,4.484375
0.1555,-0.7607421875,-3.8037109375,3.8837890625
0.156,-0.1201171875,-4.3642578125,3.8037109375
0.1565,0.9208984375,-4.5244140625,2.962890625
0.157,1.7216796875,-4.8046875,2.482421875
0.1575,2.802734375,-5.0048828125,1.5615234375
0.158,3.5234375,-4.9248046875,0.8408203125
0.1585,3.7236328125,-4.32421875,0.0
0.159,4.1240234375,-4.1640625,-0.5205078125
0.1595,4.083984375,-3.203125,-1.44140625
0.16,4.32421875,-2.802734375,-2.08203125
0.1605,4.484375,-1.9619140625,-3.1630859375
0.161,3.923828125,-1.1611328125,-3.5234375
0.1615,3.6435546875,-0.16015625,-3.9638671875
0.162,3.0029296875,0.7607421875,-4.1640625
0.1625,2.2822265625,1.6416015625,-4.3642578125
0.163,1.6416015625,2.5224609375,-4.5244140625
0.1635,0.80078125,3.443359375,-4.64453125
0.164,-0.16015625,3.68359375,-3.8837890625
0.1645,-0.80078125,4.2041015625,-3.84375
0.165,-1.9619140625,4.404296875,-2.7626953125
0.1655,-2.72265625,4.6044921875,-2.322265625
0.166,-3.84375,4.8046875,-1.3212890625
0.1665,-4.4443359375,4.564453125,-0.6005859375
0.167,-4.64453125,3.923828125,0.2802734375
0.1675,-5.044921875,3.6435546875,0.9208984375
0.168,-5.125,2.6025390625,2.001953125
0.1685,-5.1650390625,2.0419921875,2.6025390625
0.169,-5.3251953125,1.0810546875,3.7236328125
0.1695,-4.6044921875,0.0400390625,4.00390625
0.17,-4.1640625,-0.9609375,4.5244140625
0.1705,-3.283203125,-2.08203125,4.724609375
0.171,-2.4423828125,-3.0830078125,4.8447265625
0.1715,-1.6416015625,-3.84375,4.8447265625
0.172,-0.6806640625,-4.7646484375,4.8046875
0.1725,0.3603515625,-4.8447265625,3.84375
0.173,1.041015625,-5.365234375,3.6435546875
0.1735,2.5224609375,-5.4453125,2.322265625
0.174,3.123046875,-5.4853515625,1.76171875
0.1745,4.1240234375,-5.4453125,0.7607421875
0.175,4.484375,-5.044921875,0.0
0.1755,4.6044921875,-4.2841796875,-0.9208984375
0.176,4.8447265625,-3.84375,-1.6416015625
0.1765,4.8447265625,-2.72265625,-2.802734375
0.177,4.724609375,-2.1220703125,-3.203125
0.1775,4.8046875,-1.12109375,-4.2041015625
0.178,3.8837890625,0.0,-4.3642578125
0.1785,3.4833984375,0.80078125,-4.724609375
0.179,2.40234375,2.0419921875,-4.8447265625
0.1795,1.681640625,2.8828125,-4.96484375
0.18,0.9208984375,3.5634765625,-4.8447265625
0.1805,-0.080078125,4.404296875,-4.64453125
0.181,-1.12109375,4.484375,-3.7236328125
0.1815,-1.8017578125,4.96484375,-3.4833984375
0.182,-3.2431640625,5.044921875,-2.2021484375
0.1825,-3.8037109375,5.044921875,-1.6416015625
0.183,-4.7646484375,4.96484375,-0.640625
0.1835,-5.0849609375,4.4443359375,0.240234375
0.184,-5.2451171875,3.763671875,1.0009765625
0.1845,-5.4853515625,3.123046875,1.8818359375
0.185,-5.60546875,2.0419921875,3.0029296875
0.1855,-5.365234375,1.4013671875,3.443359375
0.186,-5.4052734375,0.400390625,4.4443359375
0.1865,-4.2841796875,-0.8408203125,4.5244140625
0.187,-3.923828125,-1.7216796875,5.0048828125
0.1875,-2.72265625,-3.0830078125,5.0849609375
0.188,-1.9619140625,-3.8837890625,5.1650390625
0.1885,-1.0009765625,-4.564453125,4.8447265625
0.189,0.0,-5.28515625,4.5244140625
0.1895,1.0009765625,-5.28515625,3.5634765625
0.19,1.8818359375,-5.7255859375,3.203125
0.1905,3.3232421875,-5.765625,1.841796875
0.191,3.763671875,-5.6455078125,1.28125
0.1915,4.564453125,-5.4052734375,0.2001953125
0.192,4.8046875,-4.7646484375,-0.640625
0.1925,4.8447265625,-4.0439453125,-1.44140625
0.193,5.0048828125,-3.2431640625,-2.40234375
0.1935,5.0849609375,-2.2822265625,-3.36328125
0.194,4.64453125,-1.521484375,-3.68359375
0.1945,4.564453125,-0.560546875,-4.5244140625
0.195,3.443359375,0.640625,-4.5244140625
0.1955,3.0830078125,1.4013671875,-4.884765625
0.196,1.8818359375,2.72265625,-4.96484375
0.1965,1.3212890625,3.3232421875,-5.0048828125
0.197,0.3203125,3.9638671875,-4.6044921875
0.1975,-0.6005859375,4.484375,-4.244140625
0.198,-1.5615234375,4.564453125,-3.36328125
0.1985,-2.4423828125,4.96484375,-2.9228515625
0.199,-3.7236328125,5.0849609375,-1.76171875
0.1995,-4.1240234375,4.8447265625,-1.201171875
0.2,-4.884765625,4.64453125,-0.2802734375
0.2005,-5.0048828125,3.8837890625,0.6005859375
0.201,-5.205078125,3.4033203125,1.28125
0.2015,-5.365234375,2.5224609375,2.3623046875
0.202,-5.4853515625,1.8017578125,3.1630859375
0.2025,-5.0048828125,0.880859375,3.603515625
0.203,-4.884765625,0.0,4.404296875
0.2035,-3.7236328125,-1.28125,4.484375
0.204,-3.4833984375,-2.001953125,4.8447265625
0.2045,-2.2021484375,-3.36328125,4.9248046875
0.205,-1.681640625,-3.8837890625,4.884765625
0.2055,-0.6005859375,-4.5244140625,4.4443359375
0.206,0.2802734375,-4.96484375,3.9638671875
0.2065,1.201171875,-5.044921875,3.203125
0.207,2.162109375,-5.365234375,2.6025390625
0.2075,3.3232421875,-5.525390625,1.5615234375
0.208,3.603515625,-5.1650390625,0.880859375
0.2085,4.2841796875,-5.0048828125,0.0400390625
0.209,4.2841796875,-4.1240234375,-0.80078125
0.2095,4.5244140625,-3.7236328125,-1.361328125
0.21,4.564453125,-2.6826171875,-2.4423828125
0.2105,4.64453125,-2.2021484375,-3.04296875
0.211,4.1240234375,-1.201171875,-3.4833984375
0.2115,3.923828125,-0.400390625,-4.00390625
0.212,2.8828125,0.7607421875,-4.083984375
0.2125,2.642578125,1.4013671875,-4.484375
0.213,1.6015625,2.5625,-4.564453125
0.2135,1.2412109375,2.8828125,-4.484375
0.214,0.240234375,3.5634765625,-4.1640625
0.2145,-0.640625,3.84375,-3.603515625
0.215,-1.4013671875,4.1640625,-3.1630859375
0.2155,-2.40234375,4.404296875,-2.40234375
0.216,-3.283203125,4.6044921875,-1.7216796875
0.2165,-3.603515625,4.1640625,-1.041015625
0.217,-4.244140625,4.1240234375,-0.400390625
0.2175,-4.2841796875,3.3232421875,0.48046875
0.218,-4.6845703125,3.1630859375,1.0810546875
0.2185,-4.8046875,2.162109375,2.1220703125
0.219,-4.8447265625,1.8017578125,2.5625
0.2195,-4.484375,0.7607421875,3.203125
0.22,-4.1640625,0.0,3.68359375
0.2205,-3.36328125,-1.2412109375,3.9638671875
0.221,-2.962890625,-1.921875,4.2841796875
0.2215,-2.1220703125,-2.962890625,4.484375
0.222,-1.5615234375,-3.2431640625,4.1640625
0.2225,-0.720703125,-4.00390625,4.00390625
0.223,0.2001953125,-4.1640625,3.3232421875
0.2235,0.9208984375,-4.6044921875,3.04296875
0.224,1.9619140625,-4.8447265625,2.162109375
0.2245,2.6826171875,-5.0048828125,1.6416015625
0.225,3.04296875,-4.5244140625,0.80078125
0.2255,3.5234375,-4.404296875,0.2802734375
0.226,3.5634765625,-3.5634765625,-0.6005859375
0.2265,3.8837890625,-3.36328125,-1.12109375
0.227,4.083984375,-2.5224609375,-2.08203125
0.2275,3.9638671875,-2.08203125,-2.40234375
0.228,3.7236328125,-1.1611328125,-3.0830078125
0.2285,3.1630859375,-0.3603515625,-3.283203125
0.229,2.72265625,0.5205078125,-3.7236328125
