wavelength,x,y,z
0.0,21.310791015625,-21.771240234375,0.290283203125
0.0005,23.472900390625,-19.368896484375,-4.354248046875
0.001,23.873291015625,-15.445068359375,-8.598388671875
0.0015,24.634033203125,-11.801513671875,-13.042724609375
0.002,23.673095703125,-7.477294921875,-16.285888671875
0.0025,22.912353515625,-3.993896484375,-18.928466796875
0.003,20.429931640625,1.051025390625,-21.410888671875
0.0035,18.307861328125,5.935791015625,-24.173583984375
0.004,13.583251953125,10.540283203125,-24.053466796875
0.0045,9.659423828125,14.824462890625,-24.373779296875
0.005,6.135986328125,17.627197265625,-23.693115234375
0.0055,0.810791015625,20.510009765625,-21.410888671875
0.006,-3.793701171875,22.511962890625,-18.928466796875
0.0065,-9.038818359375,24.033447265625,-15.244873046875
0.007,-13.122802734375,24.273681640625,-11.521240234375
0.0075,-17.006591796875,23.913330078125,-7.357177734375
0.008,-19.408935546875,23.152587890625,-4.194091796875
0.0085,-22.171630859375,20.790283203125,0.770751953125
0.009,-24.333740234375,18.227783203125,5.455322265625
0.0095,-24.053466796875,13.503173828125,9.859619140625
0.01,-24.854248046875,10.099853515625,14.103759765625
0.0105,-23.813232421875,5.935791015625,17.146728515625
0.011,-22.411865234375,1.771728515625,19.909423828125
0.0115,-20.009521484375,-3.072998046875,22.271728515625
0.012,-17.006591796875,-8.398193359375,24.593994140625
0.0125,-12.322021484375,-12.682373046875,24.193603515625
0.013,-8.197998046875,-16.886474609375,24.273681640625
0.0135,-4.634521484375,-19.088623046875,22.952392578125
0.014,0.970947265625,-22.051513671875,20.469970703125
0.0145,5.495361328125,-23.853271484375,17.827392578125
0.015,10.980712890625,-24.654052734375,13.262939453125
0.0155,14.704345703125,-24.854248046875,9.859619140625
0.016,18.387939453125,-24.253662109375,5.575439453125
0.0165,20.670166015625,-22.892333984375,1.931884765625
0.017,23.192626953125,-20.289794921875,-3.153076171875
0.0175,24.954345703125,-17.126708984375,-8.077880859375
0.018,24.233642578125,-12.201904296875,-12.201904296875
0.0185,24.834228515625,-8.958740234375,-16.005615234375
0.019,23.432861328125,-4.994873046875,-18.568115234375
0.0195,21.671142578125,-0.190185546875,-21.490966796875
0.02,19.068603515625,4.614501953125,-23.572998046875
0.0205,15.104736328125,10.219970703125,-25.214599609375
0.021,10.660400390625,13.943603515625,-24.533935546875
0.0215,6.536376953125,17.867431640625,-24.333740234375
0.022,2.492431640625,19.829345703125,-22.291748046875
0.0225,-2.872802734375,22.712158203125,-19.929443359375
0.023,-7.837646484375,24.313720703125,-16.686279296875
0.0235,-12.802490234375,24.473876953125,-12.001708984375
0.024,-16.165771484375,24.593994140625,-8.878662109375
0.0245,-19.569091796875,23.432861328125,-4.434326171875
0.025,-21.851318359375,21.711181640625,-0.430419921875
0.0255,-23.893310546875,19.108642578125,4.174072265625
0.026,-25.214599609375,15.344970703125,9.299072265625
0.0265,-24.293701171875,10.540283203125,13.142822265625
0.027,-24.654052734375,7.257080078125,16.706298828125
0.0275,-22.732177734375,2.892822265625,19.148681640625
0.028,-20.930419921875,-1.991943359375,22.111572265625
0.0285,-18.007568359375,-6.716552734375,23.873291015625
0.029,-13.723388671875,-12.041748046875,24.874267578125
0.0295,-9.639404296875,-15.445068359375,24.233642578125
0.03,-5.315185546875,-18.968505859375,23.552978515625
0.0305,-0.910888671875,-20.930419921875,21.110595703125
0.031,3.973876953125,-23.452880859375,18.948486328125
0.0315,9.259033203125,-24.654052734375,14.944580078125
0.032,13.743408203125,-24.413818359375,10.380126953125
0.0325,17.026611328125,-24.854248046875,7.497314453125
0.033,20.109619140625,-23.092529296875,2.772705078125
0.0335,22.431884765625,-21.210693359375,-1.511474609375
0.034,23.913330078125,-18.367919921875,-5.755615234375
0.0345,24.834228515625,-14.083740234375,-10.880615234375
0.035,23.953369140625,-9.559326171875,-14.524169921875
0.0355,24.073486328125,-6.356201171875,-17.807373046875
0.036,21.831298828125,-1.951904296875,-19.929443359375
0.0365,20.189697265625,2.732666015625,-22.852294921875
0.037,16.466064453125,7.657470703125,-24.053466796875
0.0375,12.021728515625,12.622314453125,-24.614013671875
0.038,8.298095703125,15.985595703125,-24.253662109375
0.0385,3.653564453125,19.148681640625,-22.732177734375
0.039,-0.990966796875,21.190673828125,-20.369873046875
0.0395,-5.395263671875,23.392822265625,-18.247802734375
0.04,-10.760498046875,24.273681640625,-13.803466796875
0.0405,-14.684326171875,23.633056640625,-9.399169921875
0.041,-17.887451171875,24.073486328125,-6.716552734375
0.0415,-20.690185546875,21.911376953125,-1.871826171875
0.042,-23.092529296875,19.869384765625,2.692626953125
0.0425,-23.973388671875,16.666259765625,6.696533203125
0.043,-24.734130859375,12.502197265625,11.581298828125
0.0435,-23.973388671875,8.298095703125,15.024658203125
0.044,-23.572998046875,4.614501953125,18.227783203125
0.0445,-21.170654296875,-0.110107421875,20.550048828125
0.045,-19.529052734375,-4.834716796875,23.472900390625
0.0455,-15.124755859375,-9.759521484375,24.033447265625
0.046,-10.760498046875,-14.163818359375,24.073486328125
0.0465,-7.517333984375,-17.286865234375,23.993408203125
0.047,-2.192138671875,-20.289794921875,21.751220703125
0.0475,2.412353515625,-22.411865234375,19.388916015625
0.048,7.177001953125,-24.173583984375,16.506103515625
0.0485,12.181884765625,-24.934326171875,12.302001953125
0.049,15.985595703125,-24.093505859375,7.737548828125
0.0495,18.948486328125,-24.133544921875,4.814697265625
0.05,21.631103515625,-21.731201171875,-0.150146484375
0.0505,24.033447265625,-19.489013671875,-4.754638671875
0.051,24.033447265625,-15.324951171875,-8.918701171875
0.0515,24.674072265625,-11.321044921875,-13.483154296875
0.052,23.833251953125,-7.397216796875,-16.606201171875
0.0525,22.752197265625,-3.153076171875,-19.649169921875
0.053,20.309814453125,1.571533203125,-21.811279296875
0.0535,18.107666015625,6.376220703125,-24.373779296875
0.054,13.423095703125,11.140869140625,-24.453857421875
0.0545,8.818603515625,15.264892578125,-23.973388671875
0.055,5.655517578125,17.987548828125,-23.653076171875
0.0555,0.010009765625,20.870361328125,-20.930419921875
0.056,-4.394287109375,22.912353515625,-18.728271484375
0.0565,-9.198974609375,23.673095703125,-14.764404296875
0.057,-13.443115234375,24.273681640625,-11.240966796875
0.0575,-17.006591796875,23.392822265625,-6.956787109375
0.058,-19.689208984375,22.712158203125,-3.553466796875
0.0585,-22.051513671875,20.189697265625,1.291259765625
0.059,-24.213623046875,17.947509765625,5.735595703125
0.0595,-23.693115234375,13.383056640625,9.739501953125
0.06,-24.053466796875,9.539306640625,13.943603515625
0.0605,-23.412841796875,6.135986328125,16.626220703125
0.061,-21.651123046875,1.291259765625,19.629150390625
0.0615,-19.529052734375,-3.113037109375,21.831298828125
0.062,-16.486083984375,-7.957763671875,23.552978515625
0.0625,-12.362060546875,-12.201904296875,23.753173828125
0.063,-7.837646484375,-16.005615234375,23.032470703125
0.0635,-4.834716796875,-18.247802734375,22.271728515625
0.064,0.650634765625,-20.930419921875,19.629150390625
0.0645,5.094970703125,-23.172607421875,17.547119140625
0.065,9.859619140625,-23.212646484375,12.902587890625
0.0655,13.703369140625,-23.853271484375,9.739501953125
0.066,16.826416015625,-23.052490234375,6.015869140625
0.0665,19.428955078125,-21.851318359375,2.252197265625
0.067,21.551025390625,-19.368896484375,-2.312255859375
0.0675,23.192626953125,-16.646240234375,-6.756591796875
0.068,22.752197265625,-12.362060546875,-10.560302734375
0.0685,22.752197265625,-8.558349609375,-14.364013671875
0.069,22.271728515625,-5.795654296875,-16.526123046875
0.0695,20.229736328125,-0.910888671875,-19.408935546875
0.07,18.427978515625,3.333251953125,-21.731201171875
0.0705,14.624267578125,8.017822265625,-22.572021484375
0.071,11.100830078125,11.901611328125,-22.972412109375
0.0715,6.896728515625,15.385009765625,-22.251708984375
0.072,3.373291015625,17.587158203125,-21.010498046875
0.0725,-1.311279296875,19.909423828125,-18.728271484375
0.073,-6.035888671875,22.151611328125,-16.365966796875
0.0735,-10.199951171875,21.831298828125,-12.161865234375
0.074,-13.843505859375,22.471923828125,-9.078857421875
0.0745,-16.486083984375,21.831298828125,-5.835693359375
0.075,-19.208740234375,20.469970703125,-1.751708984375
0.0755,-21.250732421875,18.227783203125,2.492431640625
0.076,-22.411865234375,14.984619140625,6.856689453125
0.0765,-22.411865234375,11.220947265625,10.580322265625
0.077,-22.211669921875,7.497314453125,14.103759765625
0.0775,-21.490966796875,4.494384765625,16.345947265625
0.078,-19.689208984375,-0.350341796875,19.268798828125
0.0785,-17.607177734375,-5.074951171875,21.871337890625
0.079,-13.403076171875,-9.559326171875,22.071533203125
0.0795,-10.159912109375,-13.242919921875,22.592041015625
0.08,-6.276123046875,-16.245849609375,21.751220703125
0.0805,-2.112060546875,-18.768310546875,20.149658203125
0.081,2.332275390625,-21.010498046875,18.027587890625
0.0815,7.737548828125,-23.012451171875,14.704345703125
0.082,11.501220703125,-22.612060546875,10.740478515625
0.0825,15.304931640625,-23.132568359375,7.537353515625
0.083,17.667236328125,-21.971435546875,4.053955078125
0.0835,20.630126953125,-20.369873046875,-0.510498046875
0.084,22.431884765625,-17.767333984375,-4.874755859375
0.0845,23.072509765625,-13.723388671875,-9.559326171875
0.085,23.112548828125,-10.199951171875,-13.122802734375
0.0855,22.632080078125,-6.316162109375,-16.406005859375
0.086,21.270751953125,-2.632568359375,-18.728271484375
0.0865,19.468994140625,2.212158203125,-21.651123046875
0.087,16.305908203125,7.537353515625,-23.813232421875
0.0875,11.661376953125,11.821533203125,-23.452880859375
0.088,8.378173828125,15.505126953125,-23.813232421875
0.0885,3.653564453125,18.307861328125,-21.971435546875
0.089,-1.151123046875,21.110595703125,-20.089599609375
0.0895,-5.515380859375,22.912353515625,-17.727294921875
0.09,-11.160888671875,24.353759765625,-13.523193359375
0.0905,-14.644287109375,23.593017578125,-9.359130859375
0.091,-18.407958984375,23.753173828125,-5.875732421875
0.0915,-20.850341796875,21.791259765625,-1.471435546875
0.092,-23.693115234375,19.709228515625,3.373291015625
0.0925,-24.694091796875,16.345947265625,7.737548828125
0.093,-24.974365234375,11.781494140625,12.542236328125
0.0935,-24.614013671875,8.177978515625,15.825439453125
0.094,-23.372802734375,3.373291015625,19.228759765625
0.0945,-21.290771484375,-1.151123046875,21.631103515625
0.095,-19.168701171875,-5.955810546875,24.273681640625
0.0955,-14.924560546875,-11.481201171875,25.554931640625
0.096,-9.919677734375,-15.485107421875,24.593994140625
0.0965,-6.556396484375,-18.928466796875,24.593994140625
0.097,-0.910888671875,-21.651123046875,21.791259765625
0.0975,4.053955078125,-24.213623046875,19.509033203125
0.098,8.738525390625,-25.334716796875,16.145751953125
0.0985,14.223876953125,-26.255615234375,11.661376953125
0.099,17.627197265625,-25.094482421875,7.217041015625
0.0995,21.110595703125,-24.493896484375,3.133056640625
0.1,23.352783203125,-21.891357421875,-1.631591796875
0.1005,25.875244140625,-19.529052734375,-6.516357421875
0.101,25.915283203125,-15.084716796875,-11.040771484375
0.1015,25.875244140625,-10.360107421875,-15.605224609375
0.102,25.274658203125,-6.836669921875,-18.488037109375
0.1025,23.192626953125,-1.511474609375,-21.651123046875
0.103,20.870361328125,3.133056640625,-23.933349609375
0.1035,18.027587890625,8.137939453125,-26.015380859375
0.104,13.423095703125,13.423095703125,-26.696044921875
0.1045,8.057861328125,17.266845703125,-25.294677734375
0.105,4.494384765625,20.309814453125,-24.774169921875
0.1055,-1.631591796875,22.952392578125,-21.531005859375
0.106,-6.356201171875,25.434814453125,-19.288818359375
0.1065,-11.240966796875,25.675048828125,-14.764404296875
0.107,-15.965576171875,26.235595703125,-10.720458984375
0.1075,-19.248779296875,25.154541015625,-6.436279296875
0.108,-22.451904296875,23.793212890625,-1.871826171875
0.1085,-24.614013671875,20.870361328125,3.173095703125
0.109,-26.776123046875,18.267822265625,7.897705078125
0.1095,-26.295654296875,13.423095703125,12.261962890625
0.11,-25.975341796875,8.698486328125,16.626220703125
0.1105,-25.294677734375,5.375244140625,19.228759765625
0.111,-22.692138671875,-0.590576171875,22.431884765625
0.1115,-20.409912109375,-5.235107421875,24.834228515625
0.112,-16.526123046875,-10.400146484375,25.995361328125
0.1125,-12.281982421875,-15.124755859375,26.475830078125
0.113,-7.076904296875,-18.848388671875,24.994384765625
0.1135,-3.193115234375,-21.490966796875,23.833251953125
0.114,2.812744140625,-23.933349609375,20.550048828125
0.1145,7.697509765625,-26.375732421875,18.227783203125
0.115,12.782470703125,-25.975341796875,12.822509765625
0.1155,16.986572265625,-26.335693359375,9.098876953125
0.116,19.989501953125,-25.334716796875,5.094970703125
0.1165,23.072509765625,-23.412841796875,0.130126953125
0.117,25.154541015625,-20.369873046875,-4.994873046875
0.1175,26.756103515625,-17.126708984375,-9.799560546875
0.118,26.195556640625,-12.322021484375,-14.043701171875
0.1185,25.594970703125,-7.717529296875,-17.967529296875
0.119,24.634033203125,-4.474365234375,-20.209716796875
0.1195,21.911376953125,1.571533203125,-23.452880859375
0.12,19.549072265625,6.416259765625,-25.895263671875
0.1205,14.744384765625,11.661376953125,-26.255615234375
0.121,10.780517578125,15.865478515625,-26.535888671875
0.1215,5.695556640625,19.388916015625,-25.134521484375
0.122,1.091064453125,21.951416015625,-23.092529296875
0.1225,-4.514404296875,24.313720703125,-20.009521484375
0.123,-9.919677734375,26.595947265625,-17.006591796875
0.1235,-14.404052734375,25.755126953125,-11.801513671875
0.124,-18.327880859375,25.955322265625,-8.077880859375
0.1245,-21.010498046875,24.593994140625,-4.114013671875
0.125,-24.173583984375,22.431884765625,1.211181640625
0.1255,-26.015380859375,19.268798828125,6.216064453125
0.126,-27.016357421875,15.184814453125,11.220947265625
0.1265,-26.495849609375,10.700439453125,15.184814453125
0.127,-25.655029296875,6.095947265625,18.908447265625
0.1275,-24.053466796875,2.252197265625,21.070556640625
0.128,-21.490966796875,-3.673583984375,24.313720703125
0.1285,-18.528076171875,-9.078857421875,26.635986328125
0.129,-13.122802734375,-14.083740234375,26.275634765625
0.1295,-9.479248046875,-17.847412109375,26.355712890625
0.13,-4.514404296875,-20.850341796875,24.634033203125
0.1305,0.690673828125,-23.452880859375,22.151611328125
0.131,5.895751953125,-25.534912109375,19.148681640625
0.1315,11.981689453125,-27.416748046875,15.024658203125
0.132,15.945556640625,-26.335693359375,10.099853515625
0.1325,19.789306640625,-26.415771484375,6.376220703125
0.133,22.151611328125,-24.293701171875,1.931884765625
0.1335,25.234619140625,-21.931396484375,-3.473388671875
0.134,26.635986328125,-18.447998046875,-8.358154296875
0.1345,26.916259765625,-13.603271484375,-13.443115234375
0.135,26.395751953125,-9.559326171875,-16.966552734375
0.1355,25.274658203125,-4.994873046875,-20.329833984375
0.136,23.032470703125,-0.670654296875,-22.331787109375
0.1365,20.550048828125,4.694580078125,-25.134521484375
0.137,16.706298828125,10.460205078125,-27.056396484375
0.1375,11.301025390625,14.904541015625,-26.175537109375
0.138,7.777587890625,18.508056640625,-26.215576171875
0.1385,2.532470703125,21.110595703125,-23.693115234375
0.139,-2.712646484375,23.793212890625,-21.210693359375
0.1395,-7.477294921875,25.394775390625,-18.127685546875
0.14,-13.363037109375,26.595947265625,-13.603271484375
0.1405,-16.726318359375,25.474853515625,-9.158935546875
0.141,-20.289794921875,25.234619140625,-5.435302734375
0.1415,-22.451904296875,22.792236328125,-0.950927734375
0.142,-25.174560546875,20.429931640625,4.134033203125
0.1425,-26.255615234375,16.666259765625,8.978759765625
0.143,-26.095458984375,11.821533203125,13.623291015625
0.1435,-25.735107421875,8.258056640625,16.826416015625
0.144,-24.093505859375,3.533447265625,19.869384765625
0.1445,-21.931396484375,-1.071044921875,22.151611328125
0.145,-19.489013671875,-6.035888671875,24.634033203125
0.1455,-15.324951171875,-11.761474609375,26.115478515625
0.146,-10.199951171875,-15.525146484375,24.914306640625
0.1465,-6.956787109375,-18.768310546875,24.954345703125
0.147,-1.791748046875,-21.010498046875,22.071533203125
0.1475,3.173095703125,-23.653076171875,19.869384765625
0.148,8.137939453125,-24.934326171875,16.345947265625
0.1485,13.423095703125,-25.735107421875,11.981689453125
0.149,16.626220703125,-25.014404296875,8.097900390625
0.1495,19.909423828125,-24.213623046875,4.053955078125
0.15,21.911376953125,-21.891357421875,-0.230224609375
0.1505,24.353759765625,-19.609130859375,-4.954833984375
0.151,25.154541015625,-15.405029296875,-9.879638671875
0.1515,24.754150390625,-10.760498046875,-14.083740234375
0.152,24.714111328125,-7.837646484375,-17.006591796875
0.1525,22.672119140625,-3.072998046875,-19.649169921875
0.153,20.830322265625,1.411376953125,-22.251708984375
0.1535,17.987548828125,6.216064453125,-24.213623046875
0.154,13.783447265625,11.781494140625,-25.454833984375
0.1545,9.018798828125,15.344970703125,-24.253662109375
0.155,5.455322265625,18.427978515625,-23.893310546875
0.1555,0.290283203125,20.670166015625,-21.010498046875
0.156,-4.314208984375,23.352783203125,-19.208740234375
0.1565,-9.319091796875,24.073486328125,-15.044677734375
0.157,-13.883544921875,24.553955078125,-11.040771484375
0.1575,-17.006591796875,24.313720703125,-7.717529296875
0.158,-20.129638671875,22.792236328125,-3.233154296875
0.1585,-22.291748046875,20.469970703125,1.291259765625
0.159,-24.253662109375,18.107666015625,5.575439453125
0.1595,-24.774169921875,13.783447265625,10.460205078125
0.16,-24.213623046875,9.178955078125,14.384033203125
0.1605,-24.173583984375,6.256103515625,17.226806640625
0.161,-21.691162109375,1.010986328125,19.909423828125
0.1615,-20.049560546875,-3.513427734375,22.672119140625
0.162,-16.365966796875,-8.278076171875,23.833251953125
0.1625,-12.362060546875,-13.162841796875,24.714111328125
0.163,-7.997802734375,-16.566162109375,23.753173828125
0.1635,-4.033935546875,-19.328857421875,22.552001953125
0.164,1.131103515625,-21.490966796875,19.709228515625
0.1645,5.735595703125,-24.053466796875,17.787353515625
0.165,10.780517578125,-24.333740234375,13.102783203125
0.1655,14.904541015625,-24.413818359375,9.138916015625
0.166,17.787353515625,-24.173583984375,6.135986328125
0.1665,20.710205078125,-22.291748046875,1.331298828125
0.167,22.912353515625,-19.809326171875,-3.273193359375
0.1675,24.193603515625,-16.686279296875,-7.677490234375
0.168,24.674072265625,-12.602294921875,-12.201904296875
0.1685,23.873291015625,-8.197998046875,-15.885498046875
0.169,23.512939453125,-5.155029296875,-18.447998046875
0.1695,20.870361328125,0.130126953125,-21.090576171875
0.17,19.228759765625,4.854736328125,-24.013427734375
0.1705,14.704345703125,9.739501953125,-24.373779296875
0.171,10.740478515625,14.263916015625,-24.974365234375
0.1715,6.656494140625,17.427001953125,-24.053466796875
0.172,1.851806640625,20.229736328125,-22.091552734375
0.1725,-3.153076171875,22.311767578125,-19.368896484375
0.173,-8.238037109375,24.513916015625,-16.566162109375
0.1735,-12.762451171875,24.473876953125,-12.161865234375
0.174,-16.686279296875,24.353759765625,-8.077880859375
0.1745,-19.208740234375,23.552978515625,-4.874755859375
0.175,-22.171630859375,21.430908203125,0.250244140625
0.1755,-24.373779296875,18.748291015625,5.054931640625
0.176,-24.814208984375,14.664306640625,9.579345703125
0.1765,-25.254638671875,10.820556640625,13.783447265625
0.177,-24.253662109375,6.416259765625,17.106689453125
0.1775,-23.012451171875,2.532470703125,19.589111328125
0.178,-20.369873046875,-2.712646484375,22.311767578125
0.1785,-17.927490234375,-7.997802734375,25.034423828125
0.179,-12.962646484375,-12.562255859375,24.634033203125
0.1795,-9.118896484375,-16.566162109375,24.834228515625
0.18,-5.195068359375,-19.088623046875,23.552978515625
0.1805,0.250244140625,-22.051513671875,21.150634765625
