wavelength,x,y,z
0.0,0.2802734375,2.2021484375,-3.36328125
0.0005,1.041015625,1.5615234375,-3.7236328125
0.001,1.76171875,1.0009765625,-3.84375
0.0015,2.0419921875,0.3203125,-3.7236328125
0.002,2.4423828125,0.0,-3.5234375
0.0025,2.6826171875,-0.4404296875,-3.36328125
0.003,2.9228515625,-1.12109375,-3.0830078125
0.0035,3.0029296875,-1.6015625,-2.322265625
0.004,2.9228515625,-2.08203125,-1.681640625
0.0045,2.802734375,-2.2021484375,-1.1611328125
0.005,2.5625,-2.5224609375,-0.6806640625
0.0055,2.40234375,-2.6826171875,-0.16015625
0.006,1.921875,-2.8427734375,0.640625
0.0065,1.361328125,-2.7626953125,1.28125
0.007,0.8408203125,-2.5625,1.7216796875
0.0075,0.48046875,-2.4423828125,2.08203125
0.008,0.0,-2.2421875,2.40234375
0.0085,-0.640625,-2.08203125,2.8427734375
0.009,-1.3212890625,-1.361328125,3.04296875
0.0095,-1.9619140625,-1.0009765625,3.0029296875
0.01,-2.162109375,-0.400390625,2.962890625
0.0105,-2.4423828125,0.0,2.8427734375
0.011,-2.72265625,0.3603515625,2.6025390625
0.0115,-2.9228515625,0.9609375,2.40234375
0.012,-2.962890625,1.521484375,1.8017578125
0.0125,-2.9228515625,1.8818359375,1.2412109375
0.013,-2.8427734375,2.2421875,0.6806640625
0.0135,-2.72265625,2.482421875,0.2001953125
0.014,-2.5625,2.72265625,-0.400390625
0.0145,-2.0419921875,2.8427734375,-1.1611328125
0.015,-1.44140625,2.7626953125,-1.841796875
0.0155,-1.0009765625,2.6025390625,-2.2822265625
0.016,-0.5205078125,2.5224609375,-2.72265625
0.0165,0.0400390625,2.2421875,-3.203125
0.017,0.720703125,1.921875,-3.68359375
0.0175,1.44140625,1.201171875,-3.8837890625
0.018,2.0419921875,0.640625,-3.763671875
0.0185,2.40234375,0.240234375,-3.7236328125
0.019,2.642578125,-0.3203125,-3.603515625
0.0195,3.0029296875,-0.80078125,-3.283203125
0.02,3.1630859375,-1.4814453125,-2.6826171875
0.0205,3.2431640625,-1.9619140625,-2.08203125
0.021,3.0029296875,-2.322265625,-1.44140625
0.0215,2.8427734375,-2.642578125,-0.9208984375
0.022,2.6025390625,-2.8427734375,-0.3203125
0.0225,2.2421875,-3.0029296875,0.4404296875
0.023,1.6015625,-2.962890625,1.2412109375
0.0235,0.9609375,-2.8427734375,1.8818359375
0.024,0.5205078125,-2.6025390625,2.162109375
0.0245,0.080078125,-2.3623046875,2.5224609375
0.025,-0.6806640625,-2.1220703125,2.962890625
0.0255,-1.361328125,-1.4013671875,3.1630859375
0.026,-2.001953125,-0.9208984375,3.3232421875
0.0265,-2.3623046875,-0.3203125,3.04296875
0.027,-2.6025390625,0.1201171875,2.9228515625
0.0275,-2.72265625,0.5205078125,2.6826171875
0.028,-3.0029296875,1.0009765625,2.40234375
0.0285,-2.9228515625,1.521484375,1.7216796875
0.029,-2.9228515625,2.0419921875,1.0810546875
0.0295,-2.7626953125,2.2421875,0.6005859375
0.03,-2.642578125,2.482421875,0.080078125
0.0305,-2.4423828125,2.642578125,-0.48046875
0.031,-1.9619140625,2.72265625,-1.201171875
0.0315,-1.4814453125,2.6826171875,-1.8017578125
0.032,-0.880859375,2.482421875,-2.2822265625
0.0325,-0.48046875,2.40234375,-2.642578125
0.033,0.0,2.1220703125,-3.0029296875
0.0335,0.6005859375,2.08203125,-3.5634765625
0.034,1.3212890625,1.3212890625,-3.68359375
0.0345,1.8818359375,0.7607421875,-3.7236328125
0.035,2.2021484375,0.3203125,-3.603515625
0.0355,2.5625,-0.16015625,-3.5634765625
0.036,2.802734375,-0.6005859375,-3.36328125
0.0365,3.0029296875,-1.12109375,-2.962890625
0.037,3.0830078125,-1.6015625,-2.4423828125
0.0375,3.0029296875,-2.162109375,-1.681640625
0.038,2.8828125,-2.4423828125,-1.2412109375
0.0385,2.7626953125,-2.6025390625,-0.6806640625
0.039,2.6025390625,-2.9228515625,-0.16015625
0.0395,1.921875,-2.962890625,0.80078125
0.04,1.4013671875,-2.9228515625,1.44140625
0.0405,0.880859375,-2.72265625,1.921875
0.041,0.4404296875,-2.642578125,2.3623046875
0.0415,-0.2802734375,-2.2421875,2.8427734375
0.042,-0.9609375,-1.9619140625,3.203125
0.0425,-1.681640625,-1.28125,3.3232421875
0.043,-2.2822265625,-0.640625,3.283203125
0.0435,-2.5224609375,-0.2001953125,3.1630859375
0.044,-2.7626953125,0.2802734375,2.9228515625
0.0445,-3.04296875,0.8408203125,2.72265625
0.045,-3.1630859375,1.5615234375,1.9619140625
0.0455,-3.203125,1.9619140625,1.44140625
0.046,-2.962890625,2.3623046875,0.720703125
0.0465,-2.8427734375,2.6826171875,0.240234375
0.047,-2.5625,2.72265625,-0.400390625
0.0475,-2.2421875,2.9228515625,-1.12109375
0.048,-1.4814453125,2.8828125,-1.9619140625
0.0485,-0.9208984375,2.642578125,-2.482421875
0.049,-0.400390625,2.40234375,-2.8427734375
0.0495,0.0,2.2021484375,-3.0830078125
0.05,0.7607421875,1.8818359375,-3.5634765625
0.0505,1.5615234375,1.2412109375,-3.8037109375
0.051,2.0419921875,0.720703125,-3.84375
0.0515,2.4423828125,0.1201171875,-3.68359375
0.052,2.6025390625,-0.3203125,-3.4833984375
0.0525,2.802734375,-0.720703125,-3.203125
0.053,3.0830078125,-1.1611328125,-3.0029296875
0.0535,3.0029296875,-1.8017578125,-2.2421875
0.054,2.9228515625,-2.162109375,-1.6416015625
0.0545,2.8427734375,-2.322265625,-1.1611328125
0.055,2.6826171875,-2.642578125,-0.640625
0.0555,2.40234375,-2.7626953125,0.0
0.056,1.9619140625,-2.8828125,0.6806640625
0.0565,1.44140625,-2.9228515625,1.2412109375
0.057,0.880859375,-2.642578125,1.8017578125
0.0575,0.400390625,-2.642578125,2.0419921875
0.058,0.0,-2.2822265625,2.5224609375
0.0585,-0.640625,-2.162109375,3.04296875
0.059,-1.44140625,-1.361328125,3.1630859375
0.0595,-1.8818359375,-0.9609375,3.203125
0.06,-2.2822265625,-0.3603515625,3.123046875
0.0605,-2.6025390625,0.0,3.04296875
0.061,-2.8427734375,0.560546875,2.802734375
0.0615,-3.123046875,1.0810546875,2.482421875
0.062,-3.1630859375,1.6416015625,1.8818359375
0.0625,-3.04296875,2.162109375,1.041015625
0.063,-2.8828125,2.40234375,0.6005859375
0.0635,-2.7626953125,2.642578125,0.080078125
0.064,-2.6025390625,2.8828125,-0.560546875
0.0645,-1.8818359375,2.8427734375,-1.521484375
0.065,-1.3212890625,2.8427734375,-2.0419921875
0.0655,-0.80078125,2.5224609375,-2.642578125
0.066,-0.3203125,2.482421875,-2.9228515625
0.0665,0.3203125,2.162109375,-3.3232421875
0.067,0.9609375,1.8818359375,-3.8037109375
0.0675,1.841796875,1.0810546875,-3.8837890625
0.068,2.2421875,0.48046875,-3.8037109375
0.0685,2.5224609375,0.0400390625,-3.5634765625
0.069,2.7626953125,-0.400390625,-3.4833984375
0.0695,3.0029296875,-1.0009765625,-3.123046875
0.07,3.04296875,-1.6015625,-2.4423828125
0.0705,3.0830078125,-2.0419921875,-1.921875
0.071,2.8828125,-2.40234375,-1.28125
0.0715,2.72265625,-2.6025390625,-0.7607421875
0.072,2.482421875,-2.72265625,-0.2001953125
0.0725,2.2421875,-3.0029296875,0.400390625
0.073,1.4814453125,-2.9228515625,1.28125
0.0735,1.0009765625,-2.802734375,1.6015625
0.074,0.48046875,-2.5224609375,2.1220703125
0.0745,0.080078125,-2.3623046875,2.482421875
0.075,-0.6005859375,-2.001953125,2.8427734375
0.0755,-1.28125,-1.4814453125,3.1630859375
0.076,-1.8818359375,-1.0009765625,3.203125
0.0765,-2.2021484375,-0.400390625,3.0830078125
0.077,-2.4423828125,0.0,2.9228515625
0.0775,-2.72265625,0.400390625,2.802734375
0.078,-3.04296875,0.880859375,2.6025390625
0.0785,-3.0029296875,1.521484375,1.8818359375
0.079,-3.0029296875,1.921875,1.3212890625
0.0795,-2.8828125,2.2421875,0.7607421875
0.08,-2.7626953125,2.5224609375,0.2802734375
0.0805,-2.5224609375,2.642578125,-0.3603515625
0.081,-2.2021484375,2.802734375,-1.0009765625
0.0815,-1.4814453125,2.802734375,-1.841796875
0.082,-1.041015625,2.5625,-2.2021484375
0.0825,-0.640625,2.482421875,-2.6025390625
0.083,-0.16015625,2.3623046875,-3.0830078125
0.0835,0.5205078125,2.162109375,-3.5634765625
0.084,1.3212890625,1.4013671875,-3.7236328125
0.0845,1.8818359375,0.880859375,-3.7236328125
0.085,2.2822265625,0.3603515625,-3.68359375
0.0855,2.5224609375,-0.1201171875,-3.5634765625
0.086,2.8427734375,-0.6005859375,-3.3232421875
0.0865,3.04296875,-1.1611328125,-2.962890625
0.087,3.123046875,-1.76171875,-2.2822265625
0.0875,2.962890625,-2.162109375,-1.681640625
0.088,2.8427734375,-2.4423828125,-1.1611328125
0.0885,2.6826171875,-2.642578125,-0.6005859375
0.089,2.482421875,-2.9228515625,0.0400390625
0.0895,1.76171875,-2.9228515625,1.0009765625
0.09,1.2412109375,-2.8828125,1.521484375
0.0905,0.7607421875,-2.6826171875,1.921875
0.091,0.3203125,-2.4423828125,2.2421875
0.0915,-0.3203125,-2.2421875,2.6826171875
0.092,-1.0009765625,-1.8818359375,3.1630859375
0.0925,-1.7216796875,-1.1611328125,3.2431640625
0.093,-2.1220703125,-0.640625,3.0830078125
0.0935,-2.4423828125,-0.2001953125,3.04296875
0.094,-2.642578125,0.240234375,2.8828125
0.0945,-2.8828125,0.720703125,2.6025390625
0.095,-2.962890625,1.28125,2.0419921875
0.0955,-3.04296875,1.8818359375,1.4013671875
0.096,-2.8828125,2.162109375,0.880859375
0.0965,-2.7626953125,2.2822265625,0.3603515625
0.097,-2.5625,2.5625,-0.240234375
0.0975,-2.322265625,2.6025390625,-0.9208984375
0.098,-1.681640625,2.7626953125,-1.6015625
0.0985,-1.041015625,2.5625,-2.162109375
0.099,-0.6806640625,2.482421875,-2.5625
0.0995,-0.240234375,2.2822265625,-2.9228515625
0.1,0.400390625,2.0419921875,-3.36328125
0.1005,1.12109375,1.5615234375,-3.6435546875
0.101,1.76171875,0.9609375,-3.763671875
0.1015,2.1220703125,0.4404296875,-3.6435546875
0.102,2.4423828125,0.0,-3.5234375
0.1025,2.6826171875,-0.48046875,-3.36328125
0.103,2.962890625,-0.9609375,-3.1630859375
0.1035,3.04296875,-1.5615234375,-2.5224609375
0.104,3.0029296875,-2.08203125,-1.8818359375
0.1045,2.962890625,-2.40234375,-1.361328125
0.105,2.72265625,-2.6025390625,-0.80078125
0.1055,2.6025390625,-2.802734375,-0.2802734375
0.106,2.08203125,-2.9228515625,0.6005859375
0.1065,1.5615234375,-2.9228515625,1.28125
0.107,0.9609375,-2.72265625,1.76171875
0.1075,0.560546875,-2.6025390625,2.2021484375
0.108,0.0,-2.322265625,2.5625
0.1085,-0.640625,-2.1220703125,3.04296875
0.109,-1.44140625,-1.4013671875,3.203125
0.1095,-2.0419921875,-0.80078125,3.2431640625
0.11,-2.322265625,-0.3603515625,3.123046875
0.1105,-2.6025390625,0.1201171875,2.9228515625
0.111,-2.8828125,0.6005859375,2.72265625
0.1115,-3.0830078125,1.201171875,2.2822265625
0.112,-3.123046875,1.7216796875,1.6416015625
0.1125,-2.962890625,2.2021484375,1.0810546875
0.113,-2.8828125,2.3623046875,0.48046875
0.1135,-2.642578125,2.5224609375,0.0
0.114,-2.4423828125,2.802734375,-0.640625
0.1145,-1.8017578125,2.8427734375,-1.4814453125
0.115,-1.2412109375,2.72265625,-2.1220703125
0.1155,-0.720703125,2.5224609375,-2.5224609375
0.116,-0.3203125,2.40234375,-2.8828125
0.1165,0.3203125,2.08203125,-3.283203125
0.117,0.9609375,1.7216796875,-3.6435546875
0.1175,1.6416015625,1.12109375,-3.8037109375
0.118,2.162109375,0.48046875,-3.68359375
0.1185,2.40234375,0.080078125,-3.5634765625
0.119,2.6025390625,-0.400390625,-3.36328125
0.1195,2.9228515625,-0.8408203125,-3.203125
0.12,3.0029296875,-1.4814453125,-2.5625
0.1205,2.9228515625,-2.08203125,-1.9619140625
0.121,2.8427734375,-2.2822265625,-1.44140625
0.1215,2.7626953125,-2.6025390625,-0.9609375
0.122,2.5224609375,-2.72265625,-0.3603515625
0.1225,2.2822265625,-2.8828125,0.2802734375
0.123,1.7216796875,-2.8828125,1.0009765625
0.1235,1.0810546875,-2.72265625,1.6416015625
0.124,0.640625,-2.6025390625,2.001953125
0.1245,0.16015625,-2.40234375,2.40234375
0.125,-0.400390625,-2.2021484375,2.8427734375
0.1255,-1.1611328125,-1.6015625,3.123046875
0.126,-1.76171875,-1.1611328125,3.2431640625
0.1265,-2.1220703125,-0.5205078125,3.04296875
0.127,-2.482421875,-0.16015625,3.04296875
0.1275,-2.6826171875,0.3203125,2.802734375
0.128,-2.962890625,0.80078125,2.5625
0.1285,-3.04296875,1.28125,1.8818359375
0.129,-2.962890625,1.921875,1.28125
0.1295,-2.8427734375,2.162109375,0.80078125
0.13,-2.72265625,2.4423828125,0.2802734375
0.1305,-2.5625,2.6826171875,-0.3203125
0.131,-2.0419921875,2.7626953125,-1.041015625
0.1315,-1.6015625,2.7626953125,-1.6416015625
0.132,-1.0009765625,2.5625,-2.2021484375
0.1325,-0.6005859375,2.482421875,-2.5625
0.133,0.0,2.2021484375,-2.9228515625
0.1335,0.48046875,2.08203125,-3.4033203125
0.134,1.28125,1.361328125,-3.5634765625
0.1345,1.76171875,0.880859375,-3.6435546875
0.135,2.08203125,0.400390625,-3.5234375
0.1355,2.40234375,0.0,-3.443359375
0.136,2.6826171875,-0.5205078125,-3.283203125
0.1365,2.9228515625,-1.1611328125,-2.962890625
0.137,3.0029296875,-1.6015625,-2.4423828125
0.1375,2.8828125,-2.1220703125,-1.681640625
0.138,2.8427734375,-2.2822265625,-1.2412109375
0.1385,2.6025390625,-2.5625,-0.6806640625
0.139,2.5224609375,-2.8427734375,-0.16015625
0.1395,1.8818359375,-2.8828125,0.7607421875
0.14,1.4013671875,-2.8427734375,1.3212890625
0.1405,0.880859375,-2.6025390625,1.8017578125
0.141,0.48046875,-2.5625,2.2421875
0.1415,-0.2001953125,-2.2822265625,2.6025390625
0.142,-0.80078125,-1.9619140625,3.04296875
0.1425,-1.5615234375,-1.3212890625,3.203125
0.143,-2.08203125,-0.720703125,3.1630859375
0.1435,-2.3623046875,-0.3203125,3.04296875
0.144,-2.6025390625,0.2001953125,2.8828125
0.1445,-2.8828125,0.6005859375,2.6025390625
0.145,-3.0029296875,1.3212890625,1.9619140625
0.1455,-3.0830078125,1.76171875,1.5615234375
0.146,-2.8427734375,2.2421875,0.80078125
0.1465,-2.802734375,2.4423828125,0.3603515625
0.147,-2.5625,2.5625,-0.240234375
0.1475,-2.2822265625,2.802734375,-0.8408203125
0.148,-1.6015625,2.7626953125,-1.6416015625
0.1485,-1.041015625,2.6025390625,-2.162109375
0.149,-0.640625,2.40234375,-2.5224609375
0.1495,-0.2001953125,2.2822265625,-2.9228515625
0.15,0.5205078125,2.001953125,-3.36328125
0.1505,1.2412109375,1.4013671875,-3.5634765625
0.151,1.7216796875,0.9609375,-3.7236328125
0.1515,2.1220703125,0.3603515625,-3.5634765625
0.152,2.40234375,0.0400390625,-3.3232421875
0.1525,2.642578125,-0.400390625,-3.203125
0.153,2.8828125,-0.9208984375,-3.0830078125
0.1535,2.8427734375,-1.5615234375,-2.322265625
0.154,2.8427734375,-2.001953125,-1.921875
0.1545,2.72265625,-2.162109375,-1.3212890625
0.155,2.642578125,-2.4423828125,-0.8408203125
0.1555,2.482421875,-2.6025390625,-0.3203125
0.156,2.0419921875,-2.7626953125,0.4404296875
0.1565,1.6015625,-2.7626953125,1.0009765625
0.157,1.041015625,-2.6025390625,1.5615234375
0.1575,0.640625,-2.5224609375,1.921875
0.158,0.16015625,-2.2822265625,2.322265625
0.1585,-0.3603515625,-2.2421875,2.8427734375
0.159,-1.1611328125,-1.4814453125,3.0029296875
0.1595,-1.6416015625,-1.0810546875,3.0830078125
0.16,-2.0419921875,-0.6005859375,2.8828125
0.1605,-2.4423828125,-0.080078125,3.0830078125
0.161,-2.6826171875,0.3203125,2.7626953125
0.1615,-2.962890625,0.880859375,2.482421875
0.162,-3.0830078125,1.4814453125,1.921875
0.1625,-2.962890625,1.9619140625,1.2412109375
0.163,-2.8427734375,2.2421875,0.720703125
0.1635,-2.72265625,2.5224609375,0.16015625
0.164,-2.6025390625,2.802734375,-0.4404296875
0.1645,-1.921875,2.8427734375,-1.28125
0.165,-1.44140625,2.7626953125,-1.8818359375
0.1655,-0.9208984375,2.5625,-2.322265625
0.166,-0.4404296875,2.4423828125,-2.7626953125
0.1665,0.2001953125,2.1220703125,-3.1630859375
0.167,0.80078125,1.8818359375,-3.5634765625
0.1675,1.5615234375,1.12109375,-3.68359375
0.168,1.921875,0.48046875,-3.603515625
0.1685,2.162109375,0.0,-3.443359375
0.169,2.5224609375,-0.3203125,-3.36328125
0.1695,2.7626953125,-0.80078125,-3.0830078125
0.17,2.8427734375,-1.361328125,-2.482421875
0.1705,2.8427734375,-1.8017578125,-2.001953125
0.171,2.72265625,-2.1220703125,-1.4013671875
0.1715,2.6025390625,-2.322265625,-0.9609375
0.172,2.40234375,-2.5224609375,-0.4404296875
0.1725,2.2421875,-2.72265625,0.1201171875
0.173,1.6015625,-2.72265625,0.880859375
0.1735,1.12109375,-2.5625,1.3212890625
0.174,0.7607421875,-2.4423828125,1.7216796875
0.1745,0.3603515625,-2.3623046875,2.162109375
0.175,-0.2001953125,-2.1220703125,2.5224609375
0.1755,-0.8408203125,-1.7216796875,2.8427734375
0.176,-1.3212890625,-1.1611328125,3.0029296875
0.1765,-1.8017578125,-0.80078125,2.802734375
0.177,-2.162109375,-0.400390625,2.9228515625
0.1775,-2.482421875,0.1201171875,2.802734375
0.178,-2.8427734375,0.560546875,2.72265625
0.1785,-2.8828125,1.201171875,2.0419921875
0.179,-2.9228515625,1.6416015625,1.5615234375
0.1795,-2.8427734375,2.0419921875,1.0009765625
0.18,-2.802734375,2.3623046875,0.5205078125
0.1805,-2.6025390625,2.5625,0.0
0.181,-2.2822265625,2.802734375,-0.7607421875
0.1815,-1.6416015625,2.802734375,-1.4814453125
0.182,-1.2412109375,2.6025390625,-2.001953125
0.1825,-0.7607421875,2.5224609375,-2.4423828125
0.183,-0.2802734375,2.40234375,-2.9228515625
0.1835,0.3603515625,2.2421875,-3.4833984375
0.184,1.2412109375,1.4013671875,-3.68359375
0.1845,1.921875,0.9609375,-3.7236328125
0.185,2.2021484375,0.400390625,-3.603515625
0.1855,2.482421875,0.0,-3.5234375
0.186,2.72265625,-0.6005859375,-3.2431640625
0.1865,3.0029296875,-1.1611328125,-2.8828125
0.187,3.04296875,-1.8017578125,-2.2421875
0.1875,2.8828125,-2.1220703125,-1.6015625
0.188,2.7626953125,-2.40234375,-1.0810546875
0.1885,2.6025390625,-2.6025390625,-0.6005859375
0.189,2.3623046875,-2.802734375,0.0400390625
0.1895,1.841796875,-2.8828125,0.880859375
0.19,1.201171875,-2.7626953125,1.521484375
0.1905,0.7607421875,-2.6025390625,1.8818359375
0.191,0.2802734375,-2.40234375,2.2021484375
0.1915,-0.3203125,-2.1220703125,2.6025390625
0.192,-0.9208984375,-1.8017578125,3.04296875
0.1925,-1.521484375,-1.0810546875,3.123046875
0.193,-1.9619140625,-0.6806640625,3.0029296875
0.1935,-2.322265625,-0.2802734375,2.8828125
0.194,-2.5625,0.2001953125,2.802734375
0.1945,-2.7626953125,0.6005859375,2.5224609375
0.195,-2.8828125,1.2412109375,2.0419921875
0.1955,-2.9228515625,1.7216796875,1.4814453125
0.196,-2.8427734375,2.0419921875,0.9609375
0.1965,-2.6826171875,2.2822265625,0.48046875
0.197,-2.5625,2.5224609375,-0.1201171875
0.1975,-2.322265625,2.6826171875,-0.80078125
0.198,-1.76171875,2.6826171875,-1.44140625
0.1985,-1.201171875,2.5625,-1.9619140625
0.199,-0.80078125,2.5224609375,-2.4423828125
0.1995,-0.3603515625,2.40234375,-2.8828125
0.2,0.3203125,2.2021484375,-3.283203125
0.2005,0.9208984375,1.6416015625,-3.5634765625
0.201,1.7216796875,1.0009765625,-3.8037109375
0.2015,2.0419921875,0.48046875,-3.7236328125
0.202,2.40234375,0.0400390625,-3.5634765625
0.2025,2.72265625,-0.400390625,-3.4833984375
0.203,3.04296875,-0.9609375,-3.203125
0.2035,3.0830078125,-1.6015625,-2.5224609375
0.204,3.04296875,-2.08203125,-1.8017578125
0.2045,2.962890625,-2.4423828125,-1.3212890625
0.205,2.802734375,-2.6025390625,-0.7607421875
0.2055,2.5625,-2.9228515625,-0.240234375
0.206,2.0419921875,-3.0029296875,0.720703125
0.2065,1.44140625,-2.962890625,1.4013671875
0.207,0.880859375,-2.72265625,1.921875
0.2075,0.4404296875,-2.6025390625,2.2822265625
0.208,-0.16015625,-2.322265625,2.642578125
0.2085,-0.8408203125,-1.9619140625,3.2431640625
0.209,-1.6416015625,-1.3212890625,3.3232421875
0.2095,-2.2421875,-0.6806640625,3.2431640625
0.21,-2.5224609375,-0.240234375,3.123046875
0.2105,-2.642578125,0.2802734375,2.8427734375
0.211,-2.9228515625,0.6806640625,2.642578125
0.2115,-3.0830078125,1.3212890625,2.1220703125
0.212,-3.0830078125,1.8818359375,1.521484375
0.2125,-2.9228515625,2.2421875,0.8408203125
0.213,-2.802734375,2.4423828125,0.3603515625
0.2135,-2.5625,2.5625,-0.2001953125
0.214,-2.322265625,2.7626953125,-0.80078125
0.2145,-1.681640625,2.802734375,-1.6015625
0.215,-1.0810546875,2.6826171875,-2.2421875
0.2155,-0.640625,2.482421875,-2.5625
0.216,-0.2001953125,2.2421875,-2.9228515625
0.2165,0.3603515625,2.08203125,-3.203125
0.217,1.0009765625,1.6015625,-3.6435546875
0.2175,1.6416015625,0.9609375,-3.8037109375
0.218,2.162109375,0.400390625,-3.6435546875
0.2185,2.482421875,0.0400390625,-3.5634765625
0.219,2.642578125,-0.400390625,-3.36328125
0.2195,2.962890625,-0.8408203125,-3.203125
0.22,3.04296875,-1.4814453125,-2.6025390625
0.2205,3.04296875,-1.9619140625,-2.001953125
0.221,2.8828125,-2.2822265625,-1.44140625
0.2215,2.802734375,-2.6025390625,-0.9208984375
0.222,2.6025390625,-2.7626953125,-0.400390625
0.2225,2.2822265625,-2.8828125,0.2802734375
0.223,1.76171875,-2.9228515625,1.0009765625
0.2235,1.0810546875,-2.7626953125,1.6416015625
0.224,0.640625,-2.6025390625,2.0419921875
0.2245,0.0400390625,-2.5224609375,2.5224609375
0.225,-0.48046875,-2.2822265625,2.9228515625
0.2255,-1.28125,-1.6416015625,3.1630859375
0.226,-1.8818359375,-1.0810546875,3.3232421875
0.2265,-2.2421875,-0.5205078125,3.1630859375
0.227,-2.5625,0.0,3.123046875
0.2275,-2.802734375,0.4404296875,2.8828125
0.228,-3.0830078125,0.9208984375,2.5625
0.2285,-3.1630859375,1.5615234375,1.921875
