wavelength,x,y,z
0.0,-15.740356445312,19.574096679688,-4.7296142578125
0.0005,-18.743286132812,17.732299804688,0.1151123046875
0.001,-20.545043945312,15.810424804688,3.7987060546875
0.0015,-21.626098632812,13.728393554688,6.8817138671875
0.002,-21.425903320312,10.645385742188,9.8045654296875
0.0025,-20.985473632812,6.4412841796875,13.488159179688
0.003,-20.184692382812,2.6375732421875,17.932495117188
0.0035,-18.503051757812,-1.8868408203125,19.373901367188
0.004,-16.501098632812,-5.3302001953125,20.975463867188
0.0045,-13.978637695312,-8.0928955078125,21.255737304688
0.005,-11.095825195312,-10.975708007812,21.455932617188
0.0055,-5.5303955078125,-15.059692382812,20.014526367188
0.006,-0.8458251953125,-17.822387695312,18.372924804688
0.0065,3.1580810546875,-19.744262695312,16.491088867188
0.007,6.4412841796875,-20.905395507812,14.649291992188
0.0075,9.4442138671875,-20.545043945312,11.486206054688
0.008,12.767456054688,-20.064575195312,7.8426513671875
0.0085,16.370971679688,-17.942504882812,3.5184326171875
0.009,20.494995117188,-17.061645507812,-1.3663330078125
0.0095,20.535034179688,-15.219848632812,-4.6895751953125
0.01,21.135620117188,-12.777465820312,-7.6124267578125
0.0105,21.095581054688,-9.8946533203125,-10.415161132812
0.011,20.334838867188,-5.2100830078125,-14.298950195312
0.0115,19.253784179688,-1.3663330078125,-17.101684570312
0.012,17.612182617188,2.5174560546875,-19.423950195312
0.0125,15.810424804688,5.8807373046875,-20.905395507812
0.013,12.487182617188,8.7235107421875,-20.665161132812
0.0135,9.3240966796875,11.886596679688,-20.705200195312
0.014,4.3192138671875,15.650268554688,-19.664184570312
0.0145,-0.8458251953125,18.372924804688,-17.462036132812
0.015,-4.2091064453125,19.774291992188,-15.740356445312
0.0155,-7.2120361328125,20.615112304688,-13.818481445312
0.016,-10.174926757812,20.334838867188,-10.775512695312
0.0165,-13.978637695312,19.373901367188,-6.2110595703125
0.017,-17.181762695312,18.372924804688,-2.0469970703125
0.0175,-19.704223632812,16.330932617188,2.4373779296875
0.018,-20.865356445312,14.369018554688,5.5604248046875
0.0185,-21.105590820312,11.486206054688,8.6033935546875
0.019,-21.025512695312,8.4432373046875,12.807495117188
0.0195,-20.384887695312,3.9188232421875,15.490112304688
0.02,-18.783325195312,-0.4854736328125,18.252807617188
0.0205,-17.101684570312,-3.9688720703125,20.134643554688
0.021,-15.179809570312,-6.9718017578125,21.335815429688
0.0215,-11.856567382812,-9.8946533203125,20.935424804688
0.022,-7.4923095703125,-13.418090820312,20.294799804688
0.0225,-2.8878173828125,-16.781372070312,20.494995117188
0.023,2.1170654296875,-19.263793945312,16.931518554688
0.0235,5.1600341796875,-20.304809570312,15.169799804688
0.024,8.2830810546875,-20.625122070312,12.727416992188
0.0245,11.366088867188,-20.424926757812,9.5643310546875
0.025,15.209838867188,-19.343872070312,4.7196044921875
0.0255,18.172729492188,-17.662231445312,0.2752685546875
0.026,20.214721679688,-15.780395507812,-3.6485595703125
0.0265,21.055541992188,-13.618286132812,-6.5313720703125
0.027,20.855346679688,-10.455200195312,-9.5343017578125
0.0275,20.535034179688,-6.9317626953125,-12.857543945312
0.028,19.894409179688,-2.8477783203125,-16.300903320312
0.0285,18.012573242188,1.6766357421875,-18.943481445312
0.029,16.130737304688,4.8397216796875,-20.224731445312
0.0295,13.928588867188,7.8026123046875,-21.025512695312
0.03,10.525268554688,10.725463867188,-20.705200195312
0.0305,5.4403076171875,14.529174804688,-19.624145507812
0.031,1.1160888671875,17.411987304688,-18.262817382812
0.0315,-3.3682861328125,19.453979492188,-16.541137695312
0.032,-6.2911376953125,20.334838867188,-14.379028320312
0.0325,-9.2940673828125,20.174682617188,-11.736450195312
0.033,-12.537231445312,19.854370117188,-8.0528564453125
0.0335,-16.180786132812,18.733276367188,-3.5684814453125
0.034,-18.903442382812,16.691284179688,1.2362060546875
0.0345,-20.464965820312,14.929565429688,4.5994873046875
0.035,-21.145629882812,12.527221679688,7.5223388671875
0.0355,-20.865356445312,9.3240966796875,10.525268554688
0.036,-20.184692382812,5.1600341796875,14.048706054688
0.0365,-19.343872070312,2.5574951171875,17.131713867188
0.037,-17.502075195312,-2.9678955078125,19.574096679688
0.0375,-15.500122070312,-5.9307861328125,20.535034179688
0.038,-12.897583007812,-8.7335205078125,20.815307617188
0.0385,-9.3741455078125,-11.896606445312,20.615112304688
0.039,-4.1690673828125,-15.540161132812,19.253784179688
0.0395,0.5555419921875,-18.102661132812,17.291870117188
0.04,4.1190185546875,-19.744262695312,15.650268554688
0.0405,7.1619873046875,-20.264770507812,13.528198242188
0.041,10.004760742188,-20.064575195312,10.445190429688
0.0415,13.528198242188,-19.383911132812,6.4412841796875
0.042,16.811401367188,-18.222778320312,2.1571044921875
0.0425,19.253784179688,-16.100708007812,-2.3673095703125
0.043,20.254760742188,-14.298950195312,-5.2100830078125
0.0435,20.655151367188,-11.696411132812,-8.1729736328125
0.044,20.414916992188,-8.3731689453125,-11.255981445312
0.0445,19.694213867188,-4.1690673828125,-14.779418945312
0.045,18.372924804688,-0.2052001953125,-17.462036132812
0.0455,16.771362304688,3.5985107421875,-19.544067382812
0.046,14.689331054688,6.3612060546875,-20.384887695312
0.0465,11.646362304688,9.2440185546875,-20.224731445312
0.047,8.9637451171875,12.727416992188,-19.944458007812
0.0475,2.8377685546875,16.090698242188,-18.663208007812
0.048,-1.8468017578125,18.332885742188,-16.501098632812
0.0485,-4.8497314453125,19.574096679688,-14.939575195312
0.049,-6.4112548828125,19.974487304688,-12.777465820312
0.0495,-10.855590820312,19.574096679688,-9.4942626953125
0.05,-14.419067382812,18.853393554688,-5.2100830078125
0.0505,-17.421997070312,17.331909179688,-0.8458251953125
0.051,-19.584106445312,15.410034179688,3.2381591796875
0.0515,-20.304809570312,13.408081054688,5.9608154296875
0.052,-19.223754882812,10.565307617188,10.244995117188
0.0525,-20.184692382812,6.9217529296875,12.367065429688
0.053,-19.584106445312,2.8377685546875,15.810424804688
0.0535,-17.822387695312,-1.3262939453125,18.212768554688
0.054,-16.300903320312,-4.6094970703125,19.974487304688
0.0545,-13.978637695312,-7.3721923828125,20.615112304688
0.055,-10.575317382812,-10.415161132812,20.214721679688
0.0555,-6.1710205078125,-13.858520507812,19.494018554688
0.056,-1.3663330078125,-16.981567382812,18.052612304688
0.0565,3.1180419921875,-19.103637695312,15.930541992188
0.057,5.7606201171875,-19.864379882812,14.208862304688
0.0575,8.7635498046875,-20.144653320312,11.686401367188
0.058,12.206909179688,-19.544067382812,7.8026123046875
0.0585,15.610229492188,-18.623168945312,3.6385498046875
0.059,18.172729492188,-16.821411132812,-0.6456298828125
0.0595,20.134643554688,-15.019653320312,-4.3692626953125
0.06,20.454956054688,-12.577270507812,-7.0919189453125
0.0605,20.454956054688,-9.5743408203125,-10.134887695312
0.061,19.934448242188,-5.6505126953125,-13.618286132812
0.0615,19.093627929688,-1.5665283203125,-16.821411132812
0.062,17.211791992188,3.8387451171875,-19.063598632812
0.0625,15.490112304688,5.4403076171875,-20.144653320312
0.063,12.967651367188,8.3631591796875,-20.665161132812
0.0635,8.8836669921875,11.726440429688,-20.064575195312
0.064,4.4793701171875,15.009643554688,-19.103637695312
0.0645,-0.3253173828125,17.652221679688,-17.261840820312
0.065,-4.1690673828125,19.494018554688,-15.500122070312
0.0655,-6.8516845703125,19.774291992188,-13.418090820312
0.066,-9.7344970703125,19.854370117188,-10.695434570312
0.0665,-13.458129882812,19.173706054688,-6.4512939453125
0.067,-16.901489257812,17.852416992188,-2.2071533203125
0.0675,-18.943481445312,15.970581054688,2.0369873046875
0.068,-20.384887695312,14.168823242188,5.2401123046875
0.0685,-20.625122070312,11.566284179688,8.0028076171875
0.069,-20.424926757812,8.0428466796875,11.366088867188
0.0695,-19.744262695312,4.1590576171875,14.649291992188
0.07,-18.543090820312,0.1151123046875,17.572143554688
0.0705,-16.741333007812,-2.5675048828125,19.694213867188
0.071,-14.659301757812,-5.1300048828125,20.214721679688
0.0715,-12.096801757812,-9.1739501953125,21.776245117188
0.072,-7.4923095703125,-11.536254882812,19.774291992188
0.0725,-2.8878173828125,-15.900512695312,18.453002929688
0.073,1.4364013671875,-18.102661132812,16.491088867188
0.0735,4.7996826171875,-19.744262695312,14.929565429688
0.074,7.5223388671875,-19.704223632812,12.487182617188
0.0745,10.525268554688,-19.383911132812,9.4041748046875
0.075,14.048706054688,-18.823364257812,5.2801513671875
0.0755,17.091674804688,-17.181762695312,0.9158935546875
0.076,19.053588867188,-15.339965820312,-2.8477783203125
0.0765,19.854370117188,-13.418090820312,-5.6505126953125
0.077,20.094604492188,-10.855590820312,-8.3331298828125
0.0775,19.614135742188,-6.8516845703125,-12.016723632812
0.078,18.933471679688,-3.2081298828125,-14.979614257812
0.0785,17.411987304688,0.5955810546875,-17.341918945312
0.079,15.970581054688,4.0389404296875,-19.303833007812
0.0795,13.528198242188,6.6414794921875,-19.463989257812
0.08,10.725463867188,9.4041748046875,-19.504028320312
0.0805,6.2410888671875,12.967651367188,-18.943481445312
0.081,1.6365966796875,15.970581054688,-17.421997070312
0.0815,-2.2872314453125,17.772338867188,-15.580200195312
0.082,-5.0098876953125,18.933471679688,-12.817504882812
0.0825,-7.7725830078125,19.093627929688,-11.856567382812
0.083,-11.135864257812,18.533081054688,-8.0128173828125
0.0835,-14.379028320312,19.213745117188,-4.3692626953125
0.084,-17.261840820312,16.290893554688,1.2762451171875
0.0845,-18.983520507812,14.609252929688,3.5184326171875
0.085,-19.303833007812,12.407104492188,6.0008544921875
0.0855,-19.624145507812,9.8846435546875,8.8035888671875
0.086,-17.942504882812,5.7606201171875,12.487182617188
0.0865,-18.222778320312,2.1170654296875,15.570190429688
0.087,-16.821411132812,-1.6866455078125,17.612182617188
0.0875,-15.500122070312,-4.6495361328125,19.333862304688
0.088,-12.977661132812,-7.4122314453125,19.534057617188
0.0885,-9.3741455078125,-10.535278320312,20.494995117188
0.089,-5.2501220703125,-13.818481445312,18.493041992188
0.0895,-0.5655517578125,-15.380004882812,16.771362304688
0.09,3.1180419921875,-18.262817382812,15.089721679688
0.0905,5.7205810546875,-18.823364257812,13.287963867188
0.091,8.4432373046875,-19.103637695312,11.045776367188
0.0915,12.286987304688,-18.422973632812,6.6014404296875
0.092,15.209838867188,-17.381958007812,2.8377685546875
0.0925,17.572143554688,-15.780395507812,-1.1260986328125
0.093,20.494995117188,-14.138793945312,-4.3292236328125
0.0935,19.333862304688,-11.656372070312,-6.9317626953125
0.094,19.373901367188,-8.6134033203125,-10.054809570312
0.0945,18.973510742188,-4.8497314453125,-13.418090820312
0.095,17.892456054688,-0.8057861328125,-16.421020507812
0.0955,16.130737304688,2.7576904296875,-18.222778320312
0.096,14.569213867188,5.4002685546875,-19.303833007812
0.0965,12.046752929688,8.1229248046875,-19.584106445312
0.097,7.3621826171875,11.886596679688,-18.863403320312
0.0975,3.4783935546875,14.769409179688,-18.022583007812
0.098,-0.9659423828125,17.251831054688,-16.260864257812
0.0985,-4.2891845703125,18.893432617188,-14.739379882812
0.099,-6.8917236328125,18.893432617188,-12.377075195312
0.0995,-9.6944580078125,19.013549804688,-9.8946533203125
0.1,-13.618286132812,18.292846679688,-5.4903564453125
0.1005,-16.541137695312,16.771362304688,-1.1260986328125
0.101,-18.503051757812,15.129760742188,2.5174560546875
0.1015,-19.704223632812,13.368041992188,5.4002685546875
0.102,-19.784301757812,10.725463867188,8.1229248046875
0.1025,-19.504028320312,6.8016357421875,11.766479492188
0.103,-19.023559570312,3.3182373046875,14.809448242188
0.1035,-17.662231445312,-0.7257080078125,17.572143554688
0.104,-15.980590820312,-4.2091064453125,19.333862304688
0.1045,-13.658325195312,-6.7716064453125,19.574096679688
0.105,-11.255981445312,-9.4942626953125,19.974487304688
0.1055,-6.0509033203125,-13.498168945312,18.893432617188
0.106,-1.6065673828125,-16.300903320312,17.452026367188
0.1065,2.2371826171875,-18.102661132812,15.850463867188
0.107,5.4002685546875,-19.584106445312,14.248901367188
0.1075,8.2430419921875,-19.383911132812,11.486206054688
0.108,11.446166992188,-18.983520507812,8.0428466796875
0.1085,14.969604492188,-18.422973632812,4.1190185546875
0.109,17.772338867188,-16.541137695312,-0.5255126953125
0.1095,19.373901367188,-14.779418945312,-2.5675048828125
0.11,19.974487304688,-12.617309570312,-6.5313720703125
0.1105,20.134643554688,-9.9747314453125,-9.2940673828125
0.111,19.494018554688,-5.5303955078125,-13.217895507812
0.1115,18.653198242188,-1.8868408203125,-16.020629882812
0.112,17.171752929688,1.9168701171875,-18.342895507812
0.1125,15.490112304688,5.1600341796875,-20.024536132812
0.113,12.527221679688,7.8826904296875,-19.824340820312
0.1135,9.4442138671875,10.925659179688,-19.904418945312
0.114,4.5994873046875,14.729370117188,-19.063598632812
0.1145,-0.3253173828125,17.411987304688,-17.021606445312
0.115,-3.6885986328125,18.933471679688,-15.420043945312
0.1155,-6.6114501953125,19.854370117188,-13.578247070312
0.116,-9.4542236328125,19.694213867188,-10.855590820312
0.1165,-13.338012695312,18.893432617188,-6.3311767578125
0.117,-16.380981445312,19.213745117188,-2.4073486328125
0.1175,-18.903442382812,16.010620117188,1.9569091796875
0.118,-20.264770507812,14.168823242188,6.4012451171875
0.1185,-20.384887695312,11.486206054688,7.9627685546875
0.119,-20.464965820312,8.5633544921875,10.925659179688
0.1195,-19.824340820312,4.1190185546875,14.809448242188
0.12,-18.382934570312,-0.1651611328125,17.612182617188
0.1205,-15.380004882812,-3.6485595703125,19.373901367188
0.121,-14.979614257812,-6.5714111328125,20.735229492188
0.1215,-11.816528320312,-9.4542236328125,20.414916992188
0.122,-7.6524658203125,-12.937622070312,19.774291992188
0.1225,-3.1680908203125,-16.140747070312,18.813354492188
0.123,1.9168701171875,-18.583129882812,16.611206054688
0.1235,4.9998779296875,-19.784301757812,14.849487304688
0.124,7.9227294921875,-20.144653320312,12.527221679688
0.1245,10.845581054688,-20.024536132812,9.6444091796875
0.125,14.809448242188,-18.983520507812,4.7996826171875
0.1255,17.732299804688,-17.421997070312,0.4754638671875
0.126,19.694213867188,-15.620239257812,-3.3682861328125
0.1265,20.655151367188,-13.618286132812,-6.2911376953125
0.127,21.776245117188,-10.535278320312,-9.2540283203125
0.1275,20.254760742188,-7.0118408203125,-12.497192382812
0.128,19.654174804688,-2.9678955078125,-15.900512695312
0.1285,17.852416992188,1.4364013671875,-18.543090820312
0.129,15.970581054688,4.5994873046875,-19.904418945312
0.1295,13.808471679688,7.4822998046875,-20.665161132812
0.13,10.645385742188,10.365112304688,-20.985473632812
0.1305,5.4803466796875,14.328979492188,-19.383911132812
0.131,1.1160888671875,17.131713867188,-18.062622070312
0.1315,-3.2081298828125,20.494995117188,-16.180786132812
0.132,-6.1710205078125,20.174682617188,-14.338989257812
0.1325,-9.1739501953125,20.014526367188,-11.416137695312
0.133,-12.337036132812,19.694213867188,-8.0928955078125
0.1335,-16.020629882812,18.693237304688,-3.5684814453125
0.134,-18.743286132812,17.932495117188,1.2362060546875
0.1345,-20.304809570312,14.769409179688,4.4793701171875
0.135,-21.065551757812,12.607299804688,7.4022216796875
0.1355,-20.825317382812,9.4442138671875,10.365112304688
0.136,-20.144653320312,5.1600341796875,14.008666992188
0.1365,-19.263793945312,1.3162841796875,17.011596679688
0.137,-17.582153320312,-2.8878173828125,19.494018554688
0.1375,-15.620239257812,-5.8907470703125,20.535034179688
0.138,-12.857543945312,-8.7335205078125,20.775268554688
0.1385,-9.5343017578125,-11.736450195312,20.615112304688
0.139,-4.2491455078125,-15.580200195312,19.253784179688
0.1395,0.5555419921875,-18.102661132812,17.331909179688
0.14,4.1190185546875,-19.784301757812,15.690307617188
0.1405,7.0418701171875,-19.223754882812,13.648315429688
0.141,10.084838867188,-20.144653320312,10.485229492188
0.1415,13.768432617188,-19.463989257812,7.6824951171875
0.142,16.931518554688,-18.422973632812,2.1170654296875
0.1425,19.494018554688,-16.220825195312,-2.4473876953125
0.143,20.535034179688,-14.379028320312,-5.4503173828125
0.1435,20.935424804688,-11.776489257812,-8.3331298828125
0.144,20.695190429688,-8.4932861328125,-11.416137695312
0.1445,19.934448242188,-4.1290283203125,-15.059692382812
0.145,18.533081054688,1.2762451171875,-17.702270507812
0.1455,16.891479492188,3.7186279296875,-19.904418945312
0.146,14.769409179688,6.6815185546875,-20.665161132812
0.1465,11.646362304688,9.6043701171875,-20.665161132812
0.147,7.6424560546875,13.167846679688,-19.944458007812
0.1475,2.7176513671875,16.491088867188,-18.943481445312
0.148,-2.1671142578125,18.853393554688,-15.380004882812
0.1485,-5.2100830078125,20.094604492188,-15.099731445312
0.149,-8.2130126953125,21.776245117188,-12.777465820312
0.1495,-11.416137695312,20.054565429688,-9.6143798828125
0.15,-15.019653320312,20.494995117188,-4.9698486328125
0.1505,-18.102661132812,17.692260742188,-0.4854736328125
0.151,-20.384887695312,15.650268554688,3.7987060546875
0.1515,-21.105590820312,13.488159179688,6.5614013671875
0.152,-21.225708007812,10.485229492188,9.7244873046875
0.1525,-20.865356445312,6.6815185546875,13.127807617188
0.153,-20.104614257812,2.5174560546875,17.932495117188
0.1535,-18.262817382812,-1.8868408203125,19.093627929688
0.154,-16.581176757812,-5.2901611328125,20.855346679688
0.1545,-14.138793945312,-8.1329345703125,21.455932617188
0.155,-10.455200195312,-11.175903320312,21.015502929688
0.1555,-5.9307861328125,-14.779418945312,20.134643554688
0.156,-1.0059814453125,-16.661254882812,18.573120117188
0.1565,3.6785888671875,-20.024536132812,16.330932617188
0.157,6.5213623046875,-20.745239257812,14.409057617188
0.1575,9.6043701171875,-20.985473632812,11.726440429688
0.158,13.167846679688,-20.224731445312,7.7225341796875
0.1585,16.571166992188,-17.942504882812,3.3182373046875
0.159,19.253784179688,-17.261840820312,-1.3262939453125
0.1595,21.135620117188,-15.259887695312,-5.0899658203125
0.16,21.455932617188,-12.697387695312,-7.8927001953125
0.1605,21.335815429688,-9.4942626953125,-11.015747070312
0.161,20.615112304688,-5.4102783203125,-14.459106445312
0.1615,19.694213867188,-1.1661376953125,-17.702270507812
0.162,17.612182617188,3.1580810546875,-19.904418945312
0.1625,15.690307617188,6.0809326171875,-21.105590820312
0.163,12.967651367188,9.0838623046875,-21.505981445312
0.1635,8.8436279296875,12.487182617188,-20.825317382812
0.164,4.1590576171875,15.850463867188,-19.704223632812
0.1645,-0.7257080078125,18.573120117188,-17.822387695312
0.165,-4.7696533203125,20.454956054688,-15.860473632812
0.1655,-7.4923095703125,20.695190429688,-13.618286132812
0.166,-10.495239257812,20.735229492188,-10.775512695312
0.1665,-14.258911132812,19.894409179688,-6.2911376953125
0.167,-17.542114257812,18.533081054688,-1.8468017578125
0.1675,-19.904418945312,16.451049804688,2.5174560546875
0.168,-21.345825195312,14.369018554688,5.8006591796875
0.1685,-21.546020507812,11.726440429688,8.8035888671875
0.169,-21.305786132812,8.0428466796875,12.206909179688
0.1695,-20.545043945312,3.9989013671875,15.530151367188
0.17,-17.942504882812,-0.3653564453125,18.533081054688
0.1705,-17.261840820312,-4.3692626953125,20.695190429688
0.171,-15.019653320312,-7.0919189453125,21.215698242188
0.1715,-12.256958007812,-10.014770507812,21.536010742188
0.172,-7.5323486328125,-13.818481445312,20.695190429688
0.1725,-2.7276611328125,-16.981567382812,19.253784179688
0.173,1.9569091796875,-17.942504882812,17.171752929688
0.1735,5.5604248046875,-20.865356445312,15.450073242188
0.174,8.4031982421875,-20.905395507812,14.088745117188
0.1745,11.446166992188,-20.785278320312,9.5242919921875
0.175,16.651245117188,-19.824340820312,5.1600341796875
0.1755,18.533081054688,-18.102661132812,0.3553466796875
0.176,20.735229492188,-16.020629882812,-3.9288330078125
0.1765,21.455932617188,-13.978637695312,-6.6915283203125
0.177,21.616088867188,-11.095825195312,-9.7745361328125
0.1775,21.095581054688,-6.6915283203125,-13.498168945312
0.178,20.254760742188,-2.7677001953125,-15.380004882812
