wavelength,x,y,z
0.0,-3.7236328125,0.6005859375,2.9228515625
0.0005,-3.4833984375,-0.1201171875,3.3232421875
0.001,-3.0830078125,-0.80078125,3.68359375
0.0015,-2.482421875,-1.681640625,3.8837890625
0.002,-1.8818359375,-2.322265625,4.0439453125
0.0025,-1.12109375,-3.0830078125,4.0439453125
0.003,-0.2001953125,-3.4033203125,3.5234375
0.0035,0.400390625,-3.923828125,3.4833984375
0.004,1.4013671875,-4.083984375,2.6025390625
0.0045,2.0419921875,-4.32421875,2.2421875
0.005,2.72265625,-4.32421875,1.5615234375
0.0055,3.1630859375,-4.1240234375,0.9609375
0.006,3.4833984375,-3.7236328125,0.3203125
0.0065,3.84375,-3.36328125,-0.3603515625
0.007,4.00390625,-2.5224609375,-1.3212890625
0.0075,4.1640625,-2.0419921875,-1.9619140625
0.008,4.2041015625,-1.28125,-2.8427734375
0.0085,3.763671875,-0.5205078125,-3.203125
0.009,3.603515625,0.080078125,-3.6435546875
0.0095,3.0029296875,0.9208984375,-3.923828125
0.01,2.5224609375,1.681640625,-4.1640625
0.0105,1.8017578125,2.40234375,-4.2041015625
0.011,1.041015625,3.04296875,-4.083984375
0.0115,0.1201171875,3.4033203125,-3.5634765625
0.012,-0.48046875,3.923828125,-3.4833984375
0.0125,-1.4814453125,4.00390625,-2.6025390625
0.013,-2.0419921875,4.2041015625,-2.2822265625
0.0135,-2.7626953125,4.1640625,-1.5615234375
0.014,-3.123046875,3.84375,-0.880859375
0.0145,-3.4833984375,3.5234375,-0.240234375
0.015,-3.7236328125,2.962890625,0.560546875
0.0155,-3.8837890625,2.2421875,1.4013671875
0.016,-4.00390625,1.681640625,2.0419921875
0.0165,-4.00390625,0.9208984375,2.7626953125
0.017,-3.4833984375,0.1201171875,3.04296875
0.0175,-3.36328125,-0.4404296875,3.5634765625
0.018,-2.642578125,-1.361328125,3.84375
0.0185,-2.2021484375,-2.001953125,4.083984375
0.019,-1.361328125,-2.72265625,3.9638671875
0.0195,-0.640625,-3.2431640625,3.763671875
0.02,0.2001953125,-3.603515625,3.3232421875
0.0205,0.9208984375,-4.0439453125,3.04296875
0.021,1.921875,-4.1640625,2.2421875
0.0215,2.3623046875,-4.244140625,1.921875
0.022,3.04296875,-4.244140625,1.2412109375
0.0225,3.3232421875,-3.763671875,0.560546875
0.023,3.68359375,-3.5634765625,-0.0400390625
0.0235,3.8837890625,-2.7626953125,-1.0009765625
0.024,4.083984375,-2.2822265625,-1.681640625
0.0245,4.0439453125,-1.6015625,-2.40234375
0.025,3.9638671875,-0.9609375,-2.962890625
0.0255,3.4833984375,-0.16015625,-3.283203125
0.026,3.3232421875,0.4404296875,-3.7236328125
0.0265,2.5625,1.4013671875,-3.923828125
0.027,2.2021484375,1.9619140625,-4.1240234375
0.0275,1.3212890625,2.6826171875,-4.00390625
0.028,0.6005859375,3.123046875,-3.68359375
0.0285,-0.080078125,3.5234375,-3.443359375
0.029,-0.880859375,3.8037109375,-2.9228515625
0.0295,-1.681640625,3.9638671875,-2.40234375
0.03,-2.162109375,4.00390625,-1.9619140625
0.0305,-2.72265625,3.9638671875,-1.361328125
0.031,-3.0029296875,3.4833984375,-0.640625
0.0315,-3.4833984375,3.3232421875,-0.0400390625
0.032,-3.5634765625,2.482421875,0.880859375
0.0325,-3.8837890625,2.1220703125,1.521484375
0.033,-3.84375,1.361328125,2.2021484375
0.0335,-3.68359375,0.720703125,2.642578125
0.034,-3.3232421875,0.0,3.0830078125
0.0345,-3.0830078125,-0.640625,3.5234375
0.035,-2.4423828125,-1.521484375,3.8037109375
0.0355,-1.921875,-2.1220703125,3.8837890625
0.036,-1.1611328125,-2.8427734375,3.84375
0.0365,-0.3203125,-3.203125,3.443359375
0.037,0.3203125,-3.763671875,3.3232421875
0.0375,1.28125,-3.9638671875,2.6025390625
0.038,1.9619140625,-4.244140625,2.2421875
0.0385,2.5224609375,-4.1240234375,1.6416015625
0.039,3.04296875,-4.0439453125,1.0810546875
0.0395,3.283203125,-3.5634765625,0.3203125
0.04,3.763671875,-3.3232421875,-0.3203125
0.0405,3.8837890625,-2.4423828125,-1.361328125
0.041,4.1240234375,-2.001953125,-2.001953125
0.0415,3.9638671875,-1.201171875,-2.72265625
0.042,3.68359375,-0.48046875,-3.0830078125
0.0425,3.36328125,0.240234375,-3.5634765625
0.043,2.9228515625,0.9609375,-3.84375
0.0435,2.322265625,1.841796875,-4.1240234375
0.044,1.6015625,2.3623046875,-4.00390625
0.0445,0.880859375,3.04296875,-3.8837890625
0.045,0.0,3.3232421875,-3.36328125
0.0455,-0.560546875,3.8037109375,-3.2431640625
0.046,-1.521484375,3.84375,-2.4423828125
0.0465,-2.08203125,4.083984375,-2.08203125
0.047,-2.6025390625,3.84375,-1.4013671875
0.0475,-2.962890625,3.6435546875,-0.8408203125
0.048,-3.203125,3.1630859375,-0.16015625
0.0485,-3.5234375,2.7626953125,0.5205078125
0.049,-3.68359375,2.0419921875,1.4013671875
0.0495,-3.763671875,1.5615234375,1.8818359375
0.05,-3.6435546875,0.9208984375,2.5224609375
0.0505,-3.2431640625,0.240234375,2.802734375
0.051,-3.123046875,-0.3603515625,3.283203125
0.0515,-2.5224609375,-1.1611328125,3.5234375
0.052,-2.1220703125,-1.8017578125,3.8037109375
0.0525,-1.361328125,-2.322265625,3.5634765625
0.053,-0.720703125,-2.8828125,3.5234375
0.0535,0.0400390625,-3.2431640625,3.123046875
0.054,0.640625,-3.68359375,2.962890625
0.0545,1.4814453125,-3.84375,2.2822265625
0.055,1.921875,-3.9638671875,2.0419921875
0.0555,2.482421875,-3.8837890625,1.44140625
0.056,2.7626953125,-3.603515625,0.9208984375
0.0565,3.203125,-3.4033203125,0.2802734375
0.057,3.4033203125,-2.8427734375,-0.5205078125
0.0575,3.7236328125,-2.4423828125,-1.2412109375
0.058,3.68359375,-1.8017578125,-1.8017578125
0.0585,3.68359375,-1.28125,-2.322265625
0.059,3.3232421875,-0.5205078125,-2.72265625
0.0595,3.3232421875,0.0400390625,-3.283203125
0.06,2.72265625,0.880859375,-3.5634765625
0.0605,2.40234375,1.44140625,-3.84375
0.061,1.6015625,2.08203125,-3.7236328125
0.0615,1.0009765625,2.5625,-3.5634765625
0.062,0.2802734375,3.04296875,-3.36328125
0.0625,-0.3603515625,3.4033203125,-3.04296875
0.063,-1.1611328125,3.7236328125,-2.6025390625
0.0635,-1.6015625,3.763671875,-2.2421875
0.064,-2.2021484375,3.763671875,-1.7216796875
0.0645,-2.5224609375,3.36328125,-1.041015625
0.065,-3.04296875,3.2431640625,-0.400390625
0.0655,-3.2431640625,2.5224609375,0.4404296875
0.066,-3.603515625,2.2822265625,1.12109375
0.0665,-3.5234375,1.5615234375,1.681640625
0.067,-3.5634765625,1.12109375,2.2421875
0.0675,-3.203125,0.3203125,2.6826171875
0.068,-3.04296875,-0.3203125,3.1630859375
0.0685,-2.482421875,-1.1611328125,3.4833984375
0.069,-1.9619140625,-1.7216796875,3.5634765625
0.0695,-1.2412109375,-2.40234375,3.5234375
0.07,-0.5205078125,-2.8427734375,3.2431640625
0.0705,0.1201171875,-3.36328125,3.123046875
0.071,0.9609375,-3.603515625,2.5625
0.0715,1.5615234375,-3.8837890625,2.2822265625
0.072,2.0419921875,-3.8037109375,1.76171875
0.0725,2.5625,-3.84375,1.28125
0.073,2.8427734375,-3.36328125,0.560546875
0.0735,3.283203125,-3.203125,-0.080078125
0.074,3.4833984375,-2.40234375,-1.0009765625
0.0745,3.7236328125,-2.08203125,-1.5615234375
0.075,3.5634765625,-1.3212890625,-2.162109375
0.0755,3.443359375,-0.7607421875,-2.5625
0.076,3.203125,-0.0400390625,-3.0830078125
0.0765,2.8427734375,0.6005859375,-3.4033203125
0.077,2.40234375,1.361328125,-3.7236328125
0.0775,1.76171875,1.8818359375,-3.603515625
0.078,1.12109375,2.5224609375,-3.603515625
0.0785,0.3203125,2.8427734375,-3.203125
0.079,-0.2001953125,3.3232421875,-3.1630859375
0.0795,-1.041015625,3.5234375,-2.5224609375
0.08,-1.5615234375,3.763671875,-2.2822265625
0.0805,-2.001953125,3.5634765625,-1.681640625
0.081,-2.4423828125,3.4833984375,-1.28125
0.0815,-2.802734375,3.04296875,-0.5205078125
0.082,-3.0830078125,2.72265625,0.1201171875
0.0825,-3.36328125,2.2021484375,0.9609375
0.083,-3.4833984375,1.76171875,1.44140625
0.0835,-3.443359375,1.201171875,2.0419921875
0.084,-3.203125,0.560546875,2.4423828125
0.0845,-3.0830078125,-0.080078125,2.962890625
0.085,-2.6025390625,-0.8408203125,3.2431640625
0.0855,-2.2021484375,-1.4814453125,3.5634765625
0.086,-1.4814453125,-2.001953125,3.36328125
0.0865,-0.9208984375,-2.6025390625,3.4033203125
0.087,-0.080078125,-3.04296875,3.04296875
0.0875,0.48046875,-3.443359375,2.8828125
0.088,1.3212890625,-3.7236328125,2.40234375
0.0885,1.76171875,-3.84375,2.08203125
0.089,2.2822265625,-3.84375,1.521484375
0.0895,2.6025390625,-3.5634765625,0.9208984375
0.09,3.123046875,-3.283203125,0.240234375
0.0905,3.3232421875,-2.72265625,-0.5205078125
0.091,3.68359375,-2.2822265625,-1.28125
0.0915,3.603515625,-1.681640625,-1.8017578125
0.092,3.6435546875,-1.1611328125,-2.40234375
0.0925,3.2431640625,-0.3603515625,-2.7626953125
0.093,3.1630859375,0.2001953125,-3.283203125
0.0935,2.5625,1.12109375,-3.603515625
0.094,2.0419921875,1.6416015625,-3.7236328125
0.0945,1.3212890625,2.2421875,-3.5634765625
0.095,0.640625,2.72265625,-3.443359375
0.0955,0.0,3.1630859375,-3.1630859375
0.096,-0.720703125,3.4833984375,-2.7626953125
0.0965,-1.44140625,3.7236328125,-2.3623046875
0.097,-1.841796875,3.5634765625,-1.921875
0.0975,-2.4423828125,3.6435546875,-1.4013671875
0.098,-2.642578125,3.1630859375,-0.640625
0.0985,-3.123046875,2.962890625,0.0
0.099,-3.283203125,2.2421875,0.8408203125
0.0995,-3.5634765625,1.921875,1.4013671875
0.1,-3.36328125,1.201171875,1.921875
0.1005,-3.36328125,0.6806640625,2.40234375
0.101,-2.962890625,-0.0400390625,2.8427734375
0.1015,-2.72265625,-0.6806640625,3.2431640625
0.102,-2.2021484375,-1.4814453125,3.5234375
0.1025,-1.6015625,-2.001953125,3.443359375
0.103,-0.9208984375,-2.6025390625,3.4033203125
0.1035,-0.2001953125,-2.962890625,3.123046875
0.104,0.4404296875,-3.4033203125,2.8828125
0.1045,1.2412109375,-3.68359375,2.3623046875
0.105,1.841796875,-3.8837890625,2.0419921875
0.1055,2.162109375,-3.7236328125,1.4814453125
0.106,2.6025390625,-3.68359375,1.0810546875
0.1065,2.9228515625,-3.1630859375,0.2802734375
0.107,3.3232421875,-2.8828125,-0.3203125
0.1075,3.5234375,-2.2421875,-1.201171875
0.108,3.6435546875,-1.841796875,-1.681640625
0.1085,3.4833984375,-1.1611328125,-2.2421875
0.109,3.3232421875,-0.640625,-2.6025390625
0.1095,3.123046875,0.0400390625,-3.0830078125
0.11,2.72265625,0.7607421875,-3.4033203125
0.1105,2.2822265625,1.44140625,-3.7236328125
0.111,1.5615234375,1.921875,-3.5234375
0.1115,1.0009765625,2.5224609375,-3.5634765625
0.112,0.240234375,2.9228515625,-3.1630859375
0.1125,-0.3203125,3.2431640625,-3.04296875
0.113,-1.12109375,3.5234375,-2.5224609375
0.1135,-1.5615234375,3.6435546875,-2.2421875
0.114,-2.001953125,3.5234375,-1.6416015625
0.1145,-2.4423828125,3.4033203125,-1.1611328125
0.115,-2.802734375,3.0029296875,-0.400390625
0.1155,-3.123046875,2.642578125,0.2802734375
0.116,-3.443359375,2.1220703125,1.12109375
0.1165,-3.4033203125,1.681640625,1.521484375
0.117,-3.443359375,1.0810546875,2.1220703125
0.1175,-3.1630859375,0.400390625,2.5224609375
0.118,-3.0029296875,-0.2001953125,3.04296875
0.1185,-2.482421875,-1.0009765625,3.3232421875
0.119,-2.0419921875,-1.6416015625,3.5234375
0.1195,-1.3212890625,-2.162109375,3.3232421875
0.12,-0.6806640625,-2.7626953125,3.3232421875
0.1205,0.080078125,-3.203125,2.9228515625
0.121,0.6806640625,-3.5634765625,2.72265625
0.1215,1.4814453125,-3.84375,2.2421875
0.122,1.8818359375,-3.763671875,1.921875
0.1225,2.40234375,-3.7236328125,1.361328125
0.123,2.6826171875,-3.36328125,0.720703125
0.1235,3.1630859375,-3.0830078125,0.0
0.124,3.36328125,-2.5224609375,-0.7607421875
0.1245,3.6435546875,-2.08203125,-1.4814453125
0.125,3.443359375,-1.44140625,-1.921875
0.1255,3.5234375,-0.9609375,-2.482421875
0.126,3.123046875,-0.16015625,-2.8828125
0.1265,2.9228515625,0.400390625,-3.283203125
0.127,2.40234375,1.2412109375,-3.603515625
0.1275,1.841796875,1.76171875,-3.5634765625
0.128,1.12109375,2.322265625,-3.443359375
0.1285,0.5205078125,2.72265625,-3.3232421875
0.129,-0.16015625,3.123046875,-2.962890625
0.1295,-0.8408203125,3.36328125,-2.642578125
0.13,-1.4814453125,3.68359375,-2.2822265625
0.1305,-1.8017578125,3.4833984375,-1.8017578125
0.131,-2.3623046875,3.5234375,-1.3212890625
0.1315,-2.6025390625,3.04296875,-0.6005859375
0.132,-3.04296875,2.802734375,0.0400390625
0.1325,-3.2431640625,2.2021484375,0.880859375
0.133,-3.4833984375,1.8818359375,1.361328125
0.1335,-3.2431640625,1.1611328125,1.921875
0.134,-3.283203125,0.6806640625,2.40234375
0.1345,-2.9228515625,-0.0400390625,2.8427734375
0.135,-2.642578125,-0.6806640625,3.203125
0.1355,-2.2021484375,-1.4814453125,3.4833984375
0.136,-1.5615234375,-1.9619140625,3.3232421875
0.1365,-0.9208984375,-2.6025390625,3.36328125
0.137,-0.16015625,-3.04296875,3.04296875
0.1375,0.48046875,-3.4833984375,2.8427734375
0.138,1.28125,-3.7236328125,2.40234375
0.1385,1.8017578125,-3.8837890625,2.0419921875
0.139,2.2021484375,-3.68359375,1.4814453125
0.1395,2.6826171875,-3.68359375,1.0009765625
0.14,3.0029296875,-3.123046875,0.16015625
0.1405,3.4033203125,-2.8427734375,-0.5205078125
0.141,3.68359375,-2.162109375,-1.4013671875
0.1415,3.6435546875,-1.6416015625,-1.8818359375
0.142,3.5234375,-1.0009765625,-2.4423828125
0.1425,3.3232421875,-0.3603515625,-2.8828125
0.143,3.04296875,0.3203125,-3.283203125
0.1435,2.5625,1.12109375,-3.603515625
0.144,2.0419921875,1.841796875,-3.8037109375
0.1445,1.2412109375,2.2421875,-3.5634765625
0.145,0.6005859375,2.8427734375,-3.5634765625
0.1455,-0.16015625,3.1630859375,-3.0830078125
0.146,-0.80078125,3.5634765625,-2.802734375
0.1465,-1.6015625,3.8037109375,-2.2421875
0.147,-2.08203125,3.7236328125,-1.76171875
0.1475,-2.482421875,3.5234375,-1.1611328125
0.148,-2.8427734375,3.283203125,-0.6005859375
0.1485,-3.123046875,2.72265625,0.2001953125
0.149,-3.4033203125,2.2822265625,0.9208984375
0.1495,-3.6435546875,1.681640625,1.76171875
0.15,-3.36328125,1.0810546875,2.08203125
0.1505,-3.36328125,0.5205078125,2.642578125
0.151,-2.9228515625,-0.2001953125,2.962890625
0.1515,-2.642578125,-0.880859375,3.3232421875
0.152,-2.0419921875,-1.6416015625,3.5634765625
0.1525,-1.44140625,-2.2822265625,3.5234375
0.153,-0.6806640625,-2.72265625,3.283203125
0.1535,-0.080078125,-3.2431640625,3.1630859375
0.154,0.6806640625,-3.4833984375,2.6826171875
0.1545,1.3212890625,-3.763671875,2.40234375
0.155,2.0419921875,-3.923828125,1.8818359375
0.1555,2.40234375,-3.7236328125,1.361328125
0.156,2.8427734375,-3.6435546875,0.8408203125
0.1565,3.123046875,-3.1630859375,0.1201171875
0.157,3.4033203125,-2.7626953125,-0.6005859375
0.1575,3.6435546875,-2.162109375,-1.3212890625
0.158,3.763671875,-1.6416015625,-2.001953125
0.1585,3.443359375,-1.0009765625,-2.40234375
0.159,3.4833984375,-0.48046875,-2.9228515625
0.1595,3.0029296875,0.2802734375,-3.203125
0.16,2.6826171875,0.9208984375,-3.5634765625
0.1605,2.08203125,1.7216796875,-3.8037109375
0.161,1.4013671875,2.2021484375,-3.6435546875
0.1615,0.720703125,2.6826171875,-3.5234375
0.162,0.080078125,3.1630859375,-3.2431640625
0.1625,-0.640625,3.4033203125,-2.8427734375
0.163,-1.3212890625,3.68359375,-2.482421875
0.1635,-1.9619140625,3.8037109375,-1.9619140625
0.164,-2.2822265625,3.5234375,-1.4013671875
0.1645,-2.7626953125,3.5234375,-0.9208984375
0.165,-2.962890625,2.8828125,-0.080078125
0.1655,-3.3232421875,2.5625,0.5205078125
0.166,-3.5234375,1.921875,1.361328125
0.1665,-3.5634765625,1.4814453125,1.8818359375
0.167,-3.283203125,0.7607421875,2.2822265625
0.1675,-3.2431640625,0.240234375,2.802734375
0.168,-2.802734375,-0.5205078125,3.1630859375
0.1685,-2.4423828125,-1.201171875,3.4833984375
0.169,-1.8017578125,-1.9619140625,3.6435546875
0.1695,-1.12109375,-2.4423828125,3.3232421875
0.17,-0.48046875,-2.962890625,3.3232421875
0.1705,0.2802734375,-3.3232421875,2.9228515625
0.171,0.9609375,-3.6435546875,2.6025390625
0.1715,1.681640625,-3.8837890625,2.162109375
0.172,2.2421875,-3.923828125,1.7216796875
0.1725,2.5224609375,-3.603515625,1.12109375
0.173,3.0029296875,-3.5634765625,0.6005859375
0.1735,3.2431640625,-2.8828125,-0.3203125
0.174,3.6435546875,-2.5625,-0.9609375
0.1745,3.763671875,-1.841796875,-1.8017578125
0.175,3.6435546875,-1.28125,-2.2421875
0.1755,3.4833984375,-0.640625,-2.72265625
0.176,3.203125,0.0,-3.1630859375
0.1765,2.8427734375,0.6806640625,-3.5634765625
0.177,2.3623046875,1.44140625,-3.8037109375
0.1775,1.681640625,2.1220703125,-3.8837890625
0.178,0.880859375,2.6025390625,-3.4833984375
0.1785,0.3203125,3.1630859375,-3.5634765625
0.179,-0.560546875,3.443359375,-2.8828125
0.1795,-1.201171875,3.763671875,-2.6025390625
0.18,-1.921875,3.84375,-2.0419921875
0.1805,-2.3623046875,3.763671875,-1.521484375
0.181,-2.72265625,3.4833984375,-0.880859375
0.1815,-3.1630859375,3.203125,-0.2802734375
0.182,-3.36328125,2.5224609375,0.6005859375
0.1825,-3.603515625,2.1220703125,1.28125
0.183,-3.7236328125,1.44140625,2.0419921875
0.1835,-3.4033203125,0.7607421875,2.40234375
0.184,-3.36328125,0.2001953125,2.962890625
0.1845,-2.8828125,-0.640625,3.283203125
0.185,-2.4423828125,-1.3212890625,3.6435546875
0.1855,-1.8017578125,-2.08203125,3.68359375
0.186,-1.12109375,-2.642578125,3.68359375
0.1865,-0.3203125,-3.04296875,3.283203125
0.187,0.3203125,-3.603515625,3.1630859375
0.1875,1.2412109375,-3.763671875,2.482421875
0.188,1.841796875,-4.00390625,2.162109375
0.1885,2.482421875,-4.0439453125,1.5615234375
0.189,2.8427734375,-3.8037109375,1.0009765625
0.1895,3.2431640625,-3.5634765625,0.3603515625
0.19,3.5234375,-3.04296875,-0.400390625
0.1905,3.763671875,-2.4423828125,-1.2412109375
0.191,3.8837890625,-1.8818359375,-1.9619140625
0.1915,3.923828125,-1.2412109375,-2.6025390625
0.192,3.4833984375,-0.48046875,-2.9228515625
0.1925,3.443359375,0.0400390625,-3.4833984375
0.193,2.802734375,0.9609375,-3.7236328125
0.1935,2.3623046875,1.6416015625,-4.0439453125
0.194,1.5615234375,2.40234375,-3.9638671875
0.1945,0.8408203125,2.962890625,-3.8037109375
0.195,0.0400390625,3.3232421875,-3.4833984375
0.1955,-0.640625,3.8037109375,-3.203125
0.196,-1.6015625,3.923828125,-2.4423828125
0.1965,-2.1220703125,4.083984375,-2.0419921875
0.197,-2.802734375,4.0439453125,-1.4013671875
0.1975,-3.0830078125,3.603515625,-0.6806640625
0.198,-3.5234375,3.36328125,-0.080078125
0.1985,-3.7236328125,2.6025390625,0.880859375
0.199,-3.923828125,2.0419921875,1.6416015625
0.1995,-3.923828125,1.361328125,2.2822265625
0.2,-3.8037109375,0.6806640625,2.8828125
0.2005,-3.36328125,-0.080078125,3.1630859375
0.201,-3.203125,-0.720703125,3.68359375
0.2015,-2.3623046875,-1.76171875,3.8837890625
0.202,-1.8818359375,-2.322265625,4.0439453125
0.2025,-1.0009765625,-3.0830078125,3.923828125
0.203,-0.16015625,-3.5234375,3.5634765625
0.2035,0.6005859375,-3.8837890625,3.203125
0.204,1.4814453125,-4.2041015625,2.6826171875
0.2045,2.40234375,-4.3642578125,1.9619140625
0.205,2.8427734375,-4.244140625,1.44140625
0.2055,3.443359375,-4.2041015625,0.80078125
0.206,3.603515625,-3.603515625,0.080078125
0.2065,4.00390625,-3.36328125,-0.560546875
0.207,4.1240234375,-2.322265625,-1.6416015625
0.2075,4.2841796875,-1.8017578125,-2.3623046875
0.208,4.083984375,-1.0009765625,-3.0029296875
0.2085,3.84375,-0.3203125,-3.4833984375
0.209,3.3232421875,0.4404296875,-3.7236328125
0.2095,3.0029296875,1.12109375,-4.1240234375
0.21,2.2021484375,2.162109375,-4.2841796875
0.2105,1.5615234375,2.6826171875,-4.244140625
0.211,0.720703125,3.3232421875,-4.083984375
0.2115,-0.080078125,3.6435546875,-3.5634765625
0.212,-0.80078125,4.00390625,-3.2431640625
0.2125,-1.76171875,4.1240234375,-2.5224609375
0.213,-2.5224609375,4.32421875,-1.9619140625
0.2135,-2.9228515625,4.083984375,-1.28125
0.214,-3.443359375,3.923828125,-0.6806640625
0.2145,-3.5634765625,3.283203125,0.0400390625
0.215,-3.9638671875,3.0029296875,0.720703125
0.2155,-4.00390625,2.001953125,1.76171875
0.216,-4.1640625,1.5615234375,2.322265625
0.2165,-3.8837890625,0.640625,3.0029296875
0.217,-3.5634765625,0.0,3.3232421875
0.2175,-3.203125,-0.720703125,3.6435546875
0.218,-2.642578125,-1.4814453125,3.9638671875
0.2185,-2.001953125,-2.40234375,4.1640625
0.219,-1.2412109375,-2.8828125,3.9638671875
0.2195,-0.48046875,-3.5234375,3.84375
0.22,0.400390625,-3.763671875,3.283203125
0.2205,1.041015625,-4.2041015625,3.0830078125
0.221,2.0419921875,-4.2841796875,2.2421875
0.2215,2.6826171875,-4.4443359375,1.76171875
0.222,3.123046875,-4.1640625,1.0810546875
0.2225,3.5634765625,-4.00390625,0.48046875
0.223,3.763671875,-3.36328125,-0.2802734375
0.2235,4.083984375,-2.9228515625,-1.0009765625
0.224,4.2041015625,-2.0419921875,-2.001953125
0.2245,4.1640625,-1.5615234375,-2.5625
0.225,4.00390625,-0.720703125,-3.203125
0.2255,3.5634765625,0.0,-3.5234375
0.226,3.283203125,0.6806640625,-3.8837890625
0.2265,2.6025390625,1.5615234375,-4.083984375
0.227,2.0419921875,2.3623046875,-4.3642578125
