wavelength,x,y,z
0.0,-5.755615234375,-1.591552734375,6.456298828125
0.0005,-5.755615234375,-0.710693359375,5.895751953125
0.001,-5.595458984375,0.450439453125,4.894775390625
0.0015,-5.555419921875,1.731689453125,3.813720703125
0.002,-5.435302734375,3.133056640625,2.692626953125
0.0025,-5.275146484375,4.134033203125,1.651611328125
0.003,-4.994873046875,4.854736328125,0.810791015625
0.0035,-4.114013671875,5.135009765625,-0.270263671875
0.004,-2.872802734375,5.295166015625,-1.591552734375
0.0045,-1.751708984375,5.775634765625,-3.113037109375
0.005,-0.710693359375,5.935791015625,-4.314208984375
0.0055,0.130126953125,6.176025390625,-5.275146484375
0.006,1.010986328125,5.855712890625,-5.915771484375
0.0065,2.252197265625,4.774658203125,-6.276123046875
0.007,3.653564453125,3.533447265625,-6.676513671875
0.0075,4.814697265625,2.252197265625,-6.876708984375
0.008,5.455322265625,1.171142578125,-6.756591796875
0.0085,5.775634765625,0.290283203125,-6.556396484375
0.009,5.615478515625,-0.790771484375,-5.755615234375
0.0095,5.255126953125,-1.951904296875,-4.554443359375
0.01,5.255126953125,-3.353271484375,-3.353271484375
0.0105,5.094970703125,-4.594482421875,-2.152099609375
0.011,4.854736328125,-5.515380859375,-1.231201171875
0.0115,4.334228515625,-6.075927734375,-0.310302734375
0.012,3.213134765625,-6.156005859375,0.890869140625
0.0125,1.891845703125,-6.396240234375,2.412353515625
0.013,0.650634765625,-6.676513671875,3.893798828125
0.0135,-0.350341796875,-6.796630859375,4.934814453125
0.014,-1.031005859375,-6.916748046875,5.775634765625
0.0145,-2.112060546875,-6.156005859375,6.256103515625
0.015,-3.513427734375,-4.834716796875,6.536376953125
0.0155,-4.834716796875,-3.553466796875,6.896728515625
0.016,-5.755615234375,-2.312255859375,6.896728515625
0.0165,-6.276123046875,-1.351318359375,6.736572265625
0.017,-6.356201171875,-0.470458984375,6.296142578125
0.0175,-6.115966796875,0.690673828125,5.175048828125
0.018,-5.755615234375,2.052001953125,3.893798828125
0.0185,-5.715576171875,3.493408203125,2.652587890625
0.019,-5.395263671875,4.534423828125,1.531494140625
0.0195,-5.114990234375,5.375244140625,0.610595703125
0.02,-4.274169921875,5.655517578125,-0.470458984375
0.0205,-2.952880859375,5.735595703125,-1.751708984375
0.021,-1.631591796875,6.055908203125,-3.353271484375
0.0215,-0.470458984375,6.135986328125,-4.674560546875
0.022,0.450439453125,6.256103515625,-5.635498046875
0.0225,1.211181640625,6.135986328125,-6.356201171875
0.023,2.412353515625,5.094970703125,-6.716552734375
0.0235,3.773681640625,3.733642578125,-6.916748046875
0.024,4.974853515625,2.412353515625,-7.197021484375
0.0245,5.735595703125,1.131103515625,-7.036865234375
0.025,6.135986328125,0.210205078125,-6.876708984375
0.0255,6.015869140625,-0.830810546875,-6.156005859375
0.026,5.655517578125,-1.951904296875,-4.874755859375
0.0265,5.415283203125,-3.313232421875,-3.593505859375
0.027,5.255126953125,-4.634521484375,-2.272216796875
0.0275,4.974853515625,-5.635498046875,-1.271240234375
0.028,4.534423828125,-6.276123046875,-0.350341796875
0.0285,3.533447265625,-6.436279296875,0.770751953125
0.029,2.132080078125,-6.476318359375,2.172119140625
0.0295,0.810791015625,-6.796630859375,3.773681640625
0.03,-0.350341796875,-6.876708984375,4.934814453125
0.0305,-1.071044921875,-6.996826171875,5.815673828125
0.031,-1.951904296875,-6.556396484375,6.416259765625
0.0315,-3.233154296875,-5.315185546875,6.696533203125
0.032,-4.634521484375,-3.993896484375,6.976806640625
0.0325,-5.715576171875,-2.672607421875,7.096923828125
0.033,-6.356201171875,-1.551513671875,6.896728515625
0.0335,-6.556396484375,-0.670654296875,6.616455078125
0.034,-6.316162109375,0.450439453125,5.735595703125
0.0345,-5.915771484375,1.651611328125,4.414306640625
0.035,-5.795654296875,3.173095703125,3.093017578125
0.0355,-5.555419921875,4.334228515625,1.851806640625
0.036,-5.275146484375,5.255126953125,0.850830078125
0.0365,-4.674560546875,5.735595703125,0.010009765625
0.037,-3.473388671875,5.775634765625,-1.311279296875
0.0375,-2.112060546875,5.975830078125,-2.792724609375
0.038,-0.790771484375,6.216064453125,-4.314208984375
0.0385,0.250244140625,6.256103515625,-5.395263671875
0.039,0.930908203125,6.336181640625,-6.236083984375
0.0395,1.931884765625,5.615478515625,-6.676513671875
0.04,3.253173828125,4.254150390625,-6.876708984375
0.0405,4.614501953125,2.892822265625,-7.197021484375
0.041,5.575439453125,1.571533203125,-7.156982421875
0.0415,6.055908203125,0.530517578125,-6.996826171875
0.042,6.176025390625,-0.430419921875,-6.556396484375
0.0425,5.815673828125,-1.431396484375,-5.435302734375
0.043,5.495361328125,-2.712646484375,-4.154052734375
0.0435,5.415283203125,-4.194091796875,-2.832763671875
0.044,5.094970703125,-5.315185546875,-1.631591796875
0.0445,4.814697265625,-6.115966796875,-0.710693359375
0.045,4.013916015625,-6.436279296875,0.330322265625
0.0455,2.692626953125,-6.516357421875,1.611572265625
0.046,1.291259765625,-6.756591796875,3.253173828125
0.0465,0.130126953125,-6.916748046875,4.574462890625
0.047,-0.830810546875,-6.996826171875,5.575439453125
0.0475,-1.591552734375,-6.876708984375,6.296142578125
0.048,-2.752685546875,-5.875732421875,6.656494140625
0.0485,-4.154052734375,-4.514404296875,6.896728515625
0.049,-5.435302734375,-3.193115234375,7.136962890625
0.0495,-6.236083984375,-1.951904296875,7.016845703125
0.05,-6.596435546875,-0.950927734375,6.856689453125
0.0505,-6.516357421875,0.090087890625,6.135986328125
0.051,-6.115966796875,1.291259765625,4.854736328125
0.0515,-5.915771484375,2.692626953125,3.533447265625
0.052,-5.755615234375,4.053955078125,2.252197265625
0.0525,-5.395263671875,5.054931640625,1.131103515625
0.053,-4.994873046875,5.695556640625,0.250244140625
0.0535,-3.913818359375,5.895751953125,-0.950927734375
0.054,-2.552490234375,5.895751953125,-2.312255859375
0.0545,-1.191162109375,6.256103515625,-3.953857421875
0.055,0.010009765625,6.256103515625,-5.114990234375
0.0555,0.770751953125,6.376220703125,-6.035888671875
0.056,1.611572265625,5.935791015625,-6.596435546875
0.0565,2.892822265625,4.654541015625,-6.876708984375
0.057,4.254150390625,3.333251953125,-7.076904296875
0.0575,5.295166015625,1.931884765625,-7.237060546875
0.058,5.935791015625,0.810791015625,-6.996826171875
0.0585,6.176025390625,0.010009765625,-6.716552734375
0.059,5.895751953125,-1.111083984375,-5.835693359375
0.0595,5.495361328125,-2.232177734375,-4.554443359375
0.06,5.415283203125,-3.713623046875,-3.233154296875
0.0605,5.135009765625,-4.874755859375,-1.991943359375
0.061,4.854736328125,-5.755615234375,-0.990966796875
0.0615,4.334228515625,-6.276123046875,-0.190185546875
0.062,3.173095703125,-6.356201171875,1.010986328125
0.0625,1.851806640625,-6.476318359375,2.412353515625
0.063,0.570556640625,-6.716552734375,3.973876953125
0.0635,-0.510498046875,-6.756591796875,4.974853515625
0.064,-1.151123046875,-6.916748046875,5.815673828125
0.0645,-2.072021484375,-6.356201171875,6.256103515625
0.065,-3.353271484375,-5.074951171875,6.456298828125
0.0655,-4.674560546875,-3.833740234375,6.856689453125
0.066,-5.595458984375,-2.552490234375,6.896728515625
0.0665,-6.156005859375,-1.551513671875,6.696533203125
0.067,-6.276123046875,-0.710693359375,6.376220703125
0.0675,-6.035888671875,0.370361328125,5.415283203125
0.068,-5.755615234375,1.531494140625,4.254150390625
0.0685,-5.635498046875,2.972900390625,3.052978515625
0.069,-5.395263671875,4.093994140625,1.931884765625
0.0695,-5.155029296875,4.974853515625,0.970947265625
0.07,-4.514404296875,5.335205078125,0.090087890625
0.0705,-3.393310546875,5.455322265625,-1.151123046875
0.071,-2.192138671875,5.775634765625,-2.592529296875
0.0715,-0.990966796875,5.975830078125,-3.993896484375
0.072,0.010009765625,6.135986328125,-5.034912109375
0.0725,0.690673828125,6.095947265625,-5.795654296875
0.073,1.691650390625,5.375244140625,-6.236083984375
0.0735,2.972900390625,4.134033203125,-6.516357421875
0.074,4.294189453125,3.012939453125,-6.876708984375
0.0745,5.094970703125,1.771728515625,-6.796630859375
0.075,5.655517578125,0.890869140625,-6.756591796875
0.0755,5.655517578125,0.010009765625,-6.236083984375
0.076,5.415283203125,-1.111083984375,-5.275146484375
0.0765,5.255126953125,-2.312255859375,-4.154052734375
0.077,5.175048828125,-3.713623046875,-2.912841796875
0.0775,4.974853515625,-4.754638671875,-1.911865234375
0.078,4.734619140625,-5.555419921875,-1.031005859375
0.0785,3.893798828125,-5.795654296875,0.010009765625
0.079,2.732666015625,-5.955810546875,1.171142578125
0.0795,1.571533203125,-6.396240234375,2.692626953125
0.08,0.530517578125,-6.516357421875,3.893798828125
0.0805,-0.310302734375,-6.796630859375,4.894775390625
0.081,-1.111083984375,-6.596435546875,5.575439453125
0.0815,-2.272216796875,-5.675537109375,5.895751953125
0.082,-3.553466796875,-4.514404296875,6.296142578125
0.0825,-4.674560546875,-3.353271484375,6.536376953125
0.083,-5.435302734375,-2.272216796875,6.536376953125
0.0835,-5.835693359375,-1.431396484375,6.416259765625
0.084,-5.755615234375,-0.590576171875,5.775634765625
0.0845,-5.475341796875,0.570556640625,4.774658203125
0.085,-5.475341796875,1.851806640625,3.733642578125
0.0855,-5.395263671875,3.052978515625,2.652587890625
0.086,-5.195068359375,4.093994140625,1.691650390625
0.0865,-4.834716796875,4.734619140625,0.890869140625
0.087,-3.993896484375,4.974853515625,-0.190185546875
0.0875,-2.912841796875,5.215087890625,-1.431396484375
0.088,-1.791748046875,5.615478515625,-2.872802734375
0.0885,-0.910888671875,5.735595703125,-3.993896484375
0.089,-0.190185546875,6.015869140625,-4.994873046875
0.0895,0.730712890625,5.615478515625,-5.515380859375
0.09,1.931884765625,4.654541015625,-5.875732421875
0.0905,3.213134765625,3.693603515625,-6.356201171875
0.091,4.214111328125,2.532470703125,-6.476318359375
0.0915,4.934814453125,1.531494140625,-6.476318359375
0.092,5.255126953125,0.770751953125,-6.356201171875
0.0925,5.135009765625,-0.230224609375,-5.635498046875
0.093,4.974853515625,-1.231201171875,-4.754638671875
0.0935,5.054931640625,-2.552490234375,-3.713623046875
0.094,4.934814453125,-3.713623046875,-2.712646484375
0.0945,4.814697265625,-4.674560546875,-1.831787109375
0.095,4.334228515625,-5.195068359375,-0.990966796875
0.0955,3.453369140625,-5.435302734375,0.130126953125
0.096,2.452392578125,-5.835693359375,1.451416015625
0.0965,1.371337890625,-6.196044921875,2.772705078125
0.097,0.610595703125,-6.476318359375,3.853759765625
0.0975,-0.270263671875,-6.676513671875,4.734619140625
0.098,-1.231201171875,-6.115966796875,5.255126953125
0.0985,-2.432373046875,-5.155029296875,5.695556640625
0.099,-3.713623046875,-4.114013671875,6.135986328125
0.0995,-4.594482421875,-3.032958984375,6.256103515625
0.1,-5.275146484375,-2.192138671875,6.336181640625
0.1005,-5.435302734375,-1.351318359375,6.015869140625
0.101,-5.315185546875,-0.470458984375,5.215087890625
0.1015,-5.315185546875,0.770751953125,4.374267578125
0.102,-5.315185546875,2.052001953125,3.333251953125
0.1025,-5.195068359375,3.173095703125,2.412353515625
0.103,-5.074951171875,4.013916015625,1.571533203125
0.1035,-4.474365234375,4.454345703125,0.690673828125
0.104,-3.553466796875,4.694580078125,-0.470458984375
0.1045,-2.592529296875,5.175048828125,-1.831787109375
0.105,-1.631591796875,5.455322265625,-3.072998046875
0.1055,-0.910888671875,5.735595703125,-4.114013671875
0.106,0.010009765625,5.815673828125,-4.874755859375
0.1065,1.010986328125,5.094970703125,-5.275146484375
0.107,2.252197265625,4.214111328125,-5.755615234375
0.1075,3.413330078125,3.173095703125,-6.115966796875
0.108,4.294189453125,2.132080078125,-6.236083984375
0.1085,4.814697265625,1.371337890625,-6.316162109375
0.109,4.854736328125,0.610595703125,-5.835693359375
0.1095,4.734619140625,-0.390380859375,-5.074951171875
0.11,4.854736328125,-1.591552734375,-4.314208984375
0.1105,4.814697265625,-2.792724609375,-3.313232421875
0.111,4.774658203125,-3.833740234375,-2.432373046875
0.1115,4.614501953125,-4.594482421875,-1.671630859375
0.112,3.893798828125,-4.994873046875,-0.790771484375
0.1125,3.052978515625,-5.395263671875,0.490478515625
0.113,2.092041015625,-5.875732421875,1.811767578125
0.1135,1.211181640625,-6.236083984375,2.932861328125
0.114,0.570556640625,-6.556396484375,4.013916015625
0.1145,-0.430419921875,-6.316162109375,4.654541015625
0.115,-1.551513671875,-5.515380859375,5.094970703125
0.1155,-2.832763671875,-4.634521484375,5.735595703125
0.116,-3.873779296875,-3.633544921875,6.015869140625
0.1165,-4.674560546875,-2.752685546875,6.176025390625
0.117,-5.155029296875,-1.951904296875,6.095947265625
0.1175,-5.155029296875,-1.151123046875,5.575439453125
0.118,-5.114990234375,-0.150146484375,4.814697265625
0.1185,-5.275146484375,1.211181640625,3.973876953125
0.119,-5.235107421875,2.372314453125,3.012939453125
0.1195,-5.195068359375,3.373291015625,2.172119140625
0.12,-4.834716796875,3.973876953125,1.331298828125
0.1205,-3.993896484375,4.334228515625,0.330322265625
0.121,-3.193115234375,4.854736328125,-0.990966796875
0.1215,-2.232177734375,5.255126953125,-2.352294921875
0.122,-1.391357421875,5.655517578125,-3.473388671875
0.1225,-0.670654296875,5.895751953125,-4.434326171875
0.123,0.370361328125,5.455322265625,-4.994873046875
0.1235,1.571533203125,4.574462890625,-5.435302734375
0.124,2.892822265625,3.613525390625,-6.035888671875
0.1245,3.893798828125,2.532470703125,-6.156005859375
0.125,4.614501953125,1.731689453125,-6.356201171875
0.1255,4.854736328125,0.930908203125,-6.075927734375
0.126,4.814697265625,0.010009765625,-5.355224609375
0.1265,4.814697265625,-1.151123046875,-4.594482421875
0.127,4.894775390625,-2.472412109375,-3.593505859375
0.1275,4.814697265625,-3.553466796875,-2.712646484375
0.128,4.774658203125,-4.514404296875,-1.871826171875
0.1285,4.134033203125,-4.954833984375,-0.990966796875
0.129,3.253173828125,-5.275146484375,0.170166015625
0.1295,2.292236328125,-5.835693359375,1.571533203125
0.13,1.331298828125,-6.115966796875,2.812744140625
0.1305,0.650634765625,-6.436279296875,3.893798828125
0.131,-0.310302734375,-6.436279296875,4.694580078125
0.1315,-1.391357421875,-5.755615234375,5.175048828125
0.132,-2.632568359375,-4.794677734375,5.695556640625
0.1325,-3.873779296875,-3.713623046875,6.055908203125
0.133,-4.754638671875,-2.712646484375,6.176025390625
0.1335,-5.275146484375,-1.951904296875,6.216064453125
0.134,-5.315185546875,-1.111083984375,5.695556640625
0.1345,-5.155029296875,0.010009765625,4.854736328125
0.135,-5.275146484375,1.291259765625,3.973876953125
0.1355,-5.235107421875,2.492431640625,2.932861328125
0.136,-5.155029296875,3.493408203125,2.052001953125
0.1365,-4.874755859375,4.214111328125,1.251220703125
0.137,-4.114013671875,4.534423828125,0.290283203125
0.1375,-3.153076171875,4.854736328125,-1.071044921875
0.138,-2.112060546875,5.415283203125,-2.512451171875
0.1385,-1.231201171875,5.655517578125,-3.593505859375
0.139,-0.510498046875,5.935791015625,-4.634521484375
0.1395,0.490478515625,5.615478515625,-5.235107421875
0.14,1.651611328125,4.654541015625,-5.635498046875
0.1405,3.012939453125,3.653564453125,-6.115966796875
0.141,4.053955078125,2.532470703125,-6.356201171875
0.1415,4.814697265625,1.571533203125,-6.396240234375
0.142,5.094970703125,0.770751953125,-6.236083984375
0.1425,5.014892578125,-0.190185546875,-5.515380859375
0.143,4.854736328125,-1.271240234375,-4.594482421875
0.1435,4.974853515625,-2.592529296875,-3.593505859375
0.144,4.854736328125,-3.753662109375,-2.592529296875
0.1445,4.814697265625,-4.754638671875,-1.751708984375
0.145,4.294189453125,-5.275146484375,-0.910888671875
0.1455,3.293212890625,-5.515380859375,0.250244140625
0.146,2.252197265625,-5.915771484375,1.651611328125
0.1465,1.251220703125,-6.236083984375,2.972900390625
0.147,0.450439453125,-6.476318359375,4.053955078125
0.1475,-0.390380859375,-6.596435546875,4.934814453125
0.148,-1.431396484375,-5.955810546875,5.415283203125
0.1485,-2.712646484375,-4.914794921875,5.815673828125
0.149,-4.073974609375,-3.793701171875,6.296142578125
0.1495,-4.954833984375,-2.712646484375,6.376220703125
0.15,-5.515380859375,-1.831787109375,6.416259765625
0.1505,-5.635498046875,-0.990966796875,5.975830078125
0.151,-5.475341796875,0.090087890625,5.094970703125
0.1515,-5.435302734375,1.331298828125,4.013916015625
0.152,-5.435302734375,2.692626953125,2.972900390625
0.1525,-5.275146484375,3.733642578125,1.931884765625
0.153,-5.074951171875,4.494384765625,1.131103515625
0.1535,-4.314208984375,4.854736328125,0.170166015625
0.154,-3.193115234375,5.054931640625,-1.111083984375
0.1545,-2.072021484375,5.575439453125,-2.632568359375
0.155,-1.031005859375,5.815673828125,-3.873779296875
0.1555,-0.310302734375,6.055908203125,-4.874755859375
0.156,0.610595703125,5.895751953125,-5.635498046875
0.1565,1.851806640625,4.974853515625,-6.035888671875
0.157,3.173095703125,3.773681640625,-6.436279296875
0.1575,4.454345703125,2.532470703125,-6.716552734375
0.158,5.215087890625,1.411376953125,-6.676513671875
0.1585,5.615478515625,0.610595703125,-6.596435546875
0.159,5.495361328125,-0.430419921875,-5.915771484375
0.1595,5.215087890625,-1.551513671875,-4.754638671875
0.16,5.255126953125,-3.032958984375,-3.553466796875
0.1605,5.094970703125,-4.314208984375,-2.392333984375
0.161,4.934814453125,-5.275146484375,-1.431396484375
0.1615,4.494384765625,-5.915771484375,-0.630615234375
0.162,3.413330078125,-6.035888671875,0.610595703125
0.1625,2.092041015625,-6.276123046875,2.092041015625
0.163,0.890869140625,-6.636474609375,3.653564453125
0.1635,-0.150146484375,-6.756591796875,4.774658203125
0.164,-0.870849609375,-6.916748046875,5.615478515625
0.1645,-1.871826171875,-6.276123046875,6.135986328125
0.165,-3.273193359375,-4.954833984375,6.416259765625
0.1655,-4.674560546875,-3.673583984375,6.856689453125
0.166,-5.635498046875,-2.432373046875,6.856689453125
0.1665,-6.196044921875,-1.351318359375,6.696533203125
0.167,-6.316162109375,-0.510498046875,6.336181640625
0.1675,-6.075927734375,0.650634765625,5.295166015625
0.168,-5.755615234375,1.971923828125,3.933837890625
0.1685,-5.715576171875,3.453369140625,2.652587890625
0.169,-5.435302734375,4.494384765625,1.531494140625
0.1695,-5.114990234375,5.255126953125,0.610595703125
0.17,-4.314208984375,5.615478515625,-0.430419921875
0.1705,-2.992919921875,5.735595703125,-1.711669921875
0.171,-1.631591796875,6.015869140625,-3.353271484375
0.1715,-0.470458984375,6.135986328125,-4.674560546875
0.172,0.450439453125,6.216064453125,-5.635498046875
0.1725,1.211181640625,6.095947265625,-6.356201171875
0.173,2.332275390625,5.135009765625,-6.676513671875
0.1735,3.733642578125,3.733642578125,-6.916748046875
0.174,4.974853515625,2.412353515625,-7.156982421875
0.1745,5.735595703125,1.131103515625,-6.996826171875
0.175,6.135986328125,0.210205078125,-6.796630859375
0.1755,6.015869140625,-0.750732421875,-6.156005859375
0.176,5.655517578125,-1.911865234375,-4.954833984375
0.1765,5.415283203125,-3.273193359375,-3.633544921875
0.177,5.215087890625,-4.674560546875,-2.312255859375
0.1775,4.934814453125,-5.635498046875,-1.271240234375
0.178,4.534423828125,-6.276123046875,-0.390380859375
0.1785,3.573486328125,-6.436279296875,0.690673828125
0.179,2.212158203125,-6.436279296875,2.052001953125
0.1795,0.930908203125,-6.756591796875,3.653564453125
0.18,-0.310302734375,-6.796630859375,4.854736328125
0.1805,-0.990966796875,-6.916748046875,5.735595703125
0.181,-1.871826171875,-6.596435546875,6.336181640625
0.1815,-3.072998046875,-5.435302734375,6.576416015625
0.182,-4.474365234375,-4.114013671875,6.896728515625
0.1825,-5.635498046875,-2.752685546875,7.056884765625
0.183,-6.276123046875,-1.591552734375,6.896728515625
0.1835,-6.516357421875,-0.790771484375,6.656494140625
0.184,-6.316162109375,0.290283203125,5.775634765625
0.1845,-5.915771484375,1.411376953125,4.494384765625
0.185,-5.795654296875,2.892822265625,3.213134765625
0.1855,-5.635498046875,4.134033203125,1.971923828125
0.186,-5.275146484375,5.094970703125,0.970947265625
0.1865,-4.754638671875,5.615478515625,0.130126953125
0.187,-3.673583984375,5.735595703125,-1.111083984375
0.1875,-2.272216796875,5.855712890625,-2.552490234375
0.188,-0.990966796875,6.135986328125,-4.114013671875
