wavelength,x,y,z
0.0,4.2841796875,3.04296875,-6.966796875
0.0005,5.28515625,1.6015625,-6.9267578125
0.001,5.8056640625,0.640625,-6.806640625
0.0015,5.8056640625,0.0,-6.486328125
0.002,5.60546875,-0.9609375,-5.7255859375
0.0025,5.28515625,-2.1220703125,-4.484375
0.003,5.044921875,-3.5634765625,-3.0830078125
0.0035,4.8447265625,-4.7646484375,-1.921875
0.004,4.6044921875,-5.525390625,-1.0009765625
0.0045,4.083984375,-5.92578125,-0.2001953125
0.005,3.04296875,-6.1259765625,0.9609375
0.0055,1.6416015625,-6.2861328125,2.482421875
0.006,0.3203125,-6.40625,3.923828125
0.0065,-0.5205078125,-6.6064453125,4.96484375
0.007,-1.1611328125,-6.6064453125,5.6455078125
0.0075,-2.1220703125,-6.0458984375,6.1259765625
0.008,-3.443359375,-4.884765625,6.5263671875
0.0085,-4.724609375,-3.5634765625,6.6865234375
0.009,-5.6455078125,-2.2822265625,6.6865234375
0.0095,-6.1259765625,-1.4814453125,6.6064453125
0.01,-6.0859375,-0.6806640625,6.2060546875
0.0105,-5.845703125,0.3203125,5.365234375
0.011,-5.6455078125,1.6416015625,4.083984375
0.0115,-5.4052734375,3.04296875,2.6826171875
0.012,-5.2451171875,4.1240234375,1.6416015625
0.0125,-4.884765625,4.8046875,0.8408203125
0.013,-4.1640625,5.125,-0.2001953125
0.0135,-3.0029296875,5.28515625,-1.44140625
0.014,-1.681640625,5.5654296875,-2.962890625
0.0145,-0.560546875,5.685546875,-4.244140625
0.015,0.240234375,5.8857421875,-5.1650390625
0.0155,0.9208984375,5.7255859375,-5.765625
0.016,1.9619140625,5.0048828125,-6.24609375
0.0165,3.283203125,3.68359375,-6.56640625
0.017,4.484375,2.3623046875,-6.646484375
0.0175,5.2451171875,1.2412109375,-6.6865234375
0.018,5.4853515625,0.6005859375,-6.486328125
0.0185,5.4052734375,-0.3203125,-5.92578125
0.019,5.1650390625,-1.28125,-4.96484375
0.0195,4.96484375,-2.6025390625,-3.7236328125
0.02,4.8046875,-3.84375,-2.482421875
0.0205,4.64453125,-4.8447265625,-1.6015625
0.021,4.32421875,-5.4052734375,-0.8408203125
0.0215,3.5234375,-5.6455078125,0.16015625
0.022,2.3623046875,-5.845703125,1.4814453125
0.0225,1.041015625,-6.0859375,3.0029296875
0.023,0.1201171875,-6.2861328125,4.1240234375
0.0235,-0.6005859375,-6.486328125,4.96484375
0.024,-1.361328125,-6.2060546875,5.5654296875
0.0245,-2.5224609375,-5.365234375,6.005859375
0.025,-3.8037109375,-4.1640625,6.2861328125
0.0255,-4.884765625,-2.9228515625,6.3662109375
0.026,-5.4853515625,-1.9619140625,6.40625
0.0265,-5.7255859375,-1.28125,6.24609375
0.027,-5.6455078125,-0.5205078125,5.6455078125
0.0275,-5.4052734375,0.6806640625,4.6044921875
0.028,-5.28515625,2.001953125,3.4033203125
0.0285,-5.125,3.1630859375,2.2822265625
0.029,-4.96484375,4.083984375,1.4814453125
0.0295,-4.5244140625,4.5244140625,0.640625
0.03,-3.6435546875,4.8046875,-0.48046875
0.0305,-2.5224609375,5.125,-1.8017578125
0.031,-1.28125,5.365234375,-3.2431640625
0.0315,-0.560546875,5.6455078125,-4.2841796875
0.032,0.16015625,5.7255859375,-5.044921875
0.0325,1.041015625,5.2451171875,-5.6455078125
0.033,2.2421875,4.32421875,-5.9658203125
0.0335,3.4833984375,3.1630859375,-6.2861328125
0.034,4.484375,2.0419921875,-6.3662109375
0.0345,4.96484375,1.28125,-6.40625
0.035,5.0849609375,0.6005859375,-6.1259765625
0.0355,4.96484375,-0.3603515625,-5.4453125
0.036,4.8447265625,-1.4814453125,-4.484375
0.0365,4.724609375,-2.802734375,-3.2431640625
0.037,4.64453125,-3.8837890625,-2.322265625
0.0375,4.484375,-4.64453125,-1.6015625
0.038,3.9638671875,-5.0849609375,-0.720703125
0.0385,3.04296875,-5.4052734375,0.4404296875
0.039,1.921875,-5.7255859375,1.841796875
0.0395,0.9208984375,-6.005859375,3.123046875
0.04,0.2802734375,-6.326171875,4.083984375
0.0405,-0.5205078125,-6.40625,4.8046875
0.041,-1.4814453125,-5.845703125,5.365234375
0.0415,-2.7626953125,-4.8447265625,5.765625
0.042,-3.9638671875,-3.603515625,6.005859375
0.0425,-4.8447265625,-2.6025390625,6.166015625
0.043,-5.205078125,-1.9619140625,6.2060546875
0.0435,-5.28515625,-1.28125,5.8056640625
0.044,-5.205078125,-0.3203125,5.0849609375
0.0445,-5.125,0.9609375,4.083984375
0.045,-5.0849609375,2.2021484375,3.0029296875
0.0455,-5.0048828125,3.203125,2.162109375
0.046,-4.7646484375,3.8837890625,1.4013671875
0.0465,-4.2041015625,4.32421875,0.560546875
0.047,-3.203125,4.64453125,-0.80078125
0.0475,-2.1220703125,5.044921875,-2.2021484375
0.048,-1.28125,5.4052734375,-3.36328125
0.0485,-0.640625,5.6455078125,-4.32421875
0.049,0.2802734375,5.4853515625,-5.0048828125
0.0495,1.3212890625,4.8046875,-5.4853515625
0.05,2.5625,3.84375,-5.8857421875
0.0505,3.7236328125,2.6826171875,-6.1259765625
0.051,4.484375,1.76171875,-6.2861328125
0.0515,4.8046875,1.1611328125,-6.24609375
0.052,4.8447265625,0.3603515625,-5.765625
0.0525,4.7646484375,-0.7607421875,-4.9248046875
0.053,4.724609375,-2.001953125,-3.8837890625
0.0535,4.724609375,-3.203125,-2.8828125
0.054,4.64453125,-4.1640625,-2.08203125
0.0545,4.2841796875,-4.724609375,-1.28125
0.055,3.5234375,-5.125,-0.3203125
0.0555,2.5224609375,-5.4853515625,1.12109375
0.056,1.4013671875,-5.8056640625,2.5224609375
0.0565,0.6806640625,-6.24609375,3.5634765625
0.057,0.0,-6.40625,4.4443359375
0.0575,-1.041015625,-6.0859375,5.0849609375
0.058,-2.2021484375,-5.1650390625,5.5654296875
0.0585,-3.5234375,-4.00390625,5.8857421875
0.059,-4.5244140625,-2.9228515625,6.1259765625
0.0595,-5.125,-2.162109375,6.24609375
0.06,-5.3251953125,-1.44140625,5.9658203125
0.0605,-5.28515625,-0.640625,5.3251953125
0.061,-5.1650390625,0.640625,4.32421875
0.0615,-5.125,1.9619140625,3.203125
0.062,-5.0849609375,3.123046875,2.2822265625
0.0625,-4.884765625,3.8837890625,1.521484375
0.063,-4.32421875,4.32421875,0.640625
0.0635,-3.36328125,4.64453125,-0.640625
0.064,-2.322265625,5.0849609375,-2.001953125
0.0645,-1.28125,5.28515625,-3.3232421875
0.065,-0.640625,5.60546875,-4.2841796875
0.0655,0.16015625,5.60546875,-5.044921875
0.066,1.201171875,5.0849609375,-5.5654296875
0.0665,2.5224609375,3.9638671875,-5.92578125
0.067,3.763671875,2.72265625,-6.2060546875
0.0675,4.564453125,1.7216796875,-6.326171875
0.068,4.96484375,1.0810546875,-6.2861328125
0.0685,4.96484375,0.2802734375,-5.8056640625
0.069,4.8447265625,-0.80078125,-5.0048828125
0.0695,4.8046875,-2.001953125,-3.923828125
0.07,4.724609375,-3.283203125,-2.802734375
0.0705,4.6044921875,-4.2841796875,-1.9619140625
0.071,4.32421875,-4.884765625,-1.201171875
0.0715,3.6435546875,-5.2451171875,-0.3203125
0.072,2.5625,-5.525390625,1.0810546875
0.0725,1.4013671875,-5.92578125,2.5224609375
0.073,0.560546875,-6.2060546875,3.68359375
0.0735,-0.2001953125,-6.486328125,4.564453125
0.074,-1.041015625,-6.1259765625,5.205078125
0.0745,-2.2421875,-5.3251953125,5.685546875
0.075,-3.5634765625,-4.1640625,6.0859375
0.0755,-4.64453125,-2.9228515625,6.24609375
0.076,-5.3251953125,-2.0419921875,6.326171875
0.0765,-5.525390625,-1.361328125,6.1259765625
0.077,-5.4453125,-0.6005859375,5.5654296875
0.0775,-5.28515625,0.6005859375,4.484375
0.078,-5.1650390625,2.001953125,3.283203125
0.0785,-5.125,3.203125,2.2421875
0.079,-4.96484375,4.0439453125,1.44140625
0.0795,-4.4443359375,4.484375,0.6005859375
0.08,-3.5634765625,4.8046875,-0.560546875
0.0805,-2.40234375,5.0849609375,-1.9619140625
0.081,-1.2412109375,5.365234375,-3.4033203125
0.0815,-0.5205078125,5.60546875,-4.4443359375
0.082,0.2802734375,5.7255859375,-5.1650390625
0.0825,1.28125,5.205078125,-5.765625
0.083,2.5224609375,4.1240234375,-6.1259765625
0.0835,3.84375,2.8828125,-6.40625
0.084,4.7646484375,1.7216796875,-6.486328125
0.0845,5.205078125,0.9609375,-6.486328125
0.085,5.2451171875,0.240234375,-6.0859375
0.0855,5.0849609375,-0.80078125,-5.28515625
0.086,4.96484375,-2.0419921875,-4.1240234375
0.0865,4.8046875,-3.4033203125,-2.8427734375
0.087,4.724609375,-4.5244140625,-1.8818359375
0.0875,4.484375,-5.205078125,-1.0810546875
0.088,3.763671875,-5.525390625,-0.2001953125
0.0885,2.642578125,-5.8056640625,1.12109375
0.089,1.4013671875,-6.1259765625,2.6826171875
0.0895,0.3203125,-6.40625,3.9638671875
0.09,-0.400390625,-6.56640625,4.9248046875
0.0905,-1.2412109375,-6.40625,5.60546875
0.091,-2.3623046875,-5.5654296875,6.0859375
0.0915,-3.8037109375,-4.2841796875,6.4462890625
0.092,-5.0048828125,-2.8828125,6.56640625
0.0925,-5.765625,-1.841796875,6.56640625
0.093,-6.005859375,-1.12109375,6.40625
0.0935,-5.8857421875,-0.2802734375,5.7255859375
0.094,-5.6455078125,0.9609375,4.64453125
0.0945,-5.4853515625,2.4423828125,3.283203125
0.095,-5.28515625,3.763671875,2.0419921875
0.0955,-5.125,4.64453125,1.0810546875
0.096,-4.564453125,5.125,0.2802734375
0.0965,-3.603515625,5.28515625,-0.9208984375
0.097,-2.2021484375,5.525390625,-2.4423828125
0.0975,-0.8408203125,5.7255859375,-4.083984375
0.098,0.1201171875,5.92578125,-5.125
0.0985,0.7607421875,5.9658203125,-5.845703125
0.099,1.76171875,5.365234375,-6.40625
0.0995,3.123046875,4.1640625,-6.7265625
0.1,4.4443359375,2.72265625,-6.9267578125
0.1005,5.4453125,1.4013671875,-6.9267578125
0.101,5.8857421875,0.4404296875,-6.7666015625
0.1015,5.8857421875,-0.400390625,-6.3662109375
0.102,5.60546875,-1.3212890625,-5.4453125
0.1025,5.28515625,-2.642578125,-4.0439453125
0.103,5.044921875,-4.1640625,-2.5625
0.1035,4.8447265625,-5.2451171875,-1.4013671875
0.104,4.484375,-5.92578125,-0.560546875
0.1045,3.7236328125,-6.24609375,0.3603515625
0.105,2.5224609375,-6.326171875,1.6015625
0.1055,1.0009765625,-6.5263671875,3.2431640625
0.106,-0.3603515625,-6.56640625,4.6845703125
0.1065,-1.041015625,-6.6865234375,5.5654296875
0.107,-1.681640625,-6.5263671875,6.166015625
0.1075,-2.802734375,-5.685546875,6.56640625
0.108,-4.1640625,-4.32421875,6.88671875
0.1085,-5.4453125,-2.8427734375,6.9267578125
0.109,-6.2060546875,-1.6015625,6.8466796875
0.1095,-6.4462890625,-0.80078125,6.646484375
0.11,-6.326171875,0.1201171875,6.005859375
0.1105,-6.005859375,1.12109375,4.9248046875
0.111,-5.7255859375,2.5224609375,3.4833984375
0.1115,-5.4052734375,3.923828125,2.0419921875
0.112,-5.1650390625,4.96484375,0.9609375
0.1125,-4.6845703125,5.4052734375,0.16015625
0.113,-3.8037109375,5.5654296875,-0.9208984375
0.1135,-2.4423828125,5.685546875,-2.322265625
0.114,-0.9609375,5.8857421875,-3.923828125
0.1145,0.240234375,5.9658203125,-5.1650390625
0.115,0.880859375,6.0458984375,-5.92578125
0.1155,1.6416015625,5.7255859375,-6.486328125
0.116,2.802734375,4.724609375,-6.8466796875
0.1165,4.1640625,3.283203125,-7.0869140625
0.117,5.3251953125,1.8017578125,-7.046875
0.1175,5.9658203125,0.6806640625,-6.9267578125
0.118,6.0859375,0.0,-6.6865234375
0.1185,5.845703125,-1.0009765625,-5.845703125
0.119,5.4853515625,-2.162109375,-4.64453125
0.1195,5.205078125,-3.603515625,-3.1630859375
0.12,4.96484375,-4.884765625,-1.841796875
0.1205,4.6845703125,-5.765625,-0.9208984375
0.121,4.1240234375,-6.2060546875,0.0
0.1215,3.123046875,-6.326171875,0.9609375
0.122,1.681640625,-6.40625,2.5224609375
0.1225,0.2802734375,-6.5263671875,4.1240234375
0.123,-0.720703125,-6.6865234375,5.205078125
0.1235,-1.3212890625,-6.7265625,5.92578125
0.124,-2.2822265625,-6.1259765625,6.40625
0.1245,-3.603515625,-4.9248046875,6.7265625
0.125,-4.9248046875,-3.5234375,6.966796875
0.1255,-5.92578125,-2.1220703125,6.88671875
0.126,-6.40625,-1.1611328125,6.7666015625
0.1265,-6.40625,-0.400390625,6.3662109375
0.127,-6.1259765625,0.6005859375,5.4853515625
0.1275,-5.8056640625,1.921875,4.1240234375
0.128,-5.5654296875,3.36328125,2.6025390625
0.1285,-5.3251953125,4.5244140625,1.4013671875
0.129,-4.96484375,5.2451171875,0.5205078125
0.1295,-4.244140625,5.525390625,-0.48046875
0.13,-3.04296875,5.685546875,-1.6416015625
0.1305,-1.5615234375,5.8857421875,-3.3232421875
0.131,-0.2001953125,5.92578125,-4.8046875
0.1315,0.640625,6.0859375,-5.7255859375
0.132,1.28125,5.92578125,-6.3662109375
0.1325,2.3623046875,5.125,-6.7666015625
0.133,3.763671875,3.8037109375,-7.046875
0.1335,5.0048828125,2.2822265625,-7.126953125
0.134,5.845703125,1.0009765625,-7.046875
0.1345,6.1259765625,0.2001953125,-6.806640625
0.135,6.005859375,-0.720703125,-6.2060546875
0.1355,5.6455078125,-1.76171875,-5.125
0.136,5.365234375,-3.203125,-3.68359375
0.1365,5.0849609375,-4.6845703125,-2.162109375
0.137,4.8447265625,-5.685546875,-1.1611328125
0.1375,4.3642578125,-6.24609375,-0.3203125
0.138,3.4833984375,-6.3662109375,0.7607421875
0.1385,2.08203125,-6.4462890625,2.162109375
0.139,0.6005859375,-6.646484375,3.84375
0.1395,-0.640625,-6.6865234375,5.0849609375
0.14,-1.28125,-6.806640625,5.8857421875
0.1405,-2.08203125,-6.4462890625,6.4462890625
0.141,-3.2431640625,-5.4052734375,6.806640625
0.1415,-4.64453125,-3.923828125,7.046875
0.142,-5.8056640625,-2.4423828125,7.046875
0.1425,-6.4462890625,-1.3212890625,6.88671875
0.143,-6.5263671875,-0.560546875,6.5263671875
0.1435,-6.2861328125,0.400390625,5.765625
0.144,-5.92578125,1.6015625,4.484375
0.1445,-5.6455078125,3.0029296875,3.0029296875
0.145,-5.365234375,4.2841796875,1.6015625
0.1455,-5.0849609375,5.0849609375,0.6806640625
0.146,-4.484375,5.5654296875,-0.240234375
0.1465,-3.443359375,5.685546875,-1.2412109375
0.147,-1.9619140625,5.765625,-2.802734375
0.1475,-0.5205078125,5.8857421875,-4.404296875
0.148,0.48046875,6.005859375,-5.4453125
0.1485,1.0810546875,6.005859375,-6.1259765625
0.149,1.9619140625,5.4453125,-6.56640625
0.1495,3.203125,4.2041015625,-6.8466796875
0.15,4.484375,2.8427734375,-7.046875
0.1505,5.4853515625,1.4013671875,-6.966796875
0.151,5.92578125,0.5205078125,-6.806640625
0.1515,5.8857421875,-0.3203125,-6.40625
0.152,5.6455078125,-1.1611328125,-5.5654296875
0.1525,5.28515625,-2.4423828125,-4.2841796875
0.153,5.044921875,-3.84375,-2.8427734375
0.1535,4.8046875,-5.044921875,-1.681640625
0.154,4.5244140625,-5.7255859375,-0.80078125
0.1545,3.84375,-6.0458984375,0.1201171875
0.155,2.802734375,-6.166015625,1.201171875
0.1555,1.4013671875,-6.3662109375,2.7626953125
0.156,0.080078125,-6.4462890625,4.2041015625
0.1565,-0.720703125,-6.646484375,5.1650390625
0.157,-1.361328125,-6.6064453125,5.845703125
0.1575,-2.322265625,-5.92578125,6.326171875
0.158,-3.68359375,-4.6845703125,6.6064453125
0.1585,-4.9248046875,-3.283203125,6.7265625
0.159,-5.8056640625,-2.08203125,6.7265625
0.1595,-6.2060546875,-1.2412109375,6.646484375
0.16,-6.1259765625,-0.5205078125,6.1259765625
0.1605,-5.92578125,0.5205078125,5.1650390625
0.161,-5.6455078125,1.921875,3.84375
0.1615,-5.4453125,3.2431640625,2.482421875
0.162,-5.205078125,4.404296875,1.4013671875
0.1625,-4.8447265625,5.0048828125,0.6005859375
0.163,-4.0439453125,5.2451171875,-0.400390625
0.1635,-2.8427734375,5.4052734375,-1.681640625
0.164,-1.4814453125,5.6455078125,-3.2431640625
0.1645,-0.3603515625,5.765625,-4.5244140625
0.165,0.4404296875,5.92578125,-5.4052734375
0.1655,1.1611328125,5.7255859375,-5.9658203125
0.166,2.2021484375,4.884765625,-6.40625
0.1665,3.5234375,3.603515625,-6.6865234375
0.167,4.6845703125,2.2021484375,-6.7265625
0.1675,5.4052734375,1.12109375,-6.6865234375
0.168,5.60546875,0.4404296875,-6.486328125
0.1685,5.4453125,-0.5205078125,-5.845703125
0.169,5.1650390625,-1.521484375,-4.8447265625
0.1695,4.96484375,-2.8828125,-3.5634765625
0.17,4.8046875,-4.083984375,-2.322265625
0.1705,4.6044921875,-5.0048828125,-1.44140625
0.171,4.2041015625,-5.4853515625,-0.640625
0.1715,3.4033203125,-5.7255859375,0.3203125
0.172,2.162109375,-5.8857421875,1.6416015625
0.1725,0.9208984375,-6.1259765625,3.1630859375
0.173,0.0,-6.326171875,4.2841796875
0.1735,-0.640625,-6.486328125,5.044921875
0.174,-1.4814453125,-6.166015625,5.60546875
0.1745,-2.6025390625,-5.2451171875,6.005859375
0.175,-3.8837890625,-4.00390625,6.2861328125
0.1755,-4.9248046875,-2.802734375,6.40625
0.176,-5.525390625,-1.921875,6.40625
0.1765,-5.765625,-1.28125,6.2060546875
0.177,-5.60546875,-0.5205078125,5.5654296875
0.1775,-5.365234375,0.640625,4.5244140625
0.178,-5.205078125,2.0419921875,3.36328125
0.1785,-5.125,3.2431640625,2.2421875
0.179,-4.96484375,4.083984375,1.44140625
0.1795,-4.484375,4.5244140625,0.640625
0.18,-3.603515625,4.8046875,-0.48046875
0.1805,-2.5224609375,5.125,-1.8017578125
0.181,-1.28125,5.365234375,-3.2431640625
0.1815,-0.6005859375,5.6455078125,-4.244140625
0.182,0.16015625,5.765625,-5.044921875
0.1825,1.041015625,5.3251953125,-5.60546875
0.183,2.2421875,4.404296875,-6.005859375
0.1835,3.4833984375,3.203125,-6.2861328125
0.184,4.484375,2.0419921875,-6.3662109375
0.1845,4.96484375,1.2412109375,-6.4462890625
0.185,5.0849609375,0.560546875,-6.1259765625
0.1855,4.96484375,-0.4404296875,-5.4853515625
0.186,4.8447265625,-1.4814453125,-4.4443359375
0.1865,4.7646484375,-2.802734375,-3.2431640625
0.187,4.724609375,-3.923828125,-2.322265625
0.1875,4.5244140625,-4.6845703125,-1.5615234375
0.188,3.9638671875,-5.125,-0.720703125
0.1885,3.04296875,-5.4052734375,0.5205078125
0.189,1.921875,-5.765625,1.921875
0.1895,0.9208984375,-6.0458984375,3.1630859375
0.19,0.2802734375,-6.3662109375,4.1240234375
0.1905,-0.6005859375,-6.326171875,4.9248046875
0.191,-1.6015625,-5.765625,5.4052734375
0.1915,-2.8427734375,-4.724609375,5.8056640625
0.192,-4.0439453125,-3.5234375,6.0859375
0.1925,-4.9248046875,-2.5625,6.24609375
0.193,-5.28515625,-1.8818359375,6.2060546875
0.1935,-5.365234375,-1.1611328125,5.7255859375
0.194,-5.205078125,-0.16015625,4.96484375
0.1945,-5.1650390625,1.1611328125,3.923828125
0.195,-5.0849609375,2.40234375,2.8427734375
0.1955,-5.0048828125,3.443359375,1.9619140625
0.196,-4.6845703125,4.0439453125,1.2412109375
0.1965,-4.0439453125,4.4443359375,0.3203125
0.197,-3.0830078125,4.724609375,-1.0009765625
0.1975,-1.9619140625,5.0849609375,-2.4423828125
0.198,-1.12109375,5.4052734375,-3.5634765625
0.1985,-0.48046875,5.6455078125,-4.484375
0.199,0.4404296875,5.4453125,-5.125
0.1995,1.5615234375,4.7646484375,-5.5654296875
0.2,2.7626953125,3.6435546875,-5.92578125
0.2005,3.84375,2.482421875,-6.166015625
0.201,4.564453125,1.6015625,-6.2861328125
0.2015,4.8046875,0.9609375,-6.166015625
0.202,4.8046875,0.240234375,-5.6455078125
0.2025,4.724609375,-0.880859375,-4.8046875
0.203,4.64453125,-2.162109375,-3.7236328125
0.2035,4.64453125,-3.3232421875,-2.72265625
0.204,4.564453125,-4.2041015625,-1.9619140625
0.2045,4.1640625,-4.7646484375,-1.201171875
0.205,3.443359375,-5.125,-0.2001953125
0.2055,2.40234375,-5.4853515625,1.201171875
0.206,1.3212890625,-5.8056640625,2.5625
0.2065,0.6005859375,-6.2060546875,3.6435546875
0.207,0.0,-6.3662109375,4.484375
0.2075,-1.041015625,-5.9658203125,5.0849609375
0.208,-2.2421875,-5.125,5.5654296875
0.2085,-3.5634765625,-4.00390625,5.8857421875
0.209,-4.5244140625,-2.9228515625,6.0859375
0.2095,-5.125,-2.2021484375,6.166015625
0.21,-5.28515625,-1.44140625,5.92578125
0.2105,-5.205078125,-0.640625,5.28515625
0.211,-5.125,0.6005859375,4.3642578125
0.2115,-5.125,1.921875,3.2431640625
0.212,-5.0849609375,3.04296875,2.2822265625
0.2125,-4.884765625,3.8037109375,1.5615234375
0.213,-4.32421875,4.2841796875,0.6806640625
0.2135,-3.4033203125,4.6044921875,-0.5205078125
0.214,-2.3623046875,5.0048828125,-1.9619140625
0.2145,-1.361328125,5.3251953125,-3.203125
0.215,-0.6806640625,5.60546875,-4.2041015625
0.2155,0.1201171875,5.60546875,-4.96484375
0.216,1.12109375,5.044921875,-5.4453125
0.2165,2.40234375,3.9638671875,-5.92578125
0.217,3.6435546875,2.72265625,-6.1259765625
0.2175,4.484375,1.7216796875,-6.326171875
0.218,4.9248046875,1.12109375,-6.2861328125
0.2185,4.9248046875,0.3603515625,-5.8056640625
0.219,4.8046875,-0.720703125,-5.0048828125
0.2195,4.7646484375,-1.9619140625,-3.9638671875
0.22,4.6845703125,-3.203125,-2.8828125
0.2205,4.6044921875,-4.2041015625,-2.001953125
0.221,4.32421875,-4.8447265625,-1.2412109375
0.2215,3.6435546875,-5.1650390625,-0.3203125
0.222,2.5625,-5.4853515625,1.041015625
0.2225,1.4013671875,-5.8056640625,2.5224609375
0.223,0.6005859375,-6.166015625,3.6435546875
0.2235,-0.16015625,-6.40625,4.5244140625
0.224,-1.041015625,-6.1259765625,5.1650390625
0.2245,-2.2021484375,-5.28515625,5.6455078125
0.225,-3.5634765625,-4.1640625,6.0458984375
0.2255,-4.64453125,-2.9228515625,6.166015625
0.226,-5.28515625,-2.0419921875,6.326171875
0.2265,-5.525390625,-1.3212890625,6.0859375
0.227,-5.4453125,-0.560546875,5.4853515625
0.2275,-5.28515625,0.6806640625,4.484375
0.228,-5.1650390625,2.0419921875,3.2431640625
0.2285,-5.125,3.2431640625,2.2021484375
0.229,-4.96484375,4.1240234375,1.361328125
0.2295,-4.404296875,4.5244140625,0.560546875
0.23,-3.4833984375,4.8046875,-0.640625
