wavelength,x,y,z
0.0,1.771728515625,-6.276123046875,2.252197265625
0.0005,0.130126953125,-6.436279296875,4.013916015625
0.001,-0.910888671875,-6.796630859375,5.415283203125
0.0015,-1.471435546875,-7.036865234375,6.256103515625
0.002,-2.232177734375,-6.396240234375,6.536376953125
0.0025,-3.473388671875,-4.954833984375,6.576416015625
0.003,-4.834716796875,-3.393310546875,6.696533203125
0.0035,-6.115966796875,-1.951904296875,6.896728515625
0.004,-6.716552734375,-0.990966796875,6.976806640625
0.0045,-6.596435546875,-0.390380859375,6.576416015625
0.005,-6.115966796875,0.570556640625,5.495361328125
0.0055,-5.635498046875,1.851806640625,4.013916015625
0.006,-5.315185546875,3.453369140625,2.412353515625
0.0065,-5.395263671875,4.854736328125,1.251220703125
0.007,-5.155029296875,5.695556640625,0.450439453125
0.0075,-4.434326171875,5.815673828125,-0.350341796875
0.008,-3.072998046875,5.655517578125,-1.471435546875
0.0085,-1.471435546875,5.695556640625,-3.153076171875
0.009,0.090087890625,5.895751953125,-4.834716796875
0.0095,0.770751953125,6.256103515625,-6.035888671875
0.01,1.411376953125,6.256103515625,-6.636474609375
0.0105,2.372314453125,5.255126953125,-6.796630859375
0.011,3.773681640625,3.693603515625,-6.876708984375
0.0115,5.135009765625,2.052001953125,-6.996826171875
0.012,6.216064453125,0.730712890625,-7.116943359375
0.0125,6.536376953125,0.010009765625,-7.076904296875
0.013,6.256103515625,-0.790771484375,-6.436279296875
0.0135,5.615478515625,-1.791748046875,-5.155029296875
0.014,5.175048828125,-3.193115234375,-3.553466796875
0.0145,4.934814453125,-4.754638671875,-1.951904296875
0.015,4.974853515625,-6.035888671875,-0.950927734375
0.0155,4.534423828125,-6.476318359375,-0.270263671875
0.016,3.573486328125,-6.476318359375,0.650634765625
0.0165,2.052001953125,-6.356201171875,1.931884765625
0.017,0.410400390625,-6.396240234375,3.693603515625
0.0175,-0.910888671875,-6.716552734375,5.135009765625
0.018,-1.471435546875,-6.876708984375,6.135986328125
0.0185,-2.072021484375,-6.556396484375,6.536376953125
0.019,-3.072998046875,-5.395263671875,6.536376953125
0.0195,-4.434326171875,-3.833740234375,6.616455078125
0.02,-5.715576171875,-2.312255859375,6.696533203125
0.0205,-6.516357421875,-1.271240234375,6.856689453125
0.021,-6.596435546875,-0.630615234375,6.656494140625
0.0215,-6.115966796875,0.130126953125,5.895751953125
0.022,-5.595458984375,1.171142578125,4.534423828125
0.0225,-5.235107421875,2.572509765625,3.012939453125
0.023,-5.155029296875,4.053955078125,1.731689453125
0.0235,-5.155029296875,5.094970703125,0.890869140625
0.024,-4.674560546875,5.455322265625,0.250244140625
0.0245,-3.713623046875,5.375244140625,-0.670654296875
0.025,-2.272216796875,5.295166015625,-1.951904296875
0.0255,-0.830810546875,5.455322265625,-3.673583984375
0.026,0.210205078125,5.975830078125,-4.994873046875
0.0265,0.730712890625,6.216064453125,-5.835693359375
0.027,1.411376953125,5.735595703125,-6.236083984375
0.0275,2.532470703125,4.534423828125,-6.276123046875
0.028,3.893798828125,3.093017578125,-6.476318359375
0.0285,5.175048828125,1.731689453125,-6.716552734375
0.029,5.895751953125,0.810791015625,-6.916748046875
0.0295,5.935791015625,0.250244140625,-6.716552734375
0.03,5.495361328125,-0.630615234375,-5.835693359375
0.0305,5.094970703125,-1.751708984375,-4.554443359375
0.031,4.854736328125,-3.233154296875,-3.072998046875
0.0315,4.934814453125,-4.714599609375,-1.951904296875
0.032,4.854736328125,-5.635498046875,-1.191162109375
0.0325,4.334228515625,-5.915771484375,-0.510498046875
0.033,3.173095703125,-5.915771484375,0.570556640625
0.0335,1.651611328125,-5.995849609375,2.052001953125
0.034,0.290283203125,-6.196044921875,3.773681640625
0.0345,-0.590576171875,-6.676513671875,5.054931640625
0.035,-1.111083984375,-6.756591796875,5.735595703125
0.0355,-1.951904296875,-6.075927734375,5.975830078125
0.036,-3.153076171875,-4.754638671875,6.095947265625
0.0365,-4.514404296875,-3.273193359375,6.256103515625
0.037,-5.675537109375,-2.112060546875,6.536376953125
0.0375,-6.115966796875,-1.431396484375,6.656494140625
0.038,-5.955810546875,-0.790771484375,6.216064453125
0.0385,-5.475341796875,0.130126953125,5.175048828125
0.039,-5.155029296875,1.411376953125,3.853759765625
0.0395,-5.074951171875,2.892822265625,2.492431640625
0.04,-5.235107421875,4.214111328125,1.571533203125
0.0405,-4.994873046875,4.814697265625,0.930908203125
0.041,-4.274169921875,4.974853515625,0.210205078125
0.0415,-3.072998046875,4.894775390625,-0.990966796875
0.042,-1.711669921875,5.135009765625,-2.512451171875
0.0425,-0.590576171875,5.575439453125,-4.033935546875
0.043,0.130126953125,5.975830078125,-5.074951171875
0.0435,0.730712890625,5.895751953125,-5.675537109375
0.044,1.651611328125,4.974853515625,-5.835693359375
0.0445,2.972900390625,3.693603515625,-6.035888671875
0.045,4.294189453125,2.292236328125,-6.276123046875
0.0455,5.295166015625,1.291259765625,-6.636474609375
0.046,5.535400390625,0.730712890625,-6.636474609375
0.0465,5.295166015625,0.130126953125,-6.075927734375
0.047,4.894775390625,-0.910888671875,-4.994873046875
0.0475,4.654541015625,-2.192138671875,-3.713623046875
0.048,4.694580078125,-3.673583984375,-2.512451171875
0.0485,4.814697265625,-4.874755859375,-1.751708984375
0.049,4.494384765625,-5.395263671875,-1.151123046875
0.0495,3.653564453125,-5.475341796875,-0.350341796875
0.05,2.452392578125,-5.475341796875,0.970947265625
0.0505,1.091064453125,-5.755615234375,2.532470703125
0.051,0.210205078125,-6.276123046875,3.973876953125
0.0515,-0.470458984375,-6.596435546875,4.934814453125
0.052,-1.111083984375,-6.316162109375,5.375244140625
0.0525,-2.112060546875,-5.315185546875,5.495361328125
0.053,-3.353271484375,-4.114013671875,5.735595703125
0.0535,-4.674560546875,-2.832763671875,6.095947265625
0.054,-5.435302734375,-2.072021484375,6.416259765625
0.0545,-5.635498046875,-1.471435546875,6.296142578125
0.055,-5.315185546875,-0.830810546875,5.615478515625
0.0555,-5.034912109375,0.290283203125,4.614501953125
0.056,-4.874755859375,1.611572265625,3.333251953125
0.0565,-5.074951171875,3.012939453125,2.332275390625
0.057,-5.114990234375,3.973876953125,1.611572265625
0.0575,-4.754638671875,4.334228515625,1.010986328125
0.058,-3.793701171875,4.494384765625,0.130126953125
0.0585,-2.672607421875,4.734619140625,-1.271240234375
0.059,-1.471435546875,5.094970703125,-2.752685546875
0.0595,-0.790771484375,5.695556640625,-4.033935546875
0.06,-0.230224609375,5.895751953125,-4.834716796875
0.0605,0.690673828125,5.415283203125,-5.235107421875
0.061,1.851806640625,4.414306640625,-5.475341796875
0.0615,3.173095703125,3.133056640625,-5.755615234375
0.062,4.374267578125,2.052001953125,-6.236083984375
0.0625,5.014892578125,1.411376953125,-6.476318359375
0.063,5.014892578125,0.850830078125,-6.276123046875
0.0635,4.774658203125,0.050048828125,-5.435302734375
0.064,4.574462890625,-1.151123046875,-4.434326171875
0.0645,4.534423828125,-2.592529296875,-3.273193359375
0.065,4.814697265625,-3.913818359375,-2.392333984375
0.0655,4.694580078125,-4.674560546875,-1.791748046875
0.066,4.174072265625,-4.954833984375,-1.151123046875
0.0665,3.173095703125,-5.074951171875,0.010009765625
0.067,1.971923828125,-5.355224609375,1.411376953125
0.0675,0.970947265625,-5.795654296875,2.892822265625
0.068,0.290283203125,-6.356201171875,4.053955078125
0.0685,-0.350341796875,-6.396240234375,4.734619140625
0.069,-1.271240234375,-5.755615234375,4.974853515625
0.0695,-2.432373046875,-4.714599609375,5.295166015625
0.07,-3.713623046875,-3.513427734375,5.655517578125
0.0705,-4.794677734375,-2.552490234375,6.095947265625
0.071,-5.195068359375,-2.031982421875,6.256103515625
0.0715,-5.155029296875,-1.431396484375,5.855712890625
0.072,-4.874755859375,-0.590576171875,4.974853515625
0.0725,-4.834716796875,0.650634765625,3.973876953125
0.073,-4.914794921875,2.052001953125,2.932861328125
0.0735,-5.155029296875,3.253173828125,2.212158203125
0.074,-4.954833984375,3.893798828125,1.611572265625
0.0745,-4.274169921875,4.134033203125,0.850830078125
0.075,-3.273193359375,4.374267578125,-0.390380859375
0.0755,-2.152099609375,4.814697265625,-1.831787109375
0.076,-1.311279296875,5.415283203125,-3.233154296875
0.0765,-0.710693359375,5.815673828125,-4.314208984375
0.077,0.130126953125,5.655517578125,-4.834716796875
0.0775,1.131103515625,4.814697265625,-5.155029296875
0.078,2.412353515625,3.693603515625,-5.515380859375
0.0785,3.733642578125,2.532470703125,-5.955810546875
0.079,4.654541015625,1.771728515625,-6.356201171875
0.0795,4.934814453125,1.211181640625,-6.356201171875
0.08,4.774658203125,0.530517578125,-5.755615234375
0.0805,4.534423828125,-0.590576171875,-4.834716796875
0.081,4.494384765625,-1.951904296875,-3.713623046875
0.0815,4.694580078125,-3.393310546875,-2.752685546875
0.082,4.814697265625,-4.354248046875,-2.072021484375
0.0825,4.454345703125,-4.794677734375,-1.431396484375
0.083,3.533447265625,-4.954833984375,-0.510498046875
0.0835,2.412353515625,-5.235107421875,0.930908203125
0.084,1.291259765625,-5.675537109375,2.492431640625
0.0845,0.530517578125,-6.276123046875,3.773681640625
0.085,-0.150146484375,-6.436279296875,4.614501953125
0.0855,-0.990966796875,-6.035888671875,4.974853515625
0.086,-2.112060546875,-4.994873046875,5.255126953125
0.0865,-3.393310546875,-3.793701171875,5.575439453125
0.087,-4.634521484375,-2.712646484375,6.015869140625
0.0875,-5.235107421875,-2.072021484375,6.296142578125
0.088,-5.275146484375,-1.471435546875,5.975830078125
0.0885,-4.994873046875,-0.710693359375,5.175048828125
0.089,-4.834716796875,0.490478515625,4.174072265625
0.0895,-4.874755859375,1.931884765625,2.972900390625
0.09,-5.114990234375,3.253173828125,2.172119140625
0.0905,-4.994873046875,3.973876953125,1.571533203125
0.091,-4.434326171875,4.294189453125,0.890869140625
0.0915,-3.353271484375,4.414306640625,-0.310302734375
0.092,-2.272216796875,4.774658203125,-1.671630859375
0.0925,-1.271240234375,5.255126953125,-3.193115234375
0.093,-0.630615234375,5.815673828125,-4.354248046875
0.0935,0.130126953125,5.735595703125,-4.994873046875
0.094,1.051025390625,5.014892578125,-5.275146484375
0.0945,2.292236328125,3.853759765625,-5.595458984375
0.095,3.693603515625,2.612548828125,-5.915771484375
0.0955,4.774658203125,1.651611328125,-6.396240234375
0.096,5.135009765625,1.091064453125,-6.476318359375
0.0965,4.974853515625,0.410400390625,-5.955810546875
0.097,4.654541015625,-0.630615234375,-4.994873046875
0.0975,4.494384765625,-1.911865234375,-3.873779296875
0.098,4.614501953125,-3.313232421875,-2.712646484375
0.0985,4.814697265625,-4.514404296875,-1.951904296875
0.099,4.534423828125,-4.994873046875,-1.311279296875
0.0995,3.693603515625,-5.155029296875,-0.510498046875
0.1,2.532470703125,-5.275146484375,0.810791015625
0.1005,1.251220703125,-5.635498046875,2.412353515625
0.101,0.450439453125,-6.196044921875,3.813720703125
0.1015,-0.310302734375,-6.556396484375,4.774658203125
0.102,-0.990966796875,-6.236083984375,5.215087890625
0.1025,-2.072021484375,-5.195068359375,5.415283203125
0.103,-3.393310546875,-3.993896484375,5.735595703125
0.1035,-4.714599609375,-2.712646484375,6.095947265625
0.104,-5.475341796875,-1.951904296875,6.416259765625
0.1045,-5.595458984375,-1.391357421875,6.256103515625
0.105,-5.275146484375,-0.630615234375,5.455322265625
0.1055,-4.994873046875,0.490478515625,4.334228515625
0.106,-4.914794921875,1.931884765625,3.052978515625
0.1065,-5.114990234375,3.373291015625,2.052001953125
0.107,-5.114990234375,4.294189453125,1.371337890625
0.1075,-4.594482421875,4.614501953125,0.730712890625
0.108,-3.553466796875,4.694580078125,-0.350341796875
0.1085,-2.312255859375,4.854736328125,-1.711669921875
0.109,-1.151123046875,5.335205078125,-3.353271484375
0.1095,-0.390380859375,5.815673828125,-4.594482421875
0.11,0.290283203125,5.975830078125,-5.355224609375
0.1105,1.211181640625,5.295166015625,-5.675537109375
0.111,2.492431640625,4.053955078125,-5.915771484375
0.1115,3.853759765625,2.652587890625,-6.156005859375
0.112,5.054931640625,1.531494140625,-6.516357421875
0.1125,5.575439453125,0.770751953125,-6.716552734375
0.113,5.455322265625,0.170166015625,-6.276123046875
0.1135,5.014892578125,-0.830810546875,-5.275146484375
0.114,4.814697265625,-2.112060546875,-3.913818359375
0.1145,4.774658203125,-3.673583984375,-2.552490234375
0.115,4.934814453125,-4.994873046875,-1.631591796875
0.1155,4.654541015625,-5.635498046875,-0.990966796875
0.116,3.853759765625,-5.715576171875,-0.190185546875
0.1165,2.532470703125,-5.715576171875,1.131103515625
0.117,1.051025390625,-5.915771484375,2.812744140625
0.1175,0.010009765625,-6.396240234375,4.334228515625
0.118,-0.790771484375,-6.756591796875,5.415283203125
0.1185,-1.431396484375,-6.476318359375,5.895751953125
0.119,-2.512451171875,-5.395263671875,6.055908203125
0.1195,-3.873779296875,-3.953857421875,6.256103515625
0.12,-5.235107421875,-2.512451171875,6.456298828125
0.1205,-6.156005859375,-1.551513671875,6.696533203125
0.121,-6.276123046875,-0.910888671875,6.536376953125
0.1215,-5.915771484375,-0.190185546875,5.735595703125
0.122,-5.435302734375,1.091064453125,4.414306640625
0.1225,-5.155029296875,2.572509765625,2.892822265625
0.123,-5.195068359375,4.053955078125,1.651611328125
0.1235,-5.155029296875,5.094970703125,0.850830078125
0.124,-4.634521484375,5.415283203125,0.170166015625
0.1245,-3.553466796875,5.295166015625,-0.830810546875
0.125,-2.031982421875,5.335205078125,-2.272216796875
0.1255,-0.630615234375,5.575439453125,-3.953857421875
0.126,0.330322265625,6.055908203125,-5.315185546875
0.1265,0.930908203125,6.135986328125,-6.115966796875
0.127,1.771728515625,5.495361328125,-6.436279296875
0.1275,3.052978515625,4.134033203125,-6.516357421875
0.128,4.454345703125,2.532470703125,-6.636474609375
0.1285,5.615478515625,1.131103515625,-6.876708984375
0.129,6.216064453125,0.290283203125,-6.996826171875
0.1295,6.055908203125,-0.470458984375,-6.556396484375
0.13,5.575439453125,-1.271240234375,-5.475341796875
0.1305,5.094970703125,-2.552490234375,-3.993896484375
0.131,4.854736328125,-4.073974609375,-2.432373046875
0.1315,4.934814453125,-5.475341796875,-1.311279296875
0.132,4.734619140625,-6.236083984375,-0.590576171875
0.1325,3.933837890625,-6.356201171875,0.290283203125
0.133,2.572509765625,-6.156005859375,1.371337890625
0.1335,0.970947265625,-6.196044921875,3.052978515625
0.134,-0.510498046875,-6.476318359375,4.654541015625
0.1345,-1.191162109375,-6.836669921875,5.815673828125
0.135,-1.791748046875,-6.716552734375,6.416259765625
0.1355,-2.752685546875,-5.755615234375,6.536376953125
0.136,-4.073974609375,-4.194091796875,6.576416015625
0.1365,-5.395263671875,-2.672607421875,6.696533203125
0.137,-6.436279296875,-1.431396484375,6.896728515625
0.1375,-6.716552734375,-0.790771484375,6.736572265625
0.138,-6.356201171875,0.050048828125,6.135986328125
0.1385,-5.755615234375,1.010986328125,4.814697265625
0.139,-5.395263671875,2.452392578125,3.253173828125
0.1395,-5.195068359375,3.973876953125,1.811767578125
0.14,-5.275146484375,5.175048828125,0.850830078125
0.1405,-4.834716796875,5.655517578125,0.210205078125
0.141,-3.873779296875,5.615478515625,-0.710693359375
0.1415,-2.392333984375,5.495361328125,-1.991943359375
0.142,-0.830810546875,5.615478515625,-3.673583984375
0.1425,0.330322265625,5.975830078125,-5.155029296875
0.143,0.930908203125,6.256103515625,-6.115966796875
0.1435,1.611572265625,5.895751953125,-6.556396484375
0.144,2.732666015625,4.654541015625,-6.596435546875
0.1445,4.134033203125,3.052978515625,-6.716552734375
0.145,5.415283203125,1.571533203125,-6.876708984375
0.1455,6.216064453125,0.490478515625,-7.076904296875
0.146,6.296142578125,-0.190185546875,-6.836669921875
0.1465,5.855712890625,-0.950927734375,-5.955810546875
0.147,5.295166015625,-2.072021484375,-4.554443359375
0.1475,4.974853515625,-3.553466796875,-2.992919921875
0.148,4.934814453125,-5.074951171875,-1.671630859375
0.1485,4.854736328125,-6.075927734375,-0.830810546875
0.149,4.334228515625,-6.396240234375,0.010009765625
0.1495,3.133056640625,-6.276123046875,0.890869140625
0.15,1.571533203125,-6.236083984375,2.412353515625
0.1505,0.010009765625,-6.356201171875,4.134033203125
0.151,-0.990966796875,-6.756591796875,5.455322265625
0.1515,-1.511474609375,-6.916748046875,6.256103515625
0.152,-2.272216796875,-6.276123046875,6.536376953125
0.1525,-3.553466796875,-4.834716796875,6.536376953125
0.153,-4.834716796875,-3.273193359375,6.656494140625
0.1535,-6.115966796875,-1.951904296875,6.776611328125
0.154,-6.676513671875,-1.031005859375,6.896728515625
0.1545,-6.516357421875,-0.390380859375,6.456298828125
0.155,-5.955810546875,0.570556640625,5.415283203125
0.1555,-5.515380859375,1.811767578125,3.933837890625
0.156,-5.275146484375,3.373291015625,2.372314453125
0.1565,-5.275146484375,4.774658203125,1.291259765625
0.157,-5.114990234375,5.535400390625,0.530517578125
0.1575,-4.354248046875,5.695556640625,-0.310302734375
0.158,-3.032958984375,5.495361328125,-1.431396484375
0.1585,-1.471435546875,5.615478515625,-3.072998046875
0.159,0.010009765625,5.895751953125,-4.674560546875
0.1595,0.690673828125,6.256103515625,-5.875732421875
0.16,1.291259765625,6.135986328125,-6.476318359375
0.1605,2.292236328125,5.175048828125,-6.676513671875
0.161,3.653564453125,3.653564453125,-6.756591796875
0.1615,4.974853515625,2.011962890625,-6.916748046875
0.162,6.095947265625,0.850830078125,-7.076904296875
0.1625,6.416259765625,0.130126953125,-7.076904296875
0.163,6.095947265625,-0.670654296875,-6.396240234375
0.1635,5.495361328125,-1.631591796875,-5.114990234375
0.164,5.094970703125,-3.113037109375,-3.553466796875
0.1645,4.934814453125,-4.674560546875,-2.031982421875
0.165,5.014892578125,-5.915771484375,-1.031005859375
0.1655,4.574462890625,-6.396240234375,-0.310302734375
0.166,3.573486328125,-6.396240234375,0.610595703125
0.1665,2.052001953125,-6.236083984375,1.931884765625
0.167,0.450439453125,-6.316162109375,3.653564453125
0.1675,-0.790771484375,-6.636474609375,5.094970703125
0.168,-1.391357421875,-6.916748046875,6.095947265625
0.1685,-2.072021484375,-6.556396484375,6.456298828125
0.169,-3.153076171875,-5.315185546875,6.536376953125
0.1695,-4.514404296875,-3.793701171875,6.576416015625
0.17,-5.755615234375,-2.232177734375,6.696533203125
0.1705,-6.516357421875,-1.231201171875,6.896728515625
0.171,-6.556396484375,-0.590576171875,6.656494140625
0.1715,-6.115966796875,0.210205078125,5.775634765625
0.172,-5.555419921875,1.291259765625,4.414306640625
0.1725,-5.235107421875,2.732666015625,2.852783203125
0.173,-5.195068359375,4.214111328125,1.571533203125
0.1735,-5.195068359375,5.215087890625,0.770751953125
0.174,-4.634521484375,5.495361328125,0.130126953125
0.1745,-3.553466796875,5.415283203125,-0.870849609375
0.175,-2.072021484375,5.415283203125,-2.272216796875
0.1755,-0.630615234375,5.575439453125,-3.913818359375
0.176,0.330322265625,6.055908203125,-5.235107421875
0.1765,0.930908203125,6.176025390625,-6.075927734375
0.177,1.651611328125,5.615478515625,-6.396240234375
0.1775,2.812744140625,4.254150390625,-6.436279296875
0.178,4.134033203125,2.852783203125,-6.556396484375
0.1785,5.415283203125,1.451416015625,-6.796630859375
0.179,6.055908203125,0.610595703125,-6.956787109375
0.1795,5.975830078125,0.010009765625,-6.636474609375
0.18,5.495361328125,-0.870849609375,-5.675537109375
0.1805,5.094970703125,-2.072021484375,-4.314208984375
0.181,4.854736328125,-3.553466796875,-2.832763671875
0.1815,4.974853515625,-4.994873046875,-1.711669921875
0.182,4.814697265625,-5.795654296875,-0.990966796875
0.1825,4.134033203125,-6.035888671875,-0.270263671875
0.183,2.932861328125,-5.955810546875,0.890869140625
0.1835,1.411376953125,-6.035888671875,2.452392578125
0.184,0.090087890625,-6.356201171875,4.053955078125
0.1845,-0.750732421875,-6.756591796875,5.295166015625
0.185,-1.311279296875,-6.756591796875,5.935791015625
0.1855,-2.232177734375,-5.955810546875,6.135986328125
0.186,-3.473388671875,-4.554443359375,6.256103515625
0.1865,-4.794677734375,-3.072998046875,6.416259765625
0.187,-5.875732421875,-1.911865234375,6.656494140625
0.1875,-6.276123046875,-1.231201171875,6.696533203125
0.188,-6.075927734375,-0.590576171875,6.135986328125
