wavelength,x,y,z
0.0,-10.920654296875,13.423095703125,-2.632568359375
0.0005,-11.721435546875,11.621337890625,-0.110107421875
0.001,-12.802490234375,10.780517578125,1.851806640625
0.0015,-13.122802734375,8.618408203125,4.374267578125
0.002,-13.242919921875,6.536376953125,6.616455078125
0.0025,-13.363037109375,4.294189453125,8.978759765625
0.003,-12.362060546875,1.571533203125,10.700439453125
0.0035,-10.640380859375,-1.231201171875,11.661376953125
0.004,-9.599365234375,-3.473388671875,12.782470703125
0.0045,-7.116943359375,-6.316162109375,13.102783203125
0.005,-5.114990234375,-8.438232421875,13.142822265625
0.0055,-2.592529296875,-10.840576171875,12.942626953125
0.006,0.210205078125,-11.881591796875,11.260986328125
0.0065,2.412353515625,-13.122802734375,10.219970703125
0.007,5.054931640625,-14.043701171875,8.538330078125
0.0075,7.617431640625,-14.243896484375,6.256103515625
0.008,9.499267578125,-14.283935546875,4.414306640625
0.0085,11.220947265625,-13.643310546875,1.971923828125
0.009,11.901611328125,-11.881591796875,-0.510498046875
0.0095,12.942626953125,-10.880615234375,-2.552490234375
0.01,13.142822265625,-8.318115234375,-5.275146484375
0.0105,13.102783203125,-6.396240234375,-7.197021484375
0.011,13.102783203125,-4.033935546875,-9.519287109375
0.0115,11.701416015625,-1.191162109375,-10.920654296875
0.012,10.340087890625,1.291259765625,-11.921630859375
0.0125,8.898681640625,3.813720703125,-12.882568359375
0.013,6.376220703125,6.696533203125,-13.202880859375
0.0135,4.414306640625,8.618408203125,-13.122802734375
0.014,1.811767578125,10.740478515625,-12.602294921875
0.0145,-0.990966796875,11.621337890625,-10.760498046875
0.015,-3.193115234375,12.862548828125,-9.759521484375
0.0155,-6.115966796875,13.503173828125,-7.557373046875
0.016,-8.318115234375,13.663330078125,-5.475341796875
0.0165,-10.119873046875,13.463134765625,-3.553466796875
0.017,-11.601318359375,12.502197265625,-1.151123046875
0.0175,-12.322021484375,10.900634765625,1.211181640625
0.018,-13.242919921875,9.659423828125,3.453369140625
0.0185,-13.403076171875,6.896728515625,6.376220703125
0.019,-13.282958984375,5.054931640625,8.137939453125
0.0195,-12.962646484375,2.572509765625,10.260009765625
0.02,-11.240966796875,-0.310302734375,11.381103515625
0.0205,-9.959716796875,-2.712646484375,12.462158203125
0.021,-7.997802734375,-5.475341796875,13.142822265625
0.0215,-5.515380859375,-8.157958984375,13.302978515625
0.022,-3.353271484375,-9.959716796875,12.902587890625
0.0225,-0.790771484375,-11.801513671875,12.141845703125
0.023,1.811767578125,-12.642333984375,10.380126953125
0.0235,4.134033203125,-13.923583984375,9.339111328125
0.024,7.177001953125,-14.364013671875,6.696533203125
0.0245,9.098876953125,-14.404052734375,4.854736328125
0.025,10.700439453125,-13.963623046875,2.812744140625
0.0255,11.861572265625,-12.682373046875,0.330322265625
0.026,12.582275390625,-11.080810546875,-1.951904296875
0.0265,13.262939453125,-9.359130859375,-4.234130859375
0.027,13.302978515625,-6.676513671875,-7.076904296875
0.0275,13.022705078125,-4.834716796875,-8.678466796875
0.028,12.422119140625,-2.192138671875,-10.640380859375
0.0285,10.660400390625,0.610595703125,-11.561279296875
0.029,9.419189453125,3.012939453125,-12.682373046875
0.0295,7.096923828125,5.895751953125,-13.162841796875
0.03,4.894775390625,8.258056640625,-13.242919921875
0.0305,2.572509765625,9.899658203125,-12.522216796875
0.031,-0.070068359375,11.461181640625,-11.481201171875
0.0315,-2.632568359375,12.302001953125,-9.759521484375
0.032,-4.954833984375,13.423095703125,-8.598388671875
0.0325,-7.957763671875,13.703369140625,-5.915771484375
0.033,-9.559326171875,13.463134765625,-4.154052734375
0.0335,-11.040771484375,12.782470703125,-1.951904296875
0.034,-12.041748046875,11.381103515625,0.490478515625
0.0345,-12.802490234375,9.979736328125,2.652587890625
0.035,-13.162841796875,7.857666015625,5.215087890625
0.0355,-13.322998046875,5.495361328125,7.697509765625
0.036,-12.802490234375,3.533447265625,9.138916015625
0.0365,-11.921630859375,0.970947265625,10.860595703125
0.037,-10.119873046875,-1.831787109375,11.661376953125
0.0375,-8.798583984375,-4.234130859375,12.742431640625
0.038,-6.236083984375,-7.197021484375,13.102783203125
0.0385,-4.194091796875,-9.239013671875,12.942626953125
0.039,-1.751708984375,-10.800537109375,12.101806640625
0.0395,0.730712890625,-12.121826171875,10.900634765625
0.04,3.173095703125,-13.002685546875,9.419189453125
0.0405,5.615478515625,-13.883544921875,7.817626953125
0.041,8.418212890625,-14.243896484375,5.375244140625
0.0415,9.659423828125,-13.763427734375,3.653564453125
0.042,11.140869140625,-12.962646484375,1.451416015625
0.0425,11.861572265625,-11.361083984375,-0.910888671875
0.043,12.662353515625,-10.039794921875,-3.072998046875
0.0435,12.862548828125,-7.637451171875,-5.635498046875
0.044,12.902587890625,-5.555419921875,-7.797607421875
0.0445,12.181884765625,-3.353271484375,-9.239013671875
0.045,11.220947265625,-0.790771484375,-10.840576171875
0.0455,9.539306640625,1.851806640625,-11.681396484375
0.046,8.097900390625,4.214111328125,-12.522216796875
0.0465,5.575439453125,7.177001953125,-12.882568359375
0.047,3.613525390625,8.818603515625,-12.522216796875
0.0475,1.131103515625,10.380126953125,-11.561279296875
0.048,-1.311279296875,11.501220703125,-10.239990234375
0.0485,-3.673583984375,12.462158203125,-8.958740234375
0.049,-6.156005859375,13.022705078125,-6.996826171875
0.0495,-8.678466796875,13.383056640625,-4.874755859375
0.05,-9.759521484375,12.542236328125,-2.952880859375
0.0505,-11.240966796875,11.821533203125,-0.790771484375
0.051,-11.881591796875,10.219970703125,1.531494140625
0.0515,-12.562255859375,8.898681640625,3.573486328125
0.052,-12.802490234375,6.336181640625,6.416259765625
0.0525,-12.762451171875,4.414306640625,8.258056640625
0.053,-11.841552734375,2.092041015625,9.659423828125
0.0535,-10.720458984375,-0.510498046875,11.020751953125
0.054,-9.118896484375,-3.072998046875,11.941650390625
0.0545,-7.397216796875,-5.475341796875,12.502197265625
0.055,-4.954833984375,-8.318115234375,12.862548828125
0.0555,-2.752685546875,-9.719482421875,12.021728515625
0.056,-0.350341796875,-11.361083984375,11.260986328125
0.0565,1.971923828125,-12.281982421875,9.819580078125
0.057,4.334228515625,-13.322998046875,8.538330078125
0.0575,7.056884765625,-13.803466796875,6.296142578125
0.058,9.178955078125,-13.883544921875,4.334228515625
0.0585,10.179931640625,-12.802490234375,2.332275390625
0.059,11.501220703125,-12.001708984375,0.130126953125
0.0595,12.061767578125,-10.280029296875,-2.192138671875
0.06,12.542236328125,-8.758544921875,-4.234130859375
0.0605,12.822509765625,-6.156005859375,-7.076904296875
0.061,12.382080078125,-4.194091796875,-8.638427734375
0.0615,11.381103515625,-1.671630859375,-10.119873046875
0.062,10.139892578125,0.890869140625,-11.281005859375
0.0625,8.578369140625,3.333251953125,-12.161865234375
0.063,6.536376953125,5.855712890625,-12.562255859375
0.0635,4.334228515625,8.498291015625,-12.922607421875
0.064,1.851806640625,9.739501953125,-11.601318359375
0.0645,-0.510498046875,11.220947265625,-10.840576171875
0.065,-2.872802734375,12.021728515625,-9.279052734375
0.0655,-5.114990234375,12.782470703125,-7.837646484375
0.066,-7.957763671875,13.262939453125,-5.475341796875
0.0665,-9.759521484375,13.022705078125,-3.473388671875
0.067,-10.760498046875,11.861572265625,-1.271240234375
0.0675,-11.961669921875,10.940673828125,0.890869140625
0.068,-12.442138671875,9.259033203125,3.052978515625
0.0685,-12.762451171875,7.417236328125,5.215087890625
0.069,-13.122802734375,4.974853515625,8.057861328125
0.0695,-12.161865234375,2.692626953125,9.339111328125
0.07,-11.120849609375,0.170166015625,10.820556640625
0.0705,-9.639404296875,-2.432373046875,11.781494140625
0.071,-7.957763671875,-4.794677734375,12.462158203125
0.0715,-5.715576171875,-7.437255859375,12.782470703125
0.072,-3.393310546875,-9.759521484375,12.742431640625
0.0725,-0.790771484375,-10.920654296875,11.220947265625
0.073,1.291259765625,-12.322021484375,10.500244140625
0.0735,3.733642578125,-13.082763671875,8.898681640625
0.074,5.935791015625,-13.603271484375,7.217041015625
0.0745,8.778564453125,-14.083740234375,4.934814453125
0.075,10.139892578125,-13.322998046875,2.812744140625
0.0755,11.220947265625,-12.161865234375,0.610595703125
0.076,12.141845703125,-10.960693359375,-1.551513671875
0.0765,12.502197265625,-9.279052734375,-3.673583984375
0.077,12.662353515625,-7.197021484375,-5.915771484375
0.0775,12.942626953125,-4.834716796875,-8.598388671875
0.078,11.541259765625,-2.312255859375,-9.639404296875
0.0785,10.740478515625,0.130126953125,-11.160888671875
0.079,9.018798828125,2.612548828125,-11.881591796875
0.0795,7.377197265625,4.854736328125,-12.442138671875
0.08,5.054931640625,7.657470703125,-12.842529296875
0.0805,2.652587890625,9.499267578125,-12.281982421875
0.081,0.010009765625,10.620361328125,-10.800537109375
0.0815,-2.031982421875,11.861572265625,-9.999755859375
0.082,-4.434326171875,12.662353515625,-8.318115234375
0.0825,-6.676513671875,13.022705078125,-6.476318359375
0.083,-9.319091796875,13.423095703125,-4.274169921875
0.0835,-10.400146484375,12.181884765625,-1.991943359375
0.084,-11.561279296875,11.301025390625,0.130126953125
0.0845,-12.241943359375,9.859619140625,2.252197265625
0.085,-12.522216796875,8.057861328125,4.334228515625
0.0855,-12.802490234375,5.855712890625,6.816650390625
0.086,-12.762451171875,3.533447265625,9.098876953125
0.0865,-11.160888671875,0.930908203125,10.099853515625
0.087,-10.320068359375,-1.351318359375,11.501220703125
0.0875,-8.518310546875,-3.873779296875,12.141845703125
0.088,-6.756591796875,-6.035888671875,12.462158203125
0.0885,-4.394287109375,-8.958740234375,12.862548828125
0.089,-1.831787109375,-10.400146484375,11.741455078125
0.0895,0.610595703125,-11.681396484375,10.580322265625
0.09,2.652587890625,-12.722412109375,9.619384765625
0.0905,5.094970703125,-13.282958984375,7.737548828125
0.091,7.417236328125,-13.643310546875,5.895751953125
0.0915,9.779541015625,-13.843505859375,3.733642578125
0.092,10.620361328125,-12.322021484375,1.331298828125
0.0925,11.821533203125,-11.601318359375,-0.630615234375
0.093,12.261962890625,-9.839599609375,-2.832763671875
0.0935,12.422119140625,-7.997802734375,-4.834716796875
0.094,12.742431640625,-5.715576171875,-7.437255859375
0.0945,12.181884765625,-3.233154296875,-9.319091796875
0.095,10.700439453125,-0.670654296875,-10.400146484375
0.0955,9.819580078125,1.531494140625,-11.601318359375
0.096,7.937744140625,3.973876953125,-12.121826171875
0.0965,6.095947265625,6.095947265625,-12.442138671875
0.097,3.813720703125,8.818603515625,-12.722412109375
0.0975,1.010986328125,10.019775390625,-11.240966796875
0.098,-1.191162109375,11.381103515625,-10.280029296875
0.0985,-3.433349609375,12.302001953125,-8.958740234375
0.099,-5.835693359375,12.782470703125,-7.076904296875
0.0995,-8.157958984375,13.102783203125,-5.155029296875
0.1,-10.119873046875,12.862548828125,-2.912841796875
0.1005,-10.880615234375,11.341064453125,-0.630615234375
0.101,-12.081787109375,10.620361328125,1.291259765625
0.1015,-12.322021484375,8.658447265625,3.573486328125
0.102,-12.522216796875,6.816650390625,5.615478515625
0.1025,-12.842529296875,4.494384765625,8.298095703125
0.103,-11.761474609375,1.931884765625,9.739501953125
0.1035,-10.440185546875,-0.630615234375,10.900634765625
0.104,-9.319091796875,-2.872802734375,11.901611328125
0.1045,-7.277099609375,-5.395263671875,12.302001953125
0.105,-5.395263671875,-7.597412109375,12.542236328125
0.1055,-2.952880859375,-9.959716796875,12.422119140625
0.106,-0.310302734375,-10.920654296875,10.820556640625
0.1065,1.731689453125,-12.322021484375,10.139892578125
0.107,4.214111328125,-13.122802734375,8.458251953125
0.1075,6.536376953125,-13.483154296875,6.536376953125
0.108,8.818603515625,-13.803466796875,4.614501953125
0.1085,10.380126953125,-13.002685546875,2.292236328125
0.109,11.180908203125,-11.561279296875,0.050048828125
0.1095,12.181884765625,-10.600341796875,-1.951904296875
0.11,12.342041015625,-8.478271484375,-4.314208984375
0.1105,12.462158203125,-6.676513671875,-6.196044921875
0.111,12.662353515625,-4.314208984375,-8.798583984375
0.1115,11.180908203125,-1.591552734375,-9.959716796875
0.112,10.179931640625,0.690673828125,-11.240966796875
0.1125,8.658447265625,3.052978515625,-12.001708984375
0.113,6.616455078125,5.495361328125,-12.362060546875
0.1135,4.654541015625,7.697509765625,-12.602294921875
0.114,2.172119140625,9.739501953125,-12.001708984375
0.1145,-0.470458984375,10.700439453125,-10.360107421875
0.115,-2.512451171875,12.021728515625,-9.639404296875
0.1155,-5.195068359375,12.662353515625,-7.557373046875
0.116,-7.237060546875,12.902587890625,-5.795654296875
0.1165,-9.399169921875,13.102783203125,-3.833740234375
0.117,-10.600341796875,11.901611328125,-1.431396484375
0.1175,-11.561279296875,10.740478515625,0.650634765625
0.118,-12.362060546875,9.459228515625,2.812744140625
0.1185,-12.522216796875,7.096923828125,5.295166015625
0.119,-12.642333984375,5.415283203125,7.136962890625
0.1195,-12.482177734375,3.012939453125,9.379150390625
0.12,-10.760498046875,0.250244140625,10.380126953125
0.1205,-9.879638671875,-1.991943359375,11.661376953125
0.121,-7.877685546875,-4.674560546875,12.221923828125
0.1215,-5.835693359375,-7.036865234375,12.502197265625
0.122,-3.713623046875,-9.158935546875,12.502197265625
0.1225,-1.271240234375,-10.800537109375,11.541259765625
0.123,1.171142578125,-11.721435546875,10.139892578125
0.1235,3.333251953125,-12.962646484375,9.218994140625
0.124,6.256103515625,-13.443115234375,6.776611328125
0.1245,7.977783203125,-13.603271484375,5.255126953125
0.125,9.939697265625,-13.483154296875,3.213134765625
0.1255,10.860595703125,-12.041748046875,0.810791015625
0.126,11.821533203125,-11.000732421875,-1.231201171875
0.1265,12.382080078125,-9.198974609375,-3.593505859375
0.127,12.502197265625,-6.956787109375,-5.955810546875
0.1275,12.502197265625,-5.114990234375,-7.837646484375
0.128,11.981689453125,-2.592529296875,-9.759521484375
0.1285,10.260009765625,0.010009765625,-10.680419921875
0.129,9.379150390625,2.212158203125,-11.881591796875
0.1295,7.056884765625,5.014892578125,-12.362060546875
0.13,5.175048828125,7.177001953125,-12.522216796875
0.1305,2.972900390625,9.218994140625,-12.241943359375
0.131,0.370361328125,10.540283203125,-10.920654296875
0.1315,-1.991943359375,11.541259765625,-9.639404296875
0.132,-4.354248046875,12.662353515625,-8.358154296875
0.1325,-7.076904296875,12.942626953125,-5.995849609375
0.133,-8.638427734375,12.942626953125,-4.474365234375
0.1335,-10.320068359375,12.502197265625,-2.352294921875
0.134,-11.160888671875,11.020751953125,0.010009765625
0.1345,-12.161865234375,10.059814453125,1.971923828125
0.135,-12.522216796875,7.777587890625,4.614501953125
0.1355,-12.642333984375,5.775634765625,6.696533203125
0.136,-12.442138671875,3.813720703125,8.538330078125
0.1365,-11.521240234375,1.211181640625,10.099853515625
0.137,-9.879638671875,-1.351318359375,10.940673828125
0.1375,-8.718505859375,-3.673583984375,12.061767578125
0.138,-6.276123046875,-6.556396484375,12.462158203125
0.1385,-4.474365234375,-8.318115234375,12.422119140625
0.139,-2.072021484375,-10.280029296875,11.901611328125
0.1395,0.410400390625,-11.361083984375,10.500244140625
0.14,2.612548828125,-12.442138671875,9.379150390625
0.1405,5.215087890625,-13.282958984375,7.657470703125
0.141,7.657470703125,-13.523193359375,5.495361328125
0.1415,9.018798828125,-13.322998046875,3.893798828125
0.142,10.540283203125,-12.682373046875,1.771728515625
0.1425,11.220947265625,-11.080810546875,-0.510498046875
0.143,12.181884765625,-10.039794921875,-2.552490234375
0.1435,12.342041015625,-7.517333984375,-5.275146484375
0.144,12.422119140625,-5.795654296875,-7.036865234375
0.1445,12.021728515625,-3.673583984375,-8.838623046875
0.145,10.820556640625,-1.031005859375,-10.239990234375
0.1455,9.459228515625,1.371337890625,-11.240966796875
0.146,7.937744140625,3.893798828125,-12.041748046875
0.1465,5.575439453125,6.656494140625,-12.442138671875
0.147,3.853759765625,8.218017578125,-12.161865234375
0.1475,1.371337890625,9.939697265625,-11.401123046875
0.148,-1.031005859375,10.860595703125,-9.959716796875
0.1485,-3.273193359375,12.101806640625,-8.918701171875
0.149,-6.035888671875,12.662353515625,-6.796630859375
0.1495,-8.117919921875,12.902587890625,-4.954833984375
0.15,-9.399169921875,12.422119140625,-3.153076171875
0.1505,-10.760498046875,11.581298828125,-0.990966796875
0.151,-11.481201171875,10.099853515625,1.251220703125
0.1515,-12.241943359375,8.778564453125,3.373291015625
0.152,-12.522216796875,6.216064453125,6.135986328125
0.1525,-12.402099609375,4.534423828125,7.697509765625
0.153,-11.841552734375,2.292236328125,9.419189453125
0.1535,-10.360107421875,-0.390380859375,10.500244140625
0.154,-9.118896484375,-2.712646484375,11.581298828125
0.1545,-7.156982421875,-5.315185546875,12.181884765625
0.155,-4.954833984375,-7.957763671875,12.462158203125
0.1555,-2.832763671875,-9.359130859375,11.781494140625
0.156,-0.510498046875,-11.000732421875,11.060791015625
0.1565,1.891845703125,-11.841552734375,9.579345703125
0.157,4.134033203125,-13.002685546875,8.458251953125
0.1575,6.976806640625,-13.443115234375,6.095947265625
0.158,8.698486328125,-13.483154296875,4.494384765625
0.1585,9.939697265625,-12.802490234375,2.532470703125
0.159,11.060791015625,-11.721435546875,0.290283203125
0.1595,11.701416015625,-10.239990234375,-1.911865234375
0.16,12.221923828125,-8.518310546875,-4.154052734375
0.1605,12.502197265625,-6.115966796875,-6.836669921875
0.161,12.101806640625,-4.314208984375,-8.238037109375
0.1615,11.381103515625,-1.911865234375,-9.959716796875
0.162,9.859619140625,0.650634765625,-10.880615234375
0.1625,8.578369140625,3.052978515625,-11.841552734375
0.163,6.376220703125,5.775634765625,-12.322021484375
0.1635,4.334228515625,8.097900390625,-12.522216796875
0.164,1.971923828125,9.459228515625,-11.521240234375
0.1645,-0.390380859375,10.900634765625,-10.640380859375
0.165,-2.712646484375,11.701416015625,-9.078857421875
0.1655,-4.954833984375,12.622314453125,-7.757568359375
0.166,-7.797607421875,13.022705078125,-5.315185546875
0.1665,-9.319091796875,12.702392578125,-3.553466796875
0.167,-10.560302734375,11.901611328125,-1.551513671875
0.1675,-11.561279296875,10.740478515625,0.690673828125
0.168,-12.201904296875,9.259033203125,2.812744140625
0.1685,-12.522216796875,7.136962890625,5.255126953125
0.169,-12.802490234375,4.854736328125,7.817626953125
0.1695,-11.921630859375,2.732666015625,8.978759765625
0.17,-11.040771484375,0.290283203125,10.620361328125
0.1705,-9.399169921875,-2.272216796875,11.461181640625
0.171,-7.997802734375,-4.554443359375,12.221923828125
0.1715,-5.555419921875,-7.437255859375,12.662353515625
0.172,-3.473388671875,-9.399169921875,12.422119140625
0.1725,-0.990966796875,-10.720458984375,11.260986328125
0.173,1.211181640625,-12.001708984375,10.340087890625
0.1735,3.573486328125,-12.802490234375,8.818603515625
0.174,5.895751953125,-13.443115234375,7.056884765625
0.1745,8.738525390625,-13.883544921875,4.814697265625
0.175,9.859619140625,-13.002685546875,2.852783203125
0.1755,11.140869140625,-12.201904296875,0.770751953125
0.176,11.821533203125,-10.760498046875,-1.471435546875
0.1765,12.342041015625,-9.319091796875,-3.513427734375
0.177,12.542236328125,-6.956787109375,-6.115966796875
0.1775,12.662353515625,-4.834716796875,-8.358154296875
0.178,11.501220703125,-2.392333984375,-9.559326171875
0.1785,10.620361328125,0.050048828125,-11.000732421875
0.179,8.938720703125,2.572509765625,-11.761474609375
0.1795,7.377197265625,4.814697265625,-12.362060546875
0.18,4.934814453125,7.737548828125,-12.802490234375
0.1805,2.652587890625,9.339111328125,-12.081787109375
0.181,0.130126953125,10.700439453125,-10.920654296875
0.1815,-2.031982421875,11.781494140625,-9.799560546875
0.182,-4.394287109375,12.622314453125,-8.358154296875
0.1825,-6.876708984375,13.022705078125,-6.316162109375
0.183,-9.399169921875,13.383056640625,-4.114013671875
0.1835,-10.360107421875,12.101806640625,-1.911865234375
