wavelength,x,y,z
0.0,4.654541015625,-1.471435546875,-4.154052734375
0.0005,4.774658203125,-2.912841796875,-3.153076171875
0.001,4.934814453125,-4.073974609375,-2.392333984375
0.0015,4.774658203125,-4.754638671875,-1.831787109375
0.002,4.093994140625,-4.954833984375,-0.990966796875
0.0025,3.012939453125,-5.195068359375,0.330322265625
0.003,1.851806640625,-5.595458984375,1.811767578125
0.0035,1.010986328125,-6.115966796875,3.173095703125
0.004,0.450439453125,-6.556396484375,4.174072265625
0.0045,-0.430419921875,-6.396240234375,4.814697265625
0.005,-1.471435546875,-5.515380859375,5.094970703125
0.0055,-2.792724609375,-4.434326171875,5.455322265625
0.006,-4.114013671875,-3.233154296875,5.855712890625
0.0065,-4.994873046875,-2.432373046875,6.256103515625
0.007,-5.275146484375,-1.911865234375,6.256103515625
0.0075,-5.155029296875,-1.231201171875,5.655517578125
0.008,-4.994873046875,-0.150146484375,4.734619140625
0.0085,-4.994873046875,1.251220703125,3.693603515625
0.009,-5.195068359375,2.572509765625,2.732666015625
0.0095,-5.275146484375,3.533447265625,2.052001953125
0.01,-4.994873046875,4.093994140625,1.411376953125
0.0105,-4.033935546875,4.334228515625,0.490478515625
0.011,-3.032958984375,4.654541015625,-0.950927734375
0.0115,-1.951904296875,5.094970703125,-2.432373046875
0.012,-1.151123046875,5.695556640625,-3.713623046875
0.0125,-0.590576171875,5.935791015625,-4.594482421875
0.013,0.450439453125,5.455322265625,-5.074951171875
0.0135,1.651611328125,4.494384765625,-5.435302734375
0.014,3.012939453125,3.253173828125,-5.755615234375
0.0145,4.214111328125,2.172119140625,-6.156005859375
0.015,4.894775390625,1.531494140625,-6.476318359375
0.0155,5.014892578125,0.890869140625,-6.276123046875
0.016,4.814697265625,0.050048828125,-5.475341796875
0.0165,4.654541015625,-1.231201171875,-4.474365234375
0.017,4.734619140625,-2.632568359375,-3.313232421875
0.0175,4.854736328125,-3.953857421875,-2.432373046875
0.018,4.854736328125,-4.674560546875,-1.791748046875
0.0185,4.254150390625,-5.034912109375,-1.071044921875
0.019,3.213134765625,-5.195068359375,0.170166015625
0.0195,2.052001953125,-5.515380859375,1.611572265625
0.02,1.051025390625,-6.035888671875,3.052978515625
0.0205,0.410400390625,-6.556396484375,4.174072265625
0.021,-0.390380859375,-6.516357421875,4.854736328125
0.0215,-1.351318359375,-5.755615234375,5.175048828125
0.022,-2.672607421875,-4.594482421875,5.495361328125
0.0225,-3.993896484375,-3.273193359375,5.815673828125
0.023,-5.074951171875,-2.392333984375,6.216064453125
0.0235,-5.475341796875,-1.791748046875,6.336181640625
0.024,-5.395263671875,-1.151123046875,5.815673828125
0.0245,-5.114990234375,-0.190185546875,4.854736328125
0.025,-5.034912109375,1.211181640625,3.773681640625
0.0255,-5.114990234375,2.532470703125,2.692626953125
0.026,-5.275146484375,3.733642578125,1.931884765625
0.0265,-4.994873046875,4.334228515625,1.291259765625
0.027,-4.194091796875,4.494384765625,0.490478515625
0.0275,-3.113037109375,4.694580078125,-0.830810546875
0.028,-1.911865234375,5.054931640625,-2.352294921875
0.0285,-1.071044921875,5.615478515625,-3.713623046875
0.029,-0.470458984375,5.975830078125,-4.674560546875
0.0295,0.410400390625,5.695556640625,-5.235107421875
0.03,1.571533203125,4.694580078125,-5.515380859375
0.0305,2.892822265625,3.453369140625,-5.795654296875
0.031,4.214111328125,2.252197265625,-6.196044921875
0.0315,5.054931640625,1.411376953125,-6.516357421875
0.032,5.255126953125,0.810791015625,-6.436279296875
0.0325,5.054931640625,0.010009765625,-5.715576171875
0.033,4.814697265625,-1.151123046875,-4.674560546875
0.0335,4.734619140625,-2.592529296875,-3.433349609375
0.034,4.894775390625,-3.913818359375,-2.432373046875
0.0345,4.934814453125,-4.834716796875,-1.711669921875
0.035,4.494384765625,-5.275146484375,-1.031005859375
0.0355,3.413330078125,-5.395263671875,0.090087890625
0.036,2.172119140625,-5.635498046875,1.531494140625
0.0365,0.970947265625,-6.035888671875,3.052978515625
0.037,0.290283203125,-6.556396484375,4.334228515625
0.0375,-0.510498046875,-6.676513671875,5.094970703125
0.038,-1.391357421875,-6.035888671875,5.455322265625
0.0385,-2.712646484375,-4.834716796875,5.735595703125
0.039,-4.073974609375,-3.473388671875,5.975830078125
0.0395,-5.235107421875,-2.312255859375,6.336181640625
0.04,-5.755615234375,-1.631591796875,6.456298828125
0.0405,-5.715576171875,-1.031005859375,6.095947265625
0.041,-5.395263671875,0.010009765625,5.094970703125
0.0415,-5.195068359375,1.251220703125,3.853759765625
0.042,-5.155029296875,2.732666015625,2.652587890625
0.0425,-5.315185546875,4.013916015625,1.771728515625
0.043,-5.114990234375,4.654541015625,1.131103515625
0.0435,-4.354248046875,4.854736328125,0.330322265625
0.044,-3.153076171875,4.934814453125,-0.990966796875
0.0445,-1.831787109375,5.215087890625,-2.512451171875
0.045,-0.830810546875,5.695556640625,-3.993896484375
0.0455,-0.150146484375,6.095947265625,-5.074951171875
0.046,0.650634765625,5.935791015625,-5.715576171875
0.0465,1.771728515625,4.934814453125,-5.915771484375
0.047,3.173095703125,3.533447265625,-6.236083984375
0.0475,4.494384765625,2.172119140625,-6.436279296875
0.048,5.495361328125,1.131103515625,-6.756591796875
0.0485,5.775634765625,0.450439453125,-6.716552734375
0.049,5.535400390625,-0.390380859375,-6.035888671875
0.0495,5.135009765625,-1.551513671875,-4.834716796875
0.05,4.974853515625,-2.912841796875,-3.393310546875
0.0505,5.014892578125,-4.434326171875,-2.152099609375
0.051,5.014892578125,-5.475341796875,-1.311279296875
0.0515,4.574462890625,-5.915771484375,-0.630615234375
0.052,3.493408203125,-5.955810546875,0.450439453125
0.0525,1.971923828125,-6.035888671875,1.931884765625
0.053,0.610595703125,-6.276123046875,3.573486328125
0.0535,-0.350341796875,-6.716552734375,4.934814453125
0.054,-0.990966796875,-6.916748046875,5.775634765625
0.0545,-1.871826171875,-6.276123046875,6.176025390625
0.055,-3.193115234375,-4.914794921875,6.336181640625
0.0555,-4.554443359375,-3.393310546875,6.456298828125
0.056,-5.755615234375,-2.072021484375,6.696533203125
0.0565,-6.396240234375,-1.231201171875,6.736572265625
0.057,-6.396240234375,-0.550537109375,6.416259765625
0.0575,-5.915771484375,0.450439453125,5.335205078125
0.058,-5.515380859375,1.811767578125,3.893798828125
0.0585,-5.355224609375,3.333251953125,2.452392578125
0.059,-5.395263671875,4.614501953125,1.331298828125
0.0595,-5.155029296875,5.415283203125,0.610595703125
0.06,-4.434326171875,5.575439453125,-0.270263671875
0.0605,-3.072998046875,5.455322265625,-1.391357421875
0.061,-1.591552734375,5.615478515625,-3.032958984375
0.0615,-0.310302734375,5.895751953125,-4.554443359375
0.062,0.530517578125,6.216064453125,-5.715576171875
0.0625,1.131103515625,6.135986328125,-6.356201171875
0.063,2.212158203125,5.135009765625,-6.556396484375
0.0635,3.533447265625,3.653564453125,-6.676513671875
0.064,4.934814453125,2.092041015625,-6.756591796875
0.0645,5.935791015625,0.810791015625,-6.996826171875
0.065,6.296142578125,0.130126953125,-6.916748046875
0.0655,6.055908203125,-0.750732421875,-6.356201171875
0.066,5.575439453125,-1.711669921875,-5.074951171875
0.0665,5.215087890625,-3.153076171875,-3.553466796875
0.067,5.054931640625,-4.634521484375,-2.072021484375
0.0675,5.054931640625,-5.835693359375,-1.151123046875
0.068,4.694580078125,-6.356201171875,-0.430419921875
0.0685,3.693603515625,-6.396240234375,0.570556640625
0.069,2.172119140625,-6.316162109375,1.931884765625
0.0695,0.610595703125,-6.396240234375,3.613525390625
0.07,-0.590576171875,-6.716552734375,5.054931640625
0.0705,-1.191162109375,-6.996826171875,6.015869140625
0.071,-1.951904296875,-6.636474609375,6.456298828125
0.0715,-3.113037109375,-5.355224609375,6.536376953125
0.072,-4.514404296875,-3.793701171875,6.696533203125
0.0725,-5.755615234375,-2.312255859375,6.776611328125
0.073,-6.596435546875,-1.271240234375,6.896728515625
0.0735,-6.716552734375,-0.630615234375,6.696533203125
0.074,-6.316162109375,0.330322265625,5.855712890625
0.0745,-5.755615234375,1.531494140625,4.414306640625
0.075,-5.475341796875,3.012939453125,2.852783203125
0.0755,-5.435302734375,4.454345703125,1.571533203125
0.076,-5.355224609375,5.415283203125,0.770751953125
0.0765,-4.794677734375,5.735595703125,0.050048828125
0.077,-3.593505859375,5.655517578125,-1.031005859375
0.0775,-2.031982421875,5.695556640625,-2.552490234375
0.078,-0.590576171875,5.815673828125,-4.234130859375
0.0785,0.450439453125,6.216064453125,-5.515380859375
0.079,1.010986328125,6.376220703125,-6.356201171875
0.0795,1.891845703125,5.695556640625,-6.676513671875
0.08,3.173095703125,4.214111328125,-6.716552734375
0.0805,4.574462890625,2.572509765625,-6.876708984375
0.081,5.735595703125,1.171142578125,-6.996826171875
0.0815,6.376220703125,0.290283203125,-7.116943359375
0.082,6.336181640625,-0.430419921875,-6.716552734375
0.0825,5.815673828125,-1.311279296875,-5.635498046875
0.083,5.375244140625,-2.632568359375,-4.154052734375
0.0835,5.094970703125,-4.194091796875,-2.552490234375
0.084,5.094970703125,-5.555419921875,-1.391357421875
0.0845,4.894775390625,-6.356201171875,-0.630615234375
0.085,4.134033203125,-6.516357421875,0.250244140625
0.0855,2.692626953125,-6.396240234375,1.451416015625
0.086,1.091064453125,-6.436279296875,3.173095703125
0.0865,-0.350341796875,-6.676513671875,4.734619140625
0.087,-1.071044921875,-7.036865234375,5.855712890625
0.0875,-1.671630859375,-6.916748046875,6.456298828125
0.088,-2.712646484375,-5.915771484375,6.656494140625
0.0885,-4.114013671875,-4.354248046875,6.696533203125
0.089,-5.435302734375,-2.752685546875,6.776611328125
0.0895,-6.476318359375,-1.511474609375,6.896728515625
0.09,-6.796630859375,-0.710693359375,6.896728515625
0.0905,-6.556396484375,0.130126953125,6.216064453125
0.091,-6.035888671875,1.171142578125,4.934814453125
0.0915,-5.635498046875,2.572509765625,3.333251953125
0.092,-5.475341796875,4.134033203125,1.931884765625
0.0925,-5.475341796875,5.335205078125,0.970947265625
0.093,-5.074951171875,5.775634765625,0.250244140625
0.0935,-4.073974609375,5.815673828125,-0.710693359375
0.094,-2.552490234375,5.735595703125,-2.072021484375
0.0945,-0.950927734375,5.855712890625,-3.833740234375
0.095,0.250244140625,6.135986328125,-5.275146484375
0.0955,0.890869140625,6.416259765625,-6.276123046875
0.096,1.611572265625,6.055908203125,-6.716552734375
0.0965,2.852783203125,4.694580078125,-6.796630859375
0.097,4.294189453125,3.133056640625,-6.916748046875
0.0975,5.575439453125,1.531494140625,-7.036865234375
0.098,6.376220703125,0.490478515625,-7.116943359375
0.0985,6.456298828125,-0.310302734375,-6.956787109375
0.099,6.095947265625,-1.111083984375,-6.075927734375
0.0995,5.575439453125,-2.272216796875,-4.594482421875
0.1,5.215087890625,-3.833740234375,-2.952880859375
0.1005,5.094970703125,-5.235107421875,-1.631591796875
0.101,4.974853515625,-6.196044921875,-0.790771484375
0.1015,4.454345703125,-6.556396484375,0.010009765625
0.102,3.173095703125,-6.436279296875,1.010986328125
0.1025,1.571533203125,-6.396240234375,2.572509765625
0.103,0.050048828125,-6.476318359375,4.214111328125
0.1035,-0.910888671875,-6.876708984375,5.495361328125
0.104,-1.471435546875,-6.956787109375,6.256103515625
0.1045,-2.272216796875,-6.356201171875,6.536376953125
0.105,-3.553466796875,-4.874755859375,6.576416015625
0.1055,-4.954833984375,-3.353271484375,6.616455078125
0.106,-6.075927734375,-1.911865234375,6.776611328125
0.1065,-6.636474609375,-1.031005859375,6.856689453125
0.107,-6.556396484375,-0.390380859375,6.456298828125
0.1075,-6.035888671875,0.570556640625,5.415283203125
0.108,-5.635498046875,1.771728515625,4.013916015625
0.1085,-5.395263671875,3.253173828125,2.532470703125
0.109,-5.395263671875,4.614501953125,1.411376953125
0.1095,-5.195068359375,5.295166015625,0.690673828125
0.11,-4.514404296875,5.495361328125,0.010009765625
0.1105,-3.233154296875,5.415283203125,-1.151123046875
0.111,-1.791748046875,5.535400390625,-2.712646484375
0.1115,-0.510498046875,5.775634765625,-4.314208984375
0.112,0.370361328125,6.135986328125,-5.435302734375
0.1125,0.930908203125,6.176025390625,-6.115966796875
0.113,1.851806640625,5.335205078125,-6.356201171875
0.1135,3.133056640625,3.933837890625,-6.476318359375
0.114,4.494384765625,2.492431640625,-6.636474609375
0.1145,5.575439453125,1.291259765625,-6.836669921875
0.115,6.015869140625,0.570556640625,-6.916748046875
0.1155,5.895751953125,-0.190185546875,-6.436279296875
0.116,5.415283203125,-1.151123046875,-5.315185546875
0.1165,5.135009765625,-2.472412109375,-3.953857421875
0.117,5.054931640625,-3.993896484375,-2.552490234375
0.1175,5.094970703125,-5.275146484375,-1.591552734375
0.118,4.854736328125,-5.875732421875,-0.950927734375
0.1185,3.973876953125,-6.035888671875,0.010009765625
0.119,2.652587890625,-6.035888671875,1.291259765625
0.1195,1.211181640625,-6.156005859375,2.852783203125
0.12,0.090087890625,-6.476318359375,4.334228515625
0.1205,-0.630615234375,-6.916748046875,5.335205078125
0.121,-1.311279296875,-6.716552734375,5.855712890625
0.1215,-2.432373046875,-5.635498046875,6.015869140625
0.122,-3.753662109375,-4.154052734375,6.216064453125
0.1225,-5.074951171875,-2.752685546875,6.416259765625
0.123,-5.955810546875,-1.791748046875,6.656494140625
0.1235,-6.156005859375,-1.151123046875,6.536376953125
0.124,-5.875732421875,-0.430419921875,5.895751953125
0.1245,-5.475341796875,0.690673828125,4.694580078125
0.125,-5.275146484375,2.052001953125,3.333251953125
0.1255,-5.275146484375,3.533447265625,2.172119140625
0.126,-5.315185546875,4.534423828125,1.371337890625
0.1265,-4.914794921875,4.974853515625,0.730712890625
0.127,-3.953857421875,5.054931640625,-0.270263671875
0.1275,-2.672607421875,5.094970703125,-1.551513671875
0.128,-1.311279296875,5.375244140625,-3.153076171875
0.1285,-0.470458984375,5.775634765625,-4.474365234375
0.129,0.210205078125,6.095947265625,-5.315185546875
0.1295,0.970947265625,5.655517578125,-5.755615234375
0.13,2.172119140625,4.494384765625,-5.915771484375
0.1305,3.493408203125,3.213134765625,-6.156005859375
0.131,4.734619140625,1.931884765625,-6.436279296875
0.1315,5.415283203125,1.131103515625,-6.676513671875
0.132,5.535400390625,0.570556640625,-6.516357421875
0.1325,5.215087890625,-0.310302734375,-5.755615234375
0.133,4.934814453125,-1.351318359375,-4.594482421875
0.1335,4.774658203125,-2.832763671875,-3.273193359375
0.134,4.894775390625,-4.194091796875,-2.272216796875
0.1345,4.854736328125,-5.074951171875,-1.591552734375
0.135,4.414306640625,-5.435302734375,-0.910888671875
0.1355,3.333251953125,-5.475341796875,0.210205078125
0.136,2.092041015625,-5.715576171875,1.571533203125
0.1365,0.890869140625,-6.075927734375,3.133056640625
0.137,0.170166015625,-6.556396484375,4.294189453125
0.1375,-0.550537109375,-6.716552734375,5.094970703125
0.138,-1.351318359375,-6.075927734375,5.415283203125
0.1385,-2.592529296875,-4.954833984375,5.695556640625
0.139,-3.913818359375,-3.633544921875,5.895751953125
0.1395,-5.074951171875,-2.552490234375,6.296142578125
0.14,-5.635498046875,-1.871826171875,6.456298828125
0.1405,-5.635498046875,-1.271240234375,6.135986328125
0.141,-5.315185546875,-0.390380859375,5.255126953125
0.1415,-5.155029296875,0.890869140625,4.134033203125
0.142,-5.114990234375,2.292236328125,2.972900390625
0.1425,-5.315185546875,3.573486328125,2.132080078125
0.143,-5.155029296875,4.294189453125,1.491455078125
0.1435,-4.554443359375,4.534423828125,0.730712890625
0.144,-3.473388671875,4.694580078125,-0.510498046875
0.1445,-2.272216796875,4.974853515625,-1.951904296875
0.145,-1.271240234375,5.415283203125,-3.393310546875
0.1455,-0.630615234375,5.895751953125,-4.514404296875
0.146,0.130126953125,5.895751953125,-5.114990234375
0.1465,1.131103515625,5.094970703125,-5.395263671875
0.147,2.412353515625,3.893798828125,-5.715576171875
0.1475,3.773681640625,2.692626953125,-6.075927734375
0.148,4.774658203125,1.771728515625,-6.396240234375
0.1485,5.135009765625,1.131103515625,-6.476318359375
0.149,5.054931640625,0.490478515625,-6.035888671875
0.1495,4.814697265625,-0.590576171875,-5.074951171875
0.15,4.694580078125,-1.871826171875,-3.913818359375
0.1505,4.774658203125,-3.233154296875,-2.872802734375
0.151,4.894775390625,-4.354248046875,-2.112060546875
0.1515,4.734619140625,-4.954833984375,-1.511474609375
0.152,3.893798828125,-5.114990234375,-0.670654296875
0.1525,2.772705078125,-5.355224609375,0.650634765625
0.153,1.571533203125,-5.715576171875,2.132080078125
0.1535,0.770751953125,-6.276123046875,3.493408203125
0.154,0.210205078125,-6.556396484375,4.454345703125
0.1545,-0.630615234375,-6.316162109375,4.934814453125
0.155,-1.751708984375,-5.355224609375,5.215087890625
0.1555,-3.072998046875,-4.194091796875,5.495361328125
0.156,-4.314208984375,-3.072998046875,5.895751953125
0.1565,-5.114990234375,-2.272216796875,6.256103515625
0.157,-5.355224609375,-1.751708984375,6.216064453125
0.1575,-5.155029296875,-1.031005859375,5.575439453125
0.158,-4.994873046875,0.090087890625,4.614501953125
0.1585,-4.994873046875,1.411376953125,3.533447265625
0.159,-5.155029296875,2.772705078125,2.612548828125
0.1595,-5.235107421875,3.693603515625,1.971923828125
0.16,-4.874755859375,4.134033203125,1.371337890625
0.1605,-3.993896484375,4.294189453125,0.370361328125
0.161,-2.952880859375,4.614501953125,-0.990966796875
0.1615,-1.911865234375,5.094970703125,-2.512451171875
0.162,-1.151123046875,5.695556640625,-3.713623046875
0.1625,-0.550537109375,5.935791015625,-4.554443359375
0.163,0.410400390625,5.415283203125,-4.994873046875
0.1635,1.611572265625,4.494384765625,-5.355224609375
0.164,3.012939453125,3.253173828125,-5.715576171875
0.1645,4.174072265625,2.252197265625,-6.156005859375
0.165,4.814697265625,1.611572265625,-6.436279296875
0.1655,4.974853515625,1.010986328125,-6.276123046875
0.166,4.774658203125,0.170166015625,-5.475341796875
0.1665,4.654541015625,-1.071044921875,-4.514404296875
0.167,4.734619140625,-2.512451171875,-3.393310546875
0.1675,4.934814453125,-3.793701171875,-2.552490234375
0.168,4.854736328125,-4.554443359375,-1.951904296875
0.1685,4.294189453125,-4.914794921875,-1.191162109375
0.169,3.253173828125,-5.155029296875,0.050048828125
0.1695,2.132080078125,-5.515380859375,1.411376953125
0.17,1.211181640625,-6.035888671875,2.892822265625
0.1705,0.570556640625,-6.516357421875,4.013916015625
0.171,-0.270263671875,-6.516357421875,4.774658203125
0.1715,-1.271240234375,-5.755615234375,5.054931640625
0.172,-2.552490234375,-4.634521484375,5.415283203125
0.1725,-3.873779296875,-3.393310546875,5.775634765625
0.173,-4.954833984375,-2.512451171875,6.176025390625
0.1735,-5.355224609375,-1.911865234375,6.296142578125
0.174,-5.275146484375,-1.271240234375,5.815673828125
0.1745,-5.034912109375,-0.310302734375,4.854736328125
0.175,-4.994873046875,1.091064453125,3.813720703125
0.1755,-5.155029296875,2.532470703125,2.772705078125
0.176,-5.275146484375,3.613525390625,2.052001953125
0.1765,-5.034912109375,4.134033203125,1.411376953125
0.177,-4.194091796875,4.334228515625,0.570556640625
0.1775,-3.193115234375,4.614501953125,-0.830810546875
0.178,-1.951904296875,5.054931640625,-2.312255859375
0.1785,-1.151123046875,5.615478515625,-3.713623046875
0.179,-0.510498046875,5.935791015625,-4.674560546875
0.1795,0.370361328125,5.655517578125,-5.155029296875
0.18,1.531494140625,4.614501953125,-5.435302734375
0.1805,2.852783203125,3.413330078125,-5.755615234375
0.181,4.174072265625,2.212158203125,-6.156005859375
0.1815,4.974853515625,1.411376953125,-6.436279296875
0.182,5.175048828125,0.850830078125,-6.396240234375
0.1825,4.934814453125,0.050048828125,-5.635498046875
0.183,4.774658203125,-1.151123046875,-4.594482421875
0.1835,4.734619140625,-2.552490234375,-3.353271484375
0.184,4.854736328125,-3.913818359375,-2.432373046875
0.1845,4.854736328125,-4.834716796875,-1.711669921875
0.185,4.414306640625,-5.235107421875,-1.031005859375
0.1855,3.333251953125,-5.355224609375,0.090087890625
0.186,2.092041015625,-5.595458984375,1.531494140625
0.1865,0.970947265625,-5.995849609375,3.052978515625
0.187,0.290283203125,-6.476318359375,4.294189453125
0.1875,-0.510498046875,-6.596435546875,5.054931640625
0.188,-1.391357421875,-5.915771484375,5.375244140625
