wavelength,x,y,z
0.0,-20.449951171875,20.109619140625,-0.150146484375
0.0005,-22.171630859375,17.867431640625,3.853759765625
0.001,-23.853271484375,14.584228515625,8.858642578125
0.0015,-22.732177734375,10.219970703125,12.181884765625
0.002,-22.772216796875,6.696533203125,15.745361328125
0.0025,-20.890380859375,2.932861328125,17.747314453125
0.003,-19.408935546875,-1.711669921875,20.830322265625
0.0035,-16.526123046875,-6.356201171875,22.552001953125
0.004,-12.442138671875,-11.040771484375,23.112548828125
0.0045,-9.239013671875,-14.163818359375,22.992431640625
0.005,-4.194091796875,-17.366943359375,21.270751953125
0.0055,0.130126953125,-19.408935546875,19.268798828125
0.006,4.214111328125,-21.851318359375,17.587158203125
0.0065,9.459228515625,-23.733154296875,14.263916015625
0.007,13.142822265625,-22.732177734375,9.619384765625
0.0075,16.626220703125,-23.212646484375,6.776611328125
0.008,18.948486328125,-21.130615234375,2.252197265625
0.0085,21.831298828125,-19.729248046875,-1.991943359375
0.009,22.712158203125,-17.006591796875,-5.755615234375
0.0095,23.753173828125,-13.443115234375,-10.600341796875
0.01,22.992431640625,-9.399169921875,-13.643310546875
0.0105,22.391845703125,-5.435302734375,-17.126708984375
0.011,20.309814453125,-1.431396484375,-18.968505859375
0.0115,18.868408203125,3.012939453125,-22.011474609375
0.012,15.385009765625,7.937744140625,-23.372802734375
0.0125,10.820556640625,12.181884765625,-23.012451171875
0.013,7.977783203125,15.144775390625,-23.292724609375
0.0135,2.692626953125,17.987548828125,-21.090576171875
0.014,-1.431396484375,20.429931640625,-19.208740234375
0.0145,-5.555419921875,22.071533203125,-17.046630859375
0.015,-10.640380859375,23.753173828125,-13.603271484375
0.0155,-14.123779296875,22.632080078125,-8.998779296875
0.016,-17.567138671875,22.712158203125,-5.755615234375
0.0165,-19.649169921875,20.550048828125,-1.551513671875
0.017,-22.451904296875,19.068603515625,2.852783203125
0.0175,-23.012451171875,15.705322265625,6.776611328125
0.018,-23.572998046875,11.821533203125,11.461181640625
0.0185,-23.092529296875,8.458251953125,14.343994140625
0.019,-21.771240234375,3.933837890625,17.587158203125
0.0195,-19.849365234375,-0.110107421875,19.669189453125
0.02,-18.007568359375,-4.554443359375,22.271728515625
0.0205,-14.524169921875,-9.359130859375,23.633056640625
0.021,-9.719482421875,-13.242919921875,22.592041015625
0.0215,-6.876708984375,-16.165771484375,22.712158203125
0.022,-1.271240234375,-18.928466796875,19.989501953125
0.0225,3.012939453125,-21.691162109375,18.548095703125
0.023,7.377197265625,-22.892333984375,15.385009765625
0.0235,12.141845703125,-23.973388671875,11.981689453125
0.024,15.465087890625,-22.852294921875,7.737548828125
0.0245,18.708251953125,-22.451904296875,3.853759765625
0.025,20.870361328125,-20.249755859375,-0.510498046875
0.0255,23.512939453125,-18.568115234375,-4.994873046875
0.026,23.673095703125,-14.644287109375,-9.038818359375
0.0265,23.793212890625,-10.440185546875,-13.443115234375
0.027,23.392822265625,-7.397216796875,-16.125732421875
0.0275,21.430908203125,-2.232177734375,-19.328857421875
0.028,19.509033203125,2.052001953125,-21.651123046875
0.0285,16.586181640625,6.896728515625,-23.572998046875
0.029,13.062744140625,11.381103515625,-24.573974609375
0.0295,8.017822265625,15.144775390625,-23.332763671875
0.03,4.694580078125,17.787353515625,-22.812255859375
0.0305,-0.830810546875,20.510009765625,-19.889404296875
0.031,-5.435302734375,23.312744140625,-18.207763671875
0.0315,-9.999755859375,23.713134765625,-14.163818359375
0.032,-14.123779296875,24.473876953125,-10.800537109375
0.0325,-17.326904296875,23.352783203125,-6.556396484375
0.033,-20.209716796875,22.031494140625,-2.192138671875
0.0335,-22.451904296875,19.669189453125,2.212158203125
0.034,-24.734130859375,17.306884765625,7.056884765625
0.0345,-24.373779296875,13.062744140625,10.980712890625
0.035,-24.053466796875,8.618408203125,15.064697265625
0.0355,-23.372802734375,5.615478515625,17.427001953125
0.036,-20.850341796875,0.130126953125,20.510009765625
0.0365,-18.968505859375,-4.394287109375,23.072509765625
0.037,-15.204833984375,-9.239013671875,24.233642578125
0.0375,-11.721435546875,-13.282958984375,24.674072265625
0.038,-6.956787109375,-16.806396484375,23.232666015625
0.0385,-2.712646484375,-19.248779296875,21.791259765625
0.039,2.492431640625,-21.731201171875,19.268798828125
0.0395,7.497314453125,-24.614013671875,17.026611328125
0.04,11.821533203125,-24.213623046875,12.422119140625
0.0405,15.785400390625,-24.694091796875,8.898681640625
0.041,18.588134765625,-23.372802734375,4.854736328125
0.0415,21.430908203125,-21.651123046875,0.210205078125
0.042,23.472900390625,-19.248779296875,-4.154052734375
0.0425,25.154541015625,-16.045654296875,-9.038818359375
0.043,24.634033203125,-11.961669921875,-12.762451171875
0.0435,23.993408203125,-7.517333984375,-16.566162109375
0.044,22.752197265625,-4.194091796875,-18.648193359375
0.0445,20.349853515625,1.211181640625,-21.651123046875
0.045,18.107666015625,6.055908203125,-24.293701171875
0.0455,13.783447265625,10.820556640625,-24.614013671875
0.046,10.300048828125,14.464111328125,-24.894287109375
0.0465,5.535400390625,17.627197265625,-23.372802734375
0.047,0.970947265625,20.189697265625,-21.290771484375
0.0475,-3.713623046875,22.311767578125,-18.928466796875
0.048,-9.078857421875,24.954345703125,-16.285888671875
0.0485,-13.122802734375,24.113525390625,-11.441162109375
0.049,-16.966552734375,24.353759765625,-7.997802734375
0.0495,-19.408935546875,22.672119140625,-4.033935546875
0.05,-22.051513671875,20.870361328125,0.770751953125
0.0505,-23.813232421875,18.307861328125,5.014892578125
0.051,-24.854248046875,14.584228515625,9.899658203125
0.0515,-24.533935546875,10.780517578125,13.423095703125
0.052,-23.452880859375,6.256103515625,16.946533203125
0.0525,-21.971435546875,2.652587890625,19.068603515625
0.053,-19.809326171875,-2.352294921875,21.911376953125
0.0535,-17.046630859375,-7.557373046875,24.353759765625
0.054,-12.442138671875,-11.841552734375,24.033447265625
0.0545,-9.239013671875,-15.364990234375,24.193603515625
0.055,-4.354248046875,-18.167724609375,22.231689453125
0.0555,0.530517578125,-20.890380859375,20.309814453125
0.056,4.814697265625,-22.812255859375,17.907470703125
0.0565,10.420166015625,-24.854248046875,14.664306640625
0.057,13.943603515625,-24.053466796875,10.179931640625
0.0575,17.907470703125,-23.973388671875,6.376220703125
0.058,19.909423828125,-22.211669921875,2.412353515625
0.0585,22.752197265625,-20.570068359375,-2.352294921875
0.059,24.313720703125,-17.487060546875,-6.796630859375
0.0595,24.593994140625,-13.322998046875,-11.481201171875
0.06,24.593994140625,-9.879638671875,-14.804443359375
0.0605,23.072509765625,-5.034912109375,-18.087646484375
0.061,21.270751953125,-1.031005859375,-20.409912109375
0.0615,19.268798828125,3.573486328125,-23.172607421875
0.062,15.945556640625,9.259033203125,-25.374755859375
0.0625,10.860595703125,13.182861328125,-24.253662109375
0.063,7.657470703125,16.786376953125,-24.694091796875
0.0635,2.572509765625,19.348876953125,-22.091552734375
0.064,-2.392333984375,22.231689453125,-20.169677734375
0.0645,-6.716552734375,23.713134765625,-17.406982421875
0.065,-12.281982421875,25.314697265625,-13.523193359375
0.0655,-15.525146484375,24.353759765625,-9.239013671875
0.066,-19.489013671875,23.713134765625,-4.874755859375
0.0665,-21.290771484375,21.631103515625,-0.870849609375
0.067,-24.093505859375,19.709228515625,3.973876953125
0.0675,-25.214599609375,16.145751953125,8.658447265625
0.068,-24.934326171875,11.381103515625,13.182861328125
0.0685,-24.894287109375,8.338134765625,16.265869140625
0.069,-22.892333984375,3.173095703125,19.348876953125
0.0695,-20.890380859375,-1.271240234375,21.791259765625
0.07,-18.327880859375,-5.995849609375,23.953369140625
0.0705,-14.764404296875,-11.401123046875,25.915283203125
0.071,-9.399169921875,-15.044677734375,24.073486328125
0.0715,-5.915771484375,-18.407958984375,24.033447265625
0.072,-0.510498046875,-20.770263671875,21.070556640625
0.0725,4.414306640625,-23.853271484375,19.348876953125
0.073,8.978759765625,-24.694091796875,15.665283203125
0.0735,14.103759765625,-25.695068359375,11.501220703125
0.074,17.226806640625,-24.614013671875,7.697509765625
0.0745,20.830322265625,-23.452880859375,2.812744140625
0.075,22.712158203125,-21.090576171875,-1.551513671875
0.0755,25.234619140625,-18.968505859375,-6.156005859375
0.076,25.835205078125,-15.084716796875,-10.880615234375
0.0765,24.994384765625,-9.999755859375,-15.084716796875
0.077,24.834228515625,-7.076904296875,-17.847412109375
0.0775,22.151611328125,-1.391357421875,-20.850341796875
0.078,20.309814453125,2.932861328125,-23.532958984375
0.0785,16.866455078125,7.937744140625,-24.734130859375
0.079,13.182861328125,13.022705078125,-26.215576171875
0.0795,8.017822265625,16.385986328125,-24.533935546875
0.08,4.013916015625,19.549072265625,-23.693115234375
0.0805,-1.271240234375,21.671142578125,-20.610107421875
0.081,-6.115966796875,24.754150390625,-18.888427734375
0.0815,-10.920654296875,25.074462890625,-14.524169921875
0.082,-15.405029296875,25.314697265625,-10.400146484375
0.0825,-18.327880859375,24.593994140625,-6.876708984375
0.083,-21.811279296875,22.672119140625,-1.631591796875
0.0835,-23.613037109375,20.429931640625,2.732666015625
0.084,-25.494873046875,17.707275390625,7.417236328125
0.0845,-25.895263671875,13.543212890625,12.021728515625
0.085,-24.614013671875,8.658447265625,15.865478515625
0.0855,-24.293701171875,5.695556640625,18.427978515625
0.086,-21.490966796875,0.130126953125,21.270751953125
0.0865,-19.889404296875,-4.554443359375,24.193603515625
0.087,-15.645263671875,-9.359130859375,24.674072265625
0.0875,-11.841552734375,-14.003662109375,25.554931640625
0.088,-7.237060546875,-17.086669921875,24.033447265625
0.0885,-2.472412109375,-20.209716796875,22.351806640625
0.089,2.372314453125,-22.171630859375,19.589111328125
0.0895,7.537353515625,-25.054443359375,17.346923828125
0.09,12.021728515625,-25.014404296875,13.022705078125
0.0905,16.265869140625,-24.854248046875,8.658447265625
0.091,18.908447265625,-24.173583984375,5.415283203125
0.0915,21.911376953125,-22.091552734375,0.210205078125
0.092,24.193603515625,-19.849365234375,-4.314208984375
0.0925,25.314697265625,-16.325927734375,-8.958740234375
0.093,25.755126953125,-12.522216796875,-13.322998046875
0.0935,24.433837890625,-7.717529296875,-16.966552734375
0.094,23.552978515625,-4.154052734375,-19.489013671875
0.0945,20.870361328125,1.010986328125,-22.051513671875
0.095,18.908447265625,6.216064453125,-25.134521484375
0.0955,14.103759765625,10.860595703125,-25.054443359375
0.096,10.300048828125,15.104736328125,-25.534912109375
0.0965,6.015869140625,17.947509765625,-24.173583984375
0.097,0.730712890625,20.990478515625,-22.011474609375
0.0975,-4.033935546875,23.192626953125,-19.489013671875
0.098,-9.559326171875,25.594970703125,-16.486083984375
0.0985,-13.723388671875,25.314697265625,-12.081787109375
0.099,-17.767333984375,24.874267578125,-7.637451171875
0.0995,-20.089599609375,23.673095703125,-4.194091796875
0.1,-22.972412109375,21.430908203125,1.131103515625
0.1005,-25.294677734375,18.948486328125,5.935791015625
0.101,-25.735107421875,14.584228515625,10.740478515625
0.1015,-25.935302734375,10.900634765625,14.704345703125
0.102,-24.413818359375,6.135986328125,17.947509765625
0.1025,-22.932373046875,2.092041015625,20.510009765625
0.103,-20.369873046875,-3.032958984375,23.072509765625
0.1035,-17.687255859375,-8.598388671875,25.955322265625
0.104,-12.562255859375,-12.962646484375,25.194580078125
0.1045,-8.718505859375,-16.966552734375,25.314697265625
0.105,-4.154052734375,-19.408935546875,23.312744140625
0.1055,1.411376953125,-22.652099609375,20.870361328125
0.106,6.055908203125,-24.333740234375,18.267822265625
0.1065,11.781494140625,-26.135498046875,14.384033203125
0.107,15.385009765625,-25.534912109375,10.300048828125
0.1075,19.348876953125,-24.654052734375,5.735595703125
0.108,21.470947265625,-23.132568359375,1.851806640625
0.1085,24.313720703125,-20.730224609375,-3.273193359375
0.109,26.195556640625,-17.887451171875,-8.318115234375
0.1095,25.835205078125,-12.962646484375,-12.762451171875
0.11,25.955322265625,-9.639404296875,-16.486083984375
0.1105,23.993408203125,-4.714599609375,-19.408935546875
0.111,22.071533203125,-0.190185546875,-22.051513671875
0.1115,19.549072265625,4.614501953125,-24.293701171875
0.112,16.065673828125,10.500244140625,-26.656005859375
0.1125,10.860595703125,14.263916015625,-25.214599609375
0.113,7.056884765625,18.067626953125,-25.294677734375
0.1135,2.412353515625,20.229736328125,-22.612060546875
0.114,-2.992919921875,23.232666015625,-20.650146484375
0.1145,-7.717529296875,24.874267578125,-17.607177734375
0.115,-13.202880859375,25.955322265625,-13.122802734375
0.1155,-16.486083984375,25.354736328125,-9.439208984375
0.116,-20.089599609375,24.073486328125,-4.434326171875
0.1165,-22.051513671875,22.231689453125,-0.710693359375
0.117,-24.573974609375,20.109619140625,4.013916015625
0.1175,-26.215576171875,16.586181640625,9.218994140625
0.118,-25.174560546875,11.421142578125,13.463134765625
0.1185,-25.494873046875,8.338134765625,16.866455078125
0.119,-23.092529296875,3.533447265625,19.348876953125
0.1195,-21.330810546875,-1.231201171875,22.231689453125
0.12,-18.608154296875,-5.795654296875,24.073486328125
0.1205,-14.884521484375,-11.521240234375,26.075439453125
0.121,-9.999755859375,-14.884521484375,24.513916015625
0.1215,-5.755615234375,-18.528076171875,23.873291015625
0.122,-1.191162109375,-20.409912109375,21.310791015625
0.1225,3.853759765625,-23.452880859375,19.589111328125
0.123,8.858642578125,-24.854248046875,15.985595703125
0.1235,13.783447265625,-25.214599609375,11.501220703125
0.124,16.946533203125,-25.134521484375,8.338134765625
0.1245,20.189697265625,-23.332763671875,3.293212890625
0.125,22.431884765625,-21.490966796875,-0.910888671875
0.1255,24.473876953125,-19.208740234375,-5.275146484375
0.126,26.035400390625,-15.525146484375,-10.520263671875
0.1265,24.674072265625,-10.360107421875,-14.404052734375
0.127,24.914306640625,-7.317138671875,-17.687255859375
0.1275,22.191650390625,-2.312255859375,-20.009521484375
0.128,20.750244140625,2.412353515625,-23.252685546875
0.1285,17.146728515625,7.177001953125,-24.533935546875
0.129,13.302978515625,12.542236328125,-25.935302734375
0.1295,8.858642578125,15.825439453125,-24.974365234375
0.13,4.134033203125,19.268798828125,-23.452880859375
0.1305,-0.590576171875,21.190673828125,-20.810302734375
0.131,-5.435302734375,24.193603515625,-19.288818359375
0.1315,-10.720458984375,25.274658203125,-15.044677734375
0.132,-15.204833984375,24.994384765625,-10.400146484375
0.1325,-18.167724609375,24.994384765625,-7.397216796875
0.133,-21.170654296875,22.552001953125,-2.112060546875
0.1335,-23.653076171875,20.790283203125,2.372314453125
0.134,-25.014404296875,17.787353515625,6.816650390625
0.1345,-26.215576171875,13.823486328125,12.021728515625
0.135,-24.694091796875,8.778564453125,15.665283203125
0.1355,-24.453857421875,5.415283203125,18.788330078125
0.136,-21.531005859375,0.290283203125,20.990478515625
0.1365,-20.049560546875,-4.634521484375,24.353759765625
0.137,-15.765380859375,-9.559326171875,24.954345703125
0.1375,-11.521240234375,-14.404052734375,25.554931640625
0.138,-7.597412109375,-17.326904296875,24.593994140625
0.1385,-2.152099609375,-20.530029296875,22.431884765625
0.139,2.572509765625,-22.491943359375,19.829345703125
0.1395,7.617431640625,-25.134521484375,17.627197265625
0.14,12.582275390625,-25.775146484375,13.222900390625
0.1405,16.786376953125,-24.974365234375,8.298095703125
0.141,19.509033203125,-24.654052734375,5.295166015625
0.1415,22.351806640625,-22.091552734375,-0.150146484375
0.142,24.954345703125,-20.129638671875,-4.754638671875
0.1425,25.554931640625,-16.325927734375,-9.239013671875
0.143,26.315673828125,-12.402099609375,-13.963623046875
0.1435,24.794189453125,-7.677490234375,-17.246826171875
0.144,23.713134765625,-3.593505859375,-20.249755859375
0.1445,20.830322265625,1.411376953125,-22.371826171875
0.145,18.908447265625,6.656494140625,-25.655029296875
0.1455,14.143798828125,11.341064453125,-25.655029296875
0.146,9.739501953125,15.825439453125,-25.614990234375
0.1465,6.095947265625,18.387939453125,-24.654052734375
0.147,0.330322265625,21.510986328125,-21.971435546875
0.1475,-4.354248046875,23.552978515625,-19.569091796875
0.148,-9.599365234375,25.514892578125,-16.285888671875
0.1485,-14.083740234375,25.795166015625,-12.241943359375
0.149,-17.967529296875,24.794189453125,-7.357177734375
0.1495,-20.449951171875,23.833251953125,-3.993896484375
0.15,-22.932373046875,21.270751953125,1.171142578125
0.1505,-25.494873046875,19.068603515625,6.015869140625
0.151,-25.334716796875,14.544189453125,10.380126953125
0.1515,-25.895263671875,10.780517578125,14.784423828125
0.152,-24.373779296875,6.416259765625,17.667236328125
0.1525,-22.772216796875,1.931884765625,20.550048828125
0.153,-20.209716796875,-2.872802734375,22.712158203125
0.1535,-17.567138671875,-8.278076171875,25.474853515625
0.154,-12.962646484375,-12.482177734375,25.114501953125
0.1545,-8.438232421875,-16.606201171875,24.714111328125
0.155,-4.794677734375,-18.808349609375,23.352783203125
0.1555,0.970947265625,-21.771240234375,20.710205078125
0.156,5.535400390625,-23.933349609375,18.427978515625
0.1565,10.740478515625,-25.054443359375,14.384033203125
0.157,14.664306640625,-25.334716796875,10.820556640625
0.1575,18.267822265625,-24.173583984375,6.095947265625
0.158,20.670166015625,-22.932373046875,2.372314453125
0.1585,23.072509765625,-20.570068359375,-2.392333984375
0.159,25.474853515625,-18.007568359375,-7.437255859375
0.1595,24.794189453125,-13.282958984375,-11.521240234375
0.16,25.194580078125,-9.639404296875,-15.645263671875
0.1605,23.552978515625,-5.715576171875,-18.047607421875
0.161,21.711181640625,-0.830810546875,-21.090576171875
0.1615,19.268798828125,3.773681640625,-23.212646484375
0.162,15.905517578125,9.299072265625,-25.334716796875
0.1625,11.581298828125,13.142822265625,-24.854248046875
0.163,7.136962890625,16.986572265625,-24.253662109375
0.1635,3.413330078125,18.948486328125,-22.531982421875
0.164,-1.951904296875,21.791259765625,-20.169677734375
0.1645,-6.756591796875,24.113525390625,-17.727294921875
0.165,-11.721435546875,24.473876953125,-13.122802734375
0.1655,-15.405029296875,24.834228515625,-9.959716796875
0.166,-18.568115234375,23.232666015625,-5.235107421875
0.1665,-21.010498046875,21.831298828125,-1.391357421875
0.167,-23.132568359375,19.669189453125,3.052978515625
0.1675,-25.254638671875,16.546142578125,8.298095703125
0.168,-24.253662109375,11.741455078125,12.181884765625
0.1685,-24.533935546875,8.177978515625,16.025634765625
0.169,-22.772216796875,4.414306640625,18.027587890625
0.1695,-20.890380859375,-0.630615234375,21.190673828125
0.17,-18.407958984375,-5.155029296875,23.232666015625
0.1705,-14.524169921875,-10.520263671875,24.674072265625
0.171,-10.560302734375,-13.963623046875,24.193603515625
0.1715,-5.915771484375,-17.527099609375,23.112548828125
0.172,-1.791748046875,-19.529052734375,21.110595703125
0.1725,3.052978515625,-22.251708984375,19.108642578125
0.173,8.338134765625,-24.373779296875,16.065673828125
0.1735,12.782470703125,-24.013427734375,11.301025390625
0.174,16.305908203125,-24.573974609375,8.418212890625
0.1745,19.068603515625,-22.572021484375,3.693603515625
0.175,21.711181640625,-21.130615234375,-0.510498046875
0.1755,23.432861328125,-18.728271484375,-4.674560546875
0.176,25.114501953125,-15.164794921875,-9.959716796875
0.1765,24.033447265625,-10.640380859375,-13.443115234375
0.177,23.953369140625,-7.036865234375,-17.126708984375
0.1775,21.791259765625,-2.992919921875,-18.968505859375
0.178,20.189697265625,1.931884765625,-22.171630859375
0.1785,16.946533203125,6.896728515625,-23.973388671875
0.179,12.702392578125,11.781494140625,-24.533935546875
0.1795,9.259033203125,15.024658203125,-24.413818359375
0.18,4.294189453125,18.187744140625,-22.612060546875
0.1805,0.010009765625,20.349853515625,-20.489990234375
