wavelength,x,y,z
0.0,-20.5400390625,-0.3603515625,19.8994140625
0.0005,-18.2177734375,-5.28515625,22.421875
0.001,-15.455078125,-8.5283203125,23.0625
0.0015,-11.7314453125,-11.9716796875,22.9423828125
0.002,-8.6083984375,-14.7744140625,22.7421875
0.0025,-2.322265625,-19.138671875,20.7001953125
0.003,2.8828125,-21.220703125,18.2177734375
0.0035,6.56640625,-22.6220703125,16.17578125
0.004,10.2099609375,-23.0625,13.212890625
0.0045,13.2529296875,-22.58203125,9.9296875
0.005,16.9365234375,-21.541015625,5.4052734375
0.0055,20.01953125,-19.8994140625,0.80078125
0.006,22.6220703125,-17.1767578125,-4.5244140625
0.0065,23.142578125,-14.5341796875,-7.6875
0.007,23.3427734375,-11.05078125,-11.37109375
0.0075,22.90234375,-7.8876953125,-14.173828125
0.008,21.5009765625,-2.5224609375,-18.2177734375
0.0085,19.4990234375,1.9619140625,-20.66015625
0.009,17.296875,6.1259765625,-22.6220703125
0.0095,14.09375,9.609375,-23.0224609375
0.01,10.5302734375,12.65234375,-22.7421875
0.0105,6.24609375,16.17578125,-21.94140625
0.011,0.7607421875,19.5390625,-20.0595703125
0.0115,-4.6044921875,21.8212890625,-17.296875
0.012,-7.7275390625,22.5419921875,-15.1748046875
0.0125,-11.451171875,22.7822265625,-11.9716796875
0.013,-14.2138671875,22.26171875,-8.8486328125
0.0135,-18.2177734375,20.7802734375,-3.5634765625
0.014,-20.8603515625,18.818359375,1.0810546875
0.0145,-23.0625,16.3359375,5.685546875
0.015,-23.2626953125,13.1728515625,9.0087890625
0.0155,-23.2626953125,9.8095703125,12.412109375
0.016,-22.7021484375,6.0458984375,15.615234375
0.0165,-21.220703125,1.0009765625,19.21875
0.017,-18.6181640625,-3.923828125,21.5810546875
0.0175,-16.416015625,-7.3671875,22.8623046875
0.018,-13.1328125,-10.890625,23.142578125
0.0185,-9.369140625,-13.7734375,22.58203125
0.019,-4.1640625,-17.5771484375,21.1806640625
0.0195,0.880859375,-20.2998046875,19.21875
0.02,5.7255859375,-22.3818359375,16.65625
0.0205,8.888671875,-22.58203125,13.9736328125
0.021,12.171875,-22.7021484375,10.970703125
0.0215,15.375,-21.9814453125,7.3271484375
0.022,19.0185546875,-20.2197265625,2.1220703125
0.0225,21.4609375,-17.857421875,-2.72265625
0.023,23.0224609375,-15.615234375,-6.4462890625
0.0235,23.0625,-12.2119140625,-9.9296875
0.024,22.7421875,-8.96875,-12.97265625
0.0245,21.78125,-4.4443359375,-16.576171875
0.025,20.33984375,0.1201171875,-19.5390625
0.0255,17.6572265625,4.96484375,-21.78125
0.026,15.0546875,8.0478515625,-22.3017578125
0.0265,11.931640625,11.37109375,-22.662109375
0.027,8.0078125,14.5341796875,-22.0615234375
0.0275,2.482421875,18.09765625,-20.2197265625
0.028,-2.322265625,20.4599609375,-18.0576171875
0.0285,-6.326171875,22.1416015625,-16.015625
0.029,-9.6494140625,22.1015625,-12.9326171875
0.0295,-12.4521484375,22.0615234375,-10.2900390625
0.03,-16.2158203125,21.1005859375,-5.765625
0.0305,-19.3388671875,19.3388671875,-1.0009765625
0.031,-21.6611328125,16.7763671875,3.84375
0.0315,-22.58203125,14.3740234375,7.1669921875
0.032,-22.822265625,11.130859375,10.5703125
0.0325,-22.421875,7.6875,13.61328125
0.033,-21.1806640625,2.8828125,17.296875
0.0335,-19.458984375,-1.44140625,19.8994140625
0.034,-17.216796875,-5.765625,22.0615234375
0.0345,-14.0537109375,-8.9287109375,22.0615234375
0.035,-11.4111328125,-11.69140625,22.3818359375
0.0355,-6.56640625,-15.5751953125,21.5009765625
0.036,-1.201171875,-18.73828125,19.4990234375
0.0365,3.5234375,-20.8203125,17.13671875
0.037,7.0068359375,-22.021484375,15.2548828125
0.0375,10.41015625,-22.0615234375,12.01171875
0.038,13.1728515625,-21.6611328125,9.048828125
0.0385,16.9765625,-20.5,4.2841796875
0.039,19.859375,-18.578125,-0.400390625
0.0395,21.861328125,-16.2958984375,-4.64453125
0.04,22.1015625,-13.3330078125,-7.927734375
0.0405,22.341796875,-10.5703125,-10.9306640625
0.041,21.7412109375,-6.2861328125,-14.6142578125
0.0415,20.33984375,-1.8017578125,-17.8173828125
0.042,18.177734375,2.72265625,-20.0595703125
0.0425,16.255859375,6.3662109375,-21.8212890625
0.043,12.732421875,9.609375,-21.6611328125
0.0435,9.8896484375,12.2919921875,-21.5810546875
0.044,4.724609375,16.2158203125,-20.740234375
0.0445,-0.3203125,19.0185546875,-18.578125
0.045,-4.64453125,20.7802734375,-16.255859375
0.0455,-7.767578125,21.4208984375,-13.9736328125
0.046,-10.890625,21.5810546875,-11.291015625
0.0465,-14.1337890625,20.7802734375,-7.447265625
0.047,-17.45703125,19.458984375,-2.8828125
0.0475,-20.0595703125,17.296875,1.8017578125
0.048,-21.7412109375,15.21484375,5.4853515625
0.0485,-21.6611328125,11.931640625,8.6484375
0.049,-21.78125,9.369140625,11.37109375
0.0495,-20.98046875,4.724609375,15.294921875
0.05,-19.5390625,0.4404296875,18.2177734375
0.0505,-17.1767578125,-3.923828125,20.1796875
0.051,-15.0947265625,-7.0869140625,21.30078125
0.0515,-12.0517578125,-10.1298828125,21.380859375
0.052,-8.328125,-13.1728515625,20.7802734375
0.0525,-3.36328125,-16.576171875,19.37890625
0.053,1.521484375,-19.138671875,17.4169921875
0.0535,5.28515625,-20.7001953125,15.4951171875
0.054,8.408203125,-20.7802734375,12.65234375
0.0545,10.8505859375,-21.0205078125,10.650390625
0.055,14.7744140625,-20.01953125,5.8857421875
0.0555,17.6171875,-18.5380859375,1.6416015625
0.056,19.7392578125,-16.3759765625,-2.6025390625
0.0565,20.900390625,-14.25390625,-5.92578125
0.057,20.8203125,-11.05078125,-8.9287109375
0.0575,20.66015625,-8.16796875,-11.69140625
0.058,19.69921875,-3.7236328125,-15.2548828125
0.0585,18.2177734375,0.560546875,-17.9775390625
0.059,16.1357421875,4.32421875,-19.69921875
0.0595,13.4130859375,7.3271484375,-20.0595703125
0.06,11.4912109375,10.009765625,-20.4599609375
0.0605,6.5263671875,13.61328125,-19.69921875
0.061,2.0419921875,16.3759765625,-18.1376953125
0.0615,-2.40234375,18.578125,-16.17578125
0.062,-5.6455078125,19.9794921875,-14.57421875
0.0625,-8.80859375,19.8994140625,-11.53125
0.063,-11.0107421875,19.8994140625,-9.5693359375
0.0635,-15.0146484375,19.0185546875,-4.8046875
0.064,-17.6572265625,17.296875,-0.560546875
0.0645,-19.4990234375,15.3349609375,3.1630859375
0.065,-20.2197265625,12.8525390625,6.3662109375
0.0655,-20.419921875,10.5302734375,8.9287109375
0.066,-20.01953125,6.646484375,12.4521484375
0.0665,-18.978515625,2.5625,15.4951171875
0.067,-17.296875,-1.6416015625,18.017578125
0.0675,-15.5751953125,-5.0048828125,19.69921875
0.068,-12.4521484375,-8.0078125,19.6591796875
0.0685,-10.5703125,-10.25,20.1796875
0.069,-5.1650390625,-14.4140625,19.0185546875
0.0695,-0.640625,-17.0166015625,17.296875
0.07,3.203125,-18.73828125,15.4951171875
0.0705,6.40625,-19.859375,13.5732421875
0.071,9.208984375,-19.8994140625,11.0107421875
0.0715,12.171875,-19.4990234375,7.8076171875
0.072,15.4951171875,-18.498046875,3.6435546875
0.0725,18.09765625,-16.6162109375,-0.8408203125
0.073,19.5791015625,-14.7744140625,-4.0439453125
0.0735,19.8193359375,-11.8115234375,-7.126953125
0.074,20.0595703125,-9.8095703125,-9.44921875
0.0745,19.37890625,-5.125,-13.533203125
0.075,18.2177734375,-1.3212890625,-16.17578125
0.0755,16.2958984375,2.6025390625,-18.177734375
0.076,14.494140625,5.8056640625,-19.5791015625
0.0765,11.4111328125,8.6884765625,-19.4990234375
0.077,8.568359375,11.37109375,-19.4189453125
0.0775,3.68359375,15.0146484375,-18.337890625
0.078,-1.041015625,17.5771484375,-16.416015625
0.0785,-4.2041015625,18.8984375,-14.8544921875
0.079,-7.4072265625,19.4189453125,-12.33203125
0.0795,-9.6494140625,19.69921875,-10.5703125
0.08,-13.533203125,18.73828125,-5.9658203125
0.0805,-16.3359375,17.4970703125,-2.1220703125
0.081,-18.578125,15.615234375,2.0419921875
0.0815,-19.7392578125,13.693359375,5.125
0.082,-19.69921875,10.650390625,8.087890625
0.0825,-19.8193359375,8.3681640625,10.490234375
0.083,-19.0986328125,3.7236328125,14.3740234375
0.0835,-17.5771484375,-0.3603515625,16.9765625
0.084,-15.6953125,-3.8037109375,18.578125
0.0845,-13.453125,-6.88671875,19.4990234375
0.085,-11.2109375,-9.2490234375,19.69921875
0.0855,-6.56640625,-12.9326171875,18.8984375
0.086,-2.322265625,-15.775390625,17.6572265625
0.0865,2.2421875,-18.09765625,15.7353515625
0.087,5.2451171875,-19.2587890625,14.09375
0.0875,8.3681640625,-19.37890625,11.2109375
0.088,10.41015625,-19.5791015625,9.609375
0.0885,14.5341796875,-18.578125,4.6044921875
0.089,17.0966796875,-16.8564453125,0.5205078125
0.0895,18.73828125,-15.0947265625,-2.9228515625
0.09,19.5791015625,-12.7724609375,-6.0458984375
0.0905,19.4990234375,-10.25,-8.5283203125
0.091,19.21875,-6.7265625,-11.771484375
0.0915,18.5380859375,-2.7626953125,-15.0146484375
0.092,16.6962890625,1.5615234375,-17.4970703125
0.0925,14.8544921875,4.64453125,-18.818359375
0.093,12.01171875,7.6875,-19.0986328125
0.0935,10.2099609375,9.8896484375,-19.5791015625
0.094,4.6845703125,14.09375,-18.337890625
0.0945,0.6005859375,16.49609375,-16.81640625
0.095,-3.2431640625,18.2978515625,-15.0947265625
0.0955,-6.326171875,19.298828125,-13.212890625
0.096,-9.208984375,19.1787109375,-10.5302734375
0.0965,-11.8515625,19.0185546875,-7.8076171875
0.097,-15.4150390625,17.9375,-3.4033203125
0.0975,-17.9775390625,15.9755859375,1.201171875
0.098,-19.1787109375,14.2138671875,4.083984375
0.0985,-19.69921875,11.4912109375,7.287109375
0.099,-19.779296875,9.44921875,9.4091796875
0.0995,-19.0986328125,4.8046875,13.4130859375
0.1,-17.9775390625,1.0810546875,16.015625
0.1005,-16.17578125,-3.0029296875,18.2978515625
0.101,-14.25390625,-6.0458984375,19.458984375
0.1015,-11.130859375,-8.96875,19.3388671875
0.102,-8.6884765625,-11.4912109375,19.4990234375
0.1025,-3.2431640625,-15.3349609375,18.09765625
0.103,1.4013671875,-17.697265625,16.0556640625
0.1035,4.404296875,-18.978515625,14.57421875
0.104,7.607421875,-19.6591796875,12.2919921875
0.1045,9.9697265625,-19.5791015625,10.009765625
0.105,13.61328125,-18.73828125,5.7255859375
0.1055,16.3759765625,-17.5771484375,1.921875
0.106,18.73828125,-15.53515625,-2.482421875
0.1065,19.4990234375,-13.453125,-5.28515625
0.107,19.69921875,-10.4501953125,-8.408203125
0.1075,19.619140625,-8.2080078125,-10.6103515625
0.108,18.73828125,-3.443359375,-14.57421875
0.1085,17.13671875,0.6005859375,-16.9765625
0.109,15.4150390625,3.923828125,-18.6181640625
0.1095,13.0927734375,7.046875,-19.4990234375
0.11,10.41015625,9.5693359375,-19.298828125
0.1105,6.326171875,12.9326171875,-18.818359375
0.111,2.0419921875,16.015625,-17.5771484375
0.1115,-2.7626953125,18.2177734375,-15.4150390625
0.112,-5.4453125,19.0185546875,-13.853515625
0.1125,-8.6083984375,19.3388671875,-11.1708984375
0.113,-10.8505859375,19.298828125,-9.12890625
0.1135,-14.734375,18.2177734375,-4.244140625
0.114,-17.216796875,16.6162109375,-0.3203125
0.1145,-19.0986328125,14.814453125,3.3232421875
0.115,-19.69921875,12.4521484375,6.326171875
0.1155,-19.69921875,9.7294921875,9.0087890625
0.116,-19.37890625,6.486328125,12.01171875
0.1165,-18.5380859375,2.322265625,15.3349609375
0.117,-16.65625,-2.08203125,17.857421875
0.1175,-14.814453125,-4.96484375,18.9384765625
0.118,-12.33203125,-7.9677734375,19.4990234375
0.1185,-9.8896484375,-10.330078125,19.4990234375
0.119,-4.564453125,-14.2138671875,18.41796875
0.1195,-0.5205078125,-16.7763671875,16.896484375
0.12,3.5634765625,-18.7783203125,15.0947265625
0.1205,6.4462890625,-19.37890625,13.0927734375
0.121,9.2490234375,-19.4189453125,10.5302734375
0.1215,12.091796875,-19.2587890625,7.6875
0.122,15.53515625,-18.09765625,3.203125
0.1225,18.0576171875,-16.0556640625,-1.28125
0.123,19.298828125,-14.3740234375,-4.1640625
0.1235,19.779296875,-11.6513671875,-7.3271484375
0.124,19.69921875,-9.0888671875,-9.8095703125
0.1245,19.0185546875,-4.8447265625,-13.453125
0.125,17.9375,-1.12109375,-16.17578125
0.1255,16.0556640625,3.1630859375,-18.5380859375
0.126,13.8935546875,6.0458984375,-19.21875
0.1265,11.1708984375,8.96875,-19.5390625
0.127,8.16796875,11.6513671875,-19.458984375
0.1275,2.962890625,15.375,-18.017578125
0.128,-1.521484375,17.6572265625,-16.1357421875
0.1285,-4.6845703125,19.21875,-14.6943359375
0.129,-7.8876953125,19.69921875,-12.2119140625
0.1295,-10.5302734375,19.5791015625,-9.76953125
0.13,-13.9736328125,18.9384765625,-5.765625
0.1305,-16.8564453125,17.6171875,-1.6416015625
0.131,-19.2587890625,15.4150390625,2.8828125
0.1315,-20.01953125,13.29296875,5.765625
0.132,-20.3798828125,10.490234375,8.96875
0.1325,-20.1396484375,7.6875,11.53125
0.133,-19.0986328125,3.123046875,15.21484375
0.1335,-17.5771484375,-1.0009765625,17.6572265625
0.134,-15.85546875,-4.724609375,19.69921875
0.1345,-13.1328125,-7.767578125,20.099609375
0.135,-10.41015625,-10.4501953125,20.0595703125
0.1355,-6.2861328125,-13.853515625,19.5390625
0.136,-1.3212890625,-17.0166015625,17.9375
0.1365,3.3232421875,-19.0986328125,15.6953125
0.137,6.2060546875,-20.0595703125,14.0537109375
0.1375,9.44921875,-20.3798828125,11.291015625
0.138,12.091796875,-20.01953125,8.568359375
0.1385,15.7353515625,-18.9384765625,3.923828125
0.139,18.337890625,-17.2568359375,-0.3203125
0.1395,20.33984375,-15.1748046875,-4.244140625
0.14,20.5400390625,-12.4521484375,-7.3271484375
0.1405,20.740234375,-9.76953125,-10.169921875
0.141,20.1796875,-6.0458984375,-13.373046875
0.1415,19.05859375,-1.6015625,-16.4560546875
0.142,16.896484375,2.72265625,-18.8583984375
0.1425,15.0947265625,5.845703125,-20.2197265625
0.143,12.1318359375,9.0888671875,-20.419921875
0.1435,9.12890625,11.6513671875,-20.2197265625
0.144,4.244140625,15.294921875,-19.138671875
0.1445,-0.3603515625,17.9375,-17.45703125
0.145,-4.64453125,19.859375,-15.3349609375
0.1455,-7.52734375,20.2197265625,-13.0927734375
0.146,-10.41015625,20.4599609375,-10.6103515625
0.1465,-13.533203125,19.859375,-7.0869140625
0.147,-16.81640625,18.4580078125,-2.5625
0.1475,-19.2587890625,16.416015625,1.921875
0.148,-20.8203125,14.4541015625,5.3251953125
0.1485,-20.8203125,11.451171875,8.3681640625
0.149,-20.8203125,8.6884765625,11.1708984375
0.1495,-20.01953125,4.404296875,14.734375
0.15,-18.818359375,0.3603515625,17.6171875
0.1505,-16.5361328125,-4.0439453125,19.69921875
0.151,-14.3740234375,-7.0068359375,20.4599609375
0.1515,-11.6513671875,-9.9697265625,20.7802734375
0.152,-7.84765625,-13.0927734375,20.259765625
0.1525,-2.8427734375,-16.3759765625,18.6982421875
0.153,1.76171875,-18.73828125,16.81640625
0.1535,5.4052734375,-20.4599609375,15.0546875
0.154,8.5283203125,-20.4599609375,12.2119140625
0.1545,11.0107421875,-20.580078125,10.0498046875
0.155,14.8544921875,-19.7392578125,5.60546875
0.1555,17.7373046875,-18.2177734375,1.28125
0.156,19.8994140625,-16.015625,-3.0830078125
0.1565,20.900390625,-13.8134765625,-6.24609375
0.157,20.98046875,-10.810546875,-9.369140625
0.1575,20.740234375,-7.5673828125,-12.33203125
0.158,19.69921875,-3.1630859375,-15.775390625
0.1585,18.177734375,1.0810546875,-18.4580078125
0.159,16.095703125,4.9248046875,-20.3798828125
0.1595,13.1328125,7.9677734375,-20.4599609375
0.16,10.890625,10.6103515625,-20.900390625
0.1605,5.92578125,14.57421875,-20.0595703125
0.161,1.2412109375,17.4169921875,-18.3779296875
0.1615,-3.36328125,19.5390625,-16.2158203125
0.162,-6.6064453125,20.8603515625,-14.494140625
0.1625,-9.9697265625,20.740234375,-11.291015625
0.163,-12.4921875,20.5400390625,-8.80859375
0.1635,-16.3759765625,19.4990234375,-3.923828125
0.164,-19.1787109375,17.6171875,0.640625
0.1645,-21.0205078125,15.4150390625,4.564453125
0.165,-21.5009765625,12.6123046875,7.84765625
0.1655,-21.6611328125,10.009765625,10.6103515625
0.166,-21.1005859375,5.7255859375,14.3740234375
0.1665,-19.7392578125,1.4013671875,17.4169921875
0.167,-17.6572265625,-3.1630859375,19.8193359375
0.1675,-15.775390625,-6.646484375,21.5009765625
0.168,-12.171875,-9.9296875,21.2607421875
0.1685,-9.689453125,-12.3720703125,21.380859375
0.169,-4.083984375,-16.5361328125,20.099609375
0.1695,0.9609375,-19.21875,18.017578125
0.17,5.044921875,-20.8203125,15.8154296875
0.1705,8.3681640625,-21.62109375,13.533203125
0.171,11.5712890625,-21.3408203125,10.650390625
0.1715,14.654296875,-20.7001953125,6.7265625
0.172,18.0576171875,-19.298828125,2.162109375
0.1725,20.6201171875,-17.13671875,-2.642578125
0.173,21.94140625,-14.89453125,-6.1259765625
0.1735,21.9013671875,-11.4111328125,-9.5693359375
0.174,21.9013671875,-9.0087890625,-12.01171875
0.1745,20.900390625,-3.9638671875,-16.1357421875
0.175,19.298828125,0.3603515625,-18.8583984375
0.1755,16.896484375,4.6044921875,-20.7001953125
0.176,14.654296875,7.9677734375,-21.9013671875
0.1765,11.05078125,11.1708984375,-21.5810546875
0.177,7.5673828125,14.0537109375,-21.1005859375
0.1775,2.322265625,17.6171875,-19.619140625
0.178,-2.8828125,20.1796875,-17.296875
0.1785,-6.3662109375,21.380859375,-15.2548828125
0.179,-9.8896484375,21.5810546875,-12.2119140625
0.1795,-12.3720703125,21.62109375,-9.9697265625
0.18,-16.2958984375,20.2998046875,-4.8447265625
0.1805,-19.0986328125,18.578125,-0.4404296875
0.181,-21.2607421875,16.2158203125,4.00390625
0.1815,-22.3017578125,13.853515625,7.4072265625
0.182,-21.9814453125,10.2099609375,10.73046875
0.1825,-21.7412109375,7.5673828125,13.2529296875
0.183,-20.580078125,2.5224609375,17.13671875
0.1835,-18.73828125,-2.08203125,19.8193359375
0.184,-16.3759765625,-5.8857421875,21.2607421875
0.1845,-13.61328125,-9.12890625,21.9013671875
0.185,-10.890625,-11.7314453125,21.9013671875
0.1855,-5.60546875,-15.6552734375,20.66015625
0.186,-0.8408203125,-18.5380859375,18.9384765625
0.1865,4.00390625,-20.7802734375,16.6962890625
0.187,7.3671875,-21.78125,14.6142578125
0.1875,10.8505859375,-21.5810546875,11.130859375
0.188,13.0927734375,-21.4609375,8.96875
0.1885,17.296875,-20.0595703125,3.5634765625
0.189,19.9794921875,-17.9775390625,-1.28125
0.1895,21.541015625,-15.85546875,-4.9248046875
0.19,22.26171875,-12.97265625,-8.328125
0.1905,22.021484375,-9.8896484375,-11.2109375
0.191,21.3408203125,-5.845703125,-14.654296875
0.1915,20.099609375,-1.4814453125,-17.8974609375
0.192,17.9375,3.3232421875,-20.5
0.1925,15.6552734375,6.7265625,-21.6611328125
0.193,12.171875,10.169921875,-21.701171875
0.1935,9.849609375,12.572265625,-21.8212890625
0.194,3.68359375,16.9365234375,-20.259765625
0.1945,-1.0810546875,19.4189453125,-18.2177734375
0.195,-5.205078125,21.140625,-16.1357421875
0.1955,-8.6484375,21.9814453125,-13.8134765625
0.196,-11.931640625,21.6611328125,-10.41015625
0.1965,-14.7744140625,21.1005859375,-7.126953125
0.197,-18.41796875,19.6591796875,-2.2421875
0.1975,-21.140625,17.1767578125,3.04296875
0.198,-22.2216796875,14.974609375,6.326171875
0.1985,-22.58203125,11.6513671875,9.9296875
0.199,-22.3818359375,8.9287109375,12.4521484375
0.1995,-21.380859375,3.8037109375,16.65625
0.2,-19.779296875,-0.560546875,19.3388671875
0.2005,-17.537109375,-5.0048828125,21.62109375
0.201,-15.0546875,-8.3681640625,22.5419921875
0.2015,-11.2509765625,-11.771484375,22.2216796875
0.202,-8.16796875,-14.494140625,21.9814453125
0.2025,-2.08203125,-18.498046875,20.1796875
0.203,3.203125,-20.98046875,17.6171875
0.2035,6.6064453125,-22.1015625,15.6552734375
0.204,10.2099609375,-22.6220703125,12.7724609375
0.2045,13.1328125,-22.2216796875,9.7294921875
0.205,16.9365234375,-21.0205078125,4.8447265625
0.2055,19.8994140625,-19.37890625,0.400390625
0.206,22.421875,-16.81640625,-4.64453125
0.2065,22.982421875,-14.09375,-7.927734375
0.207,22.982421875,-10.4501953125,-11.611328125
0.2075,22.58203125,-7.5673828125,-14.173828125
0.208,21.2607421875,-2.2021484375,-18.2578125
0.2085,19.05859375,2.5625,-20.7802734375
0.209,16.7763671875,6.3662109375,-22.341796875
0.2095,13.7333984375,9.8896484375,-22.9423828125
0.21,10.2099609375,12.9326171875,-22.501953125
0.2105,5.525390625,16.416015625,-21.5009765625
0.211,0.4404296875,19.4990234375,-19.7392578125
0.2115,-5.044921875,21.9013671875,-16.9765625
0.212,-8.087890625,22.421875,-14.734375
0.2125,-11.8115234375,22.58203125,-11.4111328125
0.213,-14.4140625,22.1015625,-8.5283203125
0.2135,-18.4580078125,20.4599609375,-3.0029296875
0.214,-21.1005859375,18.3779296875,1.7216796875
0.2145,-22.982421875,15.9755859375,5.92578125
0.215,-23.302734375,12.8125,9.4091796875
0.2155,-23.1025390625,9.3291015625,12.65234375
0.216,-22.3818359375,5.5654296875,15.7353515625
0.2165,-20.98046875,0.7607421875,19.21875
0.217,-18.337890625,-4.3642578125,21.7412109375
0.2175,-15.9755859375,-7.6474609375,22.6220703125
0.218,-12.732421875,-11.0908203125,23.0224609375
