wavelength,x,y,z
0.0,5.18505859375,0.94091796875,-6.26611328125
0.0005,5.34521484375,0.06005859375,-5.94580078125
0.001,5.26513671875,-0.98095703125,-5.30517578125
0.0015,5.14501953125,-2.06201171875,-4.34423828125
0.002,4.94482421875,-3.22314453125,-3.14306640625
0.0025,4.66455078125,-4.22412109375,-2.06201171875
0.003,4.50439453125,-4.98486328125,-1.26123046875
0.0035,3.90380859375,-5.42529296875,-0.42041015625
0.004,2.90283203125,-5.70556640625,0.86083984375
0.0045,1.82177734375,-6.02587890625,2.18212890625
0.005,0.70068359375,-6.06591796875,3.30322265625
0.0055,0.02001953125,-6.26611328125,4.30419921875
0.006,-0.94091796875,-6.22607421875,5.10498046875
0.0065,-1.94189453125,-5.62548828125,5.58544921875
0.007,-3.18310546875,-4.50439453125,5.94580078125
0.0075,-4.22412109375,-3.34326171875,6.10595703125
0.008,-4.98486328125,-2.30224609375,6.06591796875
0.0085,-5.38525390625,-1.58154296875,6.02587890625
0.009,-5.50537109375,-0.78076171875,5.66552734375
0.0095,-5.42529296875,0.30029296875,4.86474609375
0.01,-5.38525390625,1.46142578125,3.94384765625
0.0105,-5.14501953125,2.62255859375,2.82275390625
0.011,-4.94482421875,3.54345703125,1.90185546875
0.0115,-4.66455078125,4.22412109375,1.10107421875
0.012,-4.06396484375,4.62451171875,0.22021484375
0.0125,-3.10302734375,4.98486328125,-1.10107421875
0.013,-1.98193359375,5.22509765625,-2.38232421875
0.0135,-1.02099609375,5.38525390625,-3.46337890625
0.014,-0.34033203125,5.62548828125,-4.42431640625
0.0145,0.62060546875,5.38525390625,-5.10498046875
0.015,1.78173828125,4.54443359375,-5.58544921875
0.0155,2.90283203125,3.58349609375,-5.94580078125
0.016,3.86376953125,2.46240234375,-6.02587890625
0.0165,4.62451171875,1.50146484375,-6.10595703125
0.017,4.94482421875,0.78076171875,-6.02587890625
0.0175,4.98486328125,0.02001953125,-5.58544921875
0.018,4.98486328125,-1.14111328125,-4.78466796875
0.0185,4.86474609375,-2.30224609375,-3.78369140625
0.019,4.66455078125,-3.34326171875,-2.70263671875
0.0195,4.54443359375,-4.26416015625,-1.94189453125
0.02,4.18408203125,-4.86474609375,-1.14111328125
0.0205,3.46337890625,-5.26513671875,0.02001953125
0.021,2.54248046875,-5.62548828125,1.26123046875
0.0215,1.42138671875,-5.78564453125,2.42236328125
0.022,0.62060546875,-6.02587890625,3.50341796875
0.0225,-0.18017578125,-6.18603515625,4.34423828125
0.023,-1.14111328125,-5.82568359375,5.02490234375
0.0235,-2.30224609375,-4.98486328125,5.50537109375
0.024,-3.46337890625,-3.94384765625,5.78564453125
0.0245,-4.34423828125,-2.90283203125,5.82568359375
0.025,-4.94482421875,-2.10205078125,5.90576171875
0.0255,-5.22509765625,-1.42138671875,5.70556640625
0.026,-5.26513671875,-0.50048828125,5.22509765625
0.0265,-5.26513671875,0.70068359375,4.42431640625
0.027,-5.14501953125,1.86181640625,3.42333984375
0.0275,-4.98486328125,2.86279296875,2.42236328125
0.028,-4.86474609375,3.70361328125,1.66162109375
0.0285,-4.42431640625,4.26416015625,0.82080078125
0.029,-3.54345703125,4.62451171875,-0.38037109375
0.0295,-2.62255859375,5.10498046875,-1.62158203125
0.03,-1.58154296875,5.22509765625,-2.82275390625
0.0305,-0.82080078125,5.50537109375,-3.86376953125
0.031,0.06005859375,5.50537109375,-4.66455078125
0.0315,1.14111328125,4.98486328125,-5.26513671875
0.032,2.34228515625,4.02392578125,-5.74560546875
0.0325,3.42333984375,2.86279296875,-5.94580078125
0.033,4.22412109375,1.86181640625,-6.02587890625
0.0335,4.74462890625,1.14111328125,-6.10595703125
0.034,4.94482421875,0.38037109375,-5.74560546875
0.0345,4.94482421875,-0.70068359375,-5.02490234375
0.035,4.94482421875,-1.86181640625,-4.14404296875
0.0355,4.78466796875,-3.02294921875,-3.06298828125
0.036,4.62451171875,-3.98388671875,-2.22216796875
0.0365,4.42431640625,-4.74462890625,-1.38134765625
0.037,3.78369140625,-5.14501953125,-0.50048828125
0.0375,2.82275390625,-5.50537109375,0.90087890625
0.038,1.74169921875,-5.78564453125,2.18212890625
0.0385,0.78076171875,-5.98583984375,3.26318359375
0.039,0.10009765625,-6.26611328125,4.22412109375
0.0395,-0.94091796875,-6.02587890625,4.98486328125
0.04,-2.10205078125,-5.14501953125,5.46533203125
0.0405,-3.30322265625,-4.18408203125,5.82568359375
0.041,-4.30419921875,-3.02294921875,5.90576171875
0.0415,-4.98486328125,-2.10205078125,5.94580078125
0.042,-5.26513671875,-1.34130859375,5.82568359375
0.0425,-5.34521484375,-0.58056640625,5.42529296875
0.043,-5.30517578125,0.66064453125,4.50439453125
0.0435,-5.26513671875,1.90185546875,3.46337890625
0.044,-5.02490234375,2.94287109375,2.42236328125
0.0445,-4.90478515625,3.86376953125,1.58154296875
0.045,-4.46435546875,4.42431640625,0.74072265625
0.0455,-3.62353515625,4.74462890625,-0.42041015625
0.046,-2.62255859375,5.14501953125,-1.70166015625
0.0465,-1.46142578125,5.30517578125,-2.94287109375
0.047,-0.66064453125,5.50537109375,-3.98388671875
0.0475,0.18017578125,5.58544921875,-4.82470703125
0.048,1.18115234375,5.10498046875,-5.42529296875
0.0485,2.50244140625,4.02392578125,-5.90576171875
0.049,3.62353515625,2.90283203125,-6.18603515625
0.0495,4.42431640625,1.74169921875,-6.14599609375
0.05,4.98486328125,0.98095703125,-6.14599609375
0.0505,5.14501953125,0.22021484375,-5.82568359375
0.051,5.10498046875,-0.90087890625,-5.10498046875
0.0515,5.06494140625,-2.06201171875,-4.14404296875
0.052,4.86474609375,-3.26318359375,-2.98291015625
0.0525,4.66455078125,-4.26416015625,-1.98193359375
0.053,4.46435546875,-4.98486328125,-1.18115234375
0.0535,3.82373046875,-5.42529296875,-0.30029296875
0.054,2.70263671875,-5.70556640625,1.06103515625
0.0545,1.58154296875,-6.02587890625,2.46240234375
0.055,0.54052734375,-6.10595703125,3.54345703125
0.0555,-0.30029296875,-6.30615234375,4.54443359375
0.056,-1.14111328125,-6.14599609375,5.22509765625
0.0565,-2.26220703125,-5.38525390625,5.74560546875
0.057,-3.54345703125,-4.18408203125,6.10595703125
0.0575,-4.62451171875,-3.02294921875,6.14599609375
0.058,-5.26513671875,-1.90185546875,6.10595703125
0.0585,-5.62548828125,-1.14111328125,5.98583984375
0.059,-5.62548828125,-0.30029296875,5.50537109375
0.0595,-5.50537109375,0.90087890625,4.54443359375
0.06,-5.42529296875,2.14208984375,3.46337890625
0.0605,-5.14501953125,3.26318359375,2.30224609375
0.061,-4.90478515625,4.14404296875,1.38134765625
0.0615,-4.50439453125,4.74462890625,0.58056640625
0.062,-3.70361328125,5.06494140625,-0.54052734375
0.0625,-2.58251953125,5.30517578125,-1.86181640625
0.063,-1.34130859375,5.50537109375,-3.26318359375
0.0635,-0.46044921875,5.62548828125,-4.26416015625
0.064,0.38037109375,5.74560546875,-5.14501953125
0.0645,1.34130859375,5.26513671875,-5.78564453125
0.065,2.66259765625,4.14404296875,-6.22607421875
0.0655,3.90380859375,2.98291015625,-6.54638671875
0.066,4.78466796875,1.78173828125,-6.42626953125
0.0665,5.34521484375,0.78076171875,-6.38623046875
0.067,5.54541015625,0.02001953125,-6.10595703125
0.0675,5.46533203125,-1.02099609375,-5.42529296875
0.068,5.34521484375,-2.26220703125,-4.26416015625
0.0685,5.14501953125,-3.62353515625,-3.02294921875
0.069,4.82470703125,-4.62451171875,-1.90185546875
0.0695,4.58447265625,-5.42529296875,-0.98095703125
0.07,3.90380859375,-5.82568359375,0.02001953125
0.0705,2.82275390625,-6.10595703125,1.26123046875
0.071,1.54150390625,-6.34619140625,2.78271484375
0.0715,0.30029296875,-6.38623046875,4.02392578125
0.072,-0.62060546875,-6.42626953125,4.98486328125
0.0725,-1.42138671875,-6.38623046875,5.74560546875
0.073,-2.54248046875,-5.62548828125,6.26611328125
0.0735,-3.98388671875,-4.26416015625,6.58642578125
0.074,-5.10498046875,-2.90283203125,6.70654296875
0.0745,-5.74560546875,-1.66162109375,6.46630859375
0.075,-6.14599609375,-0.82080078125,6.34619140625
0.0755,-6.10595703125,0.14013671875,5.74560546875
0.076,-5.94580078125,1.30126953125,4.74462890625
0.0765,-5.74560546875,2.62255859375,3.42333984375
0.077,-5.42529296875,3.86376953125,2.10205078125
0.0775,-5.02490234375,4.74462890625,1.02099609375
0.078,-4.62451171875,5.34521484375,0.18017578125
0.0785,-3.70361328125,5.62548828125,-0.90087890625
0.079,-2.34228515625,5.74560546875,-2.38232421875
0.0795,-1.02099609375,5.90576171875,-3.86376953125
0.08,0.14013671875,5.86572265625,-4.94482421875
0.0805,0.90087890625,5.86572265625,-5.74560546875
0.081,1.78173828125,5.42529296875,-6.38623046875
0.0815,3.06298828125,4.30419921875,-6.74658203125
0.082,4.42431640625,2.94287109375,-6.98681640625
0.0825,5.38525390625,1.58154296875,-6.90673828125
0.083,5.86572265625,0.46044921875,-6.62646484375
0.0835,6.02587890625,-0.50048828125,-6.26611328125
0.084,5.90576171875,-1.42138671875,-5.50537109375
0.0845,5.62548828125,-2.74267578125,-4.26416015625
0.085,5.38525390625,-4.02392578125,-2.94287109375
0.0855,4.94482421875,-5.10498046875,-1.66162109375
0.086,4.54443359375,-5.86572265625,-0.70068359375
0.0865,3.98388671875,-6.26611328125,0.26025390625
0.087,2.90283203125,-6.42626953125,1.38134765625
0.0875,1.42138671875,-6.58642578125,2.94287109375
0.088,0.06005859375,-6.54638671875,4.34423828125
0.0885,-0.94091796875,-6.54638671875,5.26513671875
0.089,-1.62158203125,-6.54638671875,6.02587890625
0.0895,-2.70263671875,-5.86572265625,6.54638671875
0.09,-4.02392578125,-4.50439453125,6.78662109375
0.0905,-5.18505859375,-3.14306640625,6.90673828125
0.091,-5.94580078125,-1.78173828125,6.70654296875
0.0915,-6.34619140625,-0.82080078125,6.46630859375
0.092,-6.34619140625,0.10009765625,6.02587890625
0.0925,-6.14599609375,1.06103515625,5.14501953125
0.093,-5.90576171875,2.42236328125,3.82373046875
0.0935,-5.58544921875,3.70361328125,2.46240234375
0.094,-5.14501953125,4.62451171875,1.30126953125
0.0945,-4.82470703125,5.38525390625,0.42041015625
0.095,-4.02392578125,5.62548828125,-0.62060546875
0.0955,-2.86279296875,5.78564453125,-1.90185546875
0.096,-1.46142578125,5.98583984375,-3.38330078125
0.0965,-0.18017578125,5.86572265625,-4.62451171875
0.097,0.70068359375,5.86572265625,-5.50537109375
0.0975,1.38134765625,5.74560546875,-6.18603515625
0.098,2.54248046875,4.94482421875,-6.66650390625
0.0985,3.94384765625,3.54345703125,-6.90673828125
0.099,5.02490234375,2.18212890625,-6.98681640625
0.0995,5.70556640625,0.94091796875,-6.70654296875
0.1,6.02587890625,0.06005859375,-6.54638671875
0.1005,5.94580078125,-0.94091796875,-5.94580078125
0.101,5.74560546875,-2.06201171875,-4.90478515625
0.1015,5.50537109375,-3.38330078125,-3.58349609375
0.102,5.14501953125,-4.62451171875,-2.26220703125
0.1025,4.78466796875,-5.50537109375,-1.18115234375
0.103,4.38427734375,-6.10595703125,-0.34033203125
0.1035,3.50341796875,-6.38623046875,0.78076171875
0.104,2.10205078125,-6.54638671875,2.26220703125
0.1045,0.70068359375,-6.70654296875,3.74365234375
0.105,-0.58056640625,-6.58642578125,4.82470703125
0.1055,-1.26123046875,-6.66650390625,5.74560546875
0.106,-2.10205078125,-6.26611328125,6.30615234375
0.1065,-3.38330078125,-5.10498046875,6.70654296875
0.107,-4.74462890625,-3.70361328125,6.94677734375
0.1075,-5.70556640625,-2.30224609375,6.86669921875
0.108,-6.26611328125,-1.18115234375,6.54638671875
0.1085,-6.42626953125,-0.38037109375,6.26611328125
0.109,-6.30615234375,0.66064453125,5.58544921875
0.1095,-6.06591796875,1.98193359375,4.34423828125
0.11,-5.78564453125,3.34326171875,2.94287109375
0.1105,-5.38525390625,4.46435546875,1.62158203125
0.111,-4.98486328125,5.26513671875,0.62060546875
0.1115,-4.42431640625,5.70556640625,-0.34033203125
0.112,-3.34326171875,5.90576171875,-1.46142578125
0.1125,-1.90185546875,6.02587890625,-3.06298828125
0.113,-0.50048828125,6.02587890625,-4.50439453125
0.1135,0.58056640625,5.98583984375,-5.46533203125
0.114,1.30126953125,5.98583984375,-6.22607421875
0.1145,2.38232421875,5.26513671875,-6.74658203125
0.115,3.82373046875,3.86376953125,-7.06689453125
0.1155,4.98486328125,2.50244140625,-7.18701171875
0.116,5.74560546875,1.10107421875,-6.90673828125
0.1165,6.14599609375,0.10009765625,-6.70654296875
0.117,6.14599609375,-0.86083984375,-6.18603515625
0.1175,5.98583984375,-1.94189453125,-5.22509765625
0.118,5.70556640625,-3.34326171875,-3.86376953125
0.1185,5.30517578125,-4.62451171875,-2.42236328125
0.119,4.82470703125,-5.54541015625,-1.22119140625
0.1195,4.46435546875,-6.22607421875,-0.30029296875
0.12,3.62353515625,-6.46630859375,0.70068359375
0.1205,2.30224609375,-6.66650390625,2.06201171875
0.121,0.90087890625,-6.74658203125,3.62353515625
0.1215,-0.54052734375,-6.58642578125,4.82470703125
0.122,-1.30126953125,-6.54638671875,5.62548828125
0.1225,-1.98193359375,-6.34619140625,6.26611328125
0.123,-3.14306640625,-5.42529296875,6.70654296875
0.1235,-4.50439453125,-3.98388671875,6.90673828125
0.124,-5.54541015625,-2.58251953125,6.86669921875
0.1245,-6.10595703125,-1.38134765625,6.58642578125
0.125,-6.38623046875,-0.58056640625,6.38623046875
0.1255,-6.26611328125,0.34033203125,5.74560546875
0.126,-6.02587890625,1.46142578125,4.66455078125
0.1265,-5.74560546875,2.74267578125,3.38330078125
0.127,-5.34521484375,3.90380859375,2.06201171875
0.1275,-4.98486328125,4.78466796875,1.02099609375
0.128,-4.54443359375,5.34521484375,0.22021484375
0.1285,-3.78369140625,5.58544921875,-0.82080078125
0.129,-2.50244140625,5.74560546875,-2.14208984375
0.1295,-1.18115234375,5.86572265625,-3.62353515625
0.13,0.02001953125,5.78564453125,-4.66455078125
0.1305,0.74072265625,5.90576171875,-5.54541015625
0.131,1.54150390625,5.58544921875,-6.14599609375
0.1315,2.74267578125,4.54443359375,-6.50634765625
0.132,3.98388671875,3.30322265625,-6.78662109375
0.1325,4.98486328125,1.94189453125,-6.70654296875
0.133,5.54541015625,0.90087890625,-6.54638671875
0.1335,5.78564453125,0.10009765625,-6.34619140625
0.134,5.74560546875,-0.90087890625,-5.74560546875
0.1345,5.54541015625,-2.02197265625,-4.66455078125
0.135,5.30517578125,-3.34326171875,-3.46337890625
0.1355,4.98486328125,-4.42431640625,-2.22216796875
0.136,4.70458984375,-5.30517578125,-1.26123046875
0.1365,4.22412109375,-5.90576171875,-0.42041015625
0.137,3.26318359375,-6.14599609375,0.74072265625
0.1375,1.98193359375,-6.34619140625,2.18212890625
0.138,0.66064453125,-6.34619140625,3.54345703125
0.1385,-0.34033203125,-6.38623046875,4.54443359375
0.139,-1.02099609375,-6.46630859375,5.42529296875
0.1395,-1.98193359375,-5.98583984375,5.98583984375
0.14,-3.30322265625,-4.82470703125,6.38623046875
0.1405,-4.50439453125,-3.62353515625,6.54638671875
0.141,-5.30517578125,-2.30224609375,6.42626953125
0.1415,-5.78564453125,-1.34130859375,6.30615234375
0.142,-5.94580078125,-0.62060546875,6.02587890625
0.1425,-5.86572265625,0.38037109375,5.30517578125
0.143,-5.70556640625,1.58154296875,4.14404296875
0.1435,-5.42529296875,2.86279296875,2.90283203125
0.144,-5.10498046875,3.86376953125,1.78173828125
0.1445,-4.86474609375,4.62451171875,0.94091796875
0.145,-4.22412109375,5.02490234375,0.10009765625
0.1455,-3.18310546875,5.26513671875,-1.18115234375
0.146,-2.06201171875,5.54541015625,-2.54248046875
0.1465,-0.82080078125,5.50537109375,-3.78369140625
0.147,0.06005859375,5.62548828125,-4.74462890625
0.1475,0.82080078125,5.62548828125,-5.42529296875
0.148,1.78173828125,5.02490234375,-5.98583984375
0.1485,3.10302734375,3.86376953125,-6.34619140625
0.149,4.14404296875,2.62255859375,-6.42626953125
0.1495,4.86474609375,1.42138671875,-6.30615234375
0.15,5.30517578125,0.66064453125,-6.26611328125
0.1505,5.42529296875,-0.22021484375,-5.86572265625
0.151,5.26513671875,-1.22119140625,-5.06494140625
0.1515,5.14501953125,-2.34228515625,-4.02392578125
0.152,4.86474609375,-3.54345703125,-2.82275390625
0.1525,4.62451171875,-4.50439453125,-1.86181640625
0.153,4.38427734375,-5.22509765625,-1.06103515625
0.1535,3.70361328125,-5.62548828125,-0.14013671875
0.154,2.66259765625,-5.82568359375,1.14111328125
0.1545,1.50146484375,-6.02587890625,2.50244140625
0.155,0.46044921875,-6.10595703125,3.58349609375
0.1555,-0.34033203125,-6.30615234375,4.54443359375
0.156,-1.14111328125,-6.14599609375,5.22509765625
0.1565,-2.26220703125,-5.38525390625,5.70556640625
0.157,-3.42333984375,-4.30419921875,6.06591796875
0.1575,-4.42431640625,-3.06298828125,6.10595703125
0.158,-5.10498046875,-2.10205078125,6.06591796875
0.1585,-5.42529296875,-1.34130859375,6.02587890625
0.159,-5.50537109375,-0.58056640625,5.58544921875
0.1595,-5.46533203125,0.54052734375,4.78466796875
0.16,-5.38525390625,1.74169921875,3.78369140625
0.1605,-5.10498046875,2.78271484375,2.62255859375
0.161,-4.94482421875,3.70361328125,1.74169921875
0.1615,-4.66455078125,4.34423828125,0.98095703125
0.162,-3.90380859375,4.78466796875,0.02001953125
0.1625,-2.94287109375,5.10498046875,-1.34130859375
0.163,-1.78173828125,5.26513671875,-2.62255859375
0.1635,-0.90087890625,5.42529296875,-3.66357421875
0.164,-0.18017578125,5.62548828125,-4.54443359375
0.1645,0.78076171875,5.30517578125,-5.26513671875
0.165,1.98193359375,4.46435546875,-5.70556640625
0.1655,3.14306640625,3.42333984375,-6.06591796875
0.166,4.06396484375,2.26220703125,-6.06591796875
0.1665,4.66455078125,1.42138671875,-6.10595703125
0.167,4.98486328125,0.66064453125,-5.94580078125
0.1675,5.06494140625,-0.26025390625,-5.50537109375
0.168,5.02490234375,-1.30126953125,-4.66455078125
0.1685,4.86474609375,-2.58251953125,-3.58349609375
0.169,4.66455078125,-3.58349609375,-2.58251953125
0.1695,4.50439453125,-4.50439453125,-1.78173828125
0.17,4.14404296875,-4.98486328125,-0.98095703125
0.1705,3.26318359375,-5.38525390625,0.26025390625
0.171,2.30224609375,-5.74560546875,1.46142578125
0.1715,1.22119140625,-5.82568359375,2.66259765625
0.172,0.46044921875,-6.10595703125,3.70361328125
0.1725,-0.38037109375,-6.14599609375,4.50439453125
0.173,-1.34130859375,-5.74560546875,5.18505859375
0.1735,-2.58251953125,-4.82470703125,5.62548828125
0.174,-3.70361328125,-3.70361328125,5.82568359375
0.1745,-4.50439453125,-2.66259765625,5.86572265625
0.175,-5.06494140625,-1.90185546875,5.94580078125
0.1755,-5.26513671875,-1.18115234375,5.70556640625
0.176,-5.26513671875,-0.26025390625,5.06494140625
0.1765,-5.26513671875,0.94091796875,4.22412109375
0.177,-5.10498046875,2.06201171875,3.18310546875
0.1775,-4.98486328125,3.02294921875,2.26220703125
0.178,-4.82470703125,3.86376953125,1.46142578125
0.1785,-4.30419921875,4.42431640625,0.62060546875
0.179,-3.38330078125,4.78466796875,-0.62060546875
0.1795,-2.38232421875,5.10498046875,-1.94189453125
0.18,-1.38134765625,5.26513671875,-3.06298828125
0.1805,-0.66064453125,5.58544921875,-4.06396484375
0.181,0.26025390625,5.46533203125,-4.82470703125
0.1815,1.38134765625,4.82470703125,-5.42529296875
0.182,2.58251953125,3.82373046875,-5.82568359375
0.1825,3.62353515625,2.70263671875,-5.94580078125
0.183,4.42431640625,1.70166015625,-6.02587890625
0.1835,4.82470703125,1.02099609375,-6.02587890625
0.184,4.98486328125,0.22021484375,-5.62548828125
0.1845,4.98486328125,-0.98095703125,-4.86474609375
0.185,4.94482421875,-2.18212890625,-3.98388671875
0.1855,4.66455078125,-3.26318359375,-2.86279296875
0.186,4.62451171875,-4.18408203125,-2.02197265625
0.1865,4.30419921875,-4.82470703125,-1.22119140625
0.187,3.58349609375,-5.26513671875,-0.26025390625
0.1875,2.58251953125,-5.62548828125,1.14111328125
0.188,1.46142578125,-5.78564453125,2.42236328125
0.1885,0.62060546875,-6.02587890625,3.46337890625
0.189,-0.14013671875,-6.22607421875,4.38427734375
0.1895,-1.10107421875,-5.90576171875,5.06494140625
0.19,-2.34228515625,-4.98486328125,5.50537109375
0.1905,-3.50341796875,-3.94384765625,5.90576171875
0.191,-4.42431640625,-2.82275390625,5.90576171875
0.1915,-5.02490234375,-1.98193359375,5.94580078125
0.192,-5.26513671875,-1.22119140625,5.74560546875
0.1925,-5.30517578125,-0.46044921875,5.26513671875
0.193,-5.26513671875,0.78076171875,4.34423828125
0.1935,-5.26513671875,1.94189453125,3.34326171875
0.194,-4.98486328125,3.06298828125,2.30224609375
0.1945,-4.82470703125,3.86376953125,1.50146484375
0.195,-4.34423828125,4.38427734375,0.66064453125
0.1955,-3.46337890625,4.74462890625,-0.50048828125
0.196,-2.54248046875,5.10498046875,-1.78173828125
0.1965,-1.42138671875,5.26513671875,-2.98291015625
0.197,-0.66064453125,5.50537109375,-3.98388671875
0.1975,0.22021484375,5.54541015625,-4.82470703125
0.198,1.22119140625,5.06494140625,-5.42529296875
0.1985,2.50244140625,3.98388671875,-5.82568359375
0.199,3.58349609375,2.86279296875,-6.10595703125
