wavelength,x,y,z
0.0,0.610595703125,6.216064453125,-5.755615234375
0.0005,1.211181640625,6.095947265625,-6.356201171875
0.001,2.052001953125,5.135009765625,-6.396240234375
0.0015,3.333251953125,3.653564453125,-6.476318359375
0.002,4.734619140625,2.172119140625,-6.556396484375
0.0025,5.815673828125,0.930908203125,-6.796630859375
0.003,6.176025390625,0.290283203125,-6.876708984375
0.0035,5.895751953125,-0.470458984375,-6.276123046875
0.004,5.415283203125,-1.391357421875,-5.114990234375
0.0045,5.054931640625,-2.792724609375,-3.593505859375
0.005,4.934814453125,-4.354248046875,-2.192138671875
0.0055,5.014892578125,-5.595458984375,-1.271240234375
0.006,4.694580078125,-6.115966796875,-0.630615234375
0.0065,3.773681640625,-6.115966796875,0.250244140625
0.007,2.412353515625,-6.035888671875,1.451416015625
0.0075,0.850830078125,-6.115966796875,3.133056640625
0.008,-0.310302734375,-6.556396484375,4.614501953125
0.0085,-0.910888671875,-6.916748046875,5.695556640625
0.009,-1.591552734375,-6.596435546875,6.095947265625
0.0095,-2.592529296875,-5.515380859375,6.095947265625
0.01,-3.993896484375,-3.993896484375,6.256103515625
0.0105,-5.315185546875,-2.512451171875,6.456298828125
0.011,-6.236083984375,-1.511474609375,6.696533203125
0.0115,-6.356201171875,-0.910888671875,6.576416015625
0.012,-5.995849609375,-0.190185546875,5.775634765625
0.0125,-5.515380859375,0.970947265625,4.534423828125
0.013,-5.275146484375,2.452392578125,3.052978515625
0.0135,-5.275146484375,3.893798828125,1.811767578125
0.014,-5.275146484375,4.934814453125,1.010986328125
0.0145,-4.794677734375,5.215087890625,0.450439453125
0.015,-3.713623046875,5.135009765625,-0.590576171875
0.0155,-2.312255859375,5.215087890625,-1.951904296875
0.016,-0.950927734375,5.455322265625,-3.553466796875
0.0165,0.010009765625,5.895751953125,-4.914794921875
0.017,0.530517578125,6.135986328125,-5.715576171875
0.0175,1.291259765625,5.495361328125,-5.955810546875
0.018,2.412353515625,4.334228515625,-6.035888671875
0.0185,3.773681640625,2.892822265625,-6.196044921875
0.019,4.974853515625,1.571533203125,-6.436279296875
0.0195,5.695556640625,0.810791015625,-6.716552734375
0.02,5.695556640625,0.290283203125,-6.436279296875
0.0205,5.255126953125,-0.590576171875,-5.555419921875
0.021,4.854736328125,-1.711669921875,-4.314208984375
0.0215,4.734619140625,-3.153076171875,-2.912841796875
0.022,4.814697265625,-4.554443359375,-1.871826171875
0.0225,4.814697265625,-5.315185546875,-1.271240234375
0.023,4.214111328125,-5.595458984375,-0.630615234375
0.0235,3.133056640625,-5.515380859375,0.450439453125
0.024,1.771728515625,-5.635498046875,1.851806640625
0.0245,0.610595703125,-6.035888671875,3.333251953125
0.025,-0.230224609375,-6.556396484375,4.614501953125
0.0255,-0.790771484375,-6.716552734375,5.255126953125
0.026,-1.591552734375,-5.915771484375,5.495361328125
0.0265,-2.752685546875,-4.794677734375,5.695556640625
0.027,-4.114013671875,-3.393310546875,5.895751953125
0.0275,-5.275146484375,-2.272216796875,6.256103515625
0.028,-5.755615234375,-1.671630859375,6.456298828125
0.0285,-5.675537109375,-1.111083984375,6.095947265625
0.029,-5.315185546875,-0.310302734375,5.175048828125
0.0295,-5.114990234375,1.010986328125,4.013916015625
0.03,-5.074951171875,2.492431640625,2.772705078125
0.0305,-5.235107421875,3.773681640625,1.931884765625
0.031,-5.114990234375,4.414306640625,1.291259765625
0.0315,-4.394287109375,4.574462890625,0.610595703125
0.032,-3.273193359375,4.654541015625,-0.630615234375
0.0325,-2.072021484375,4.934814453125,-2.072021484375
0.033,-1.111083984375,5.415283203125,-3.553466796875
0.0335,-0.510498046875,5.895751953125,-4.674560546875
0.034,0.290283203125,5.815673828125,-5.195068359375
0.0345,1.211181640625,5.014892578125,-5.395263671875
0.035,2.492431640625,3.813720703125,-5.635498046875
0.0355,3.813720703125,2.532470703125,-5.955810546875
0.036,4.814697265625,1.611572265625,-6.396240234375
0.0365,5.175048828125,1.051025390625,-6.476318359375
0.037,5.014892578125,0.450439453125,-5.915771484375
0.0375,4.734619140625,-0.630615234375,-4.994873046875
0.038,4.614501953125,-1.911865234375,-3.793701171875
0.0385,4.734619140625,-3.353271484375,-2.712646484375
0.039,4.854736328125,-4.474365234375,-1.951904296875
0.0395,4.614501953125,-4.994873046875,-1.391357421875
0.04,3.813720703125,-5.074951171875,-0.630615234375
0.0405,2.692626953125,-5.315185546875,0.690673828125
0.041,1.411376953125,-5.635498046875,2.212158203125
0.0415,0.610595703125,-6.236083984375,3.533447265625
0.042,0.090087890625,-6.556396484375,4.494384765625
0.0425,-0.710693359375,-6.236083984375,4.934814453125
0.043,-1.791748046875,-5.275146484375,5.175048828125
0.0435,-3.072998046875,-4.114013671875,5.455322265625
0.044,-4.354248046875,-2.912841796875,5.815673828125
0.0445,-5.155029296875,-2.232177734375,6.256103515625
0.045,-5.355224609375,-1.671630859375,6.135986328125
0.0455,-5.155029296875,-0.990966796875,5.455322265625
0.046,-4.994873046875,0.130126953125,4.534423828125
0.0465,-4.914794921875,1.531494140625,3.373291015625
0.047,-5.114990234375,2.892822265625,2.412353515625
0.0475,-5.155029296875,3.853759765625,1.851806640625
0.048,-4.794677734375,4.174072265625,1.211181640625
0.0485,-3.833740234375,4.294189453125,0.250244140625
0.049,-2.752685546875,4.614501953125,-1.151123046875
0.0495,-1.751708984375,5.054931640625,-2.632568359375
0.05,-0.990966796875,5.695556640625,-3.873779296875
0.0505,-0.430419921875,5.895751953125,-4.674560546875
0.051,0.530517578125,5.335205078125,-5.034912109375
0.0515,1.691650390625,4.334228515625,-5.315185546875
0.052,3.052978515625,3.093017578125,-5.635498046875
0.0525,4.214111328125,2.052001953125,-6.115966796875
0.053,4.854736328125,1.451416015625,-6.396240234375
0.0535,4.934814453125,0.930908203125,-6.156005859375
0.054,4.694580078125,0.050048828125,-5.355224609375
0.0545,4.534423828125,-1.231201171875,-4.354248046875
0.055,4.614501953125,-2.632568359375,-3.193115234375
0.0555,4.854736328125,-3.913818359375,-2.352294921875
0.056,4.814697265625,-4.634521484375,-1.791748046875
0.0565,4.174072265625,-4.954833984375,-1.111083984375
0.057,3.173095703125,-5.114990234375,0.090087890625
0.0575,1.971923828125,-5.435302734375,1.491455078125
0.058,1.051025390625,-5.955810546875,3.012939453125
0.0585,0.450439453125,-6.476318359375,4.134033203125
0.059,-0.350341796875,-6.396240234375,4.774658203125
0.0595,-1.311279296875,-5.635498046875,5.054931640625
0.06,-2.592529296875,-4.514404296875,5.335205078125
0.0605,-3.913818359375,-3.233154296875,5.695556640625
0.061,-4.994873046875,-2.392333984375,6.135986328125
0.0615,-5.395263671875,-1.831787109375,6.256103515625
0.062,-5.275146484375,-1.191162109375,5.735595703125
0.0625,-4.994873046875,-0.270263671875,4.814697265625
0.063,-4.954833984375,1.131103515625,3.693603515625
0.0635,-5.074951171875,2.612548828125,2.572509765625
0.064,-5.195068359375,3.733642578125,1.891845703125
0.0645,-4.914794921875,4.214111328125,1.291259765625
0.065,-4.114013671875,4.334228515625,0.410400390625
0.0655,-3.032958984375,4.534423828125,-0.950927734375
0.066,-1.791748046875,4.974853515625,-2.432373046875
0.0665,-0.990966796875,5.615478515625,-3.833740234375
0.067,-0.430419921875,5.935791015625,-4.754638671875
0.0675,0.450439453125,5.575439453125,-5.195068359375
0.068,1.571533203125,4.534423828125,-5.395263671875
0.0685,2.892822265625,3.253173828125,-5.715576171875
0.069,4.214111328125,2.052001953125,-6.075927734375
0.0695,5.014892578125,1.331298828125,-6.436279296875
0.07,5.175048828125,0.770751953125,-6.276123046875
0.0705,4.894775390625,0.050048828125,-5.515380859375
0.071,4.654541015625,-1.191162109375,-4.434326171875
0.0715,4.614501953125,-2.632568359375,-3.193115234375
0.072,4.814697265625,-4.033935546875,-2.232177734375
0.0725,4.814697265625,-4.954833984375,-1.591552734375
0.073,4.334228515625,-5.235107421875,-0.990966796875
0.0735,3.213134765625,-5.315185546875,0.130126953125
0.074,2.011962890625,-5.475341796875,1.531494140625
0.0745,0.890869140625,-5.915771484375,3.093017578125
0.075,0.170166015625,-6.476318359375,4.334228515625
0.0755,-0.550537109375,-6.556396484375,5.094970703125
0.076,-1.391357421875,-5.835693359375,5.335205078125
0.0765,-2.632568359375,-4.674560546875,5.575439453125
0.077,-3.993896484375,-3.313232421875,5.815673828125
0.0775,-5.195068359375,-2.232177734375,6.216064453125
0.078,-5.755615234375,-1.591552734375,6.416259765625
0.0785,-5.635498046875,-0.990966796875,5.975830078125
0.079,-5.275146484375,0.050048828125,4.974853515625
0.0795,-5.074951171875,1.291259765625,3.773681640625
0.08,-5.074951171875,2.812744140625,2.492431640625
0.0805,-5.235107421875,4.013916015625,1.651611328125
0.081,-4.994873046875,4.614501953125,1.010986328125
0.0815,-4.234130859375,4.734619140625,0.250244140625
0.082,-2.992919921875,4.814697265625,-1.031005859375
0.0825,-1.751708984375,5.094970703125,-2.552490234375
0.083,-0.710693359375,5.575439453125,-3.993896484375
0.0835,-0.150146484375,6.055908203125,-5.074951171875
0.084,0.650634765625,5.775634765625,-5.595458984375
0.0845,1.731689453125,4.774658203125,-5.755615234375
0.085,3.093017578125,3.373291015625,-5.915771484375
0.0855,4.414306640625,1.971923828125,-6.196044921875
0.086,5.335205078125,1.091064453125,-6.556396484375
0.0865,5.575439453125,0.490478515625,-6.516357421875
0.087,5.295166015625,-0.270263671875,-5.795654296875
0.0875,4.894775390625,-1.311279296875,-4.594482421875
0.088,4.734619140625,-2.792724609375,-3.233154296875
0.0885,4.814697265625,-4.274169921875,-2.072021484375
0.089,4.934814453125,-5.355224609375,-1.351318359375
0.0895,4.454345703125,-5.755615234375,-0.710693359375
0.09,3.373291015625,-5.635498046875,0.290283203125
0.0905,2.052001953125,-5.755615234375,1.651611328125
0.091,0.690673828125,-6.035888671875,3.333251953125
0.0915,-0.230224609375,-6.556396484375,4.654541015625
0.092,-0.790771484375,-6.796630859375,5.575439453125
0.0925,-1.631591796875,-6.196044921875,5.855712890625
0.093,-2.872802734375,-4.914794921875,5.975830078125
0.0935,-4.314208984375,-3.393310546875,6.176025390625
0.094,-5.515380859375,-2.072021484375,6.416259765625
0.0945,-6.236083984375,-1.311279296875,6.696533203125
0.095,-6.196044921875,-0.630615234375,6.296142578125
0.0955,-5.755615234375,0.290283203125,5.295166015625
0.096,-5.435302734375,1.571533203125,3.893798828125
0.0965,-5.275146484375,3.133056640625,2.492431640625
0.097,-5.355224609375,4.494384765625,1.371337890625
0.0975,-5.195068359375,5.255126953125,0.650634765625
0.098,-4.394287109375,5.415283203125,-0.190185546875
0.0985,-3.032958984375,5.295166015625,-1.391357421875
0.099,-1.511474609375,5.455322265625,-3.032958984375
0.0995,-0.310302734375,5.735595703125,-4.594482421875
0.1,0.490478515625,6.256103515625,-5.755615234375
0.1005,1.131103515625,6.095947265625,-6.356201171875
0.101,2.172119140625,5.014892578125,-6.436279296875
0.1015,3.573486328125,3.453369140625,-6.556396484375
0.102,4.974853515625,1.931884765625,-6.636474609375
0.1025,5.975830078125,0.690673828125,-6.836669921875
0.103,6.336181640625,0.010009765625,-6.836669921875
0.1035,6.015869140625,-0.790771484375,-6.115966796875
0.104,5.415283203125,-1.911865234375,-4.794677734375
0.1045,5.054931640625,-3.473388671875,-3.153076171875
0.105,4.934814453125,-4.954833984375,-1.751708984375
0.1055,4.894775390625,-6.115966796875,-0.870849609375
0.106,4.534423828125,-6.436279296875,-0.150146484375
0.1065,3.453369140625,-6.356201171875,0.770751953125
0.107,1.891845703125,-6.236083984375,2.172119140625
0.1075,0.250244140625,-6.276123046875,3.853759765625
0.108,-0.830810546875,-6.676513671875,5.295166015625
0.1085,-1.431396484375,-6.916748046875,6.216064453125
0.109,-2.192138671875,-6.396240234375,6.536376953125
0.1095,-3.353271484375,-5.074951171875,6.536376953125
0.11,-4.714599609375,-3.433349609375,6.616455078125
0.1105,-5.955810546875,-1.951904296875,6.696533203125
0.111,-6.716552734375,-0.950927734375,6.856689453125
0.1115,-6.756591796875,-0.310302734375,6.576416015625
0.112,-6.236083984375,0.610595703125,5.615478515625
0.1125,-5.715576171875,1.771728515625,4.134033203125
0.113,-5.355224609375,3.293212890625,2.492431640625
0.1135,-5.315185546875,4.734619140625,1.211181640625
0.114,-5.195068359375,5.655517578125,0.450439453125
0.1145,-4.554443359375,5.855712890625,-0.350341796875
0.115,-3.273193359375,5.695556640625,-1.311279296875
0.1155,-1.671630859375,5.615478515625,-2.872802734375
0.116,-0.230224609375,5.775634765625,-4.514404296875
0.1165,0.650634765625,6.216064453125,-5.755615234375
0.117,1.211181640625,6.296142578125,-6.516357421875
0.1175,2.052001953125,5.455322265625,-6.716552734375
0.118,3.333251953125,3.973876953125,-6.676513671875
0.1185,4.734619140625,2.372314453125,-6.716552734375
0.119,5.895751953125,0.970947265625,-6.876708984375
0.1195,6.416259765625,0.130126953125,-6.996826171875
0.12,6.296142578125,-0.590576171875,-6.556396484375
0.1205,5.735595703125,-1.471435546875,-5.395263671875
0.121,5.255126953125,-2.832763671875,-3.833740234375
0.1215,4.974853515625,-4.434326171875,-2.272216796875
0.122,5.014892578125,-5.715576171875,-1.151123046875
0.1225,4.814697265625,-6.396240234375,-0.510498046875
0.123,3.973876953125,-6.436279296875,0.370361328125
0.1235,2.572509765625,-6.276123046875,1.491455078125
0.124,0.930908203125,-6.276123046875,3.173095703125
0.1245,-0.470458984375,-6.556396484375,4.734619140625
0.125,-1.151123046875,-6.956787109375,5.895751953125
0.1255,-1.751708984375,-6.836669921875,6.456298828125
0.126,-2.752685546875,-5.755615234375,6.536376953125
0.1265,-4.114013671875,-4.194091796875,6.576416015625
0.127,-5.475341796875,-2.552490234375,6.696533203125
0.1275,-6.516357421875,-1.311279296875,6.896728515625
0.128,-6.836669921875,-0.630615234375,6.856689453125
0.1285,-6.516357421875,0.130126953125,6.135986328125
0.129,-5.915771484375,1.131103515625,4.814697265625
0.1295,-5.595458984375,2.612548828125,3.213134765625
0.13,-5.435302734375,4.214111328125,1.771728515625
0.1305,-5.435302734375,5.415283203125,0.810791015625
0.131,-4.994873046875,5.855712890625,0.090087890625
0.1315,-3.873779296875,5.775634765625,-0.910888671875
0.132,-2.312255859375,5.695556640625,-2.272216796875
0.1325,-0.710693359375,5.775634765625,-3.993896484375
0.133,0.450439453125,6.135986328125,-5.435302734375
0.1335,1.010986328125,6.416259765625,-6.396240234375
0.134,1.771728515625,5.935791015625,-6.796630859375
0.1345,2.932861328125,4.534423828125,-6.796630859375
0.135,4.414306640625,2.892822265625,-6.876708984375
0.1355,5.695556640625,1.291259765625,-6.956787109375
0.136,6.456298828125,0.290283203125,-7.116943359375
0.1365,6.536376953125,-0.510498046875,-6.916748046875
0.137,6.055908203125,-1.311279296875,-5.875732421875
0.1375,5.495361328125,-2.592529296875,-4.354248046875
0.138,5.135009765625,-4.154052734375,-2.632568359375
0.1385,5.054931640625,-5.595458984375,-1.271240234375
0.139,4.974853515625,-6.516357421875,-0.510498046875
0.1395,4.294189453125,-6.756591796875,0.290283203125
0.14,2.932861328125,-6.556396484375,1.331298828125
0.1405,1.291259765625,-6.476318359375,2.932861328125
0.141,-0.390380859375,-6.556396484375,4.614501953125
0.1415,-1.231201171875,-6.916748046875,5.895751953125
0.142,-1.791748046875,-6.956787109375,6.616455078125
0.1425,-2.632568359375,-6.115966796875,6.776611328125
0.143,-3.913818359375,-4.594482421875,6.696533203125
0.1435,-5.315185546875,-2.912841796875,6.736572265625
0.144,-6.436279296875,-1.471435546875,6.816650390625
0.1445,-6.916748046875,-0.670654296875,6.896728515625
0.145,-6.716552734375,0.050048828125,6.376220703125
0.1455,-6.115966796875,0.930908203125,5.175048828125
0.146,-5.635498046875,2.292236328125,3.653564453125
0.1465,-5.315185546875,3.853759765625,1.971923828125
0.147,-5.315185546875,5.135009765625,0.930908203125
0.1475,-5.074951171875,5.775634765625,0.250244140625
0.148,-4.234130859375,5.815673828125,-0.590576171875
0.1485,-2.752685546875,5.615478515625,-1.751708984375
0.149,-1.231201171875,5.655517578125,-3.273193359375
0.1495,0.170166015625,5.855712890625,-4.874755859375
0.15,0.770751953125,6.256103515625,-5.915771484375
0.1505,1.331298828125,6.135986328125,-6.436279296875
0.151,2.252197265625,5.094970703125,-6.556396484375
0.1515,3.573486328125,3.573486328125,-6.556396484375
0.152,4.854736328125,2.052001953125,-6.596435546875
0.1525,5.895751953125,0.810791015625,-6.796630859375
0.153,6.256103515625,0.170166015625,-6.876708984375
0.1535,5.895751953125,-0.590576171875,-6.276123046875
0.154,5.415283203125,-1.431396484375,-5.074951171875
0.1545,5.054931640625,-2.792724609375,-3.593505859375
0.155,4.854736328125,-4.354248046875,-2.152099609375
0.1555,4.974853515625,-5.515380859375,-1.271240234375
0.156,4.694580078125,-6.075927734375,-0.630615234375
0.1565,3.813720703125,-6.075927734375,0.210205078125
0.157,2.452392578125,-6.035888671875,1.411376953125
0.1575,0.930908203125,-6.115966796875,3.012939453125
0.158,-0.230224609375,-6.476318359375,4.494384765625
0.1585,-0.830810546875,-6.916748046875,5.575439453125
0.159,-1.471435546875,-6.676513671875,6.055908203125
0.1595,-2.552490234375,-5.515380859375,6.095947265625
0.16,-3.873779296875,-4.114013671875,6.256103515625
0.1605,-5.195068359375,-2.632568359375,6.416259765625
0.161,-6.115966796875,-1.671630859375,6.696533203125
0.1615,-6.356201171875,-1.071044921875,6.616455078125
0.162,-6.035888671875,-0.310302734375,5.895751953125
0.1625,-5.595458984375,0.850830078125,4.694580078125
0.163,-5.315185546875,2.332275390625,3.213134765625
0.1635,-5.315185546875,3.813720703125,1.931884765625
0.164,-5.355224609375,4.814697265625,1.171142578125
0.1645,-4.914794921875,5.215087890625,0.530517578125
0.165,-3.833740234375,5.175048828125,-0.510498046875
0.1655,-2.432373046875,5.255126953125,-1.911865234375
0.166,-0.990966796875,5.455322265625,-3.553466796875
0.1665,-0.190185546875,5.975830078125,-4.874755859375
0.167,0.490478515625,6.216064453125,-5.715576171875
0.1675,1.291259765625,5.615478515625,-6.035888671875
0.168,2.492431640625,4.334228515625,-6.115966796875
0.1685,3.853759765625,2.852783203125,-6.276123046875
0.169,5.094970703125,1.531494140625,-6.476318359375
0.1695,5.735595703125,0.730712890625,-6.756591796875
0.17,5.735595703125,0.250244140625,-6.476318359375
0.1705,5.295166015625,-0.670654296875,-5.515380859375
0.171,4.974853515625,-1.911865234375,-4.234130859375
0.1715,4.774658203125,-3.353271484375,-2.832763671875
0.172,4.854736328125,-4.754638671875,-1.791748046875
0.1725,4.814697265625,-5.515380859375,-1.151123046875
0.173,4.174072265625,-5.755615234375,-0.510498046875
0.1735,3.052978515625,-5.635498046875,0.610595703125
0.174,1.611572265625,-5.755615234375,2.052001953125
0.1745,0.450439453125,-6.075927734375,3.613525390625
0.175,-0.350341796875,-6.556396484375,4.814697265625
0.1755,-0.950927734375,-6.676513671875,5.455322265625
0.176,-1.791748046875,-5.875732421875,5.655517578125
0.1765,-2.992919921875,-4.674560546875,5.815673828125
0.177,-4.314208984375,-3.273193359375,6.015869140625
0.1775,-5.435302734375,-2.152099609375,6.256103515625
0.178,-5.875732421875,-1.551513671875,6.456298828125
0.1785,-5.755615234375,-0.950927734375,6.055908203125
0.179,-5.395263671875,0.050048828125,5.094970703125
0.1795,-5.155029296875,1.291259765625,3.853759765625
0.18,-5.074951171875,2.732666015625,2.572509765625
0.1805,-5.235107421875,3.933837890625,1.771728515625
0.181,-5.074951171875,4.614501953125,1.171142578125
0.1815,-4.354248046875,4.734619140625,0.450439453125
0.182,-3.153076171875,4.814697265625,-0.790771484375
0.1825,-1.951904296875,5.054931640625,-2.272216796875
0.183,-0.950927734375,5.455322265625,-3.713623046875
0.1835,-0.350341796875,6.015869140625,-4.754638671875
0.184,0.410400390625,5.855712890625,-5.315185546875
0.1845,1.371337890625,4.934814453125,-5.515380859375
0.185,2.652587890625,3.693603515625,-5.755615234375
0.1855,3.933837890625,2.412353515625,-6.035888671875
0.186,4.934814453125,1.531494140625,-6.436279296875
0.1865,5.295166015625,0.970947265625,-6.516357421875
0.187,5.094970703125,0.330322265625,-5.955810546875
0.1875,4.814697265625,-0.710693359375,-4.954833984375
0.188,4.654541015625,-2.031982421875,-3.753662109375
