wavelength,x,y,z
0.0,5.42529296875,-22.44189453125,17.03662109375
0.0005,10.22998046875,-22.48193359375,12.19189453125
0.001,14.27392578125,-23.44287109375,9.26904296875
0.0015,17.31689453125,-22.36181640625,5.10498046875
0.002,19.99951171875,-21.04052734375,1.26123046875
0.0025,21.72119140625,-18.71826171875,-2.86279296875
0.003,23.64306640625,-15.91552734375,-7.70751953125
0.0035,23.32275390625,-11.83154296875,-11.51123046875
0.004,23.60302734375,-8.34814453125,-15.31494140625
0.0045,22.44189453125,-5.38525390625,-17.23681640625
0.005,20.56005859375,-0.58056640625,-20.11962890625
0.0055,18.23779296875,3.82373046875,-22.16162109375
0.006,14.11376953125,8.90869140625,-23.08251953125
0.0065,11.15087890625,12.75244140625,-23.96337890625
0.007,6.62646484375,16.07568359375,-22.76220703125
0.0075,3.02294921875,18.15771484375,-21.24072265625
0.008,-1.58154296875,20.27978515625,-18.91845703125
0.0085,-6.66650390625,22.52197265625,-16.19580078125
0.009,-11.11083984375,22.16162109375,-11.51123046875
0.0095,-14.99462890625,23.00244140625,-8.50830078125
0.01,-17.55712890625,21.72119140625,-4.74462890625
0.0105,-20.15966796875,20.23974609375,-0.62060546875
0.011,-21.80126953125,17.87744140625,3.54345703125
0.0115,-23.24267578125,14.39404296875,8.46826171875
0.012,-23.32275390625,10.87060546875,12.07177734375
0.0125,-23.08251953125,7.14697265625,15.67529296875
0.013,-21.80126953125,4.10400390625,17.47705078125
0.0135,-19.91943359375,-0.66064453125,20.31982421875
0.014,-17.27685546875,-5.46533203125,22.44189453125
0.0145,-12.79248046875,-10.31005859375,22.76220703125
0.015,-10.06982421875,-13.83349609375,23.64306640625
0.0155,-5.50537109375,-16.71630859375,21.92138671875
0.016,-1.46142578125,-18.91845703125,20.19970703125
0.0165,2.86279296875,-20.88037109375,17.91748046875
0.017,8.46826171875,-22.80224609375,14.31396484375
0.0175,12.39208984375,-22.44189453125,9.98974609375
0.018,16.31591796875,-22.84228515625,6.70654296875
0.0185,18.55810546875,-21.28076171875,2.94287109375
0.019,21.24072265625,-19.59912109375,-1.46142578125
0.0195,22.56201171875,-16.91650390625,-5.62548828125
0.02,23.52294921875,-12.99267578125,-10.51025390625
0.0205,23.68310546875,-9.98974609375,-13.75341796875
0.021,22.80224609375,-5.78564453125,-17.11669921875
0.0215,21.12060546875,-2.22216796875,-19.03857421875
0.022,19.23876953125,2.26220703125,-21.60107421875
0.0225,15.83544921875,7.54736328125,-23.44287109375
0.023,11.27099609375,11.99169921875,-23.32275390625
0.0235,8.50830078125,15.39501953125,-24.04345703125
0.024,3.70361328125,17.91748046875,-21.72119140625
0.0245,-0.78076171875,20.35986328125,-19.79931640625
0.025,-4.86474609375,21.72119140625,-17.15673828125
0.0255,-10.59033203125,23.36279296875,-13.15283203125
0.026,-14.11376953125,22.76220703125,-9.10888671875
0.0265,-17.79736328125,22.68212890625,-5.42529296875
0.027,-19.75927734375,20.80029296875,-1.58154296875
0.0275,-22.32177734375,18.87841796875,2.98291015625
0.028,-23.16259765625,15.55517578125,7.26708984375
0.0285,-23.72314453125,11.39111328125,12.03173828125
0.029,-23.88330078125,8.66845703125,14.99462890625
0.0295,-22.32177734375,4.10400390625,17.99755859375
0.03,-20.47998046875,0.22021484375,20.07958984375
0.0305,-18.31787109375,-4.14404296875,22.16162109375
0.031,-14.59423828125,-9.46923828125,23.76318359375
0.0315,-9.98974609375,-13.39306640625,23.12255859375
0.032,-7.06689453125,-16.55615234375,23.32275390625
0.0325,-2.22216796875,-18.67822265625,20.60009765625
0.033,2.26220703125,-21.16064453125,18.79833984375
0.0335,6.66650390625,-22.08154296875,15.23486328125
0.034,11.91162109375,-23.32275390625,11.47119140625
0.0345,15.23486328125,-22.76220703125,7.70751953125
0.035,18.55810546875,-22.08154296875,3.70361328125
0.0355,20.43994140625,-20.03955078125,-0.26025390625
0.036,22.76220703125,-18.07763671875,-4.50439453125
0.0365,23.36279296875,-14.39404296875,-8.94873046875
0.037,23.48291015625,-10.31005859375,-13.15283203125
0.0375,23.64306640625,-7.78759765625,-15.95556640625
0.038,21.52099609375,-3.06298828125,-18.59814453125
0.0385,19.87939453125,0.98095703125,-20.96044921875
0.039,16.95654296875,5.42529296875,-22.44189453125
0.0395,13.35302734375,10.59033203125,-24.04345703125
0.04,8.98876953125,14.11376953125,-23.16259765625
0.0405,5.58544921875,17.11669921875,-22.76220703125
0.041,0.98095703125,18.95849609375,-20.15966796875
0.0415,-3.54345703125,21.52099609375,-18.39794921875
0.042,-8.18798828125,22.00146484375,-14.15380859375
0.0425,-12.87255859375,22.92236328125,-10.51025390625
0.043,-15.95556640625,22.60205078125,-7.22705078125
0.0435,-18.87841796875,21.28076171875,-2.90283203125
0.044,-20.76025390625,19.27880859375,1.02099609375
0.0445,-22.56201171875,16.83642578125,5.30517578125
0.045,-23.32275390625,13.15283203125,9.82958984375
0.0455,-23.04248046875,9.10888671875,13.63330078125
0.046,-23.08251953125,6.54638671875,16.27587890625
0.0465,-20.76025390625,1.86181640625,18.67822265625
0.047,-19.23876953125,-2.30224609375,21.32080078125
0.0475,-15.47509765625,-6.90673828125,22.08154296875
0.048,-12.15185546875,-11.71142578125,23.56298828125
0.0485,-8.22802734375,-14.87451171875,22.76220703125
0.049,-4.18408203125,-17.67724609375,21.52099609375
0.0495,0.26025390625,-19.51904296875,18.95849609375
0.05,4.82470703125,-21.92138671875,17.03662109375
0.0505,9.58935546875,-22.16162109375,12.63232421875
0.051,13.95361328125,-22.68212890625,8.86865234375
0.0515,16.71630859375,-22.44189453125,5.94580078125
0.052,19.55908203125,-20.68017578125,1.30126953125
0.0525,21.64111328125,-18.67822265625,-2.86279296875
0.053,22.88232421875,-15.63525390625,-7.18701171875
0.0535,23.76318359375,-12.27197265625,-11.51123046875
0.054,23.08251953125,-8.26806640625,-14.91455078125
0.0545,22.64208984375,-5.22509765625,-17.51708984375
0.055,20.27978515625,-0.54052734375,-19.87939453125
0.0555,18.55810546875,4.14404296875,-22.76220703125
0.056,13.99365234375,8.82861328125,-22.92236328125
0.0565,10.79052734375,13.27294921875,-24.12353515625
0.057,6.90673828125,16.11572265625,-23.16259765625
0.0575,2.10205078125,18.95849609375,-21.20068359375
0.058,-2.14208984375,20.80029296875,-18.87841796875
0.0585,-7.34716796875,23.00244140625,-15.99560546875
0.059,-11.71142578125,23.04248046875,-11.79150390625
0.0595,-15.87548828125,23.08251953125,-7.70751953125
0.06,-18.35791015625,22.44189453125,-4.58447265625
0.0605,-21.08056640625,20.35986328125,0.26025390625
0.061,-23.16259765625,17.91748046875,4.82470703125
0.0615,-23.68310546875,13.91357421875,9.38916015625
0.062,-24.56396484375,10.87060546875,13.39306640625
0.0625,-23.48291015625,6.58642578125,16.63623046875
0.063,-22.36181640625,3.06298828125,19.07861328125
0.0635,-19.87939453125,-1.70166015625,21.32080078125
0.064,-17.39697265625,-6.90673828125,24.00341796875
0.0645,-12.55224609375,-11.39111328125,23.56298828125
0.065,-9.14892578125,-15.47509765625,24.32373046875
0.0655,-5.18505859375,-17.87744140625,22.60205078125
0.066,0.02001953125,-20.60009765625,20.47998046875
0.0665,4.34423828125,-22.20166015625,17.83740234375
0.067,9.94970703125,-23.72314453125,13.83349609375
0.0675,13.83349609375,-23.76318359375,10.10986328125
0.068,17.91748046875,-23.36279296875,5.62548828125
0.0685,20.07958984375,-22.08154296875,2.22216796875
0.069,22.48193359375,-19.83935546875,-2.54248046875
0.0695,24.36376953125,-16.99658203125,-7.30712890625
0.07,24.24365234375,-12.47216796875,-11.79150390625
0.0705,25.00439453125,-9.70947265625,-15.35498046875
0.071,23.40283203125,-5.22509765625,-18.27783203125
0.0715,21.80126953125,-1.14111328125,-20.80029296875
0.072,19.23876953125,3.34326171875,-22.64208984375
0.0725,15.87548828125,8.98876953125,-24.92431640625
0.073,11.23095703125,12.99267578125,-24.36376953125
0.0735,7.54736328125,16.99658203125,-24.52392578125
0.074,3.50341796875,18.87841796875,-22.44189453125
0.0745,-1.78173828125,21.64111328125,-20.15966796875
0.075,-6.22607421875,23.08251953125,-17.23681640625
0.0755,-11.83154296875,24.04345703125,-12.67236328125
0.076,-15.27490234375,24.04345703125,-9.26904296875
0.0765,-18.95849609375,23.08251953125,-4.66455078125
0.077,-20.96044921875,21.48095703125,-1.06103515625
0.0775,-23.04248046875,19.07861328125,3.54345703125
0.078,-24.72412109375,15.79541015625,8.58837890625
0.0785,-24.32373046875,11.07080078125,12.91259765625
0.079,-24.84423828125,8.34814453125,16.23583984375
0.0795,-22.88232421875,3.94384765625,18.71826171875
0.08,-21.16064453125,-0.50048828125,21.44091796875
0.0805,-18.39794921875,-4.90478515625,23.00244140625
0.081,-14.51416015625,-10.63037109375,24.84423828125
0.0815,-10.31005859375,-14.27392578125,24.04345703125
0.082,-6.34619140625,-17.75732421875,23.76318359375
0.0825,-2.10205078125,-19.43896484375,21.36083984375
0.083,2.78271484375,-22.08154296875,19.23876953125
0.0835,7.82763671875,-23.36279296875,15.59521484375
0.084,12.95263671875,-23.88330078125,11.03076171875
0.0845,16.35595703125,-24.04345703125,7.90771484375
0.085,19.67919921875,-22.60205078125,3.18310546875
0.0855,21.80126953125,-20.80029296875,-0.82080078125
0.086,23.52294921875,-18.35791015625,-5.06494140625
0.0865,25.00439453125,-14.75439453125,-10.22998046875
0.087,24.32373046875,-10.18994140625,-14.11376953125
0.0875,24.64404296875,-7.34716796875,-17.39697265625
0.088,22.28173828125,-2.78271484375,-19.63916015625
0.0885,20.64013671875,1.78173828125,-22.56201171875
0.089,17.11669921875,6.42626953125,-23.64306640625
0.0895,13.23291015625,12.03173828125,-25.20458984375
0.09,9.18896484375,15.31494140625,-24.56396484375
0.0905,4.70458984375,18.71826171875,-23.52294921875
0.091,0.34033203125,20.43994140625,-20.96044921875
0.0915,-4.34423828125,22.88232421875,-18.83837890625
0.092,-9.74951171875,23.84326171875,-14.51416015625
0.0925,-14.39404296875,23.96337890625,-9.98974609375
0.093,-17.63720703125,24.08349609375,-7.02685546875
0.0935,-20.56005859375,22.08154296875,-2.06201171875
0.094,-22.76220703125,20.11962890625,2.22216796875
0.0945,-24.00341796875,17.11669921875,6.46630859375
0.095,-25.28466796875,13.31298828125,11.67138671875
0.0955,-24.40380859375,8.90869140625,15.23486328125
0.096,-24.32373046875,5.62548828125,18.47802734375
0.0965,-21.72119140625,0.98095703125,20.47998046875
0.097,-19.99951171875,-3.70361328125,23.40283203125
0.0975,-15.83544921875,-8.58837890625,24.08349609375
0.098,-11.75146484375,-13.67333984375,25.12451171875
0.0985,-8.14794921875,-16.63623046875,24.48388671875
0.099,-3.02294921875,-19.79931640625,22.52197265625
0.0995,1.46142578125,-21.44091796875,19.87939453125
0.1,6.30615234375,-23.64306640625,17.31689453125
0.1005,11.59130859375,-24.36376953125,12.83251953125
0.101,15.99560546875,-24.04345703125,8.22802734375
0.1015,18.95849609375,-23.96337890625,5.18505859375
0.102,21.68115234375,-21.64111328125,0.14013671875
0.1025,24.00341796875,-19.47900390625,-4.42431640625
0.103,24.52392578125,-15.75537109375,-8.70849609375
0.1035,25.72509765625,-12.15185546875,-13.63330078125
0.104,24.60400390625,-7.86767578125,-16.79638671875
0.1045,23.80322265625,-4.06396484375,-19.87939453125
0.105,21.08056640625,0.62060546875,-21.80126953125
0.1055,19.11865234375,5.70556640625,-24.72412109375
0.106,14.15380859375,10.55029296875,-24.84423828125
0.1065,10.14990234375,15.27490234375,-25.44482421875
0.107,6.70654296875,17.91748046875,-24.64404296875
0.1075,1.14111328125,20.84033203125,-22.12158203125
0.108,-3.38330078125,22.60205078125,-19.51904296875
0.1085,-8.58837890625,24.20361328125,-15.99560546875
0.109,-13.43310546875,24.88427734375,-11.91162109375
0.1095,-17.47705078125,24.08349609375,-7.10693359375
0.11,-20.15966796875,23.52294921875,-3.90380859375
0.1105,-22.52197265625,21.00048828125,1.10107421875
0.111,-24.96435546875,18.55810546875,5.98583984375
0.1115,-24.80419921875,14.03369140625,10.43017578125
0.112,-25.92529296875,10.71044921875,14.91455078125
0.1125,-24.64404296875,6.54638671875,17.75732421875
0.113,-23.20263671875,2.26220703125,20.68017578125
0.1135,-20.47998046875,-2.34228515625,22.56201171875
0.114,-17.75732421875,-7.66748046875,25.12451171875
0.1145,-12.95263671875,-12.35205078125,25.00439453125
0.115,-8.78857421875,-16.63623046875,25.12451171875
0.1155,-5.38525390625,-18.83837890625,23.88330078125
0.116,0.46044921875,-21.64111328125,21.12060546875
0.1165,5.06494140625,-23.52294921875,18.47802734375
0.117,10.55029296875,-24.40380859375,13.91357421875
0.1175,14.83447265625,-25.12451171875,10.47021484375
0.118,18.75830078125,-24.04345703125,5.50537109375
0.1185,21.24072265625,-23.00244140625,1.94189453125
0.119,23.36279296875,-20.35986328125,-2.86279296875
0.1195,25.72509765625,-17.63720703125,-7.98779296875
0.12,25.12451171875,-12.79248046875,-12.35205078125
0.1205,25.96533203125,-9.66943359375,-16.39599609375
0.121,24.36376953125,-5.62548828125,-18.91845703125
0.1215,22.56201171875,-0.82080078125,-21.92138671875
0.122,19.75927734375,3.86376953125,-23.68310546875
0.1225,16.03564453125,9.62939453125,-25.76513671875
0.123,11.75146484375,13.87353515625,-25.68505859375
0.1235,7.30712890625,17.95751953125,-25.32470703125
0.124,3.58349609375,19.83935546875,-23.52294921875
0.1245,-2.10205078125,22.60205078125,-20.76025390625
0.125,-7.02685546875,24.44384765625,-17.79736328125
0.1255,-12.51220703125,24.72412109375,-12.63232421875
0.126,-16.35595703125,25.36474609375,-9.54931640625
0.1265,-19.91943359375,23.84326171875,-4.50439453125
0.127,-22.32177734375,22.32177734375,-0.58056640625
0.1275,-24.16357421875,19.51904296875,4.14404296875
0.128,-26.24560546875,16.19580078125,9.62939453125
0.1285,-25.44482421875,11.27099609375,13.83349609375
0.129,-25.96533203125,8.06787109375,17.63720703125
0.1295,-23.96337890625,3.90380859375,19.75927734375
0.13,-21.96142578125,-1.18115234375,22.84228515625
0.1305,-18.87841796875,-5.78564453125,24.36376953125
0.131,-14.51416015625,-11.67138671875,25.88525390625
0.1315,-10.59033203125,-15.39501953125,25.68505859375
0.132,-5.78564453125,-19.11865234375,24.64404296875
0.1325,-1.66162109375,-20.80029296875,22.28173828125
0.133,3.54345703125,-23.32275390625,19.71923828125
0.1335,9.02880859375,-24.96435546875,15.99560546875
0.134,14.11376953125,-24.80419921875,10.87060546875
0.1345,17.79736328125,-25.32470703125,7.74755859375
0.135,20.92041015625,-23.40283203125,2.74267578125
0.1355,23.36279296875,-21.52099609375,-1.66162109375
0.136,24.72412109375,-18.63818359375,-6.02587890625
0.1365,26.40576171875,-14.87451171875,-11.55126953125
0.137,25.48486328125,-10.27001953125,-15.31494140625
0.1375,25.60498046875,-6.82666015625,-18.91845703125
0.138,23.12255859375,-2.54248046875,-20.72021484375
0.1385,21.20068359375,2.50244140625,-23.76318359375
0.139,17.43701171875,7.42724609375,-24.96435546875
0.1395,12.87255859375,13.03271484375,-25.92529296875
0.14,9.34912109375,16.43603515625,-25.88525390625
0.1405,4.22412109375,19.83935546875,-24.12353515625
0.141,-0.22021484375,21.60107421875,-21.60107421875
0.1415,-4.94482421875,23.72314453125,-19.07861328125
0.142,-10.75048828125,25.16455078125,-14.79443359375
0.1425,-15.19482421875,24.56396484375,-9.86962890625
0.143,-18.67822265625,25.00439453125,-6.86669921875
0.1435,-21.28076171875,22.64208984375,-1.94189453125
0.144,-23.68310546875,20.68017578125,2.58251953125
0.1445,-24.68408203125,17.31689453125,6.98681640625
0.145,-26.08544921875,13.19287109375,12.51220703125
0.1455,-25.28466796875,9.14892578125,15.83544921875
0.146,-24.88427734375,5.34521484375,19.31884765625
0.1465,-22.28173828125,1.14111328125,20.96044921875
0.147,-20.35986328125,-3.74365234375,23.84326171875
0.1475,-16.15576171875,-8.98876953125,24.80419921875
0.148,-11.51123046875,-14.07373046875,25.28466796875
0.1485,-8.46826171875,-17.11669921875,25.32470703125
0.149,-2.94287109375,-20.03955078125,22.76220703125
0.1495,1.46142578125,-21.92138671875,20.35986328125
0.15,6.22607421875,-23.68310546875,17.43701171875
0.1505,12.03173828125,-25.00439453125,13.15283203125
0.151,16.03564453125,-24.24365234375,8.34814453125
0.1515,19.35888671875,-24.40380859375,5.26513671875
0.152,21.72119140625,-21.88134765625,0.38037109375
0.1525,24.32373046875,-19.95947265625,-4.26416015625
0.153,24.72412109375,-16.15576171875,-8.62841796875
0.1535,25.96533203125,-12.19189453125,-13.91357421875
0.154,25.20458984375,-8.46826171875,-16.79638671875
0.1545,24.08349609375,-4.02392578125,-20.19970703125
0.155,21.52099609375,0.34033203125,-21.92138671875
0.1555,19.27880859375,5.30517578125,-24.64404296875
0.156,14.75439453125,10.63037109375,-25.44482421875
0.1565,10.10986328125,15.27490234375,-25.44482421875
0.157,7.10693359375,18.07763671875,-25.24462890625
0.1575,1.22119140625,20.96044921875,-22.28173828125
0.158,-3.34326171875,23.04248046875,-19.99951171875
0.1585,-8.34814453125,24.20361328125,-16.19580078125
0.159,-13.75341796875,25.48486328125,-12.23193359375
0.1595,-17.55712890625,24.40380859375,-7.42724609375
0.16,-20.64013671875,24.04345703125,-3.90380859375
0.1605,-22.76220703125,21.24072265625,0.98095703125
0.161,-25.36474609375,18.91845703125,6.02587890625
0.1615,-25.12451171875,14.35400390625,10.43017578125
0.162,-26.20556640625,10.55029296875,15.39501953125
0.1625,-25.28466796875,6.98681640625,17.99755859375
0.163,-23.56298828125,2.06201171875,21.28076171875
0.1635,-20.80029296875,-2.50244140625,23.04248046875
0.164,-17.79736328125,-7.82763671875,25.32470703125
0.1645,-13.39306640625,-12.71240234375,25.88525390625
0.165,-8.54833984375,-17.03662109375,25.28466796875
0.1655,-5.42529296875,-19.35888671875,24.48388671875
0.166,0.66064453125,-22.04150390625,21.28076171875
0.1665,5.42529296875,-24.24365234375,18.83837890625
0.167,10.83056640625,-24.60400390625,13.87353515625
0.1675,15.43505859375,-25.76513671875,10.43017578125
0.168,19.07861328125,-24.40380859375,5.54541015625
0.1685,21.96142578125,-23.40283203125,1.62158203125
0.169,23.84326171875,-20.47998046875,-3.18310546875
0.1695,26.24560546875,-17.87744140625,-8.34814453125
0.17,25.56494140625,-12.91259765625,-12.67236328125
0.1705,26.24560546875,-9.26904296875,-17.03662109375
0.171,24.96435546875,-5.74560546875,-19.31884765625
0.1715,22.76220703125,-0.46044921875,-22.44189453125
0.172,19.95947265625,4.18408203125,-24.20361328125
0.1725,15.91552734375,9.82958984375,-25.76513671875
0.173,12.03173828125,14.23388671875,-26.32568359375
0.1735,7.06689453125,18.23779296875,-25.32470703125
0.174,3.46337890625,20.23974609375,-23.84326171875
0.1745,-2.22216796875,22.68212890625,-20.68017578125
0.175,-7.26708984375,24.92431640625,-17.99755859375
0.1755,-12.51220703125,24.64404296875,-12.55224609375
0.176,-16.67626953125,25.56494140625,-9.38916015625
0.1765,-19.83935546875,24.00341796875,-4.74462890625
0.177,-22.44189453125,22.48193359375,-0.58056640625
0.1775,-24.04345703125,19.51904296875,4.10400390625
0.178,-26.08544921875,16.19580078125,9.46923828125
0.1785,-25.48486328125,11.55126953125,13.59326171875
0.179,-25.68505859375,7.78759765625,17.63720703125
0.1795,-24.16357421875,4.42431640625,19.47900390625
0.18,-21.84130859375,-0.94091796875,22.48193359375
0.1805,-18.99853515625,-5.70556640625,24.36376953125
0.181,-14.31396484375,-11.19091796875,25.16455078125
0.1815,-10.99072265625,-15.07470703125,25.80517578125
0.182,-6.02587890625,-18.55810546875,24.28369140625
0.1825,-2.06201171875,-20.52001953125,22.36181640625
0.183,3.02294921875,-22.60205078125,19.51904296875
0.1835,8.66845703125,-24.76416015625,16.15576171875
0.184,13.35302734375,-24.20361328125,10.99072265625
0.1845,17.43701171875,-25.00439453125,7.70751953125
0.185,19.99951171875,-23.32275390625,3.46337890625
0.1855,22.80224609375,-21.64111328125,-1.06103515625
0.186,24.16357421875,-18.59814453125,-5.42529296875
0.1865,25.60498046875,-14.75439453125,-10.83056640625
0.187,25.32470703125,-10.87060546875,-14.51416015625
0.1875,25.00439453125,-6.86669921875,-18.27783203125
0.188,23.20263671875,-3.30322265625,-19.99951171875
0.1885,21.04052734375,1.78173828125,-22.88232421875
0.189,17.67724609375,7.06689453125,-24.84423828125
0.1895,12.79248046875,12.23193359375,-25.12451171875
0.19,9.82958984375,15.95556640625,-25.84521484375
0.1905,4.74462890625,18.99853515625,-23.80322265625
0.191,0.34033203125,21.28076171875,-21.76123046875
