wavelength,x,y,z
0.0,16.380981445312,5.8907470703125,-21.255737304688
0.0005,13.378051757812,8.9337158203125,-21.455932617188
0.001,8.8936767578125,12.737426757812,-20.855346679688
0.0015,4.2491455078125,16.140747070312,-20.014526367188
0.002,-1.0760498046875,19.423950195312,-18.212768554688
0.0025,-4.8397216796875,21.065551757812,-16.330932617188
0.003,-7.6424560546875,21.385864257812,-14.128784179688
0.0035,-10.805541992188,21.666137695312,-11.245971679688
0.004,-15.089721679688,20.665161132812,-6.4412841796875
0.0045,-18.453002929688,19.223754882812,-2.0369873046875
0.005,-20.815307617188,17.542114257812,2.2471923828125
0.0055,-22.136596679688,15.500122070312,5.6104736328125
0.006,-22.096557617188,12.457153320312,8.5733642578125
0.0065,-22.096557617188,8.8135986328125,12.216918945312
0.007,-21.215698242188,4.3292236328125,15.940551757812
0.0075,-19.814331054688,-0.4754638671875,19.063598632812
0.008,-17.972534179688,-4.1590576171875,20.985473632812
0.0085,-15.450073242188,-6.9217529296875,21.786254882812
0.009,-12.487182617188,-10.285034179688,21.906372070312
0.0095,-7.1219482421875,-14.609252929688,20.945434570312
0.01,-2.5174560546875,-17.612182617188,19.584106445312
0.0105,2.4473876953125,-20.374877929688,17.782348632812
0.011,5.9708251953125,-21.776245117188,15.900512695312
0.0115,8.8536376953125,-21.656127929688,13.257934570312
0.012,12.136840820312,-21.736206054688,10.295043945312
0.0125,16.260864257812,-20.815307617188,5.0899658203125
0.013,19.463989257812,-18.893432617188,0.3253173828125
0.0135,21.425903320312,-17.051635742188,-3.3983154296875
0.014,22.346801757812,-14.889526367188,-6.4813232421875
0.0145,22.226684570312,-11.686401367188,-9.6043701171875
0.015,21.786254882812,-7.2020263671875,-13.648315429688
0.0155,20.745239257812,-3.0780029296875,-16.571166992188
0.016,19.223754882812,1.4063720703125,-19.734252929688
0.0165,17.221801757812,5.1300048828125,-21.055541992188
0.017,14.379028320312,7.8927001953125,-21.495971679688
0.0175,11.255981445312,11.175903320312,-21.776245117188
0.018,5.4903564453125,15.540161132812,-20.494995117188
0.0185,0.6456298828125,18.543090820312,-18.893432617188
0.019,-3.4783935546875,20.625122070312,-17.171752929688
0.0195,-6.6815185546875,21.786254882812,-15.650268554688
0.02,-9.6043701171875,21.546020507812,-12.206909179688
0.0205,-13.247924804688,21.105590820312,-8.8436279296875
0.021,-16.931518554688,20.064575195312,-4.0389404296875
0.0215,-20.134643554688,18.182739257812,1.0059814453125
0.022,-21.536010742188,16.220825195312,4.2891845703125
0.0225,-22.056518554688,13.778442382812,7.2120361328125
0.023,-22.096557617188,10.695434570312,10.214965820312
0.0235,-21.495971679688,5.6104736328125,14.739379882812
0.024,-20.374877929688,1.5264892578125,17.582153320312
0.0245,-18.653198242188,-2.5574951171875,20.224731445312
0.025,-16.611206054688,-5.9207763671875,21.505981445312
0.0255,-13.408081054688,-8.8436279296875,21.265747070312
0.026,-9.8846435546875,-12.246948242188,21.345825195312
0.0265,-4.4393310546875,-16.250854492188,20.064575195312
0.027,0.8858642578125,-19.293823242188,18.102661132812
0.0275,4.3292236328125,-20.535034179688,16.541137695312
0.028,7.4923095703125,-21.495971679688,14.419067382812
0.0285,10.535278320312,-21.495971679688,11.456176757812
0.029,14.499145507812,-20.615112304688,6.8917236328125
0.0295,17.742309570312,-19.494018554688,2.6876220703125
0.03,20.545043945312,-17.772338867188,-1.9569091796875
0.0305,21.626098632812,-15.690307617188,-4.9598388671875
0.031,21.746215820312,-12.807495117188,-8.2030029296875
0.0315,21.986450195312,-9.4442138671875,-11.165893554688
0.032,20.985473632812,-4.8797607421875,-15.610229492188
0.0325,19.504028320312,-0.2752685546875,-18.453002929688
0.033,17.862426757812,3.3282470703125,-20.294799804688
0.0335,15.740356445312,6.5313720703125,-21.536010742188
0.034,12.216918945312,9.7344970703125,-21.215698242188
0.0345,7.6925048828125,13.698364257812,-20.775268554688
0.035,2.8878173828125,17.181762695312,-19.574096679688
0.0355,-2.3572998046875,19.984497070312,-17.892456054688
0.036,-5.4002685546875,21.105590820312,-16.010620117188
0.0365,-8.4832763671875,21.546020507812,-13.488159179688
0.037,-11.686401367188,21.505981445312,-10.525268554688
0.0375,-15.890502929688,20.304809570312,-5.2801513671875
0.038,-19.093627929688,18.823364257812,-0.7156982421875
0.0385,-21.295776367188,17.021606445312,3.2081298828125
0.039,-22.136596679688,14.859497070312,6.0509033203125
0.0395,-22.136596679688,11.536254882812,9.4542236328125
0.04,-21.816284179688,7.8526611328125,13.057739257812
0.0405,-20.855346679688,3.1680908203125,16.661254882812
0.041,-19.253784179688,-1.5565185546875,19.744262695312
0.0415,-17.251831054688,-4.7996826171875,20.985473632812
0.042,-14.929565429688,-7.8826904296875,21.946411132812
0.0425,-11.245971679688,-11.245971679688,21.666137695312
0.043,-5.7606201171875,-15.329956054688,20.505004882812
0.0435,-0.9959716796875,-18.453002929688,19.223754882812
0.044,3.6885986328125,-21.015502929688,17.301879882812
0.0445,6.6114501953125,-21.776245117188,15.339965820312
0.045,9.8946533203125,-21.776245117188,12.296997070312
0.0455,13.217895507812,-21.616088867188,9.0137939453125
0.046,17.141723632812,-20.254760742188,3.9288330078125
0.0465,20.304809570312,-18.372924804688,-1.0360107421875
0.047,21.786254882812,-16.531127929688,-4.3992919921875
0.0475,22.386840820312,-14.248901367188,-7.4022216796875
0.048,22.066528320312,-10.565307617188,-10.525268554688
0.0485,21.505981445312,-6.1209716796875,-14.449096679688
0.049,20.424926757812,-1.8768310546875,-17.692260742188
0.0495,18.703247070312,2.6876220703125,-20.494995117188
0.05,16.380981445312,5.8106689453125,-21.295776367188
0.0505,13.498168945312,9.0137939453125,-21.776245117188
0.051,9.6544189453125,12.497192382812,-21.776245117188
0.0515,3.9288330078125,16.661254882812,-20.014526367188
0.052,-0.9959716796875,19.544067382812,-18.453002929688
0.0525,-4.7596435546875,21.345825195312,-16.691284179688
0.053,-7.7225341796875,21.906372070312,-14.569213867188
0.0535,-11.045776367188,21.626098632812,-11.165893554688
0.054,-14.689331054688,21.025512695312,-7.2020263671875
0.0545,-18.212768554688,19.664184570312,-2.4373779296875
0.055,-21.095581054688,17.582153320312,2.5274658203125
0.0555,-21.736206054688,15.620239257812,5.2901611328125
0.056,-22.416870117188,12.777465820312,8.4932861328125
0.0565,-22.096557617188,9.1339111328125,11.816528320312
0.057,-21.095581054688,4.3692626953125,15.740356445312
0.0575,-19.734252929688,0.0450439453125,18.623168945312
0.058,-18.092651367188,-3.8787841796875,20.985473632812
0.0585,-15.690307617188,-6.8416748046875,21.586059570312
0.059,-12.206909179688,-9.8446044921875,21.465942382812
0.0595,-8.2830810546875,-13.928588867188,21.225708007812
0.06,-2.6776123046875,-17.411987304688,19.584106445312
0.0605,2.2872314453125,-20.054565429688,17.622192382812
0.061,5.3302001953125,-21.215698242188,15.980590820312
0.0615,8.3731689453125,-21.736206054688,13.698364257812
0.062,11.656372070312,-21.295776367188,10.214965820312
0.0625,15.380004882812,-20.374877929688,5.7305908203125
0.063,18.823364257812,-18.733276367188,1.2061767578125
0.0635,21.105590820312,-16.971557617188,-3.2781982421875
0.064,21.546020507812,-14.769409179688,-5.7606201171875
0.0645,21.786254882812,-11.806518554688,-9.0037841796875
0.065,21.465942382812,-8.0028076171875,-12.487182617188
0.0655,20.464965820312,-3.5584716796875,-16.090698242188
0.066,18.903442382812,0.9259033203125,-18.853393554688
0.0665,17.221801757812,4.2091064453125,-20.535034179688
0.067,14.779418945312,7.4122314453125,-21.015502929688
0.0675,11.135864257812,10.495239257812,-21.175659179688
0.068,6.5313720703125,14.379028320312,-20.294799804688
0.0685,1.4864501953125,17.782348632812,-18.933471679688
0.069,-3.1580810546875,20.144653320312,-16.931518554688
0.0695,-5.8406982421875,20.825317382812,-15.169799804688
0.07,-9.0037841796875,21.265747070312,-12.687377929688
0.0705,-12.527221679688,20.825317382812,-8.9637451171875
0.071,-16.210815429688,19.584106445312,-4.3992919921875
0.0715,-19.173706054688,18.062622070312,0.2452392578125
0.072,-21.095581054688,16.260864257812,3.8487548828125
0.0725,-21.495971679688,13.818481445312,6.5714111328125
0.073,-21.495971679688,10.535278320312,9.8546142578125
0.0735,-21.015502929688,6.4512939453125,13.538208007812
0.074,-20.014526367188,2.0469970703125,16.941528320312
0.0745,-18.332885742188,-2.1971435546875,19.504028320312
0.075,-16.411010742188,-5.1199951171875,20.464965820312
0.0755,-13.968627929688,-8.2030029296875,21.225708007812
0.076,-9.8045654296875,-11.766479492188,20.785278320312
0.0765,-4.9598388671875,-15.369995117188,19.704223632812
0.077,0.0050048828125,-18.573120117188,18.222778320312
0.0775,4.1290283203125,-20.575073242188,16.421020507812
0.078,6.7716064453125,-21.015502929688,14.379028320312
0.0785,9.9747314453125,-21.215698242188,11.656372070312
0.079,13.778442382812,-20.735229492188,7.3721923828125
0.0795,17.141723632812,-19.333862304688,3.0079345703125
0.08,19.784301757812,-17.692260742188,-1.3162841796875
0.0805,21.225708007812,-15.810424804688,-4.5194091796875
0.081,21.505981445312,-13.167846679688,-7.4422607421875
0.0815,21.385864257812,-9.4842529296875,-10.965698242188
0.082,20.625122070312,-5.2801513671875,-14.489135742188
0.0825,19.504028320312,-0.8758544921875,-17.732299804688
0.083,17.782348632812,3.2081298828125,-20.014526367188
0.0835,15.500122070312,5.9708251953125,-20.655151367188
0.084,12.777465820312,9.0938720703125,-21.135620117188
0.0845,7.9727783203125,13.137817382812,-20.494995117188
0.085,3.2081298828125,16.421020507812,-19.213745117188
0.0855,-1.4764404296875,19.183715820312,-17.572143554688
0.086,-4.9998779296875,20.785278320312,-15.930541992188
0.0865,-7.7625732421875,20.945434570312,-13.528198242188
0.087,-10.965698242188,20.865356445312,-10.725463867188
0.0875,-14.809448242188,20.144653320312,-6.1209716796875
0.088,-18.212768554688,18.623168945312,-1.3162841796875
0.0885,-20.414916992188,16.781372070312,2.6876220703125
0.089,-21.215698242188,14.739379882812,5.4503173828125
0.0895,-21.536010742188,11.976684570312,8.5333251953125
0.09,-21.135620117188,7.8126220703125,12.337036132812
0.0905,-20.214721679688,3.7686767578125,15.460083007812
0.091,-18.933471679688,-0.5155029296875,18.463012695312
0.0915,-17.171752929688,-4.1590576171875,20.384887695312
0.092,-14.689331054688,-6.9217529296875,20.625122070312
0.0925,-11.686401367188,-9.9647216796875,20.785278320312
0.093,-6.7215576171875,-13.968627929688,20.024536132812
0.0935,-1.7166748046875,-17.211791992188,18.503051757812
0.094,2.5274658203125,-19.413940429688,16.781372070312
0.0945,5.4503173828125,-20.575073242188,15.219848632812
0.095,8.4532470703125,-20.815307617188,12.697387695312
0.0955,11.816528320312,-20.414916992188,9.1339111328125
0.096,15.139770507812,-19.574096679688,5.0899658203125
0.0965,18.503051757812,-18.092651367188,0.4053955078125
0.097,20.384887695312,-16.290893554688,-3.2781982421875
0.0975,20.745239257812,-13.968627929688,-5.8807373046875
0.098,21.065551757812,-11.245971679688,-8.9637451171875
0.0985,20.585083007812,-6.7215576171875,-12.807495117188
0.099,19.544067382812,-2.7176513671875,-16.010620117188
0.0995,18.182739257812,1.2462158203125,-18.533081054688
0.1,16.501098632812,4.4893798828125,-20.174682617188
0.1005,13.738403320312,7.3721923828125,-20.374877929688
0.101,10.134887695312,10.775512695312,-20.254760742188
0.1015,5.4903564453125,14.459106445312,-19.494018554688
0.102,0.4454345703125,17.742309570312,-17.932495117188
0.1025,-3.3983154296875,19.584106445312,-16.250854492188
0.103,-6.0809326171875,20.304809570312,-14.489135742188
0.1035,-9.1639404296875,20.625122070312,-11.966674804688
0.104,-13.047729492188,19.864379882812,-7.6824951171875
0.1045,-16.170776367188,18.903442382812,-3.5985107421875
0.105,-19.053588867188,17.341918945312,0.7657470703125
0.1055,-20.695190429688,15.580200195312,4.1290283203125
0.106,-20.815307617188,12.977661132812,6.8516845703125
0.1065,-20.855346679688,9.8946533203125,9.9747314453125
0.107,-20.494995117188,5.4102783203125,14.058715820312
0.1075,-19.293823242188,1.0860595703125,17.301879882812
0.108,-17.692260742188,-2.6375732421875,19.343872070312
0.1085,-15.970581054688,-5.6004638671875,20.585083007812
0.109,-12.967651367188,-8.6834716796875,20.785278320312
0.1095,-8.3631591796875,-12.527221679688,20.184692382812
0.11,-3.9588623046875,-15.770385742188,19.223754882812
0.1105,1.0860595703125,-18.933471679688,17.582153320312
0.111,4.5294189453125,-20.374877929688,15.860473632812
0.1115,7.2921142578125,-20.655151367188,13.578247070312
0.112,10.415161132812,-21.015502929688,11.015747070312
0.1125,14.579223632812,-20.014526367188,6.1309814453125
0.113,17.662231445312,-18.653198242188,1.7667236328125
0.1135,19.984497070312,-17.011596679688,-2.1170654296875
0.114,21.225708007812,-15.089721679688,-5.2000732421875
0.1145,21.105590820312,-12.407104492188,-8.3631591796875
0.115,21.105590820312,-8.3231201171875,-11.846557617188
0.1155,20.344848632812,-4.1990966796875,-15.249877929688
0.116,19.063598632812,0.3653564453125,-18.453002929688
0.1165,17.141723632812,3.8487548828125,-20.134643554688
0.117,14.859497070312,6.6915283203125,-20.735229492188
0.1175,11.896606445312,9.8946533203125,-21.055541992188
0.118,6.3712158203125,14.178833007812,-20.014526367188
0.1185,1.9268798828125,17.181762695312,-18.813354492188
0.119,-2.5174560546875,19.624145507812,-17.051635742188
0.1195,-5.7606201171875,20.905395507812,-15.369995117188
0.12,-8.6434326171875,20.785278320312,-12.567260742188
0.1205,-11.846557617188,20.745239257812,-9.6043701171875
0.121,-15.770385742188,19.704223632812,-4.8397216796875
0.1215,-18.973510742188,17.982543945312,0.0450439453125
0.122,-20.615112304688,16.220825195312,3.3682861328125
0.1225,-21.536010742188,14.098754882812,6.3311767578125
0.123,-21.415893554688,11.095825195312,9.2540283203125
0.1235,-20.895385742188,6.4512939453125,13.418090820312
0.124,-19.934448242188,2.5675048828125,16.340942382812
0.1245,-18.573120117188,-1.6766357421875,19.223754882812
0.125,-16.611206054688,-4.9998779296875,20.625122070312
0.1255,-13.808471679688,-7.7625732421875,20.665161132812
0.126,-10.725463867188,-10.845581054688,20.945434570312
0.1265,-5.1600341796875,-15.129760742188,19.664184570312
0.127,-0.3153076171875,-18.092651367188,17.982543945312
0.1275,3.3282470703125,-19.814331054688,16.461059570312
0.128,6.3712158203125,-20.895385742188,14.739379882812
0.1285,9.3341064453125,-20.775268554688,11.736450195312
0.129,12.897583007812,-20.214721679688,7.8526611328125
0.1295,16.260864257812,-19.253784179688,3.7686767578125
0.13,19.223754882812,-17.492065429688,-0.9158935546875
0.1305,20.424926757812,-15.690307617188,-3.8387451171875
0.131,20.785278320312,-13.207885742188,-6.6815185546875
0.1315,20.945434570312,-10.365112304688,-9.6844482421875
0.132,20.224731445312,-5.4803466796875,-13.888549804688
0.1325,19.063598632812,-1.4764404296875,-16.731323242188
0.133,17.742309570312,2.1270751953125,-18.933471679688
0.1335,15.860473632812,5.2501220703125,-20.294799804688
0.134,12.737426757812,8.1329345703125,-20.374877929688
0.1345,8.9737548828125,11.696411132812,-20.014526367188
0.135,4.1290283203125,15.380004882812,-19.053588867188
0.1355,-0.9158935546875,18.342895507812,-17.331909179688
0.136,-4.0389404296875,19.584106445312,-15.650268554688
0.1365,-6.8817138671875,20.344848632812,-13.768432617188
0.137,-9.8446044921875,20.424926757812,-11.085815429688
0.1375,-13.888549804688,19.504028320312,-6.3211669921875
0.138,-17.011596679688,18.382934570312,-2.2772216796875
0.1385,-19.494018554688,16.781372070312,1.7667236328125
0.139,-20.494995117188,14.899536132812,4.6094970703125
0.1395,-20.535034179688,12.096801757812,7.4923095703125
0.14,-20.695190429688,8.9737548828125,10.775512695312
0.1405,-19.974487304688,4.3692626953125,14.659301757812
0.141,-18.573120117188,0.0050048828125,17.622192382812
0.1415,-16.971557617188,-3.1981201171875,19.263793945312
0.142,-14.889526367188,-6.1209716796875,20.464965820312
0.1425,-11.886596679688,-9.2440185546875,20.304809570312
0.143,-7.0819091796875,-13.207885742188,19.584106445312
0.1435,-2.5574951171875,-16.491088867188,18.543090820312
0.144,2.1671142578125,-19.213745117188,16.781372070312
0.1445,5.0499267578125,-20.214721679688,15.179809570312
0.145,8.0128173828125,-20.494995117188,12.737426757812
0.1455,11.135864257812,-20.575073242188,9.9747314453125
0.146,15.179809570312,-19.453979492188,4.9698486328125
0.1465,18.262817382812,-17.972534179688,0.5655517578125
0.147,20.144653320312,-16.370971679688,-2.8778076171875
0.1475,20.945434570312,-14.288940429688,-5.7205810546875
0.148,20.785278320312,-11.205932617188,-8.7235107421875
0.1485,20.545043945312,-7.2420654296875,-12.487182617188
0.149,19.784301757812,-3.0780029296875,-15.850463867188
0.1495,18.302856445312,1.3262939453125,-18.733276367188
0.15,16.380981445312,4.4093017578125,-19.894409179688
0.1505,13.938598632812,7.4122314453125,-20.575073242188
0.151,10.535278320312,10.695434570312,-20.535034179688
0.1515,5.0899658203125,14.779418945312,-19.373901367188
0.152,0.5255126953125,17.782348632812,-18.012573242188
0.1525,-3.4783935546875,19.864379882812,-16.411010742188
0.153,-6.3612060546875,20.625122070312,-14.609252929688
0.1535,-9.5242919921875,20.585083007812,-11.566284179688
0.154,-12.847534179688,20.344848632812,-8.2030029296875
0.1545,-16.531127929688,19.143676757812,-3.5184326171875
0.155,-19.453979492188,17.301879882812,1.2061767578125
0.1555,-20.655151367188,15.540161132812,4.0889892578125
0.156,-21.215698242188,13.177856445312,7.0518798828125
0.1565,-21.015502929688,9.8946533203125,10.094848632812
0.157,-20.334838867188,5.2901611328125,14.018676757812
0.1575,-19.253784179688,1.2862548828125,17.021606445312
0.158,-17.812377929688,-2.7576904296875,19.584106445312
0.1585,-15.650268554688,-5.6405029296875,20.344848632812
0.159,-12.767456054688,-8.6434326171875,20.505004882812
0.1595,-9.0037841796875,-12.126831054688,20.424926757812
0.16,-3.7186279296875,-15.890502929688,19.023559570312
0.1605,1.1260986328125,-18.613159179688,17.301879882812
0.161,4.2091064453125,-20.094604492188,15.820434570312
0.1615,7.1719970703125,-20.575073242188,13.818481445312
0.162,10.214965820312,-20.494995117188,10.735473632812
0.1625,13.818481445312,-19.814331054688,6.6114501953125
0.163,17.141723632812,-18.613159179688,2.3272705078125
0.1635,19.704223632812,-16.811401367188,-2.0369873046875
0.164,20.424926757812,-14.889526367188,-4.6395263671875
0.1645,20.785278320312,-12.246948242188,-7.5623779296875
0.165,20.625122070312,-8.8436279296875,-10.885620117188
0.1655,19.864379882812,-4.3592529296875,-14.609252929688
0.166,18.543090820312,-0.2352294921875,-17.452026367188
0.1665,17.101684570312,3.1680908203125,-19.413940429688
0.167,14.859497070312,6.1309814453125,-20.214721679688
0.1675,11.616333007812,9.2139892578125,-20.054565429688
0.168,7.3721923828125,12.937622070312,-19.734252929688
0.1685,2.4874267578125,16.421020507812,-18.533081054688
0.169,-2.2371826171875,18.943481445312,-16.691284179688
0.1695,-4.8397216796875,19.864379882812,-15.209838867188
0.17,-7.8426513671875,20.464965820312,-13.047729492188
0.1705,-11.085815429688,20.184692382812,-9.7645263671875
0.171,-14.769409179688,19.223754882812,-5.2401123046875
0.1715,-17.932495117188,17.902465820312,-0.9559326171875
0.172,-20.094604492188,16.180786132812,2.9278564453125
0.1725,-20.575073242188,14.098754882812,5.4903564453125
0.173,-20.775268554688,11.055786132812,8.6134033203125
0.1735,-20.494995117188,7.2921142578125,12.216918945312
0.174,-19.614135742188,2.9278564453125,15.660278320312
0.1745,-18.092651367188,-1.2762451171875,18.422973632812
0.175,-16.411010742188,-4.2391357421875,19.744262695312
0.1755,-14.128784179688,-7.2020263671875,20.464965820312
0.176,-10.405151367188,-10.525268554688,20.184692382812
0.1765,-5.7606201171875,-14.168823242188,19.303833007812
0.177,-0.9959716796875,-17.492065429688,17.982543945312
0.1775,3.3282470703125,-19.614135742188,16.220825195312
0.178,5.8106689453125,-20.174682617188,14.459106445312
