wavelength,x,y,z
0.0,16.340942382812,1.6065673828125,-17.211791992188
0.0005,14.459106445312,4.4093017578125,-18.212768554688
0.001,12.176879882812,7.3721923828125,-18.933471679688
0.0015,8.3331298828125,10.855590820312,-18.733276367188
0.002,4.5294189453125,13.818481445312,-18.012573242188
0.0025,0.2852783203125,16.300903320312,-16.411010742188
0.003,-3.3582763671875,17.942504882812,-14.729370117188
0.0035,-6.0408935546875,18.342895507812,-12.607299804688
0.004,-8.9637451171875,18.703247070312,-10.285034179688
0.0045,-12.567260742188,18.342895507812,-6.4412841796875
0.005,-15.410034179688,17.301879882812,-2.6375732421875
0.0055,-17.411987304688,15.580200195312,1.0860595703125
0.006,-18.613159179688,13.698364257812,4.0889892578125
0.0065,-19.093627929688,11.215942382812,7.0518798828125
0.007,-19.253784179688,7.8526611328125,10.415161132812
0.0075,-18.853393554688,4.5294189453125,13.338012695312
0.008,-17.692260742188,0.7657470703125,16.140747070312
0.0085,-15.890502929688,-2.9178466796875,17.902465820312
0.009,-13.728393554688,-5.6004638671875,18.463012695312
0.0095,-11.406127929688,-8.4031982421875,19.063598632812
0.01,-7.1219482421875,-12.086791992188,18.623168945312
0.0105,-3.0780029296875,-14.929565429688,17.582153320312
0.011,1.0460205078125,-16.811401367188,15.740356445312
0.0115,4.1290283203125,-18.212768554688,14.098754882812
0.012,6.9718017578125,-18.533081054688,11.816528320312
0.0125,10.014770507812,-18.573120117188,8.9737548828125
0.013,13.297973632812,-18.212768554688,5.4903564453125
0.0135,16.060668945312,-16.811401367188,1.4063720703125
0.014,17.822387695312,-15.009643554688,-2.1571044921875
0.0145,18.583129882812,-12.967651367188,-4.8397216796875
0.015,19.183715820312,-10.565307617188,-7.7625732421875
0.0155,18.903442382812,-6.7615966796875,-11.406127929688
0.016,18.422973632812,-3.5584716796875,-14.128784179688
0.0165,16.941528320312,0.1251220703125,-16.370971679688
0.017,15.219848632812,3.5284423828125,-18.012573242188
0.0175,12.737426757812,6.2110595703125,-18.332885742188
0.018,10.094848632812,9.1739501953125,-18.693237304688
0.0185,5.9307861328125,12.697387695312,-18.453002929688
0.019,1.4063720703125,15.460083007812,-16.931518554688
0.0195,-2.1170654296875,17.181762695312,-15.089721679688
0.02,-4.9998779296875,18.222778320312,-13.448120117188
0.0205,-7.8826904296875,18.543090820312,-11.125854492188
0.021,-11.406127929688,18.302856445312,-7.5223388671875
0.0215,-14.248901367188,17.782348632812,-4.2791748046875
0.022,-16.731323242188,16.220825195312,-0.3153076171875
0.0225,-18.412963867188,14.379028320312,3.1680908203125
0.023,-18.773315429688,12.016723632812,5.8907470703125
0.0235,-19.373901367188,9.5343017578125,8.9737548828125
0.024,-19.053588867188,5.4903564453125,12.657348632812
0.0245,-18.212768554688,1.8468017578125,15.500122070312
0.025,-16.491088867188,-1.6365966796875,17.261840820312
0.0255,-14.769409179688,-4.7996826171875,18.703247070312
0.026,-12.126831054688,-7.6424560546875,18.943481445312
0.0265,-8.4432373046875,-10.925659179688,18.823364257812
0.027,-4.6395263671875,-13.968627929688,18.222778320312
0.0275,0.0050048828125,-16.611206054688,16.421020507812
0.028,3.4483642578125,-18.092651367188,14.659301757812
0.0285,6.2110595703125,-18.573120117188,12.577270507812
0.029,9.0938720703125,-19.093627929688,10.375122070312
0.0295,12.897583007812,-18.453002929688,6.0909423828125
0.03,15.620239257812,-17.411987304688,2.4874267578125
0.0305,17.622192382812,-15.650268554688,-1.2362060546875
0.031,18.943481445312,-13.808471679688,-4.3592529296875
0.0315,19.103637695312,-11.165893554688,-7.2420654296875
0.032,19.343872070312,-8.1229248046875,-10.445190429688
0.0325,18.943481445312,-4.6395263671875,-13.648315429688
0.033,17.702270507812,-0.6356201171875,-16.370971679688
0.0335,15.700317382812,2.7677001953125,-17.812377929688
0.034,13.738403320312,5.6905517578125,-18.653198242188
0.0345,11.215942382812,8.6134033203125,-19.093627929688
0.035,6.5714111328125,12.417114257812,-18.372924804688
0.0355,2.9278564453125,15.019653320312,-17.652221679688
0.036,-1.3162841796875,17.141723632812,-15.810424804688
0.0365,-4.6395263671875,18.463012695312,-14.048706054688
0.037,-7.4022216796875,18.543090820312,-11.566284179688
0.0375,-10.285034179688,18.903442382812,-9.1239013671875
0.038,-13.928588867188,18.302856445312,-5.1199951171875
0.0385,-16.531127929688,16.781372070312,-0.9959716796875
0.039,-18.132690429688,14.979614257812,2.2872314453125
0.0395,-19.213745117188,12.937622070312,5.3702392578125
0.04,-19.373901367188,10.295043945312,8.2130126953125
0.0405,-19.253784179688,6.4512939453125,11.856567382812
0.041,-18.773315429688,3.2081298828125,14.659301757812
0.0415,-17.291870117188,-0.7557373046875,17.061645507812
0.042,-15.249877929688,-4.0389404296875,18.463012695312
0.0425,-12.887573242188,-6.8416748046875,18.863403320312
0.043,-10.405151367188,-9.6444091796875,19.383911132812
0.0435,-5.4803466796875,-13.528198242188,18.503051757812
0.044,-1.2762451171875,-16.090698242188,17.021606445312
0.0445,2.3673095703125,-17.772338867188,15.339965820312
0.045,5.5303955078125,-18.893432617188,13.498168945312
0.0455,8.4532470703125,-18.933471679688,10.775512695312
0.046,11.776489257812,-18.773315429688,7.5323486328125
0.0465,14.939575195312,-18.092651367188,4.0089111328125
0.047,17.421997070312,-16.370971679688,-0.3553466796875
0.0475,18.703247070312,-14.489135742188,-3.5184326171875
0.048,19.343872070312,-12.126831054688,-6.4412841796875
0.0485,19.704223632812,-9.6444091796875,-9.2840576171875
0.049,19.223754882812,-5.4403076171875,-13.127807617188
0.0495,18.342895507812,-1.9569091796875,-15.690307617188
0.05,16.661254882812,1.7667236328125,-17.652221679688
0.0505,14.699340820312,5.0499267578125,-19.053588867188
0.051,11.696411132812,7.9327392578125,-18.973510742188
0.0515,8.5733642578125,11.135864257812,-19.213745117188
0.052,4.1690673828125,14.579223632812,-18.453002929688
0.0525,-0.5555419921875,17.021606445312,-16.411010742188
0.053,-3.6785888671875,18.222778320312,-14.689331054688
0.0535,-6.7215576171875,19.103637695312,-12.727416992188
0.054,-9.6444091796875,19.183715820312,-10.044799804688
0.0545,-13.368041992188,18.543090820312,-6.0408935546875
0.055,-16.130737304688,17.622192382812,-2.3172607421875
0.0555,-18.292846679688,15.780395507812,1.6866455078125
0.056,-19.373901367188,13.738403320312,4.7696533203125
0.0565,-19.654174804688,10.895629882812,7.8126220703125
0.057,-19.894409179688,8.1329345703125,10.855590820312
0.0575,-19.413940429688,4.0089111328125,14.419067382812
0.058,-17.972534179688,0.0850830078125,17.021606445312
0.0585,-16.090698242188,-3.2781982421875,18.463012695312
0.059,-14.128784179688,-6.4012451171875,19.704223632812
0.0595,-11.005737304688,-9.3240966796875,19.624145507812
0.06,-6.8817138671875,-12.927612304688,19.223754882812
0.0605,-2.7576904296875,-15.890502929688,18.302856445312
0.061,1.9268798828125,-18.092651367188,16.100708007812
0.0615,4.9298095703125,-19.013549804688,14.178833007812
0.062,8.0528564453125,-19.494018554688,11.736450195312
0.0625,11.055786132812,-19.574096679688,8.9737548828125
0.063,14.739379882812,-18.733276367188,4.6094970703125
0.0635,17.421997070312,-17.211791992188,0.4854736328125
0.064,19.103637695312,-15.329956054688,-3.0780029296875
0.0645,19.944458007812,-13.087768554688,-6.1209716796875
0.065,20.024536132812,-10.004760742188,-9.2840576171875
0.0655,19.864379882812,-6.6414794921875,-12.527221679688
0.066,19.343872070312,-2.8778076171875,-15.650268554688
0.0665,17.502075195312,1.3663330078125,-18.052612304688
0.067,15.299926757812,4.5294189453125,-19.093627929688
0.0675,12.977661132812,7.6524658203125,-19.894409179688
0.068,9.6544189453125,10.735473632812,-19.894409179688
0.0685,4.9298095703125,14.379028320312,-18.973510742188
0.069,0.7257080078125,17.061645507812,-17.612182617188
0.0695,-3.3983154296875,18.863403320312,-15.570190429688
0.07,-6.4012451171875,19.544067382812,-13.488159179688
0.0705,-9.6444091796875,19.704223632812,-10.565307617188
0.071,-12.807495117188,19.504028320312,-7.4022216796875
0.0715,-16.090698242188,18.543090820312,-3.2381591796875
0.072,-18.573120117188,16.581176757812,1.2061767578125
0.0725,-19.814331054688,14.459106445312,4.3692626953125
0.073,-20.494995117188,12.096801757812,7.5323486328125
0.0735,-20.494995117188,8.8135986328125,10.735473632812
0.074,-20.014526367188,4.8497314453125,14.178833007812
0.0745,-19.093627929688,1.2061767578125,16.981567382812
0.075,-17.131713867188,-2.9178466796875,19.183715820312
0.0755,-14.809448242188,-6.0408935546875,19.904418945312
0.076,-12.046752929688,-9.0838623046875,20.344848632812
0.0765,-8.4832763671875,-12.447143554688,20.304809570312
0.077,-3.6785888671875,-15.850463867188,19.063598632812
0.0775,0.9659423828125,-18.132690429688,17.021606445312
0.078,4.4893798828125,-19.574096679688,15.179809570312
0.0785,7.5723876953125,-20.214721679688,12.857543945312
0.079,10.815551757812,-20.054565429688,9.7344970703125
0.0795,14.218872070312,-19.574096679688,5.9307861328125
0.08,17.301879882812,-18.412963867188,1.8468017578125
0.0805,19.504028320312,-16.290893554688,-2.5574951171875
0.081,20.304809570312,-14.048706054688,-5.5203857421875
0.0815,20.825317382812,-11.326049804688,-8.7635498046875
0.082,20.785278320312,-7.8826904296875,-12.126831054688
0.0825,20.104614257812,-3.8387451171875,-15.450073242188
0.083,18.583129882812,0.2452392578125,-17.972534179688
0.0835,16.621215820312,4.0089111328125,-19.854370117188
0.084,14.098754882812,7.0919189453125,-20.494995117188
0.0845,10.855590820312,10.295043945312,-20.575073242188
0.085,6.7716064453125,13.938598632812,-20.254760742188
0.0855,2.0870361328125,17.101684570312,-18.973510742188
0.086,-2.5975341796875,19.143676757812,-16.611206054688
0.0865,-5.7606201171875,20.104614257812,-14.689331054688
0.087,-8.9637451171875,20.545043945312,-12.126831054688
0.0875,-12.367065429688,20.304809570312,-8.6033935546875
0.088,-15.730346679688,19.504028320312,-4.5594482421875
0.0885,-18.573120117188,17.862426757812,-0.1951904296875
0.089,-20.575073242188,15.660278320312,3.9688720703125
0.0895,-21.095581054688,13.097778320312,6.9718017578125
0.09,-21.335815429688,10.094848632812,10.375122070312
0.0905,-21.135620117188,6.1710205078125,14.018676757812
0.091,-20.334838867188,2.1671142578125,17.221801757812
0.0915,-18.252807617188,-2.1170654296875,19.383911132812
0.092,-16.130737304688,-5.6405029296875,20.865356445312
0.0925,-13.408081054688,-8.8035888671875,21.385864257812
0.093,-9.6444091796875,-12.206909179688,21.145629882812
0.0935,-5.2401123046875,-15.570190429688,20.344848632812
0.094,-0.3153076171875,-18.573120117188,18.623168945312
0.0945,4.1290283203125,-20.334838867188,16.220825195312
0.095,7.1719970703125,-20.815307617188,13.938598632812
0.0955,10.495239257812,-21.135620117188,11.135864257812
0.096,14.218872070312,-20.494995117188,6.9718017578125
0.0965,17.301879882812,-19.534057617188,2.8477783203125
0.097,19.784301757812,-17.492065429688,-1.5965576171875
0.0975,21.385864257812,-15.249877929688,-5.4002685546875
0.098,21.586059570312,-12.327026367188,-8.4832763671875
0.0985,21.746215820312,-9.0037841796875,-11.846557617188
0.099,21.105590820312,-4.9598388671875,-15.329956054688
0.0995,19.984497070312,-0.7957763671875,-18.372924804688
0.1,17.622192382812,3.4083251953125,-20.174682617188
0.1005,15.259887695312,6.6114501953125,-21.095581054688
0.101,12.337036132812,9.8946533203125,-21.576049804688
0.1015,7.8526611328125,13.658325195312,-21.015502929688
0.102,3.6085205078125,16.661254882812,-20.014526367188
0.1025,-1.3162841796875,19.223754882812,-17.892456054688
0.103,-5.3602294921875,20.785278320312,-15.690307617188
0.1035,-8.3231201171875,20.945434570312,-13.047729492188
0.104,-11.526245117188,21.145629882812,-10.244995117188
0.1045,-15.410034179688,20.344848632812,-5.7606201171875
0.105,-18.453002929688,18.903442382812,-1.4364013671875
0.1055,-20.494995117188,16.701293945312,2.8077392578125
0.106,-21.656127929688,14.419067382812,6.3712158203125
0.1065,-21.896362304688,11.416137695312,9.4542236328125
0.107,-21.816284179688,7.6124267578125,13.257934570312
0.1075,-21.095581054688,3.6885986328125,16.340942382812
0.108,-19.574096679688,-0.7156982421875,19.263793945312
0.1085,-17.171752929688,-4.7596435546875,20.985473632812
0.109,-14.489135742188,-7.7625732421875,21.425903320312
0.1095,-11.566284179688,-10.965698242188,21.826293945312
0.11,-6.5213623046875,-15.009643554688,20.985473632812
0.1105,-1.9969482421875,-17.892456054688,19.504028320312
0.111,2.5675048828125,-19.894409179688,17.261840820312
0.1115,6.3311767578125,-21.215698242188,15.099731445312
0.112,9.4542236328125,-21.175659179688,12.136840820312
0.1125,12.817504882812,-21.135620117188,8.8536376953125
0.113,16.461059570312,-20.374877929688,4.6094970703125
0.1135,19.463989257812,-18.493041992188,-0.1951904296875
0.114,21.105590820312,-16.290893554688,-4.1590576171875
0.1145,21.826293945312,-13.648315429688,-7.3221435546875
0.115,22.106567382812,-10.685424804688,-10.565307617188
0.1155,21.706176757812,-6.2410888671875,-14.609252929688
0.116,20.785278320312,-2.5574951171875,-17.371948242188
0.1165,18.863403320312,1.8067626953125,-19.814331054688
0.117,16.501098632812,5.7305908203125,-21.455932617188
0.1175,13.297973632812,8.7735595703125,-21.495971679688
0.118,10.174926757812,12.176879882812,-21.736206054688
0.1185,5.0899658203125,16.060668945312,-20.775268554688
0.119,0.1251220703125,18.943481445312,-18.933471679688
0.1195,-3.9989013671875,20.464965820312,-16.651245117188
0.12,-7.5223388671875,21.505981445312,-14.409057617188
0.1205,-10.845581054688,21.465942382812,-11.245971679688
0.121,-14.529174804688,20.945434570312,-7.1619873046875
0.1215,-17.692260742188,19.984497070312,-3.2781982421875
0.122,-20.494995117188,17.862426757812,1.6065673828125
0.1225,-21.936401367188,15.500122070312,5.4503173828125
0.123,-22.296752929688,12.537231445312,8.7335205078125
0.1235,-22.617065429688,9.5743408203125,12.096801757812
0.124,-21.936401367188,4.6895751953125,16.260864257812
0.1245,-20.615112304688,0.5655517578125,19.103637695312
0.125,-18.412963867188,-3.5584716796875,20.945434570312
0.1255,-16.090698242188,-7.2821044921875,22.426879882812
0.126,-12.487182617188,-10.565307617188,22.266723632812
0.1265,-8.5233154296875,-14.168823242188,22.066528320312
0.127,-3.7987060546875,-17.652221679688,20.985473632812
0.1275,1.7266845703125,-20.334838867188,18.543090820312
0.128,5.5704345703125,-21.576049804688,16.140747070312
0.1285,8.9337158203125,-22.176635742188,13.578247070312
0.129,12.256958007812,-22.216674804688,10.455200195312
0.1295,16.380981445312,-21.135620117188,5.4503173828125
0.13,19.343872070312,-19.734252929688,1.2462158203125
0.1305,21.546020507812,-17.452026367188,-3.2381591796875
0.131,22.747192382812,-14.889526367188,-6.9217529296875
0.1315,22.667114257812,-11.486206054688,-10.325073242188
0.132,22.747192382812,-8.0828857421875,-13.728393554688
0.1325,21.906372070312,-3.5584716796875,-17.452026367188
0.133,20.024536132812,1.1260986328125,-20.254760742188
0.1335,17.462036132812,4.9698486328125,-21.536010742188
0.134,15.019653320312,8.4532470703125,-22.617065429688
0.1345,11.376098632812,11.776489257812,-22.496948242188
0.135,6.2510986328125,15.780395507812,-21.616088867188
0.1355,1.9268798828125,18.663208007812,-20.374877929688
0.136,-3.2781982421875,21.025512695312,-17.812377929688
0.1365,-6.9217529296875,21.906372070312,-15.410034179688
0.137,-10.244995117188,21.986450195312,-12.286987304688
0.1375,-13.448120117188,22.066528320312,-9.2440185546875
0.138,-17.452026367188,20.785278320312,-4.1990966796875
0.1385,-20.294799804688,18.863403320312,0.6055908203125
0.139,-21.856323242188,16.501098632812,4.4493408203125
0.1395,-22.897338867188,13.938598632812,7.9327392578125
0.14,-22.697143554688,10.335083007812,11.376098632812
0.1405,-22.376831054688,6.2110595703125,15.099731445312
0.141,-21.495971679688,2.2471923828125,18.262817382812
0.1415,-19.373901367188,-2.5174560546875,20.945434570312
0.142,-16.651245117188,-6.1610107421875,21.906372070312
0.1425,-13.888549804688,-9.4842529296875,22.466918945312
0.143,-10.525268554688,-12.727416992188,22.466918945312
0.1435,-4.9197998046875,-16.771362304688,21.145629882812
0.144,-0.2752685546875,-19.413940429688,19.343872070312
0.1445,4.1690673828125,-21.215698242188,17.021606445312
0.145,7.6925048828125,-22.096557617188,14.579223632812
0.1455,11.255981445312,-21.776245117188,11.055786132812
0.146,14.579223632812,-21.495971679688,7.5723876953125
0.1465,18.062622070312,-20.414916992188,3.1280517578125
0.147,20.785278320312,-18.092651367188,-1.9569091796875
0.1475,21.906372070312,-15.690307617188,-5.3602294921875
0.148,22.627075195312,-12.967651367188,-8.7635498046875
0.1485,22.546997070312,-9.6043701171875,-12.046752929688
0.149,21.786254882812,-4.9598388671875,-15.970581054688
0.1495,20.625122070312,-0.9959716796875,-18.733276367188
0.15,18.543090820312,3.3282470703125,-20.975463867188
0.1505,15.820434570312,6.9317626953125,-21.936401367188
0.151,12.457153320312,10.255004882812,-22.016479492188
0.1515,8.8936767578125,13.698364257812,-22.056518554688
0.152,3.5684814453125,17.421997070312,-20.695190429688
0.1525,-1.5965576171875,19.904418945312,-18.332885742188
0.153,-5.2000732421875,21.185668945312,-16.250854492188
0.1535,-8.6834716796875,22.066528320312,-13.768432617188
0.154,-12.126831054688,21.706176757812,-10.244995117188
0.1545,-15.850463867188,20.985473632812,-5.9608154296875
0.155,-18.933471679688,19.704223632812,-1.6766357421875
0.1555,-21.375854492188,17.301879882812,3.1280517578125
0.156,-22.176635742188,14.779418945312,6.4112548828125
0.1565,-22.617065429688,11.656372070312,9.9747314453125
0.157,-22.577026367188,8.1729736328125,13.378051757812
0.1575,-21.736206054688,3.5284423828125,17.181762695312
0.158,-19.974487304688,-0.8758544921875,19.824340820312
0.1585,-17.772338867188,-4.7596435546875,21.546020507812
0.159,-15.209838867188,-8.2030029296875,22.466918945312
0.1595,-11.406127929688,-11.566284179688,22.226684570312
0.16,-7.2020263671875,-15.209838867188,21.786254882812
0.1605,-2.1971435546875,-18.573120117188,20.344848632812
0.161,3.1280517578125,-20.855346679688,17.662231445312
0.1615,6.4112548828125,-21.616088867188,15.420043945312
0.162,9.8946533203125,-22.216674804688,12.737426757812
0.1625,13.418090820312,-21.856323242188,9.0137939453125
0.163,17.101684570312,-20.775268554688,4.4493408203125
0.1635,19.944458007812,-19.093627929688,0.0050048828125
0.164,21.986450195312,-16.651245117188,-4.4793701171875
0.1645,22.546997070312,-13.968627929688,-7.7225341796875
0.165,22.667114257812,-10.525268554688,-11.245971679688
0.1655,22.306762695312,-6.6815185546875,-14.769409179688
0.166,21.425903320312,-2.3572998046875,-18.172729492188
0.1665,19.103637695312,2.2872314453125,-20.494995117188
0.167,16.701293945312,5.8106689453125,-21.656127929688
0.1675,13.978637695312,9.2139892578125,-22.456909179688
0.168,9.8946533203125,12.737426757812,-22.016479492188
0.1685,5.1700439453125,16.220825195312,-21.015502929688
0.169,0.4053955078125,19.143676757812,-19.534057617188
0.1695,-4.4393310546875,21.105590820312,-16.851440429688
0.17,-7.5623779296875,21.586059570312,-14.409057617188
0.1705,-11.005737304688,21.786254882812,-11.406127929688
0.171,-14.569213867188,21.305786132812,-7.5223388671875
0.1715,-17.932495117188,20.144653320312,-3.0780029296875
0.172,-20.454956054688,17.942504882812,1.5665283203125
0.1725,-21.936401367188,15.660278320312,5.3302001953125
0.173,-22.456909179688,12.857543945312,8.6134033203125
0.1735,-22.416870117188,9.2139892578125,12.176879882812
0.174,-21.776245117188,5.0899658203125,15.660278320312
0.1745,-20.655151367188,0.9659423828125,18.783325195312
0.175,-18.332885742188,-3.5584716796875,20.905395507812
0.1755,-15.810424804688,-6.7615966796875,21.626098632812
0.176,-13.007690429688,-10.004760742188,22.186645507812
0.1765,-8.6834716796875,-13.728393554688,21.746215820312
0.177,-3.8787841796875,-16.971557617188,20.424926757812
0.1775,0.8858642578125,-19.373901367188,18.342895507812
0.178,4.9698486328125,-21.055541992188,16.180786132812
