wavelength,x,y,z
0.0,-19.904418945312,-0.4053955078125,19.894409179688
0.0005,-17.902465820312,-4.1690673828125,21.616088867188
0.001,-14.459106445312,-9.3741455078125,23.377807617188
0.0015,-10.495239257812,-12.777465820312,22.777221679688
0.002,-6.5714111328125,-16.380981445312,22.536987304688
0.0025,-2.4473876953125,-18.463012695312,20.615112304688
0.003,2.1170654296875,-21.105590820312,18.853393554688
0.0035,6.4412841796875,-22.386840820312,15.890502929688
0.004,10.965698242188,-22.747192382812,11.806518554688
0.0045,15.369995117188,-22.947387695312,8.9237060546875
0.005,17.492065429688,-21.626098632812,4.2791748046875
0.0055,19.854370117188,-20.184692382812,0.4754638671875
0.006,21.415893554688,-18.102661132812,-3.2882080078125
0.0065,22.857299804688,-14.779418945312,-8.1729736328125
0.007,22.016479492188,-10.415161132812,-11.696411132812
0.0075,22.336791992188,-7.3321533203125,-15.139770507812
0.008,20.575073242188,-3.2081298828125,-17.582153320312
0.0085,19.293823242188,1.1561279296875,-20.665161132812
0.009,16.531127929688,5.2801513671875,-22.026489257812
0.0095,12.887573242188,11.526245117188,-23.387817382812
0.01,9.3641357421875,13.488159179688,-23.027465820312
0.0105,4.9598388671875,17.011596679688,-22.186645507812
0.011,0.7957763671875,19.133666992188,-20.144653320312
0.0115,-3.2081298828125,21.415893554688,-18.583129882812
0.012,-8.0528564453125,22.737182617188,-15.139770507812
0.0125,-12.056762695312,22.416870117188,-10.895629882812
0.013,-15.259887695312,22.777221679688,-8.1729736328125
0.0135,-18.302856445312,21.015502929688,-3.3282470703125
0.014,-20.665161132812,19.413940429688,0.6756591796875
0.0145,-21.626098632812,16.811401367188,4.2791748046875
0.015,-22.827270507812,13.247924804688,9.1239013671875
0.0155,-21.946411132812,9.0838623046875,12.487182617188
0.016,-21.906372070312,5.4803466796875,16.050659179688
0.0165,-19.984497070312,1.3162841796875,18.292846679688
0.017,-18.783325195312,-2.8477783203125,21.255737304688
0.0175,-15.420043945312,-7.2921142578125,22.256713867188
0.018,-11.616333007812,-11.736450195312,22.977416992188
0.0185,-8.3731689453125,-14.819458007812,22.857299804688
0.019,-3.2481689453125,-18.102661132812,21.055541992188
0.0195,0.9559326171875,-20.184692382812,19.053588867188
0.02,4.7996826171875,-21.946411132812,17.051635742188
0.0205,9.7645263671875,-23.147583007812,13.408081054688
0.021,13.368041992188,-22.306762695312,9.0037841796875
0.0215,16.611206054688,-22.627075195312,6.1209716796875
0.022,19.333862304688,-19.223754882812,1.3162841796875
0.0225,21.616088867188,-18.863403320312,-2.7276611328125
0.023,22.096557617188,-15.580200195312,-6.5714111328125
0.0235,24.338745117188,-11.896606445312,-11.215942382812
0.024,22.136596679688,-8.1729736328125,-14.138793945312
0.0245,21.455932617188,-4.0089111328125,-17.662231445312
0.025,19.453979492188,0.1951904296875,-19.824340820312
0.0255,17.892456054688,4.3992919921875,-22.466918945312
0.026,13.928588867188,9.2039794921875,-23.227661132812
0.0265,9.7244873046875,13.368041992188,-23.227661132812
0.027,6.8416748046875,16.250854492188,-23.227661132812
0.0275,1.3162841796875,19.293823242188,-20.825317382812
0.028,-2.7677001953125,21.375854492188,-18.983520507812
0.0285,-6.9317626953125,22.577026367188,-16.100708007812
0.029,-11.576293945312,23.658081054688,-12.577270507812
0.0295,-14.899536132812,22.456909179688,-8.1729736328125
0.03,-18.222778320312,22.296752929688,-4.6895751953125
0.0305,-19.223754882812,19.974487304688,1.2762451171875
0.031,-22.587036132812,18.012573242188,4.0789794921875
0.0315,-22.587036132812,14.048706054688,8.0828857421875
0.032,-23.147583007812,11.526245117188,12.527221679688
0.0325,-22.386840820312,6.6815185546875,15.289916992188
0.033,-21.025512695312,1.9168701171875,18.693237304688
0.0335,-19.103637695312,-2.1270751953125,20.775268554688
0.034,-16.781372070312,-6.5313720703125,22.897338867188
0.0345,-13.017700195312,-10.975708007812,23.618041992188
0.035,-8.4932861328125,-14.819458007812,22.937377929688
0.0355,-5.3302001953125,-17.542114257812,22.536987304688
0.036,0.3553466796875,-20.344848632812,19.814331054688
0.0365,4.3192138671875,-22.386840820312,18.012573242188
0.037,8.8035888671875,-22.947387695312,15.369995117188
0.0375,12.927612304688,-23.788208007812,10.885620117188
0.038,16.210815429688,-22.587036132812,6.5213623046875
0.0385,19.413940429688,-20.505004882812,2.5174560546875
0.039,21.415893554688,-19.423950195312,-1.9268798828125
0.0395,23.257690429688,-17.101684570312,-6.1710205078125
0.04,22.857299804688,-12.857543945312,-10.094848632812
0.0405,24.338745117188,-9.1339111328125,-14.138793945312
0.041,22.256713867188,-5.7305908203125,-16.821411132812
0.0415,20.414916992188,-0.6055908203125,-20.064575195312
0.042,18.493041992188,3.4383544921875,-22.066528320312
0.0425,15.089721679688,8.2830810546875,-23.467895507812
0.043,11.606323242188,12.367065429688,-24.108520507812
0.0435,7.0018310546875,16.010620117188,-23.147583007812
0.044,3.3582763671875,18.613159179688,-22.146606445312
0.0445,-1.8868408203125,21.135620117188,-19.624145507812
0.045,-6.0108642578125,23.177612304688,-17.582153320312
0.0455,-10.455200195312,23.097534179688,-13.137817382812
0.046,-14.258911132812,23.658081054688,-9.9747314453125
0.0465,-17.381958007812,22.416870117188,-5.7305908203125
0.047,-20.344848632812,21.095581054688,-1.3262939453125
0.0475,-21.866333007812,18.653198242188,2.7176513671875
0.048,-23.427856445312,15.650268554688,7.2821044921875
0.0485,-22.907348632812,11.406127929688,11.045776367188
0.049,-22.707153320312,7.4022216796875,14.889526367188
0.0495,-20.505004882812,3.9989013671875,17.371948242188
0.05,-19.824340820312,-1.0860595703125,20.535034179688
0.0505,-17.822387695312,-5.0098876953125,22.456909179688
0.051,-13.898559570312,-9.7344970703125,23.257690429688
0.0515,-10.695434570312,-13.458129882812,23.738159179688
0.052,-5.9708251953125,-16.861450195312,22.456909179688
0.0525,-1.6866455078125,-19.383911132812,20.815307617188
0.053,2.7176513671875,-21.465942382812,18.573120117188
0.0535,7.4022216796875,-23.387817382812,15.930541992188
0.054,11.406127929688,-22.827270507812,11.486206054688
0.0545,15.169799804688,-23.267700195312,8.2030029296875
0.055,17.972534179688,-21.946411132812,4.1190185546875
0.0555,20.895385742188,-20.344848632812,-0.5255126953125
0.056,22.056518554688,-17.902465820312,-4.1690673828125
0.0565,23.177612304688,-14.419067382812,-8.8936767578125
0.057,22.897338867188,-10.695434570312,-12.377075195312
0.0575,22.256713867188,-6.4913330078125,-16.020629882812
0.058,21.055541992188,-2.8477783203125,-18.342895507812
0.0585,20.494995117188,1.8367919921875,-21.145629882812
0.059,16.571166992188,7.6824951171875,-21.786254882812
0.0595,12.286987304688,10.845581054688,-23.267700195312
0.06,9.2440185546875,14.369018554688,-23.748168945312
0.0605,4.5194091796875,17.532104492188,-22.226684570312
0.061,0.0350341796875,20.134643554688,-20.424926757812
0.0615,-3.7286376953125,21.696166992188,-18.342895507812
0.062,-7.6925048828125,23.537963867188,-15.059692382812
0.0625,-12.537231445312,22.737182617188,-10.775512695312
0.063,-16.340942382812,22.977416992188,-7.2520751953125
0.0635,-18.783325195312,21.375854492188,-3.2081298828125
0.064,-21.465942382812,19.574096679688,1.3162841796875
0.0645,-22.386840820312,16.691284179688,5.1600341796875
0.065,-22.907348632812,12.727416992188,9.7244873046875
0.0655,-22.907348632812,9.3240966796875,13.087768554688
0.066,-21.866333007812,4.8397216796875,16.691284179688
0.0665,-20.424926757812,0.9559326171875,19.173706054688
0.067,-18.743286132812,-3.2081298828125,21.576049804688
0.0675,-15.620239257812,-8.2130126953125,23.417846679688
0.068,-11.175903320312,-12.176879882812,22.977416992188
0.0685,-8.0928955078125,-15.700317382812,23.417846679688
0.069,-3.0880126953125,-18.543090820312,21.255737304688
0.0695,1.5965576171875,-21.225708007812,19.453979492188
0.07,5.2401123046875,-22.306762695312,16.931518554688
0.0705,10.525268554688,-23.788208007812,13.287963867188
0.071,13.768432617188,-22.907348632812,9.2440185546875
0.0715,17.692260742188,-22.787231445312,5.2401123046875
0.072,19.974487304688,-20.945434570312,1.1160888671875
0.0725,22.336791992188,-19.103637695312,-3.2081298828125
0.073,23.097534179688,-15.700317382812,-7.4522705078125
0.0735,24.338745117188,-11.456176757812,-11.816528320312
0.074,24.338745117188,-8.3731689453125,-14.899536132812
0.0745,21.495971679688,-3.3282470703125,-18.342895507812
0.075,19.894409179688,0.8358154296875,-20.905395507812
0.0755,17.732299804688,4.8397216796875,-22.707153320312
0.076,15.369995117188,10.084838867188,-23.067504882812
0.0765,9.4842529296875,13.768432617188,-23.347778320312
0.077,6.1209716796875,17.331909179688,-23.588012695312
0.0775,0.9559326171875,19.854370117188,-21.025512695312
0.078,-3.4884033203125,22.416870117188,-19.303833007812
0.0785,-7.4122314453125,22.977416992188,-16.020629882812
0.079,-12.337036132812,23.978393554688,-12.216918945312
0.0795,-15.339965820312,23.137573242188,-8.4532470703125
0.08,-19.103637695312,22.256713867188,-3.7286376953125
0.0805,-21.105590820312,20.134643554688,0.3553466796875
0.081,-22.827270507812,19.213745117188,4.3192138671875
0.0815,-23.387817382812,15.369995117188,8.7635498046875
0.082,-22.827270507812,9.6444091796875,14.088745117188
0.0825,-22.947387695312,6.6414794921875,15.930541992188
0.083,-20.785278320312,1.4764404296875,18.933471679688
0.0835,-19.343872070312,-2.6075439453125,21.576049804688
0.084,-16.541137695312,-6.5313720703125,22.657104492188
0.0845,-13.097778320312,-11.416137695312,24.138549804688
0.085,-8.5333251953125,-14.699340820312,22.897338867188
0.0855,-4.5694580078125,-18.222778320312,22.456909179688
0.086,0.3953857421875,-20.264770507812,19.694213867188
0.0865,4.3592529296875,-22.587036132812,18.172729492188
0.087,8.6834716796875,-22.907348632812,14.208862304688
0.0875,13.007690429688,-23.267700195312,10.325073242188
0.088,15.970581054688,-22.947387695312,7.0819091796875
0.0885,19.373901367188,-21.505981445312,2.1571044921875
0.089,21.295776367188,-19.463989257812,-1.8468017578125
0.0895,22.496948242188,-16.981567382812,-5.6104736328125
0.09,23.177612304688,-13.177856445312,-10.054809570312
0.0905,22.296752929688,-8.8135986328125,-13.618286132812
0.091,22.256713867188,-5.6905517578125,-16.781372070312
0.0915,19.974487304688,-0.7657470703125,-19.383911132812
0.092,18.773315429688,3.1981201171875,-22.106567382812
0.0925,15.009643554688,7.5223388671875,-22.627075195312
0.093,11.566284179688,12.126831054688,-23.788208007812
0.0935,7.6024169921875,15.209838867188,-22.987426757812
0.094,3.1180419921875,18.573120117188,-21.826293945312
0.0945,-1.4063720703125,20.535034179688,-19.423950195312
0.095,-5.4102783203125,22.577026367188,-17.662231445312
0.0955,-9.8946533203125,22.977416992188,-13.618286132812
0.096,-13.818481445312,22.777221679688,-9.5743408203125
0.0965,-16.781372070312,22.617065429688,-6.5313720703125
0.097,-19.824340820312,20.695190429688,-1.4864501953125
0.0975,-21.706176757812,18.693237304688,2.3973388671875
0.098,-22.426879882812,15.570190429688,6.3612060546875
0.0985,-23.107543945312,11.886596679688,10.805541992188
0.099,-22.106567382812,7.5623779296875,14.128784179688
0.0995,-20.505004882812,3.9989013671875,17.452026367188
0.1,-19.544067382812,-0.8057861328125,19.974487304688
0.1005,-18.142700195312,-4.8497314453125,22.657104492188
0.101,-13.978637695312,-9.1739501953125,22.777221679688
0.1015,-10.375122070312,-13.458129882812,23.457885742188
0.102,-6.6114501953125,-16.461059570312,22.697143554688
0.1025,-1.3663330078125,-19.704223632812,20.815307617188
0.103,2.8377685546875,-21.505981445312,18.533081054688
0.1035,7.3621826171875,-23.227661132812,15.810424804688
0.104,11.486206054688,-23.427856445312,12.006713867188
0.1045,16.651245117188,-22.987426757812,8.9637451171875
0.105,18.292846679688,-22.506958007812,4.2391357421875
0.1055,21.135620117188,-20.384887695312,-0.8057861328125
0.106,22.897338867188,-18.102661132812,-4.8096923828125
0.1065,23.017456054688,-12.817504882812,-7.6925048828125
0.107,23.618041992188,-10.695434570312,-13.017700195312
0.1075,22.416870117188,-6.2911376953125,-16.300903320312
0.108,21.415893554688,-2.1270751953125,-19.463989257812
0.1085,19.173706054688,2.4774169921875,-21.746215820312
0.109,16.771362304688,7.2821044921875,-24.148559570312
0.1095,12.286987304688,11.446166992188,-23.868286132812
0.11,8.4432373046875,15.490112304688,-24.068481445312
0.1105,4.5194091796875,18.292846679688,-22.947387695312
0.111,-1.0460205078125,21.455932617188,-20.705200195312
0.1115,-4.9698486328125,22.977416992188,-18.422973632812
0.112,-10.054809570312,24.258666992188,-14.699340820312
0.1125,-13.698364257812,24.098510742188,-11.055786132812
0.113,-17.542114257812,23.217651367188,-6.3712158203125
0.1135,-20.304809570312,22.096557617188,-2.4874267578125
0.114,-22.627075195312,19.774291992188,2.3172607421875
0.1145,-24.228637695312,16.971557617188,6.7215576171875
0.115,-23.668090820312,12.286987304688,10.885620117188
0.1155,-24.068481445312,10.244995117188,14.729370117188
0.116,-22.546997070312,4.3192138671875,19.213745117188
0.1165,-21.105590820312,-0.4053955078125,21.095581054688
0.117,-18.783325195312,-4.5294189453125,22.897338867188
0.1175,-15.660278320312,-9.7745361328125,24.979370117188
0.118,-11.175903320312,-13.458129882812,24.258666992188
0.1185,-7.0518798828125,-17.381958007812,24.058471679688
0.119,-2.5274658203125,-19.904418945312,22.096557617188
0.1195,2.8377685546875,-22.787231445312,19.854370117188
0.12,6.9617919921875,-24.068481445312,17.051635742188
0.1205,12.046752929688,-24.669067382812,12.647338867188
0.121,16.651245117188,-24.508911132812,9.2440185546875
0.1215,19.253784179688,-23.347778320312,4.1190185546875
0.122,23.057495117188,-21.666137695312,1.2762451171875
0.1225,23.537963867188,-19.183715820312,-4.2491455078125
0.123,24.979370117188,-15.900512695312,-9.1339111328125
0.1235,23.898315429688,-11.015747070312,-12.977661132812
0.124,24.138549804688,-7.7325439453125,-16.581176757812
0.1245,22.216674804688,-2.8878173828125,-19.504028320312
0.125,20.535034179688,1.9168701171875,-22.627075195312
0.1255,17.812377929688,6.0008544921875,-23.908325195312
0.126,13.928588867188,11.486206054688,-25.509887695312
0.1265,9.6444091796875,14.849487304688,-24.629028320312
0.127,5.0799560546875,18.853393554688,-24.068481445312
0.1275,0.5155029296875,21.015502929688,-21.746215820312
0.128,-4.2091064453125,23.537963867188,-19.704223632812
0.1285,-8.8135986328125,24.619018554688,-16.300903320312
0.129,-13.458129882812,24.578979492188,-11.656372070312
0.1295,-15.380004882812,24.458862304688,-8.5333251953125
0.13,-20.344848632812,22.777221679688,-3.0880126953125
0.1305,-22.707153320312,20.975463867188,1.1561279296875
0.131,-23.788208007812,18.252807617188,5.0399169921875
0.1315,-25.069458007812,14.449096679688,10.204956054688
0.132,-23.788208007812,9.6043701171875,13.808471679688
0.1325,-23.868286132812,6.0008544921875,17.492065429688
0.133,-21.666137695312,1.2362060546875,20.134643554688
0.1335,-20.144653320312,-3.4083251953125,23.177612304688
0.134,-16.821411132812,-7.6524658203125,24.138549804688
0.1345,-12.777465820312,-11.536254882812,25.219604492188
0.135,-8.8536376953125,-15.980590820312,24.418823242188
0.1355,-3.6885986328125,-19.824340820312,23.177612304688
0.136,1.1160888671875,-21.866333007812,20.575073242188
0.1365,5.2401123046875,-24.028442382812,18.653198242188
0.137,10.325073242188,-25.029418945312,14.689331054688
0.1375,14.529174804688,-24.388793945312,9.8846435546875
0.138,17.852416992188,-24.468872070312,6.7615966796875
0.1385,21.175659179688,-22.306762695312,1.2362060546875
0.139,23.537963867188,-20.344848632812,-3.1280517578125
0.1395,24.138549804688,-17.261840820312,-6.8516845703125
0.14,25.219604492188,-13.338012695312,-11.976684570312
0.1405,23.898315429688,-8.7335205078125,-15.339965820312
0.141,23.537963867188,-4.6094970703125,-19.103637695312
0.1415,21.055541992188,0.2752685546875,-21.465942382812
0.142,19.534057617188,4.7196044921875,-24.388793945312
0.1425,16.651245117188,9.4041748046875,-24.869262695312
0.143,11.085815429688,14.248901367188,-25.429809570312
0.1435,7.3621826171875,17.371948242188,-24.909301757812
0.144,1.6766357421875,21.015502929688,-22.907348632812
0.1445,-3.0880126953125,23.017456054688,-20.344848632812
0.145,-7.1319580078125,24.659057617188,-18.022583007812
0.1455,-12.216918945312,25.539916992188,-13.898559570312
0.146,-16.060668945312,25.619995117188,-8.9337158203125
0.1465,-19.504028320312,25.619995117188,-5.4903564453125
0.147,-22.426879882812,21.736206054688,0.1151123046875
0.1475,-24.588989257812,19.614135742188,4.4393310546875
0.148,-24.629028320312,15.650268554688,8.4832763671875
0.1485,-25.389770507812,11.646362304688,13.328002929688
0.149,-24.028442382812,7.0819091796875,16.531127929688
0.1495,-23.147583007812,2.5174560546875,20.334838867188
0.15,-19.223754882812,-2.4473876953125,22.536987304688
0.1505,-18.743286132812,-6.8116455078125,25.219604492188
0.151,-14.178833007812,-11.496215820312,25.299682617188
0.1515,-9.6544189453125,-15.900512695312,25.099487304688
0.152,-6.0509033203125,-18.823364257812,24.498901367188
0.1525,0.2352294921875,-22.266723632812,23.057495117188
0.153,4.6795654296875,-24.148559570312,19.333862304688
0.1535,9.2440185546875,-25.269653320312,15.890502929688
0.154,13.808471679688,-25.790161132812,12.126831054688
0.1545,17.492065429688,-23.067504882812,7.0018310546875
0.155,20.855346679688,-23.868286132812,3.1580810546875
0.1555,23.417846679688,-21.145629882812,-2.2071533203125
0.156,25.339721679688,-18.783325195312,-6.5714111328125
0.1565,24.859252929688,-14.178833007812,-10.735473632812
0.157,25.419799804688,-10.335083007812,-15.179809570312
0.1575,23.938354492188,-6.0509033203125,-18.102661132812
0.158,22.456909179688,-1.0059814453125,-21.706176757812
0.1585,19.894409179688,3.7186279296875,-23.708129882812
0.159,17.131713867188,8.6033935546875,-25.830200195312
0.1595,12.647338867188,13.047729492188,-25.830200195312
0.16,7.8426513671875,17.171752929688,-25.149536132812
0.1605,4.1990966796875,19.854370117188,-23.067504882812
0.161,-1.9669189453125,23.017456054688,-21.505981445312
0.1615,-6.2110595703125,24.819213867188,-19.103637695312
0.162,-11.095825195312,25.299682617188,-14.699340820312
0.1625,-15.139770507812,25.780151367188,-11.255981445312
0.163,-18.703247070312,24.218627929688,-6.2110595703125
0.1635,-21.826293945312,23.097534179688,-1.9669189453125
0.164,-23.948364257812,20.334838867188,3.0780029296875
0.1645,-25.710083007812,17.572143554688,8.9637451171875
0.165,-24.749145507812,12.607299804688,11.766479492188
0.1655,-25.029418945312,8.6834716796875,15.970581054688
0.166,-23.708129882812,4.5594482421875,18.773315429688
0.1665,-21.826293945312,-0.8458251953125,22.296752929688
0.167,-19.383911132812,-5.1700439453125,24.178588867188
0.1675,-15.780395507812,-10.335083007812,25.700073242188
0.168,-11.696411132812,-14.258911132812,26.901245117188
0.1685,-6.7315673828125,-18.262817382812,24.578979492188
0.169,-2.6075439453125,-20.785278320312,23.017456054688
0.1695,3.1180419921875,-23.588012695312,20.294799804688
0.17,7.6424560546875,-25.349731445312,17.652221679688
0.1705,12.487182617188,-25.149536132812,12.767456054688
0.171,16.130737304688,-25.469848632812,9.5242919921875
0.1715,19.574096679688,-23.868286132812,4.4793701171875
0.172,22.617065429688,-22.386840820312,-0.1651611328125
0.1725,24.218627929688,-19.584106445312,-4.6094970703125
0.173,25.900268554688,-16.340942382812,-9.6143798828125
0.1735,24.739135742188,-11.496215820312,-13.378051757812
0.174,24.619018554688,-7.4923095703125,-17.341918945312
0.1745,24.338745117188,-3.3682861328125,-19.864379882812
0.175,21.095581054688,2.0369873046875,-23.307739257812
0.1755,18.292846679688,6.5213623046875,-24.949340820312
0.176,13.968627929688,11.806518554688,-25.910278320312
0.1765,10.285034179688,16.651245117188,-25.790161132812
0.177,5.0799560546875,20.494995117188,-24.468872070312
0.1775,0.5955810546875,21.616088867188,-22.506958007812
0.178,-4.3692626953125,24.018432617188,-20.064575195312
