wavelength,x,y,z
0.0,3.533447265625,-2.112060546875,-1.311279296875
0.0005,3.413330078125,-1.631591796875,-1.711669921875
0.001,3.493408203125,-1.071044921875,-2.392333984375
0.0015,3.213134765625,-0.310302734375,-2.872802734375
0.002,3.012939453125,0.410400390625,-3.353271484375
0.0025,2.492431640625,1.211181640625,-3.593505859375
0.003,1.971923828125,1.731689453125,-3.713623046875
0.0035,1.211181640625,2.252197265625,-3.433349609375
0.004,0.610595703125,2.852783203125,-3.473388671875
0.0045,-0.150146484375,3.213134765625,-3.072998046875
0.005,-0.830810546875,3.533447265625,-2.752685546875
0.0055,-1.591552734375,3.773681640625,-2.272216796875
0.006,-1.911865234375,3.573486328125,-1.791748046875
0.0065,-2.432373046875,3.573486328125,-1.271240234375
0.007,-2.752685546875,3.213134765625,-0.630615234375
0.0075,-3.153076171875,2.852783203125,0.130126953125
0.008,-3.353271484375,2.212158203125,0.970947265625
0.0085,-3.513427734375,1.771728515625,1.531494140625
0.009,-3.193115234375,1.010986328125,1.931884765625
0.0095,-3.313232421875,0.530517578125,2.532470703125
0.01,-2.872802734375,-0.230224609375,2.932861328125
0.0105,-2.592529296875,-0.910888671875,3.333251953125
0.011,-1.991943359375,-1.671630859375,3.573486328125
0.0115,-1.351318359375,-2.112060546875,3.413330078125
0.012,-0.670654296875,-2.672607421875,3.293212890625
0.0125,0.010009765625,-3.193115234375,3.133056640625
0.013,0.690673828125,-3.513427734375,2.732666015625
0.0135,1.411376953125,-3.793701171875,2.372314453125
0.014,2.052001953125,-3.913818359375,1.931884765625
0.0145,2.252197265625,-3.593505859375,1.411376953125
0.015,2.812744140625,-3.713623046875,0.970947265625
0.0155,3.052978515625,-3.072998046875,0.130126953125
0.016,3.373291015625,-2.712646484375,-0.510498046875
0.0165,3.533447265625,-2.072021484375,-1.351318359375
0.017,3.573486328125,-1.631591796875,-1.831787109375
0.0175,3.333251953125,-0.990966796875,-2.312255859375
0.018,3.333251953125,-0.390380859375,-2.832763671875
0.0185,2.932861328125,0.370361328125,-3.193115234375
0.019,2.572509765625,1.051025390625,-3.553466796875
0.0195,2.052001953125,1.731689453125,-3.753662109375
0.02,1.331298828125,2.092041015625,-3.433349609375
0.0205,0.730712890625,2.732666015625,-3.473388671875
0.021,0.010009765625,3.173095703125,-3.153076171875
0.0215,-0.630615234375,3.453369140625,-2.872802734375
0.022,-1.351318359375,3.693603515625,-2.352294921875
0.0225,-1.791748046875,3.693603515625,-1.991943359375
0.023,-2.112060546875,3.413330078125,-1.431396484375
0.0235,-2.632568359375,3.493408203125,-0.990966796875
0.024,-2.872802734375,2.892822265625,-0.150146484375
0.0245,-3.233154296875,2.532470703125,0.450439453125
0.025,-3.433349609375,1.931884765625,1.291259765625
0.0255,-3.353271484375,1.451416015625,1.611572265625
0.026,-3.233154296875,0.810791015625,2.252197265625
0.0265,-3.072998046875,0.170166015625,2.732666015625
0.027,-2.752685546875,-0.550537109375,3.173095703125
0.0275,-2.312255859375,-1.271240234375,3.453369140625
0.028,-1.791748046875,-1.871826171875,3.533447265625
0.0285,-1.031005859375,-2.272216796875,3.213134765625
0.029,-0.470458984375,-2.952880859375,3.373291015625
0.0295,0.370361328125,-3.353271484375,2.892822265625
0.03,0.970947265625,-3.713623046875,2.692626953125
0.0305,1.691650390625,-3.913818359375,2.212158203125
0.031,2.052001953125,-3.793701171875,1.771728515625
0.0315,2.532470703125,-3.633544921875,1.211181640625
0.032,2.972900390625,-3.473388671875,0.610595703125
0.0325,3.213134765625,-2.912841796875,-0.270263671875
0.033,3.533447265625,-2.472412109375,-0.990966796875
0.0335,3.693603515625,-1.911865234375,-1.751708984375
0.034,3.453369140625,-1.191162109375,-2.112060546875
0.0345,3.533447265625,-0.630615234375,-2.792724609375
0.035,3.133056640625,0.130126953125,-3.193115234375
0.0355,2.812744140625,0.850830078125,-3.553466796875
0.036,2.252197265625,1.611572265625,-3.793701171875
0.0365,1.571533203125,2.172119140625,-3.753662109375
0.037,0.810791015625,2.612548828125,-3.393310546875
0.0375,0.170166015625,3.213134765625,-3.393310546875
0.038,-0.670654296875,3.493408203125,-2.832763671875
0.0385,-1.271240234375,3.773681640625,-2.552490234375
0.039,-1.951904296875,3.893798828125,-1.991943359375
0.0395,-2.272216796875,3.613525390625,-1.431396484375
0.04,-2.792724609375,3.573486328125,-0.910888671875
0.0405,-3.113037109375,3.052978515625,-0.150146484375
0.041,-3.353271484375,2.532470703125,0.610595703125
0.0415,-3.593505859375,1.931884765625,1.331298828125
0.042,-3.593505859375,1.411376953125,1.971923828125
0.0425,-3.233154296875,0.650634765625,2.412353515625
0.043,-3.353271484375,0.130126953125,3.012939453125
0.0435,-2.712646484375,-0.790771484375,3.333251953125
0.044,-2.352294921875,-1.431396484375,3.653564453125
0.0445,-1.671630859375,-2.192138671875,3.773681640625
0.045,-0.950927734375,-2.632568359375,3.533447265625
0.0455,-0.230224609375,-3.153076171875,3.333251953125
0.046,0.530517578125,-3.673583984375,3.093017578125
0.0465,1.371337890625,-3.873779296875,2.532470703125
0.047,1.931884765625,-4.073974609375,2.172119140625
0.0475,2.532470703125,-4.114013671875,1.611572265625
0.048,2.812744140625,-3.673583984375,0.930908203125
0.0485,3.333251953125,-3.673583984375,0.410400390625
0.049,3.533447265625,-2.912841796875,-0.590576171875
0.0495,3.813720703125,-2.472412109375,-1.271240234375
0.05,3.853759765625,-1.711669921875,-1.991943359375
0.0505,3.773681640625,-1.071044921875,-2.552490234375
0.051,3.453369140625,-0.350341796875,-2.952880859375
0.0515,3.373291015625,0.250244140625,-3.553466796875
0.052,2.692626953125,1.251220703125,-3.833740234375
0.0525,2.252197265625,1.851806640625,-4.033935546875
0.053,1.531494140625,2.572509765625,-4.033935546875
0.0535,0.650634765625,2.972900390625,-3.593505859375
0.054,0.010009765625,3.533447265625,-3.513427734375
0.0545,-0.950927734375,3.853759765625,-2.952880859375
0.055,-1.671630859375,4.013916015625,-2.432373046875
0.0555,-2.272216796875,4.093994140625,-1.951904296875
0.056,-2.752685546875,3.973876953125,-1.351318359375
0.0565,-3.032958984375,3.493408203125,-0.630615234375
0.057,-3.553466796875,3.453369140625,-0.070068359375
0.0575,-3.713623046875,2.452392578125,0.970947265625
0.058,-3.873779296875,2.052001953125,1.611572265625
0.0585,-3.873779296875,1.291259765625,2.372314453125
0.059,-3.553466796875,0.610595703125,2.852783203125
0.0595,-3.313232421875,-0.150146484375,3.253173828125
0.06,-2.952880859375,-0.910888671875,3.733642578125
0.0605,-2.272216796875,-1.871826171875,3.973876953125
0.061,-1.671630859375,-2.432373046875,3.973876953125
0.0615,-0.910888671875,-3.072998046875,3.933837890625
0.062,-0.030029296875,-3.473388671875,3.453369140625
0.0625,0.610595703125,-3.993896484375,3.333251953125
0.063,1.731689453125,-4.234130859375,2.532470703125
0.0635,2.372314453125,-4.394287109375,2.052001953125
0.064,2.852783203125,-4.274169921875,1.491455078125
0.0645,3.333251953125,-4.114013671875,0.810791015625
0.065,3.533447265625,-3.593505859375,0.130126953125
0.0655,3.973876953125,-3.353271484375,-0.590576171875
0.066,4.013916015625,-2.272216796875,-1.631591796875
0.0665,4.134033203125,-1.791748046875,-2.232177734375
0.067,4.013916015625,-0.990966796875,-2.912841796875
0.0675,3.653564453125,-0.190185546875,-3.313232421875
0.068,3.453369140625,0.450439453125,-3.753662109375
0.0685,2.852783203125,1.331298828125,-4.114013671875
0.069,2.252197265625,2.172119140625,-4.314208984375
0.0695,1.531494140625,2.692626953125,-4.154052734375
0.07,0.730712890625,3.293212890625,-3.993896484375
0.0705,-0.150146484375,3.573486328125,-3.473388671875
0.071,-0.790771484375,4.134033203125,-3.353271484375
0.0715,-1.871826171875,4.174072265625,-2.392333984375
0.072,-2.352294921875,4.294189453125,-1.991943359375
0.0725,-2.832763671875,4.053955078125,-1.351318359375
0.073,-3.193115234375,3.773681640625,-0.710693359375
0.0735,-3.513427734375,3.333251953125,-0.030029296875
0.074,-3.833740234375,2.892822265625,0.730712890625
0.0745,-3.913818359375,2.052001953125,1.651611328125
0.075,-3.913818359375,1.571533203125,2.172119140625
0.0755,-3.833740234375,0.770751953125,2.852783203125
0.076,-3.353271484375,0.010009765625,3.133056640625
0.0765,-3.193115234375,-0.630615234375,3.693603515625
0.077,-2.432373046875,-1.591552734375,3.853759765625
0.0775,-1.951904296875,-2.272216796875,4.093994140625
0.078,-1.151123046875,-2.752685546875,3.853759765625
0.0785,-0.470458984375,-3.313232421875,3.693603515625
0.079,0.370361328125,-3.673583984375,3.213134765625
0.0795,1.051025390625,-4.154052734375,3.052978515625
0.08,2.052001953125,-4.194091796875,2.212158203125
0.0805,2.412353515625,-4.314208984375,1.931884765625
0.081,2.932861328125,-4.154052734375,1.211181640625
0.0815,3.253173828125,-3.793701171875,0.570556640625
0.082,3.653564453125,-3.473388671875,-0.070068359375
0.0825,3.853759765625,-2.712646484375,-0.990966796875
0.083,4.053955078125,-2.112060546875,-1.791748046875
0.0835,3.973876953125,-1.551513671875,-2.272216796875
0.084,3.853759765625,-0.790771484375,-2.912841796875
0.0845,3.453369140625,-0.030029296875,-3.273193359375
0.085,3.333251953125,0.610595703125,-3.833740234375
0.0855,2.532470703125,1.611572265625,-4.033935546875
0.086,2.092041015625,2.172119140625,-4.194091796875
0.0865,1.251220703125,2.732666015625,-3.953857421875
0.087,0.490478515625,3.253173828125,-3.713623046875
0.0875,-0.310302734375,3.653564453125,-3.353271484375
0.088,-1.031005859375,3.973876953125,-2.952880859375
0.0885,-1.951904296875,4.134033203125,-2.272216796875
0.089,-2.272216796875,4.053955078125,-1.911865234375
0.0895,-2.872802734375,3.893798828125,-1.231201171875
0.09,-3.153076171875,3.533447265625,-0.510498046875
0.0905,-3.633544921875,3.293212890625,0.130126953125
0.091,-3.713623046875,2.372314453125,1.171142578125
0.0915,-3.993896484375,1.931884765625,1.851806640625
0.092,-3.713623046875,1.211181640625,2.332275390625
0.0925,-3.593505859375,0.530517578125,2.892822265625
0.093,-3.193115234375,-0.270263671875,3.333251953125
0.0935,-2.912841796875,-0.990966796875,3.773681640625
0.094,-2.152099609375,-1.951904296875,3.973876953125
0.0945,-1.591552734375,-2.432373046875,3.933837890625
0.095,-0.750732421875,-3.072998046875,3.733642578125
0.0955,0.010009765625,-3.553466796875,3.453369140625
0.096,0.770751953125,-3.953857421875,3.173095703125
0.0965,1.611572265625,-4.194091796875,2.532470703125
0.097,2.372314453125,-4.394287109375,1.971923828125
0.0975,2.652587890625,-4.114013671875,1.451416015625
0.098,3.173095703125,-3.993896484375,0.890869140625
0.0985,3.413330078125,-3.433349609375,0.090087890625
0.099,3.853759765625,-3.193115234375,-0.550537109375
0.0995,3.933837890625,-2.192138671875,-1.631591796875
0.1,4.093994140625,-1.751708984375,-2.192138671875
0.1005,3.773681640625,-0.910888671875,-2.712646484375
0.101,3.653564453125,-0.310302734375,-3.193115234375
0.1015,3.253173828125,0.490478515625,-3.633544921875
0.102,2.852783203125,1.211181640625,-3.953857421875
0.1025,2.212158203125,2.092041015625,-4.194091796875
0.103,1.531494140625,2.532470703125,-3.993896484375
0.1035,0.690673828125,3.173095703125,-3.833740234375
0.104,-0.110107421875,3.493408203125,-3.393310546875
0.1045,-0.790771484375,3.893798828125,-3.193115234375
0.105,-1.671630859375,4.013916015625,-2.432373046875
0.1055,-2.272216796875,4.134033203125,-2.031982421875
0.106,-2.592529296875,3.813720703125,-1.351318359375
0.1065,-3.072998046875,3.773681640625,-0.790771484375
0.107,-3.353271484375,3.173095703125,0.010009765625
0.1075,-3.713623046875,2.852783203125,0.650634765625
0.108,-3.833740234375,1.931884765625,1.651611328125
0.1085,-3.793701171875,1.571533203125,2.052001953125
0.109,-3.553466796875,0.730712890625,2.692626953125
0.1095,-3.273193359375,0.050048828125,3.052978515625
0.11,-3.032958984375,-0.670654296875,3.533447265625
0.1105,-2.432373046875,-1.471435546875,3.773681640625
0.111,-1.911865234375,-2.192138671875,3.973876953125
0.1115,-1.111083984375,-2.592529296875,3.653564453125
0.112,-0.430419921875,-3.233154296875,3.653564453125
0.1125,0.370361328125,-3.593505859375,3.133056640625
0.113,1.010986328125,-4.033935546875,2.932861328125
0.1135,1.971923828125,-4.194091796875,2.172119140625
0.114,2.412353515625,-4.194091796875,1.851806640625
0.1145,2.812744140625,-3.873779296875,1.171142578125
0.115,3.173095703125,-3.713623046875,0.610595703125
0.1155,3.493408203125,-3.193115234375,-0.150146484375
0.116,3.773681640625,-2.672607421875,-0.950927734375
0.1165,3.933837890625,-1.991943359375,-1.831787109375
0.117,3.773681640625,-1.431396484375,-2.232177734375
0.1175,3.693603515625,-0.710693359375,-2.832763671875
0.118,3.333251953125,0.010009765625,-3.193115234375
0.1185,3.133056640625,0.690673828125,-3.713623046875
0.119,2.412353515625,1.531494140625,-3.873779296875
0.1195,1.971923828125,2.092041015625,-3.993896484375
0.12,1.091064453125,2.532470703125,-3.633544921875
0.1205,0.490478515625,3.133056640625,-3.593505859375
0.121,-0.310302734375,3.453369140625,-3.193115234375
0.1215,-0.990966796875,3.733642578125,-2.872802734375
0.122,-1.791748046875,3.973876953125,-2.232177734375
0.1225,-2.072021484375,3.813720703125,-1.831787109375
0.123,-2.592529296875,3.693603515625,-1.231201171875
0.1235,-2.872802734375,3.333251953125,-0.630615234375
0.124,-3.273193359375,3.012939453125,0.090087890625
0.1245,-3.433349609375,2.372314453125,0.890869140625
0.125,-3.673583984375,1.931884765625,1.531494140625
0.1255,-3.353271484375,1.291259765625,1.931884765625
0.126,-3.433349609375,0.690673828125,2.532470703125
0.1265,-3.032958984375,-0.070068359375,2.892822265625
0.127,-2.792724609375,-0.710693359375,3.333251953125
0.1275,-2.192138671875,-1.511474609375,3.573486328125
0.128,-1.711669921875,-1.951904296875,3.573486328125
0.1285,-0.990966796875,-2.552490234375,3.413330078125
0.129,-0.310302734375,-3.072998046875,3.253173828125
0.1295,0.370361328125,-3.513427734375,2.972900390625
0.13,1.091064453125,-3.753662109375,2.612548828125
0.1305,1.771728515625,-3.993896484375,2.252197265625
0.131,2.011962890625,-3.793701171875,1.771728515625
0.1315,2.612548828125,-3.833740234375,1.291259765625
0.132,2.892822265625,-3.353271484375,0.530517578125
0.1325,3.333251953125,-3.113037109375,-0.150146484375
0.133,3.533447265625,-2.392333984375,-0.990966796875
0.1335,3.733642578125,-2.072021484375,-1.511474609375
0.134,3.493408203125,-1.311279296875,-2.072021484375
0.1345,3.533447265625,-0.790771484375,-2.592529296875
0.135,3.173095703125,0.050048828125,-3.153076171875
0.1355,2.892822265625,0.690673828125,-3.553466796875
0.136,2.412353515625,1.451416015625,-3.833740234375
0.1365,1.771728515625,1.931884765625,-3.673583984375
0.137,1.051025390625,2.572509765625,-3.673583984375
0.1375,0.290283203125,3.012939453125,-3.353271484375
0.138,-0.350341796875,3.453369140625,-3.113037109375
0.1385,-1.151123046875,3.693603515625,-2.592529296875
0.139,-1.631591796875,3.853759765625,-2.272216796875
0.1395,-1.991943359375,3.573486328125,-1.671630859375
0.14,-2.552490234375,3.653564453125,-1.231201171875
0.1405,-2.872802734375,3.093017578125,-0.350341796875
0.141,-3.233154296875,2.812744140625,0.290283203125
0.1415,-3.473388671875,2.092041015625,1.171142578125
0.142,-3.473388671875,1.731689453125,1.571533203125
0.1425,-3.313232421875,0.970947265625,2.172119140625
0.143,-3.193115234375,0.370361328125,2.652587890625
0.1435,-2.872802734375,-0.390380859375,3.133056640625
0.144,-2.432373046875,-1.151123046875,3.413330078125
0.1445,-1.951904296875,-1.831787109375,3.613525390625
0.145,-1.231201171875,-2.272216796875,3.333251953125
0.1455,-0.630615234375,-2.952880859375,3.373291015625
0.146,0.170166015625,-3.273193359375,3.012939453125
0.1465,0.810791015625,-3.673583984375,2.812744140625
0.147,1.611572265625,-3.873779296875,2.252197265625
0.1475,1.971923828125,-3.873779296875,1.931884765625
0.148,2.372314453125,-3.633544921875,1.291259765625
0.1485,2.812744140625,-3.513427734375,0.770751953125
0.149,3.133056640625,-2.992919921875,0.010009765625
0.1495,3.373291015625,-2.592529296875,-0.710693359375
0.15,3.613525390625,-1.991943359375,-1.471435546875
0.1505,3.413330078125,-1.471435546875,-1.831787109375
0.151,3.493408203125,-0.870849609375,-2.472412109375
0.1515,3.173095703125,-0.150146484375,-2.912841796875
0.152,2.932861328125,0.490478515625,-3.353271484375
0.1525,2.452392578125,1.211181640625,-3.593505859375
0.153,1.971923828125,1.731689453125,-3.673583984375
0.1535,1.171142578125,2.172119140625,-3.433349609375
0.154,0.610595703125,2.812744140625,-3.393310546875
0.1545,-0.150146484375,3.133056640625,-2.992919921875
0.155,-0.710693359375,3.493408203125,-2.792724609375
0.1555,-1.431396484375,3.693603515625,-2.352294921875
0.156,-1.671630859375,3.533447265625,-1.951904296875
0.1565,-2.232177734375,3.533447265625,-1.431396484375
0.157,-2.592529296875,3.213134765625,-0.790771484375
0.1575,-2.952880859375,2.892822265625,-0.070068359375
0.158,-3.233154296875,2.372314453125,0.650634765625
0.1585,-3.433349609375,1.971923828125,1.251220703125
0.159,-3.193115234375,1.331298828125,1.651611328125
0.1595,-3.353271484375,0.850830078125,2.292236328125
0.16,-2.912841796875,0.010009765625,2.772705078125
0.1605,-2.752685546875,-0.630615234375,3.173095703125
0.161,-2.232177734375,-1.391357421875,3.453369140625
0.1615,-1.671630859375,-1.871826171875,3.333251953125
0.162,-0.990966796875,-2.432373046875,3.333251953125
0.1625,-0.310302734375,-2.992919921875,3.213134765625
0.163,0.410400390625,-3.353271484375,2.892822265625
0.1635,1.091064453125,-3.713623046875,2.572509765625
0.164,1.651611328125,-3.873779296875,2.252197265625
0.1645,1.971923828125,-3.633544921875,1.691650390625
0.165,2.572509765625,-3.713623046875,1.251220703125
0.1655,2.852783203125,-3.193115234375,0.370361328125
0.166,3.253173828125,-2.872802734375,-0.270263671875
0.1665,3.493408203125,-2.232177734375,-1.151123046875
0.167,3.573486328125,-1.871826171875,-1.591552734375
0.1675,3.373291015625,-1.151123046875,-2.112060546875
0.168,3.453369140625,-0.590576171875,-2.712646484375
0.1685,3.052978515625,0.170166015625,-3.193115234375
0.169,2.692626953125,0.890869140625,-3.513427734375
0.1695,2.172119140625,1.571533203125,-3.753662109375
0.17,1.411376953125,2.052001953125,-3.473388671875
0.1705,0.810791015625,2.692626953125,-3.553466796875
0.171,0.010009765625,3.093017578125,-3.153076171875
0.1715,-0.590576171875,3.453369140625,-2.872802734375
0.172,-1.311279296875,3.653564453125,-2.392333984375
0.1725,-1.791748046875,3.693603515625,-1.991943359375
0.173,-2.112060546875,3.453369140625,-1.431396484375
0.1735,-2.632568359375,3.453369140625,-0.990966796875
0.174,-2.872802734375,2.852783203125,-0.110107421875
0.1745,-3.193115234375,2.532470703125,0.530517578125
0.175,-3.393310546875,1.931884765625,1.331298828125
0.1755,-3.233154296875,1.411376953125,1.651611328125
0.176,-3.193115234375,0.770751953125,2.252197265625
0.1765,-3.072998046875,0.130126953125,2.692626953125
0.177,-2.672607421875,-0.590576171875,3.052978515625
0.1775,-2.272216796875,-1.271240234375,3.333251953125
0.178,-1.751708984375,-1.791748046875,3.453369140625
0.1785,-0.990966796875,-2.272216796875,3.173095703125
0.179,-0.470458984375,-2.872802734375,3.253173828125
0.1795,0.290283203125,-3.193115234375,2.812744140625
0.18,0.890869140625,-3.553466796875,2.612548828125
0.1805,1.571533203125,-3.793701171875,2.212158203125
0.181,1.891845703125,-3.713623046875,1.851806640625
0.1815,2.292236328125,-3.553466796875,1.291259765625
0.182,2.732666015625,-3.353271484375,0.690673828125
0.1825,3.012939453125,-2.872802734375,-0.030029296875
0.183,3.293212890625,-2.472412109375,-0.710693359375
0.1835,3.493408203125,-1.991943359375,-1.391357421875
0.184,3.293212890625,-1.431396484375,-1.751708984375
0.1845,3.453369140625,-0.950927734375,-2.432373046875
0.185,3.093017578125,-0.190185546875,-2.832763671875
0.1855,2.892822265625,0.450439453125,-3.273193359375
0.186,2.412353515625,1.211181640625,-3.553466796875
0.1865,1.931884765625,1.611572265625,-3.513427734375
0.187,1.171142578125,2.212158203125,-3.353271484375
0.1875,0.610595703125,2.732666015625,-3.353271484375
0.188,-0.110107421875,3.052978515625,-2.952880859375
