wavelength,x,y,z
0.0,-13.803466796875,-10.600341796875,23.352783203125
0.0005,-10.960693359375,-12.922607421875,22.832275390625
0.001,-6.196044921875,-15.965576171875,21.110595703125
0.0015,-1.591552734375,-17.647216796875,18.187744140625
0.002,3.133056640625,-20.530029296875,16.506103515625
0.0025,7.977783203125,-22.652099609375,13.823486328125
0.003,11.260986328125,-23.693115234375,11.581298828125
0.0035,14.584228515625,-22.692138671875,7.417236328125
0.004,16.786376953125,-20.930419921875,3.493408203125
0.0045,19.228759765625,-18.528076171875,-1.391357421875
0.005,21.631103515625,-16.726318359375,-5.555419921875
0.0055,23.192626953125,-13.643310546875,-10.079833984375
0.006,23.032470703125,-10.960693359375,-12.562255859375
0.0065,21.951416015625,-7.076904296875,-15.244873046875
0.007,19.228759765625,-2.432373046875,-17.166748046875
0.0075,17.747314453125,2.172119140625,-20.009521484375
0.008,15.344970703125,6.736572265625,-22.131591796875
0.0085,13.142822265625,10.580322265625,-23.653076171875
0.009,8.978759765625,13.583251953125,-22.291748046875
0.0095,4.494384765625,16.025634765625,-20.329833984375
0.01,-0.830810546875,18.107666015625,-17.246826171875
0.0105,-4.994873046875,20.870361328125,-15.845458984375
0.011,-9.879638671875,22.471923828125,-12.642333984375
0.0115,-12.522216796875,23.032470703125,-10.600341796875
0.012,-15.645263671875,21.711181640625,-6.316162109375
0.0125,-17.927490234375,19.468994140625,-1.791748046875
0.013,-20.409912109375,17.346923828125,2.812744140625
0.0135,-22.451904296875,15.064697265625,7.096923828125
0.014,-23.893310546875,12.742431640625,10.820556640625
0.0145,-23.012451171875,8.658447265625,13.903564453125
0.015,-21.771240234375,5.135009765625,16.065673828125
0.0155,-18.728271484375,-0.190185546875,18.187744140625
0.016,-17.447021484375,-4.514404296875,21.070556640625
0.0165,-14.243896484375,-9.118896484375,22.431884765625
0.017,-12.362060546875,-12.241943359375,23.552978515625
0.0175,-7.477294921875,-15.204833984375,21.551025390625
0.018,-3.072998046875,-17.366943359375,19.348876953125
0.0185,2.132080078125,-19.649169921875,16.586181640625
0.019,6.536376953125,-22.291748046875,14.864501953125
0.0195,10.580322265625,-23.572998046875,12.181884765625
0.02,13.743408203125,-23.052490234375,8.578369140625
0.0205,15.985595703125,-21.971435546875,5.375244140625
0.021,18.548095703125,-19.168701171875,0.050048828125
0.0215,21.070556640625,-17.447021484375,-4.234130859375
0.022,22.271728515625,-14.404052734375,-8.398193359375
0.0225,23.833251953125,-12.802490234375,-11.521240234375
0.023,21.991455078125,-7.917724609375,-14.524169921875
0.0235,20.349853515625,-4.514404296875,-16.606201171875
0.024,17.827392578125,0.850830078125,-18.888427734375
0.0245,16.506103515625,5.415283203125,-21.931396484375
0.025,13.423095703125,9.459228515625,-22.852294921875
0.0255,10.660400390625,12.702392578125,-23.172607421875
0.026,6.296142578125,15.024658203125,-21.130615234375
0.0265,0.770751953125,17.467041015625,-18.127685546875
0.027,-3.353271484375,19.869384765625,-16.285888671875
0.0275,-8.318115234375,21.951416015625,-13.643310546875
0.028,-11.240966796875,23.352783203125,-12.201904296875
0.0285,-14.844482421875,21.631103515625,-6.956787109375
0.029,-16.646240234375,20.710205078125,-4.274169921875
0.0295,-19.368896484375,17.787353515625,1.331298828125
0.03,-22.171630859375,16.626220703125,5.975830078125
0.0305,-22.612060546875,12.742431640625,9.579345703125
0.031,-23.853271484375,10.860595703125,12.542236328125
0.0315,-21.771240234375,6.336181640625,14.944580078125
0.032,-20.009521484375,2.052001953125,17.306884765625
0.0325,-17.687255859375,-2.712646484375,19.589111328125
0.033,-15.565185546875,-7.837646484375,22.511962890625
0.0335,-13.443115234375,-10.840576171875,23.272705078125
0.034,-8.878662109375,-14.524169921875,22.391845703125
0.0345,-5.395263671875,-16.165771484375,20.469970703125
0.035,0.490478515625,-18.888427734375,17.427001953125
0.0355,4.814697265625,-21.490966796875,15.745361328125
0.036,9.779541015625,-22.812255859375,12.181884765625
0.0365,12.261962890625,-24.133544921875,11.100830078125
0.037,15.545166015625,-21.931396484375,5.735595703125
0.0375,17.547119140625,-20.409912109375,2.252197265625
0.038,19.989501953125,-17.927490234375,-2.712646484375
0.0385,22.872314453125,-15.845458984375,-7.677490234375
0.039,22.992431640625,-13.002685546875,-10.560302734375
0.0395,23.352783203125,-9.639404296875,-14.163818359375
0.04,21.270751953125,-5.915771484375,-15.765380859375
0.0405,18.908447265625,-0.710693359375,-18.447998046875
0.041,16.946533203125,3.813720703125,-20.810302734375
0.0415,13.983642578125,9.018798828125,-22.932373046875
0.042,12.502197265625,11.341064453125,-23.653076171875
0.0425,6.856689453125,14.984619140625,-21.531005859375
0.043,3.333251953125,16.426025390625,-19.529052734375
0.0435,-2.312255859375,19.188720703125,-16.806396484375
0.044,-7.076904296875,22.071533203125,-15.044677734375
0.0445,-10.920654296875,22.552001953125,-11.681396484375
0.045,-13.963623046875,23.192626953125,-9.359130859375
0.0455,-16.285888671875,21.030517578125,-4.994873046875
0.046,-18.848388671875,18.868408203125,-0.310302734375
0.0465,-21.050537109375,16.666259765625,4.134033203125
0.047,-23.372802734375,13.823486328125,9.178955078125
0.0475,-23.653076171875,11.821533203125,11.381103515625
0.048,-22.772216796875,7.177001953125,14.984619140625
0.0485,-20.770263671875,3.853759765625,16.345947265625
0.049,-18.447998046875,-1.471435546875,19.188720703125
0.0495,-16.526123046875,-6.276123046875,21.871337890625
0.05,-13.122802734375,-10.800537109375,22.992431640625
0.0505,-11.281005859375,-13.202880859375,23.432861328125
0.051,-5.955810546875,-16.005615234375,20.830322265625
0.0515,-1.671630859375,-17.807373046875,18.427978515625
0.052,3.133056640625,-20.249755859375,16.225830078125
0.0525,8.498291015625,-23.132568359375,13.823486328125
0.053,11.180908203125,-23.372802734375,11.421142578125
0.0535,14.784423828125,-22.852294921875,7.337158203125
0.054,16.426025390625,-20.970458984375,3.893798828125
0.0545,19.228759765625,-18.728271484375,-1.191162109375
0.055,21.551025390625,-16.646240234375,-5.515380859375
0.0555,22.952392578125,-13.403076171875,-10.119873046875
0.056,23.312744140625,-11.521240234375,-12.362060546875
0.0565,21.430908203125,-7.076904296875,-15.164794921875
0.057,19.468994140625,-3.072998046875,-16.766357421875
0.0575,17.667236328125,1.771728515625,-19.489013671875
0.058,15.505126953125,6.976806640625,-22.451904296875
0.0585,12.702392578125,10.260009765625,-22.852294921875
0.059,9.339111328125,13.463134765625,-22.612060546875
0.0595,4.854736328125,15.585205078125,-19.609130859375
0.06,-0.350341796875,17.907470703125,-17.447021484375
0.0605,-4.314208984375,20.029541015625,-15.685302734375
0.061,-9.679443359375,22.391845703125,-12.722412109375
0.0615,-11.801513671875,22.552001953125,-10.880615234375
0.062,-15.244873046875,21.390869140625,-6.316162109375
0.0625,-16.846435546875,19.268798828125,-2.672607421875
0.063,-19.569091796875,17.346923828125,1.971923828125
0.0635,-21.931396484375,15.104736328125,6.536376953125
0.064,-22.932373046875,12.261962890625,10.219970703125
0.0645,-23.012451171875,9.459228515625,13.102783203125
0.065,-21.130615234375,5.375244140625,15.224853515625
0.0655,-18.808349609375,0.970947265625,17.266845703125
0.066,-17.326904296875,-3.353271484375,19.829345703125
0.0665,-14.604248046875,-8.718505859375,22.431884765625
0.067,-12.322021484375,-11.240966796875,22.552001953125
0.0675,-7.957763671875,-14.604248046875,21.470947265625
0.068,-3.993896484375,-16.085693359375,19.028564453125
0.0685,1.131103515625,-18.928466796875,16.866455078125
0.069,5.375244140625,-21.170654296875,14.904541015625
0.0695,9.979736328125,-22.932373046875,12.181884765625
0.07,12.622314453125,-22.732177734375,9.339111328125
0.0705,15.385009765625,-21.490966796875,5.415283203125
0.071,17.427001953125,-19.008544921875,0.930908203125
0.0715,19.989501953125,-17.447021484375,-3.233154296875
0.072,21.871337890625,-14.684326171875,-7.837646484375
0.0725,22.752197265625,-12.362060546875,-10.840576171875
0.073,22.071533203125,-8.598388671875,-13.923583984375
0.0735,20.069580078125,-4.754638671875,-15.685302734375
0.074,17.987548828125,0.050048828125,-18.207763671875
0.0745,16.345947265625,4.334228515625,-20.690185546875
0.075,13.583251953125,9.138916015625,-22.692138671875
0.0755,10.780517578125,11.781494140625,-22.371826171875
0.076,6.416259765625,14.704345703125,-20.810302734375
0.0765,1.771728515625,16.426025390625,-17.927490234375
0.077,-2.832763671875,19.228759765625,-16.406005859375
0.0775,-7.517333984375,21.230712890625,-13.763427734375
0.078,-10.960693359375,22.672119140625,-11.761474609375
0.0785,-14.123779296875,21.631103515625,-7.637451171875
0.079,-16.365966796875,20.229736328125,-4.154052734375
0.0795,-18.728271484375,17.627197265625,0.930908203125
0.08,-21.330810546875,16.065673828125,4.934814453125
0.0805,-22.652099609375,12.982666015625,9.259033203125
0.081,-22.972412109375,10.460205078125,12.101806640625
0.0815,-21.891357421875,6.696533203125,14.704345703125
0.082,-19.368896484375,2.252197265625,16.626220703125
0.0825,-17.767333984375,-2.272216796875,19.228759765625
0.083,-15.324951171875,-7.036865234375,21.470947265625
0.0835,-13.282958984375,-10.760498046875,23.032470703125
0.084,-9.198974609375,-13.723388671875,21.791259765625
0.0845,-5.235107421875,-16.005615234375,20.149658203125
0.085,0.050048828125,-17.967529296875,16.946533203125
0.0855,4.134033203125,-20.770263671875,15.745361328125
0.086,9.018798828125,-22.171630859375,12.382080078125
0.0865,11.781494140625,-23.172607421875,10.620361328125
0.087,14.744384765625,-21.931396484375,6.416259765625
0.0875,16.906494140625,-19.929443359375,2.372314453125
0.088,19.188720703125,-17.727294921875,-2.192138671875
0.0885,21.510986328125,-15.565185546875,-6.556396484375
0.089,22.752197265625,-13.202880859375,-9.999755859375
0.0895,22.231689453125,-8.958740234375,-13.002685546875
0.09,21.030517578125,-6.276123046875,-15.164794921875
0.0905,18.187744140625,-1.271240234375,-17.246826171875
0.091,17.026611328125,2.892822265625,-20.009521484375
0.0915,13.943603515625,7.697509765625,-21.571044921875
0.092,12.302001953125,10.660400390625,-22.892333984375
0.0925,7.537353515625,13.623291015625,-21.010498046875
0.093,3.333251953125,15.785400390625,-18.928466796875
0.0935,-1.511474609375,17.907470703125,-16.365966796875
0.094,-5.755615234375,20.710205078125,-14.884521484375
0.0945,-9.679443359375,21.791259765625,-12.201904296875
0.095,-12.802490234375,21.751220703125,-9.118896484375
0.0955,-15.084716796875,20.710205078125,-5.915771484375
0.096,-17.487060546875,18.187744140625,-1.031005859375
0.0965,-19.889404296875,16.586181640625,3.133056640625
0.097,-21.490966796875,13.703369140625,7.457275390625
0.0975,-23.012451171875,12.221923828125,10.340087890625
0.098,-21.611083984375,7.657470703125,13.463134765625
0.0985,-20.369873046875,4.454345703125,15.425048828125
0.099,-17.807373046875,-0.590576171875,17.667236328125
0.0995,-16.646240234375,-4.994873046875,20.790283203125
0.1,-13.443115234375,-9.158935546875,21.711181640625
0.1005,-11.160888671875,-12.201904296875,22.351806640625
0.101,-6.916748046875,-14.564208984375,20.429931640625
0.1015,-2.312255859375,-16.766357421875,18.027587890625
0.102,2.292236328125,-19.088623046875,15.905517578125
0.1025,7.056884765625,-21.490966796875,13.543212890625
0.103,10.059814453125,-22.852294921875,12.021728515625
0.1035,13.583251953125,-21.611083984375,7.217041015625
0.104,15.344970703125,-20.770263671875,4.654541015625
0.1045,17.907470703125,-18.087646484375,-0.470458984375
0.105,20.630126953125,-16.526123046875,-4.714599609375
0.1055,21.190673828125,-13.202880859375,-8.678466796875
0.106,22.632080078125,-11.641357421875,-11.481201171875
0.1065,20.790283203125,-7.237060546875,-13.963623046875
0.107,19.148681640625,-3.393310546875,-16.045654296875
0.1075,17.026611328125,1.211181640625,-18.367919921875
0.108,15.304931640625,6.095947265625,-21.410888671875
0.1085,13.062744140625,9.138916015625,-22.131591796875
0.109,9.138916015625,12.742431640625,-21.651123046875
0.1095,5.535400390625,14.504150390625,-19.809326171875
0.11,0.250244140625,17.026611328125,-17.166748046875
0.1105,-4.033935546875,19.509033203125,-15.525146484375
0.111,-8.918701171875,21.070556640625,-12.241943359375
0.1115,-11.240966796875,22.471923828125,-11.401123046875
0.112,-14.684326171875,20.550048828125,-6.156005859375
0.1125,-16.526123046875,19.268798828125,-3.032958984375
0.113,-19.008544921875,16.946533203125,1.771728515625
0.1135,-21.811279296875,15.024658203125,6.496337890625
0.114,-22.131591796875,12.181884765625,9.619384765625
0.1145,-22.652099609375,9.218994140625,13.022705078125
0.115,-20.890380859375,5.695556640625,14.744384765625
0.1155,-18.768310546875,0.890869140625,17.306884765625
0.116,-16.966552734375,-3.473388671875,19.669189453125
0.1165,-14.123779296875,-8.678466796875,21.911376953125
0.117,-12.562255859375,-11.120849609375,22.672119140625
0.1175,-7.317138671875,-14.684326171875,20.950439453125
0.118,-4.114013671875,-16.125732421875,19.188720703125
0.1185,1.251220703125,-18.768310546875,16.586181640625
0.119,5.775634765625,-21.531005859375,14.864501953125
0.1195,9.899658203125,-22.291748046875,11.581298828125
0.12,12.782470703125,-22.972412109375,9.379150390625
0.1205,15.224853515625,-21.130615234375,5.215087890625
0.121,17.627197265625,-19.168701171875,0.930908203125
0.1215,19.709228515625,-17.086669921875,-3.233154296875
0.122,21.951416015625,-14.444091796875,-8.077880859375
0.1225,22.351806640625,-12.402099609375,-10.239990234375
0.123,21.711181640625,-7.997802734375,-14.083740234375
0.1235,19.989501953125,-4.954833984375,-15.405029296875
0.124,17.867431640625,0.130126953125,-18.127685546875
0.1245,16.105712890625,4.494384765625,-20.690185546875
0.125,12.942626953125,9.138916015625,-22.051513671875
0.1255,11.220947265625,11.541259765625,-22.612060546875
0.126,6.376220703125,14.464111328125,-20.530029296875
0.1265,1.931884765625,16.305908203125,-18.087646484375
0.127,-2.472412109375,18.668212890625,-16.165771484375
0.1275,-7.597412109375,21.470947265625,-13.883544921875
0.128,-10.520263671875,21.831298828125,-11.521240234375
0.1285,-14.003662109375,21.591064453125,-7.757568359375
0.129,-15.805419921875,19.989501953125,-4.434326171875
0.1295,-18.568115234375,17.787353515625,0.610595703125
0.13,-20.690185546875,15.985595703125,4.494384765625
0.1305,-22.371826171875,12.862548828125,9.138916015625
0.131,-22.812255859375,10.940673828125,11.461181640625
0.1315,-21.410888671875,6.376220703125,14.544189453125
0.132,-19.489013671875,2.732666015625,16.145751953125
0.1325,-17.807373046875,-1.871826171875,18.868408203125
0.133,-15.645263671875,-6.796630859375,21.591064453125
0.1335,-12.802490234375,-10.400146484375,22.271728515625
0.134,-9.719482421875,-13.443115234375,22.151611328125
0.1345,-5.155029296875,-15.685302734375,19.789306640625
0.135,-0.310302734375,-18.007568359375,17.306884765625
0.1355,3.653564453125,-20.169677734375,15.585205078125
0.136,8.938720703125,-22.531982421875,12.742431640625
0.1365,11.461181640625,-22.732177734375,10.500244140625
0.137,14.984619140625,-21.771240234375,6.135986328125
0.1375,16.746337890625,-19.769287109375,2.452392578125
0.138,19.308837890625,-17.887451171875,-2.072021484375
0.1385,21.310791015625,-15.525146484375,-6.236083984375
0.139,22.471923828125,-12.842529296875,-10.159912109375
0.1395,22.431884765625,-9.919677734375,-12.962646484375
0.14,20.670166015625,-5.715576171875,-15.364990234375
0.1405,18.387939453125,-1.351318359375,-17.326904296875
0.141,16.906494140625,2.812744140625,-19.729248046875
0.1415,14.263916015625,7.857666015625,-22.091552734375
0.142,11.461181640625,10.500244140625,-22.371826171875
0.1425,7.577392578125,13.983642578125,-21.330810546875
0.143,3.253173828125,15.785400390625,-18.888427734375
0.1435,-1.751708984375,18.387939453125,-16.646240234375
0.144,-5.755615234375,20.469970703125,-14.764404296875
0.1445,-10.199951171875,22.311767578125,-12.201904296875
0.145,-12.842529296875,21.951416015625,-9.239013671875
0.1455,-15.845458984375,20.830322265625,-5.235107421875
0.146,-17.967529296875,18.307861328125,-0.670654296875
0.1465,-20.449951171875,16.746337890625,3.453369140625
0.147,-21.971435546875,13.903564453125,7.777587890625
0.1475,-23.052490234375,11.701416015625,10.940673828125
0.148,-22.291748046875,7.817626953125,14.023681640625
0.1485,-20.369873046875,3.653564453125,16.145751953125
0.149,-18.207763671875,-1.111083984375,18.548095703125
0.1495,-16.486083984375,-5.315185546875,20.950439453125
0.15,-13.803466796875,-9.919677734375,22.752197265625
0.1505,-10.720458984375,-12.762451171875,22.391845703125
0.151,-6.396240234375,-15.645263671875,20.950439453125
0.1515,-1.591552734375,-17.567138671875,18.067626953125
0.152,2.972900390625,-20.329833984375,16.345947265625
0.1525,7.537353515625,-21.971435546875,13.543212890625
0.153,11.060791015625,-23.532958984375,11.661376953125
0.1535,14.384033203125,-22.291748046875,7.217041015625
0.154,16.706298828125,-21.010498046875,3.653564453125
0.1545,18.948486328125,-18.407958984375,-1.271240234375
0.155,21.470947265625,-16.766357421875,-5.395263671875
0.1555,22.391845703125,-13.523193359375,-9.359130859375
0.156,22.952392578125,-11.000732421875,-12.442138671875
0.1565,21.711181640625,-7.116943359375,-14.924560546875
0.157,19.348876953125,-2.512451171875,-17.166748046875
0.1575,17.587158203125,1.971923828125,-19.689208984375
0.158,15.304931640625,6.616455078125,-21.851318359375
0.1585,13.222900390625,10.219970703125,-23.332763671875
0.159,8.698486328125,13.863525390625,-22.371826171875
0.1595,4.734619140625,15.905517578125,-20.409912109375
0.16,-0.710693359375,18.027587890625,-17.326904296875
0.1605,-4.834716796875,20.790283203125,-15.965576171875
0.161,-9.519287109375,21.831298828125,-12.362060546875
0.1615,-12.322021484375,23.072509765625,-10.840576171875
0.162,-15.485107421875,21.430908203125,-6.115966796875
0.1625,-17.767333984375,19.589111328125,-2.112060546875
0.163,-20.049560546875,17.186767578125,2.612548828125
0.1635,-22.411865234375,15.104736328125,6.976806640625
0.164,-23.212646484375,12.622314453125,10.219970703125
0.1645,-22.892333984375,8.778564453125,13.663330078125
0.165,-21.571044921875,5.455322265625,15.625244140625
0.1655,-18.888427734375,0.250244140625,17.947509765625
0.166,-17.326904296875,-4.114013671875,20.630126953125
0.1665,-14.043701171875,-8.958740234375,22.031494140625
0.167,-12.722412109375,-11.721435546875,23.352783203125
0.1675,-7.317138671875,-15.084716796875,21.270751953125
0.168,-3.473388671875,-17.166748046875,19.428955078125
0.1685,1.891845703125,-19.368896484375,16.546142578125
0.169,6.296142578125,-22.251708984375,15.064697265625
0.1695,10.219970703125,-22.812255859375,11.821533203125
0.17,13.423095703125,-23.132568359375,8.938720703125
0.1705,15.745361328125,-21.771240234375,5.335205078125
0.171,18.347900390625,-19.288818359375,0.370361328125
0.1715,20.990478515625,-16.966552734375,-4.033935546875
0.172,22.191650390625,-14.323974609375,-8.398193359375
0.1725,23.312744140625,-12.762451171875,-11.040771484375
0.173,21.831298828125,-7.717529296875,-14.484130859375
0.1735,20.550048828125,-4.674560546875,-16.205810546875
0.174,17.867431640625,0.650634765625,-18.608154296875
0.1745,16.466064453125,5.094970703125,-21.611083984375
0.175,12.782470703125,9.218994140625,-21.851318359375
0.1755,10.980712890625,12.181884765625,-23.052490234375
0.176,6.055908203125,14.744384765625,-20.650146484375
0.1765,1.411376953125,17.146728515625,-18.367919921875
0.177,-3.193115234375,19.268798828125,-16.045654296875
0.1775,-8.037841796875,21.871337890625,-13.843505859375
0.178,-10.840576171875,22.552001953125,-11.881591796875
0.1785,-14.684326171875,21.591064453125,-7.076904296875
0.179,-16.325927734375,20.469970703125,-4.434326171875
0.1795,-19.088623046875,17.867431640625,1.010986328125
0.18,-21.731201171875,16.025634765625,5.415283203125
0.1805,-22.331787109375,12.502197265625,9.459228515625
