wavelength,x,y,z
0.0,1.4814453125,-10.1298828125,8.568359375
0.0005,-0.3603515625,-9.4892578125,9.529296875
0.001,-2.2421875,-8.96875,10.890625
0.0015,-4.2041015625,-6.9267578125,10.73046875
0.002,-6.0458984375,-4.96484375,10.6904296875
0.0025,-8.7685546875,-2.5224609375,10.9306640625
0.003,-9.849609375,0.080078125,9.44921875
0.0035,-11.1708984375,1.44140625,9.369140625
0.004,-11.8115234375,3.443359375,8.0478515625
0.0045,-11.37109375,5.205078125,5.8056640625
0.005,-11.4111328125,7.1669921875,3.84375
0.0055,-11.2109375,9.4091796875,1.4013671875
0.006,-9.76953125,9.849609375,-0.640625
0.0065,-9.689453125,11.130859375,-2.001953125
0.007,-7.4072265625,10.9306640625,-4.1640625
0.0075,-5.4052734375,10.4501953125,-5.7255859375
0.008,-3.2431640625,10.6904296875,-8.087890625
0.0085,-0.640625,9.6494140625,-9.6494140625
0.009,0.9609375,8.96875,-10.4501953125
0.0095,2.6826171875,8.3681640625,-11.5712890625
0.01,4.8046875,6.166015625,-11.4111328125
0.0105,6.8466796875,3.9638671875,-11.2509765625
0.011,9.529296875,1.4814453125,-11.37109375
0.0115,10.330078125,-1.0009765625,-9.8095703125
0.012,11.451171875,-2.0419921875,-9.8095703125
0.0125,11.8916015625,-4.0439453125,-8.2880859375
0.013,11.4111328125,-5.92578125,-5.845703125
0.0135,11.4912109375,-8.0478515625,-3.763671875
0.014,11.0107421875,-10.08984375,-1.28125
0.0145,9.529296875,-10.2900390625,0.6005859375
0.015,9.4091796875,-11.291015625,1.8017578125
0.0155,6.88671875,-11.05078125,4.083984375
0.016,4.6044921875,-10.5302734375,5.845703125
0.0165,2.4423828125,-10.890625,8.2880859375
0.017,-0.240234375,-9.6494140625,9.609375
0.0175,-1.6015625,-8.96875,10.2900390625
0.018,-3.203125,-8.16796875,11.130859375
0.0185,-5.4853515625,-5.7255859375,10.8505859375
0.019,-7.6474609375,-3.36328125,10.6103515625
0.0195,-10.2900390625,-0.720703125,10.650390625
0.02,-10.7705078125,1.521484375,8.96875
0.0205,-11.5712890625,2.40234375,8.888671875
0.021,-11.931640625,4.6044921875,6.966796875
0.0215,-11.4111328125,6.646484375,4.404296875
0.022,-11.4111328125,8.8486328125,2.162109375
0.0225,-10.7705078125,10.6103515625,-0.400390625
0.023,-9.208984375,10.5302734375,-1.9619140625
0.0235,-8.9287109375,11.3310546875,-3.04296875
0.024,-6.1259765625,10.970703125,-5.4853515625
0.0245,-3.763671875,10.41015625,-7.2470703125
0.025,-1.44140625,10.5703125,-9.76953125
0.0255,1.12109375,9.12890625,-10.8505859375
0.026,2.162109375,8.568359375,-11.1708984375
0.0265,3.9638671875,7.447265625,-11.8515625
0.027,6.3662109375,4.8046875,-11.5712890625
0.0275,8.48828125,2.2822265625,-11.1708984375
0.028,11.0107421875,-0.3603515625,-11.0908203125
0.0285,11.2509765625,-2.2822265625,-9.4091796875
0.029,11.8115234375,-3.0830078125,-9.1689453125
0.0295,12.1318359375,-5.6455078125,-6.88671875
0.03,11.53125,-7.447265625,-4.4443359375
0.0305,11.37109375,-9.689453125,-2.0419921875
0.031,10.6103515625,-11.2509765625,0.400390625
0.0315,9.0087890625,-10.890625,1.76171875
0.032,8.3681640625,-11.451171875,3.0029296875
0.0325,5.365234375,-11.2509765625,5.685546875
0.033,3.123046875,-10.6103515625,7.3271484375
0.0335,0.640625,-10.650390625,9.8095703125
0.034,-1.681640625,-9.1689453125,10.650390625
0.0345,-2.6025390625,-8.408203125,10.73046875
0.035,-4.8046875,-6.8466796875,11.3310546875
0.0355,-7.20703125,-4.1640625,11.0107421875
0.036,-9.048828125,-1.76171875,10.4501953125
0.0365,-11.4111328125,0.7607421875,10.330078125
0.037,-11.4912109375,2.6826171875,8.4482421875
0.0375,-11.8916015625,3.6435546875,7.927734375
0.038,-12.0517578125,6.40625,5.3251953125
0.0385,-11.4111328125,8.0078125,3.04296875
0.039,-11.0908203125,10.0498046875,0.640625
0.0395,-10.2900390625,11.37109375,-1.6416015625
0.04,-8.48828125,10.9306640625,-3.0029296875
0.0405,-7.52734375,11.291015625,-4.404296875
0.041,-4.5244140625,11.0107421875,-7.126953125
0.0415,-2.322265625,10.25,-8.6083984375
0.042,0.1201171875,10.2099609375,-10.890625
0.0425,2.2421875,8.80859375,-11.53125
0.043,3.3232421875,7.767578125,-11.53125
0.0435,5.765625,5.8056640625,-12.01171875
0.044,8.1279296875,3.1630859375,-11.6513671875
0.0445,9.7294921875,0.7607421875,-10.8505859375
0.045,11.8115234375,-1.44140625,-10.7705078125
0.0455,11.8515625,-3.4833984375,-8.80859375
0.046,12.0517578125,-4.564453125,-7.8876953125
0.0465,12.2119140625,-7.4072265625,-5.205078125
0.047,11.4912109375,-8.888671875,-2.9228515625
0.0475,11.0107421875,-10.5302734375,-0.80078125
0.048,10.169921875,-11.7314453125,1.44140625
0.0485,8.087890625,-11.2509765625,3.04296875
0.049,6.6865234375,-11.53125,4.64453125
0.0495,3.84375,-11.291015625,7.3671875
0.05,1.5615234375,-10.330078125,8.6484375
0.0505,-0.640625,-10.25,10.650390625
0.051,-2.8427734375,-8.728515625,11.3310546875
0.0515,-4.2041015625,-7.2470703125,11.2109375
0.052,-6.8466796875,-5.0048828125,11.53125
0.0525,-9.12890625,-2.40234375,11.1708984375
0.053,-10.41015625,0.080078125,10.0498046875
0.0535,-12.2119140625,1.921875,10.009765625
0.054,-12.2119140625,4.1240234375,7.6875
0.0545,-12.1318359375,5.4453125,6.326171875
0.055,-12.251953125,8.248046875,3.68359375
0.0555,-11.3310546875,9.689453125,1.2412109375
0.056,-10.650390625,10.8505859375,-0.7607421875
0.0565,-9.8095703125,12.01171875,-2.8427734375
0.057,-7.3271484375,11.3310546875,-4.724609375
0.0575,-5.60546875,11.291015625,-6.40625
0.058,-2.8427734375,11.2109375,-9.0087890625
0.0585,-0.48046875,9.9296875,-10.08984375
0.059,1.4013671875,9.8095703125,-11.69140625
0.0595,3.68359375,8.1279296875,-12.2919921875
0.06,5.365234375,6.2060546875,-11.9716796875
0.0605,7.927734375,3.84375,-12.171875
0.061,10.169921875,1.12109375,-11.611328125
0.0615,11.0107421875,-1.201171875,-10.25
0.062,12.5322265625,-2.642578125,-10.2900390625
0.0625,12.4521484375,-5.0048828125,-7.84765625
0.063,12.0517578125,-6.4462890625,-5.9658203125
0.0635,12.2919921875,-9.0888671875,-3.5234375
0.064,11.0908203125,-10.41015625,-1.0009765625
0.0645,10.25,-11.2509765625,0.7607421875
0.065,9.2890625,-12.2119140625,2.6826171875
0.0655,6.6064453125,-11.451171875,4.6845703125
0.066,4.7646484375,-11.2509765625,6.3662109375
0.0665,2.1220703125,-11.1708984375,8.96875
0.067,-0.3203125,-9.689453125,9.76953125
0.0675,-1.8017578125,-9.609375,11.130859375
0.068,-4.0439453125,-7.767578125,11.5712890625
0.0685,-5.845703125,-5.6455078125,11.130859375
0.069,-8.408203125,-3.203125,11.291015625
0.0695,-10.41015625,-0.5205078125,10.6103515625
0.07,-11.0107421875,1.44140625,9.2490234375
0.0705,-12.251953125,2.802734375,9.1689453125
0.071,-12.0517578125,5.125,6.5263671875
0.0715,-11.611328125,6.7666015625,4.484375
0.072,-11.8916015625,9.3291015625,2.162109375
0.0725,-10.490234375,10.2900390625,-0.3603515625
0.073,-9.76953125,10.890625,-1.76171875
0.0735,-8.6884765625,11.5712890625,-3.603515625
0.074,-5.92578125,10.8505859375,-5.6455078125
0.0745,-4.00390625,10.73046875,-7.3671875
0.075,-1.44140625,10.6103515625,-9.76953125
0.0755,0.80078125,9.0888671875,-10.3701171875
0.076,2.0419921875,9.0087890625,-11.53125
0.0765,4.32421875,7.0869140625,-11.8515625
0.077,6.166015625,4.8046875,-11.4111328125
0.0775,8.80859375,2.3623046875,-11.5712890625
0.078,10.6103515625,-0.3603515625,-10.73046875
0.0785,11.05078125,-1.8818359375,-9.609375
0.079,12.091796875,-3.123046875,-9.3291015625
0.0795,11.8115234375,-5.525390625,-6.6865234375
0.08,11.451171875,-7.2470703125,-4.564453125
0.0805,11.6513671875,-9.76953125,-2.2021484375
0.081,10.08984375,-10.5302734375,0.16015625
0.0815,9.529296875,-11.05078125,1.28125
0.082,8.1279296875,-11.4912109375,3.1630859375
0.0825,5.365234375,-10.7705078125,5.28515625
0.083,3.3232421875,-10.73046875,7.287109375
0.0835,0.7607421875,-10.4501953125,9.609375
0.084,-1.28125,-8.96875,9.9697265625
0.0845,-2.2822265625,-8.888671875,10.890625
0.085,-4.7646484375,-6.6865234375,11.130859375
0.0855,-6.7265625,-4.32421875,10.6904296875
0.086,-9.44921875,-1.681640625,10.810546875
0.0865,-10.970703125,0.8408203125,9.849609375
0.087,-11.2109375,2.162109375,8.728515625
0.0875,-12.01171875,3.5234375,8.16796875
0.088,-11.69140625,6.0859375,5.2451171875
0.0885,-11.291015625,7.84765625,3.04296875
0.089,-11.4111328125,10.2900390625,0.560546875
0.0895,-9.7294921875,10.73046875,-1.6416015625
0.09,-9.12890625,10.970703125,-2.5625
0.0905,-7.4072265625,11.2509765625,-4.5244140625
0.091,-4.5244140625,10.6103515625,-6.7265625
0.0915,-2.2822265625,10.4501953125,-8.8486328125
0.092,0.3203125,10.08984375,-10.890625
0.0925,2.0419921875,8.5283203125,-11.05078125
0.093,3.0029296875,8.248046875,-11.69140625
0.0935,5.7255859375,5.685546875,-11.8515625
0.094,7.607421875,3.3232421875,-11.291015625
0.0945,10.2099609375,0.6005859375,-11.2509765625
0.095,11.53125,-1.7216796875,-10.25
0.0955,11.53125,-2.9228515625,-9.0087890625
0.096,12.171875,-4.484375,-8.0478515625
0.0965,11.8115234375,-7.126953125,-5.0849609375
0.097,11.2509765625,-8.6884765625,-2.8828125
0.0975,11.2109375,-11.05078125,-0.5205078125
0.098,9.44921875,-11.2509765625,1.521484375
0.0985,8.6484375,-11.2509765625,2.4423828125
0.099,6.5263671875,-11.4111328125,4.7646484375
0.0995,3.84375,-10.7705078125,6.7265625
0.1,1.5615234375,-10.4501953125,8.80859375
0.1005,-0.9208984375,-9.9697265625,10.650390625
0.101,-2.482421875,-8.3681640625,10.6103515625
0.1015,-3.603515625,-7.7275390625,11.05078125
0.102,-6.646484375,-4.9248046875,11.2509765625
0.1025,-8.1279296875,-2.72265625,10.5302734375
0.103,-10.5703125,-0.240234375,10.41015625
0.1035,-11.611328125,2.0419921875,9.2490234375
0.104,-11.53125,3.3232421875,7.84765625
0.1045,-11.9716796875,5.125,6.4462890625
0.105,-11.6513671875,7.607421875,3.603515625
0.1055,-10.9306640625,8.9287109375,1.6015625
0.106,-10.8505859375,11.0107421875,-0.7607421875
0.1065,-9.0087890625,11.0107421875,-2.642578125
0.107,-7.9677734375,10.9306640625,-3.603515625
0.1075,-5.6455078125,11.0908203125,-6.1259765625
0.108,-3.1630859375,10.4501953125,-7.9677734375
0.1085,-0.9208984375,10.0498046875,-9.7294921875
0.109,1.4013671875,9.4892578125,-11.4111328125
0.1095,2.962890625,7.84765625,-11.2509765625
0.11,4.32421875,6.7666015625,-11.5712890625
0.1105,7.3671875,3.9638671875,-11.7314453125
0.111,8.7685546875,1.7216796875,-10.8505859375
0.1115,10.8505859375,-0.560546875,-10.7705078125
0.112,11.771484375,-2.6025390625,-9.5693359375
0.1125,11.5712890625,-4.00390625,-8.0078125
0.113,11.8115234375,-6.0458984375,-6.2861328125
0.1135,11.5712890625,-8.328125,-3.68359375
0.114,10.6904296875,-9.44921875,-1.7216796875
0.1145,10.5703125,-11.2109375,0.4404296875
0.115,8.568359375,-11.0908203125,2.40234375
0.1155,7.2470703125,-10.9306640625,3.5634765625
0.116,4.8046875,-11.05078125,6.2060546875
0.1165,2.4423828125,-10.41015625,7.84765625
0.117,0.4404296875,-9.9697265625,9.3291015625
0.1175,-1.76171875,-9.3291015625,10.810546875
0.118,-3.5234375,-7.4873046875,10.73046875
0.1185,-5.1650390625,-6.005859375,10.8505859375
0.119,-8.0478515625,-3.36328125,11.05078125
0.1195,-9.2890625,-1.0009765625,9.8896484375
0.12,-10.970703125,0.9208984375,9.76953125
0.1205,-11.7314453125,2.962890625,8.4482421875
0.121,-11.4912109375,4.484375,6.646484375
0.1215,-11.5712890625,6.5263671875,4.64453125
0.122,-11.37109375,8.6884765625,2.162109375
0.1225,-10.25,9.529296875,0.240234375
0.123,-10.1298828125,11.0908203125,-1.5615234375
0.1235,-7.8876953125,10.9306640625,-3.6435546875
0.124,-6.2861328125,10.6103515625,-4.96484375
0.1245,-3.923828125,10.7705078125,-7.4873046875
0.125,-1.521484375,9.9296875,-9.048828125
0.1255,0.3603515625,9.4091796875,-10.25
0.126,2.2421875,8.728515625,-11.4912109375
0.1265,4.1240234375,6.6865234375,-11.291015625
0.127,6.0458984375,4.884765625,-11.291015625
0.1275,8.7685546875,2.2822265625,-11.451171875
0.128,9.76953125,0.0,-10.08984375
0.1285,11.2109375,-1.5615234375,-10.08984375
0.129,11.771484375,-3.603515625,-8.6083984375
0.1295,11.37109375,-5.28515625,-6.56640625
0.13,11.4912109375,-7.4072265625,-4.564453125
0.1305,11.130859375,-9.369140625,-2.08203125
0.131,9.8896484375,-9.8896484375,-0.2802734375
0.1315,9.7294921875,-11.1708984375,1.28125
0.132,7.3671875,-10.890625,3.443359375
0.1325,5.525390625,-10.5302734375,4.9248046875
0.133,3.2431640625,-10.7705078125,7.3671875
0.1335,0.80078125,-9.689453125,8.7685546875
0.134,-0.80078125,-9.2490234375,9.76953125
0.1345,-2.6025390625,-8.408203125,10.7705078125
0.135,-4.564453125,-6.2861328125,10.5302734375
0.1355,-6.646484375,-4.2041015625,10.490234375
0.136,-9.2490234375,-1.681640625,10.5703125
0.1365,-9.9697265625,0.560546875,9.0888671875
0.137,-11.2509765625,1.681640625,9.12890625
0.1375,-11.53125,3.8037109375,7.3671875
0.138,-11.0908203125,5.525390625,5.125
0.1385,-11.2509765625,7.767578125,3.0830078125
0.139,-10.6904296875,9.609375,0.640625
0.1395,-9.44921875,9.9296875,-1.0009765625
0.14,-9.2490234375,10.970703125,-2.3623046875
0.1405,-6.6865234375,10.5703125,-4.5244140625
0.141,-4.6845703125,10.2099609375,-6.166015625
0.1415,-2.4423828125,10.4501953125,-8.6884765625
0.142,0.0,9.2490234375,-9.76953125
0.1425,1.28125,8.80859375,-10.5703125
0.143,3.1630859375,7.8076171875,-11.4111328125
0.1435,5.1650390625,5.4853515625,-11.0908203125
0.144,7.4072265625,3.203125,-11.05078125
0.1445,9.9296875,0.640625,-10.970703125
0.145,10.3701171875,-1.4013671875,-9.4892578125
0.1455,11.4111328125,-2.322265625,-9.5693359375
0.146,11.5712890625,-4.564453125,-7.52734375
0.1465,11.130859375,-6.3662109375,-5.125
0.147,11.291015625,-8.6884765625,-2.962890625
0.1475,10.490234375,-10.25,-0.560546875
0.148,9.2490234375,-10.330078125,0.9208984375
0.1485,8.80859375,-11.1708984375,2.2021484375
0.149,6.0859375,-10.73046875,4.484375
0.1495,3.923828125,-10.330078125,6.326171875
0.15,1.5615234375,-10.5302734375,8.80859375
0.1505,-0.80078125,-9.12890625,9.6494140625
0.151,-1.8017578125,-8.728515625,10.2099609375
0.1515,-3.7236328125,-7.447265625,10.8505859375
0.152,-5.92578125,-4.96484375,10.5302734375
0.1525,-8.2080078125,-2.5625,10.41015625
0.153,-10.5703125,0.0400390625,10.169921875
0.1535,-10.7705078125,1.76171875,8.6083984375
0.154,-11.53125,2.6826171875,8.4482421875
0.1545,-11.611328125,5.205078125,6.0859375
0.155,-11.0908203125,7.046875,3.7236328125
0.1555,-11.1708984375,9.44921875,1.3212890625
0.156,-10.2099609375,10.650390625,-1.041015625
0.1565,-8.9287109375,10.490234375,-2.162109375
0.157,-8.16796875,11.0908203125,-3.5634765625
0.1575,-5.28515625,10.6103515625,-6.0458984375
0.158,-3.04296875,10.2099609375,-7.84765625
0.1585,-0.6005859375,10.2099609375,-10.25
0.159,1.5615234375,8.728515625,-10.8505859375
0.1595,2.40234375,8.2880859375,-11.1708984375
0.16,4.64453125,6.56640625,-11.6513671875
0.1605,6.88671875,4.00390625,-11.291015625
0.161,9.0087890625,1.521484375,-10.9306640625
0.1615,11.1708984375,-1.0009765625,-10.650390625
0.162,11.1708984375,-2.6025390625,-9.048828125
0.1625,11.771484375,-3.5634765625,-8.6484375
0.163,11.8115234375,-6.326171875,-5.92578125
0.1635,11.2109375,-7.8076171875,-3.7236328125
0.164,11.0908203125,-10.1298828125,-1.3212890625
0.1645,9.9697265625,-11.0908203125,0.9208984375
0.165,8.568359375,-10.7705078125,2.0419921875
0.1655,7.447265625,-11.2109375,3.6435546875
0.166,4.484375,-10.7705078125,6.166015625
0.1665,2.3623046875,-10.25,7.767578125
0.167,0.0,-10.169921875,10.08984375
0.1675,-2.001953125,-8.6884765625,10.41015625
0.168,-2.9228515625,-8.0078125,10.6103515625
0.1685,-5.4453125,-5.845703125,11.0107421875
0.169,-7.447265625,-3.443359375,10.5302734375
0.1695,-9.4091796875,-1.12109375,10.08984375
0.17,-11.2509765625,1.201171875,9.6494140625
0.1705,-11.130859375,2.8427734375,7.927734375
0.171,-11.5712890625,4.083984375,7.1669921875
0.1715,-11.5712890625,6.8466796875,4.3642578125
0.172,-10.8505859375,8.087890625,2.40234375
0.1725,-10.650390625,10.1298828125,0.16015625
0.173,-9.4892578125,10.890625,-1.9619140625
0.1735,-8.0078125,10.490234375,-3.0830078125
0.174,-6.486328125,10.7705078125,-4.884765625
0.1745,-3.8037109375,10.3701171875,-7.20703125
0.175,-1.76171875,9.8095703125,-8.6484375
0.1755,0.6005859375,9.609375,-10.73046875
0.176,2.3623046875,8.087890625,-10.890625
0.1765,3.4033203125,7.20703125,-11.05078125
0.177,6.1259765625,4.8046875,-11.4111328125
0.1775,7.927734375,2.482421875,-10.8505859375
0.178,9.6494140625,0.3203125,-10.41015625
0.1785,11.2109375,-1.7216796875,-9.9697265625
0.179,11.05078125,-3.3232421875,-8.16796875
0.1795,11.3310546875,-4.64453125,-7.0869140625
0.18,11.37109375,-7.287109375,-4.4443359375
0.1805,10.6103515625,-8.4482421875,-2.5224609375
0.181,10.4501953125,-10.25,-0.5205078125
0.1815,9.0888671875,-10.7705078125,1.5615234375
0.182,7.52734375,-10.41015625,2.7626953125
0.1825,5.7255859375,-10.650390625,4.8046875
0.183,3.2431640625,-10.2900390625,6.9267578125
0.1835,1.28125,-9.689453125,8.248046875
0.184,-0.8408203125,-9.4892578125,10.08984375
0.1845,-2.6826171875,-7.84765625,10.2099609375
0.185,-4.00390625,-6.7265625,10.330078125
0.1855,-6.7666015625,-4.244140625,10.6904296875
0.186,-8.408203125,-2.001953125,9.9296875
0.1865,-9.9296875,0.1201171875,9.529296875
0.187,-11.2509765625,1.9619140625,8.96875
0.1875,-11.05078125,3.7236328125,7.0068359375
0.188,-11.1708984375,5.2451171875,5.5654296875
0.1885,-11.2509765625,7.8076171875,3.04296875
0.189,-10.25,8.7685546875,1.0009765625
0.1895,-10.08984375,10.2900390625,-0.7607421875
0.19,-8.5283203125,10.6904296875,-2.7626953125
0.1905,-6.7265625,10.25,-4.1640625
0.191,-4.8046875,10.4501953125,-6.2861328125
0.1915,-2.322265625,10.0498046875,-8.328125
0.192,-0.48046875,9.2490234375,-9.3291015625
0.1925,1.4013671875,9.048828125,-10.970703125
0.193,3.4033203125,7.1669921875,-11.05078125
0.1935,4.96484375,5.5654296875,-10.970703125
0.194,7.6875,3.1630859375,-11.3310546875
0.1945,9.2490234375,0.720703125,-10.2900390625
0.195,10.41015625,-1.0009765625,-9.8896484375
0.1955,11.4912109375,-2.72265625,-9.208984375
0.196,11.2109375,-4.564453125,-7.0068359375
0.1965,11.1708984375,-6.2861328125,-5.28515625
0.197,11.2509765625,-8.6884765625,-2.8828125
0.1975,9.9296875,-9.369140625,-0.8408203125
0.198,9.8095703125,-10.650390625,0.640625
0.1985,8.0478515625,-10.890625,2.72265625
0.199,5.9658203125,-10.330078125,4.244140625
0.1995,4.00390625,-10.5302734375,6.3662109375
0.2,1.5615234375,-10.009765625,8.328125
0.2005,-0.2802734375,-9.048828125,9.0888671875
0.201,-1.8818359375,-8.888671875,10.41015625
0.2015,-3.923828125,-6.88671875,10.41015625
0.202,-5.765625,-4.9248046875,10.2099609375
0.2025,-8.3681640625,-2.5625,10.5703125
0.203,-9.6494140625,0.0,9.369140625
0.2035,-10.6103515625,1.28125,8.96875
0.204,-11.4111328125,3.04296875,8.0478515625
0.2045,-10.970703125,4.96484375,5.7255859375
0.205,-10.9306640625,6.7666015625,3.8037109375
0.2055,-10.970703125,9.0888671875,1.4013671875
0.206,-9.4892578125,9.4892578125,-0.5205078125
0.2065,-9.4091796875,10.6103515625,-1.76171875
0.207,-7.4072265625,10.6103515625,-3.84375
0.2075,-5.1650390625,10.0498046875,-5.4853515625
0.208,-3.2431640625,10.25,-7.6474609375
0.2085,-0.720703125,9.529296875,-9.4091796875
0.209,0.880859375,8.6484375,-10.009765625
0.2095,2.2822265625,8.2880859375,-11.0908203125
0.21,4.484375,6.0859375,-11.05078125
0.2105,6.40625,3.9638671875,-10.7705078125
0.211,9.0888671875,1.5615234375,-11.05078125
0.2115,9.9697265625,-0.80078125,-9.6494140625
0.212,10.8505859375,-1.8017578125,-9.4892578125
0.2125,11.451171875,-3.603515625,-8.2880859375
0.213,11.0107421875,-5.6455078125,-5.765625
0.2135,11.0107421875,-7.5673828125,-3.8037109375
0.214,10.8505859375,-9.76953125,-1.361328125
0.2145,9.2490234375,-9.9296875,0.48046875
0.215,9.1689453125,-10.8505859375,1.521484375
0.2155,6.88671875,-10.6904296875,3.68359375
0.216,4.5244140625,-10.1298828125,5.4853515625
0.2165,2.482421875,-10.41015625,7.8076171875
0.217,0.0,-9.529296875,9.2890625
0.2175,-1.3212890625,-8.728515625,9.7294921875
0.218,-2.8828125,-8.16796875,10.6103515625
0.2185,-5.125,-5.685546875,10.490234375
0.219,-7.1669921875,-3.4033203125,10.2099609375
0.2195,-9.8896484375,-0.8408203125,10.3701171875
0.22,-10.4501953125,1.28125,8.888671875
0.2205,-11.0908203125,2.2021484375,8.6083984375
0.221,-11.53125,4.244140625,6.966796875
0.2215,-11.05078125,6.2861328125,4.404296875
0.222,-10.970703125,8.408203125,2.2021484375
0.2225,-10.6103515625,10.330078125,-0.2802734375
0.223,-9.0087890625,10.2099609375,-1.76171875
