wavelength,x,y,z
0.0,3.763671875,-2.0419921875,-2.2822265625
0.0005,3.5234375,-1.1611328125,-2.9228515625
0.001,3.123046875,-0.3603515625,-3.283203125
0.0015,2.642578125,0.48046875,-3.603515625
0.002,2.162109375,1.28125,-3.8837890625
0.0025,1.6416015625,2.1220703125,-4.2041015625
0.003,0.9609375,2.482421875,-3.84375
0.0035,0.3203125,3.123046875,-3.8037109375
0.004,-0.6005859375,3.2431640625,-3.123046875
0.0045,-1.28125,3.7236328125,-2.8427734375
0.005,-2.3623046875,3.9638671875,-1.9619140625
0.0055,-2.962890625,4.00390625,-1.4814453125
0.006,-3.36328125,3.6435546875,-0.6806640625
0.0065,-3.8037109375,3.5234375,-0.1201171875
0.007,-3.9638671875,2.8427734375,0.640625
0.0075,-4.2041015625,2.482421875,1.28125
0.008,-4.5244140625,1.8017578125,2.2421875
0.0085,-4.244140625,1.12109375,2.5625
0.009,-4.1240234375,0.240234375,3.283203125
0.0095,-3.4833984375,-0.7607421875,3.5234375
0.01,-3.0830078125,-1.4814453125,3.923828125
0.0105,-2.40234375,-2.40234375,4.1240234375
0.011,-1.8017578125,-3.1630859375,4.32421875
0.0115,-0.9208984375,-3.4833984375,3.7236328125
0.012,-0.3203125,-4.083984375,3.7236328125
0.0125,0.6806640625,-4.244140625,2.8828125
0.013,1.4013671875,-4.564453125,2.5224609375
0.0135,2.5224609375,-4.8046875,1.6015625
0.014,3.0029296875,-4.6044921875,1.0009765625
0.0145,3.443359375,-4.2041015625,0.2001953125
0.015,3.7236328125,-3.84375,-0.4404296875
0.0155,3.84375,-3.203125,-1.2412109375
0.016,3.9638671875,-2.642578125,-1.921875
0.0165,4.2841796875,-2.0419921875,-2.8828125
0.017,3.68359375,-1.12109375,-3.1630859375
0.0175,3.5634765625,-0.3203125,-3.8037109375
0.018,2.6826171875,0.720703125,-3.84375
0.0185,2.3623046875,1.4013671875,-4.2041015625
0.019,1.6015625,2.40234375,-4.3642578125
0.0195,0.9609375,3.04296875,-4.3642578125
0.02,0.0400390625,3.3232421875,-3.7236328125
0.0205,-0.640625,3.84375,-3.603515625
0.021,-1.681640625,3.9638671875,-2.6826171875
0.0215,-2.3623046875,4.244140625,-2.2822265625
0.022,-3.4833984375,4.484375,-1.361328125
0.0225,-3.84375,3.9638671875,-0.640625
0.023,-4.2841796875,3.763671875,0.1201171875
0.0235,-4.484375,3.1630859375,0.880859375
0.024,-4.64453125,2.5224609375,1.6015625
0.0245,-4.724609375,1.8017578125,2.3623046875
0.025,-4.9248046875,1.12109375,3.2431640625
0.0255,-4.1240234375,0.0,3.4833984375
0.026,-4.0439453125,-0.6806640625,4.1240234375
0.0265,-2.962890625,-1.841796875,4.2041015625
0.027,-2.642578125,-2.5224609375,4.484375
0.0275,-1.7216796875,-3.5634765625,4.564453125
0.028,-0.9208984375,-4.0439453125,4.244140625
0.0285,0.0,-4.3642578125,3.7236328125
0.029,0.7607421875,-4.8046875,3.36328125
0.0295,1.921875,-4.884765625,2.3623046875
0.03,2.5224609375,-5.044921875,1.921875
0.0305,3.603515625,-5.1650390625,0.9609375
0.031,3.8037109375,-4.484375,0.1201171875
0.0315,4.2041015625,-4.244140625,-0.560546875
0.032,4.32421875,-3.4033203125,-1.4814453125
0.0325,4.484375,-2.8427734375,-2.2421875
0.033,4.484375,-2.08203125,-3.04296875
0.0335,4.484375,-1.28125,-3.8037109375
0.034,3.5634765625,-0.080078125,-3.9638671875
0.0345,3.4033203125,0.640625,-4.484375
0.035,2.2021484375,1.8818359375,-4.5244140625
0.0355,1.921875,2.4423828125,-4.64453125
0.036,0.9609375,3.36328125,-4.724609375
0.0365,0.0400390625,3.8037109375,-4.1640625
0.037,-0.80078125,4.1240234375,-3.68359375
0.0375,-1.76171875,4.484375,-3.0830078125
0.038,-2.8427734375,4.5244140625,-2.08203125
0.0385,-3.4033203125,4.5244140625,-1.5615234375
0.039,-4.32421875,4.6044921875,-0.6806640625
0.0395,-4.4443359375,3.763671875,0.240234375
0.04,-4.8447265625,3.603515625,0.7607421875
0.0405,-4.9248046875,2.5224609375,1.921875
0.041,-5.0048828125,1.9619140625,2.482421875
0.0415,-4.96484375,1.12109375,3.2431640625
0.042,-4.8046875,0.3603515625,3.8837890625
0.0425,-3.923828125,-0.80078125,4.1240234375
0.043,-3.6435546875,-1.5615234375,4.6044921875
0.0435,-2.4423828125,-2.8427734375,4.6044921875
0.044,-2.1220703125,-3.283203125,4.724609375
0.0445,-1.12109375,-4.244140625,4.6044921875
0.045,-0.1201171875,-4.5244140625,3.9638671875
0.0455,0.6005859375,-4.884765625,3.5634765625
0.046,1.76171875,-5.1650390625,2.72265625
0.0465,2.72265625,-5.2451171875,1.921875
0.047,3.3232421875,-5.1650390625,1.2412109375
0.0475,4.083984375,-5.0849609375,0.4404296875
0.048,4.2041015625,-4.2041015625,-0.6005859375
0.0485,4.5244140625,-4.0439453125,-1.1611328125
0.049,4.64453125,-2.8828125,-2.40234375
0.0495,4.724609375,-2.4423828125,-2.8828125
0.05,4.5244140625,-1.4013671875,-3.68359375
0.0505,4.2041015625,-0.5205078125,-4.1640625
0.051,3.3232421875,0.640625,-4.404296875
0.0515,2.8828125,1.4814453125,-4.8046875
0.052,1.76171875,2.72265625,-4.8447265625
0.0525,1.361328125,3.0830078125,-4.8447265625
0.053,0.3203125,3.9638671875,-4.64453125
0.0535,-0.720703125,4.2041015625,-3.84375
0.054,-1.44140625,4.5244140625,-3.443359375
0.0545,-2.72265625,4.7646484375,-2.40234375
0.055,-3.5634765625,4.8046875,-1.681640625
0.0555,-4.1240234375,4.5244140625,-0.880859375
0.056,-4.724609375,4.32421875,0.0
0.0565,-4.7646484375,3.4033203125,0.880859375
0.057,-5.0849609375,3.123046875,1.44140625
0.0575,-5.125,1.921875,2.6826171875
0.058,-5.0849609375,1.521484375,3.04296875
0.0585,-4.8447265625,0.5205078125,3.84375
0.059,-4.2841796875,-0.48046875,4.1640625
0.0595,-3.603515625,-1.4814453125,4.484375
0.06,-2.962890625,-2.40234375,4.724609375
0.0605,-2.001953125,-3.4833984375,4.8046875
0.061,-1.44140625,-3.8037109375,4.5244140625
0.0615,-0.5205078125,-4.5244140625,4.3642578125
0.062,0.5205078125,-4.6845703125,3.5234375
0.0625,1.201171875,-5.0849609375,3.203125
0.063,2.5224609375,-5.2451171875,2.0419921875
0.0635,3.1630859375,-5.3251953125,1.5615234375
0.064,3.68359375,-4.96484375,0.640625
0.0645,4.2041015625,-4.7646484375,-0.1201171875
0.065,4.2841796875,-3.8837890625,-1.041015625
0.0655,4.5244140625,-3.5634765625,-1.6416015625
0.066,4.64453125,-2.4423828125,-2.7626953125
0.0665,4.5244140625,-1.9619140625,-3.0830078125
0.067,4.32421875,-0.9609375,-3.8837890625
0.0675,3.5634765625,0.1201171875,-4.1640625
0.068,3.04296875,1.0009765625,-4.5244140625
0.0685,2.2421875,2.001953125,-4.64453125
0.069,1.6015625,2.8828125,-4.884765625
0.0695,0.8408203125,3.2431640625,-4.4443359375
0.07,0.0,3.9638671875,-4.2841796875
0.0705,-1.0810546875,4.1240234375,-3.36328125
0.071,-1.76171875,4.484375,-3.123046875
0.0715,-3.0830078125,4.6044921875,-1.9619140625
0.072,-3.603515625,4.64453125,-1.44140625
0.0725,-4.1640625,4.2041015625,-0.5205078125
0.073,-4.564453125,3.84375,0.2001953125
0.0735,-4.64453125,3.123046875,1.0009765625
0.074,-4.8447265625,2.5625,1.76171875
0.0745,-5.044921875,1.76171875,2.7626953125
0.075,-4.6845703125,1.12109375,3.04296875
0.0755,-4.564453125,0.240234375,3.84375
0.076,-3.7236328125,-0.880859375,3.9638671875
0.0765,-3.3232421875,-1.6416015625,4.3642578125
0.077,-2.40234375,-2.72265625,4.484375
0.0775,-1.921875,-3.36328125,4.6044921875
0.078,-1.0009765625,-3.7236328125,4.083984375
0.0785,-0.2802734375,-4.3642578125,3.8837890625
0.079,0.6806640625,-4.4443359375,3.0830078125
0.0795,1.4013671875,-4.8447265625,2.7626953125
0.08,2.5625,-4.96484375,1.76171875
0.0805,2.9228515625,-4.884765625,1.28125
0.081,3.5234375,-4.6044921875,0.400390625
0.0815,3.763671875,-4.1240234375,-0.3203125
0.082,4.00390625,-3.5634765625,-1.0009765625
0.0825,4.083984375,-2.8828125,-1.8017578125
0.083,4.404296875,-2.3623046875,-2.5625
0.0835,3.9638671875,-1.6015625,-2.8828125
0.084,3.8837890625,-0.7607421875,-3.68359375
0.0845,3.0029296875,0.3603515625,-3.8037109375
0.085,2.8427734375,0.9609375,-4.244140625
0.0855,1.921875,2.08203125,-4.3642578125
0.086,1.5615234375,2.5625,-4.484375
0.0865,0.560546875,3.0830078125,-4.00390625
0.087,-0.16015625,3.5634765625,-3.8037109375
0.0875,-1.041015625,3.84375,-3.0830078125
0.088,-1.8818359375,4.1240234375,-2.642578125
0.0885,-2.9228515625,4.32421875,-1.8818359375
0.089,-3.2431640625,4.00390625,-1.28125
0.0895,-3.8837890625,3.8837890625,-0.5205078125
0.09,-4.00390625,3.283203125,0.2802734375
0.0905,-4.3642578125,2.962890625,0.9609375
0.091,-4.4443359375,2.162109375,1.8017578125
0.0915,-4.6845703125,1.76171875,2.4423828125
0.092,-4.1640625,0.80078125,2.8427734375
0.0925,-4.083984375,0.080078125,3.4833984375
0.093,-3.203125,-1.0009765625,3.68359375
0.0935,-3.04296875,-1.6015625,4.0439453125
0.094,-2.2021484375,-2.642578125,4.2041015625
0.0945,-1.7216796875,-2.962890625,4.0439453125
0.095,-0.8408203125,-3.5634765625,3.763671875
0.0955,-0.16015625,-3.8837890625,3.3232421875
0.096,0.640625,-4.2041015625,2.8828125
0.0965,1.521484375,-4.484375,2.2421875
0.097,2.322265625,-4.724609375,1.7216796875
0.0975,2.6025390625,-4.2841796875,1.0009765625
0.098,3.1630859375,-4.2841796875,0.48046875
0.0985,3.283203125,-3.5634765625,-0.3603515625
0.099,3.6435546875,-3.36328125,-0.9208984375
0.0995,3.84375,-2.6025390625,-1.8017578125
0.1,3.9638671875,-2.2822265625,-2.2021484375
0.1005,3.5634765625,-1.28125,-2.802734375
0.101,3.36328125,-0.6005859375,-3.203125
0.1015,2.72265625,0.400390625,-3.5634765625
0.102,2.4423828125,1.0810546875,-3.8837890625
0.1025,1.921875,1.921875,-4.244140625
0.103,1.28125,2.2421875,-3.8837890625
0.1035,0.560546875,2.962890625,-3.84375
0.104,-0.3203125,3.1630859375,-3.2431640625
0.1045,-1.041015625,3.603515625,-3.0029296875
0.105,-2.0419921875,3.8037109375,-2.2822265625
0.1055,-2.6826171875,4.00390625,-1.8017578125
0.106,-3.04296875,3.603515625,-1.0009765625
0.1065,-3.5634765625,3.5634765625,-0.5205078125
0.107,-3.7236328125,2.8828125,0.400390625
0.1075,-4.0439453125,2.6025390625,0.9609375
0.108,-4.32421875,2.001953125,1.841796875
0.1085,-4.1640625,1.4814453125,2.162109375
0.109,-3.9638671875,0.6005859375,2.8427734375
0.1095,-3.4833984375,-0.2802734375,3.1630859375
0.11,-3.123046875,-1.041015625,3.5634765625
0.1105,-2.6025390625,-1.8017578125,3.84375
0.111,-2.1220703125,-2.5625,4.0439453125
0.1115,-1.361328125,-2.8828125,3.5634765625
0.112,-0.80078125,-3.5234375,3.6435546875
0.1125,0.1201171875,-3.763671875,2.8828125
0.113,0.80078125,-4.1640625,2.6826171875
0.1135,1.76171875,-4.4443359375,1.921875
0.114,2.2421875,-4.3642578125,1.521484375
0.1145,2.6826171875,-4.0439453125,0.7607421875
0.115,3.04296875,-3.84375,0.240234375
0.1155,3.2431640625,-3.283203125,-0.6005859375
0.116,3.5234375,-2.9228515625,-1.1611328125
0.1165,3.84375,-2.4423828125,-1.9619140625
0.117,3.4833984375,-1.7216796875,-2.2822265625
0.1175,3.4833984375,-1.0009765625,-3.0029296875
0.118,2.7626953125,0.0,-3.203125
0.1185,2.6025390625,0.640625,-3.68359375
0.119,1.9619140625,1.4814453125,-3.8837890625
0.1195,1.5615234375,2.0419921875,-4.00390625
0.12,0.7607421875,2.482421875,-3.5634765625
0.1205,0.16015625,2.962890625,-3.5634765625
0.121,-0.80078125,3.203125,-2.8828125
0.1215,-1.4814453125,3.603515625,-2.6025390625
0.122,-2.482421875,3.8837890625,-1.8818359375
0.1225,-2.802734375,3.6435546875,-1.28125
0.123,-3.36328125,3.5234375,-0.640625
0.1235,-3.5634765625,3.0830078125,0.0400390625
0.124,-3.8837890625,2.6826171875,0.7607421875
0.1245,-4.083984375,2.162109375,1.44140625
0.125,-4.3642578125,1.681640625,2.162109375
0.1255,-3.8037109375,0.7607421875,2.5224609375
0.126,-3.84375,0.16015625,3.1630859375
0.1265,-3.04296875,-0.9208984375,3.3232421875
0.127,-2.8828125,-1.4814453125,3.8037109375
0.1275,-2.162109375,-2.4423828125,3.9638671875
0.128,-1.6416015625,-2.8427734375,3.8037109375
0.1285,-0.8408203125,-3.36328125,3.5234375
0.129,-0.16015625,-3.763671875,3.2431640625
0.1295,0.720703125,-4.00390625,2.5625
0.13,1.44140625,-4.32421875,2.2421875
0.1305,2.3623046875,-4.5244140625,1.5615234375
0.131,2.6025390625,-4.083984375,0.880859375
0.1315,3.1630859375,-4.083984375,0.3203125
0.132,3.283203125,-3.4033203125,-0.48046875
0.1325,3.6435546875,-3.1630859375,-1.12109375
0.133,3.8037109375,-2.4423828125,-1.9619140625
0.1335,3.84375,-1.921875,-2.5224609375
0.134,3.3232421875,-0.8408203125,-2.9228515625
0.1345,3.203125,-0.240234375,-3.4833984375
0.135,2.40234375,0.7607421875,-3.603515625
0.1355,2.2021484375,1.4013671875,-4.00390625
0.136,1.4814453125,2.2421875,-4.1640625
0.1365,0.7607421875,2.5625,-3.8037109375
0.137,0.0400390625,3.123046875,-3.603515625
0.1375,-0.80078125,3.4033203125,-3.04296875
0.138,-1.6416015625,3.7236328125,-2.4423828125
0.1385,-2.40234375,3.8837890625,-1.8818359375
0.139,-3.1630859375,4.00390625,-1.28125
0.1395,-3.4033203125,3.443359375,-0.48046875
0.14,-3.8837890625,3.443359375,0.0
0.1405,-4.00390625,2.5625,0.9208984375
0.141,-4.244140625,2.2822265625,1.4814453125
0.1415,-4.4443359375,1.5615234375,2.3623046875
0.142,-4.1640625,0.880859375,2.802734375
0.1425,-3.7236328125,-0.080078125,3.2431640625
0.143,-3.4033203125,-0.8408203125,3.6435546875
0.1435,-2.6826171875,-1.76171875,3.84375
0.144,-2.322265625,-2.40234375,4.083984375
0.1445,-1.6015625,-3.2431640625,4.1240234375
0.145,-0.720703125,-3.5634765625,3.5234375
0.1455,-0.16015625,-4.083984375,3.4833984375
0.146,0.9609375,-4.2041015625,2.6826171875
0.1465,1.6015625,-4.5244140625,2.2421875
0.147,2.4423828125,-4.64453125,1.5615234375
0.1475,3.04296875,-4.564453125,0.9208984375
0.148,3.283203125,-4.00390625,0.1201171875
0.1485,3.68359375,-3.84375,-0.4404296875
0.149,3.84375,-2.962890625,-1.44140625
0.1495,4.00390625,-2.642578125,-1.9619140625
0.15,4.1240234375,-1.8017578125,-2.8828125
0.1505,3.6435546875,-0.9609375,-3.2431640625
0.151,3.283203125,0.0,-3.7236328125
0.1515,2.6826171875,0.880859375,-3.9638671875
0.152,2.0419921875,1.76171875,-4.2041015625
0.1525,1.5615234375,2.322265625,-4.32421875
0.153,0.7607421875,3.123046875,-4.2841796875
0.1535,-0.16015625,3.3232421875,-3.603515625
0.154,-0.80078125,3.8837890625,-3.443359375
0.1545,-2.08203125,4.0439453125,-2.322265625
0.155,-2.642578125,4.2841796875,-1.9619140625
0.1555,-3.4833984375,4.2041015625,-1.1611328125
0.156,-3.923828125,3.923828125,-0.4404296875
0.1565,-4.1640625,3.36328125,0.3603515625
0.157,-4.484375,3.0029296875,1.0009765625
0.1575,-4.64453125,2.0419921875,2.0419921875
0.158,-4.6044921875,1.6015625,2.482421875
0.1585,-4.6845703125,0.8408203125,3.3232421875
0.159,-3.923828125,-0.240234375,3.5634765625
0.1595,-3.6435546875,-1.0009765625,4.083984375
0.16,-2.72265625,-2.1220703125,4.244140625
0.1605,-2.2421875,-2.9228515625,4.4443359375
0.161,-1.4814453125,-3.5234375,4.244140625
0.1615,-0.640625,-4.1640625,4.083984375
0.162,0.240234375,-4.244140625,3.36328125
0.1625,0.9609375,-4.7646484375,3.123046875
0.163,2.2421875,-4.8447265625,1.921875
0.1635,2.72265625,-4.96484375,1.6015625
0.164,3.4833984375,-4.8046875,0.720703125
0.1645,3.8037109375,-4.3642578125,0.0
0.165,4.0439453125,-3.84375,-0.80078125
0.1655,4.244140625,-3.2431640625,-1.6015625
0.166,4.4443359375,-2.4423828125,-2.5625
0.1665,4.2841796875,-1.841796875,-2.962890625
0.167,4.2841796875,-1.0009765625,-3.8037109375
0.1675,3.3232421875,0.16015625,-3.9638671875
0.168,3.123046875,0.9208984375,-4.4443359375
0.1685,2.001953125,2.1220703125,-4.564453125
0.169,1.5615234375,2.802734375,-4.7646484375
0.1695,0.6806640625,3.3232421875,-4.4443359375
0.17,-0.2001953125,4.00390625,-4.1640625
0.1705,-1.1611328125,4.1240234375,-3.36328125
0.171,-1.9619140625,4.564453125,-2.962890625
0.1715,-3.283203125,4.6845703125,-1.76171875
0.172,-3.7236328125,4.5244140625,-1.2412109375
0.1725,-4.4443359375,4.32421875,-0.3203125
0.173,-4.64453125,3.7236328125,0.5205078125
0.1735,-4.8447265625,3.1630859375,1.2412109375
0.174,-4.96484375,2.2822265625,2.2021484375
0.1745,-5.125,1.5615234375,3.04296875
0.175,-4.6845703125,0.7607421875,3.4033203125
0.1755,-4.6044921875,-0.1201171875,4.1240234375
0.176,-3.5634765625,-1.28125,4.2041015625
0.1765,-3.283203125,-2.001953125,4.6044921875
0.177,-2.08203125,-3.2431640625,4.64453125
0.1775,-1.6015625,-3.8037109375,4.64453125
0.178,-0.640625,-4.244140625,4.1240234375
0.1785,0.240234375,-4.7646484375,3.84375
0.179,1.12109375,-4.8447265625,3.04296875
0.1795,2.001953125,-5.1650390625,2.5224609375
0.18,3.1630859375,-5.3251953125,1.4814453125
0.1805,3.5234375,-4.96484375,0.8408203125
0.181,4.1640625,-4.8046875,0.0
0.1815,4.2841796875,-4.00390625,-0.8408203125
0.182,4.484375,-3.5634765625,-1.521484375
0.1825,4.564453125,-2.6025390625,-2.5224609375
0.183,4.7646484375,-2.001953125,-3.283203125
0.1835,4.2041015625,-1.041015625,-3.6435546875
0.184,4.083984375,-0.16015625,-4.3642578125
0.1845,2.962890625,0.9609375,-4.404296875
0.185,2.6826171875,1.6416015625,-4.8046875
0.1855,1.5615234375,2.9228515625,-4.96484375
0.186,1.041015625,3.4033203125,-4.8046875
0.1865,0.0,4.00390625,-4.2841796875
0.187,-0.9609375,4.4443359375,-3.84375
0.1875,-1.8818359375,4.564453125,-3.0830078125
0.188,-2.8828125,4.8046875,-2.3623046875
0.1885,-4.0439453125,5.044921875,-1.361328125
0.189,-4.32421875,4.4443359375,-0.5205078125
0.1895,-5.0048828125,4.244140625,0.2802734375
0.19,-5.0048828125,3.36328125,1.201171875
0.1905,-5.1650390625,2.8427734375,1.8818359375
0.191,-5.28515625,1.8017578125,3.0029296875
0.1915,-5.28515625,1.12109375,3.68359375
0.192,-4.5244140625,0.0,4.00390625
0.1925,-4.32421875,-0.9609375,4.6044921875
0.193,-3.203125,-2.0419921875,4.5244140625
0.1935,-2.7626953125,-2.7626953125,4.7646484375
0.194,-1.681640625,-3.9638671875,4.96484375
0.1945,-0.880859375,-4.2841796875,4.484375
0.195,0.080078125,-4.8046875,4.0439453125
0.1955,0.9208984375,-5.0048828125,3.443359375
0.196,1.8017578125,-5.125,2.6826171875
0.1965,2.7626953125,-5.28515625,1.921875
0.197,3.763671875,-5.4453125,1.041015625
0.1975,3.8837890625,-4.64453125,0.1201171875
0.198,4.5244140625,-4.564453125,-0.560546875
0.1985,4.4443359375,-3.5634765625,-1.44140625
0.199,4.6044921875,-3.1630859375,-2.0419921875
0.1995,4.7646484375,-2.1220703125,-3.1630859375
0.2,4.6044921875,-1.4814453125,-3.6435546875
0.2005,3.923828125,-0.3603515625,-4.1240234375
0.201,3.603515625,0.48046875,-4.5244140625
0.2015,2.642578125,1.4814453125,-4.564453125
0.202,2.2021484375,2.2421875,-4.8046875
0.2025,1.28125,3.36328125,-5.0048828125
0.203,0.3603515625,3.603515625,-4.32421875
0.2035,-0.48046875,4.244140625,-4.1240234375
0.204,-1.44140625,4.404296875,-3.283203125
0.2045,-2.2822265625,4.6044921875,-2.72265625
0.205,-3.283203125,4.724609375,-1.841796875
0.2055,-4.1640625,4.8046875,-1.0009765625
0.206,-4.404296875,3.9638671875,0.0
0.2065,-4.9248046875,3.8837890625,0.6005859375
0.207,-4.884765625,2.8828125,1.521484375
0.2075,-5.044921875,2.4423828125,2.1220703125
0.208,-5.205078125,1.521484375,3.203125
0.2085,-4.8447265625,0.640625,3.603515625
0.209,-4.2841796875,-0.4404296875,4.1240234375
0.2095,-3.763671875,-1.3212890625,4.404296875
0.21,-2.9228515625,-2.2421875,4.5244140625
0.2105,-2.3623046875,-2.962890625,4.64453125
0.211,-1.4814453125,-3.923828125,4.7646484375
0.2115,-0.5205078125,-4.1240234375,3.923828125
0.212,0.16015625,-4.724609375,3.84375
0.2125,1.2412109375,-4.7646484375,2.8427734375
0.213,1.921875,-5.0048828125,2.40234375
0.2135,2.9228515625,-5.0849609375,1.521484375
0.214,3.5234375,-4.96484375,0.80078125
0.2145,3.8037109375,-4.2841796875,-0.1201171875
0.215,4.1240234375,-4.083984375,-0.640625
0.2155,4.1640625,-3.203125,-1.5615234375
0.216,4.32421875,-2.7626953125,-2.1220703125
0.2165,4.484375,-1.9619140625,-3.1630859375
0.217,3.923828125,-1.12109375,-3.4033203125
0.2175,3.68359375,-0.240234375,-4.00390625
0.218,2.8828125,0.7607421875,-4.1240234375
0.2185,2.40234375,1.5615234375,-4.3642578125
0.219,1.76171875,2.322265625,-4.5244140625
0.2195,1.12109375,3.123046875,-4.5244140625
0.22,0.1201171875,3.3232421875,-3.8037109375
0.2205,-0.5205078125,3.8837890625,-3.763671875
0.221,-1.6015625,4.00390625,-2.7626953125
0.2215,-2.2421875,4.32421875,-2.4423828125
0.222,-3.283203125,4.404296875,-1.5615234375
0.2225,-3.68359375,4.1240234375,-0.8408203125
0.223,-4.1240234375,3.7236328125,0.0
0.2235,-4.3642578125,3.3232421875,0.6005859375
0.224,-4.5244140625,2.5625,1.4814453125
0.2245,-4.6845703125,2.0419921875,2.0419921875
0.225,-4.8447265625,1.3212890625,2.9228515625
0.2255,-4.1640625,0.3203125,3.203125
0.226,-4.0439453125,-0.400390625,3.8837890625
0.2265,-3.123046875,-1.44140625,3.9638671875
0.227,-2.8427734375,-2.08203125,4.2841796875
0.2275,-2.0419921875,-2.9228515625,4.32421875
0.228,-1.361328125,-3.5234375,4.1240234375
0.2285,-0.4404296875,-3.84375,3.5634765625
0.229,0.2001953125,-4.2841796875,3.4033203125
