wavelength,x,y,z
0.0,-8.077880859375,21.110595703125,-13.483154296875
0.0005,-11.481201171875,20.830322265625,-10.039794921875
0.001,-14.764404296875,20.229736328125,-6.196044921875
0.0015,-17.687255859375,18.988525390625,-2.192138671875
0.002,-20.009521484375,16.706298828125,2.452392578125
0.0025,-20.890380859375,14.584228515625,5.415283203125
0.003,-21.130615234375,11.541259765625,8.618408203125
0.0035,-20.530029296875,7.337158203125,12.221923828125
0.004,-19.689208984375,3.293212890625,15.425048828125
0.0045,-18.327880859375,-0.790771484375,18.107666015625
0.005,-16.606201171875,-4.754638671875,20.349853515625
0.0055,-14.043701171875,-7.717529296875,20.870361328125
0.006,-10.600341796875,-10.920654296875,20.790283203125
0.0065,-6.276123046875,-14.604248046875,20.309814453125
0.007,-1.591552734375,-17.647216796875,18.948486328125
0.0075,3.012939453125,-19.809326171875,16.826416015625
0.008,6.216064453125,-21.130615234375,15.184814453125
0.0085,9.419189453125,-21.490966796875,12.462158203125
0.009,12.822509765625,-20.890380859375,8.538330078125
0.0095,16.025634765625,-20.129638671875,4.654541015625
0.01,18.788330078125,-18.447998046875,0.410400390625
0.0105,20.790283203125,-16.205810546875,-3.833740234375
0.011,21.110595703125,-13.763427734375,-6.636474609375
0.0115,21.110595703125,-10.360107421875,-9.919677734375
0.012,20.429931640625,-5.995849609375,-13.603271484375
0.0125,19.509033203125,-2.072021484375,-16.526123046875
0.013,17.627197265625,2.092041015625,-18.848388671875
0.0135,15.865478515625,5.615478515625,-20.690185546875
0.014,12.942626953125,8.778564453125,-20.970458984375
0.0145,8.938720703125,12.181884765625,-20.489990234375
0.015,4.654541015625,15.545166015625,-19.889404296875
0.0155,0.010009765625,18.508056640625,-18.367919921875
0.016,-4.434326171875,20.429931640625,-16.205810546875
0.0165,-7.197021484375,21.150634765625,-14.323974609375
0.017,-10.560302734375,21.310791015625,-11.401123046875
0.0175,-14.083740234375,20.469970703125,-7.197021484375
0.018,-16.926513671875,19.509033203125,-3.353271484375
0.0185,-19.368896484375,17.547119140625,1.010986328125
0.019,-21.010498046875,15.425048828125,4.694580078125
0.0195,-20.970458984375,12.462158203125,7.577392578125
0.02,-20.690185546875,8.778564453125,10.980712890625
0.0205,-19.929443359375,4.574462890625,14.384033203125
0.021,-18.928466796875,0.610595703125,17.346923828125
0.0215,-16.926513671875,-3.553466796875,19.428955078125
0.022,-15.004638671875,-6.516357421875,20.590087890625
0.0225,-12.001708984375,-9.639404296875,20.870361328125
0.023,-7.437255859375,-13.282958984375,20.149658203125
0.0235,-3.513427734375,-16.165771484375,19.268798828125
0.024,1.251220703125,-18.808349609375,17.507080078125
0.0245,5.094970703125,-20.610107421875,15.665283203125
0.025,7.817626953125,-20.810302734375,13.302978515625
0.0255,11.100830078125,-20.970458984375,10.260009765625
0.026,14.704345703125,-20.129638671875,6.015869140625
0.0265,17.427001953125,-18.848388671875,2.092041015625
0.027,19.509033203125,-16.806396484375,-1.991943359375
0.0275,20.710205078125,-14.764404296875,-5.195068359375
0.028,20.630126953125,-11.641357421875,-8.197998046875
0.0285,20.189697265625,-7.517333984375,-11.841552734375
0.029,19.468994140625,-3.873779296875,-14.764404296875
0.0295,18.227783203125,0.330322265625,-17.647216796875
0.03,16.305908203125,4.174072265625,-19.609130859375
0.0305,13.903564453125,7.056884765625,-20.169677734375
0.031,10.820556640625,10.219970703125,-20.449951171875
0.0315,5.935791015625,14.183837890625,-19.729248046875
0.032,1.931884765625,16.946533203125,-18.608154296875
0.0325,-2.432373046875,19.148681640625,-16.806396484375
0.033,-5.915771484375,20.790283203125,-15.244873046875
0.0335,-8.878662109375,20.670166015625,-12.362060546875
0.034,-12.201904296875,20.469970703125,-8.958740234375
0.0345,-15.525146484375,19.829345703125,-5.074951171875
0.035,-18.247802734375,18.067626953125,-0.670654296875
0.0355,-20.009521484375,15.985595703125,3.173095703125
0.036,-20.650146484375,13.623291015625,6.095947265625
0.0365,-20.650146484375,10.380126953125,9.339111328125
0.037,-19.929443359375,5.735595703125,13.222900390625
0.0375,-19.128662109375,2.252197265625,15.905517578125
0.038,-17.607177734375,-1.871826171875,18.427978515625
0.0385,-15.765380859375,-5.515380859375,20.349853515625
0.039,-12.842529296875,-8.318115234375,20.309814453125
0.0395,-9.479248046875,-11.521240234375,20.309814453125
0.04,-4.794677734375,-15.244873046875,19.589111328125
0.0405,-0.150146484375,-18.007568359375,17.907470703125
0.041,3.653564453125,-19.809326171875,16.145751953125
0.0415,6.816650390625,-21.010498046875,14.384033203125
0.042,10.019775390625,-20.810302734375,11.260986328125
0.0425,13.503173828125,-20.169677734375,7.177001953125
0.043,16.385986328125,-19.408935546875,3.693603515625
0.0435,18.908447265625,-17.447021484375,-0.790771484375
0.044,20.469970703125,-15.405029296875,-4.314208984375
0.0445,20.469970703125,-12.602294921875,-7.116943359375
0.045,20.469970703125,-9.279052734375,-10.360107421875
0.0455,19.709228515625,-4.754638671875,-14.123779296875
0.046,18.628173828125,-0.990966796875,-16.806396484375
0.0465,16.866455078125,2.852783203125,-18.848388671875
0.047,15.024658203125,6.296142578125,-20.489990234375
0.0475,11.581298828125,9.299072265625,-20.209716796875
0.048,7.537353515625,12.822509765625,-19.889404296875
0.0485,3.533447265625,16.025634765625,-19.288818359375
0.049,-1.471435546875,18.708251953125,-17.326904296875
0.0495,-4.954833984375,20.229736328125,-15.565185546875
0.05,-7.957763671875,20.830322265625,-13.322998046875
0.0505,-11.080810546875,20.830322265625,-10.360107421875
0.051,-14.804443359375,19.869384765625,-5.755615234375
0.0515,-17.326904296875,18.668212890625,-2.112060546875
0.052,-19.489013671875,16.706298828125,1.971923828125
0.0525,-20.730224609375,14.544189453125,5.335205078125
0.053,-20.409912109375,11.220947265625,8.258056640625
0.0535,-20.169677734375,7.497314453125,11.701416015625
0.054,-19.529052734375,3.493408203125,15.064697265625
0.0545,-18.047607421875,-0.790771484375,17.867431640625
0.055,-16.165771484375,-4.314208984375,19.468994140625
0.0555,-14.083740234375,-7.317138671875,20.510009765625
0.056,-10.680419921875,-10.400146484375,20.429931640625
0.0565,-5.835693359375,-14.283935546875,19.549072265625
0.057,-1.991943359375,-16.966552734375,18.588134765625
0.0575,2.572509765625,-19.288818359375,16.666259765625
0.058,5.895751953125,-20.650146484375,14.944580078125
0.0585,8.898681640625,-20.570068359375,12.101806640625
0.059,12.021728515625,-20.489990234375,9.058837890625
0.0595,15.545166015625,-19.569091796875,4.694580078125
0.06,18.107666015625,-17.807373046875,0.450439453125
0.0605,19.669189453125,-16.005615234375,-2.952880859375
0.061,20.550048828125,-13.763427734375,-6.075927734375
0.0615,20.189697265625,-10.320068359375,-9.078857421875
0.062,19.589111328125,-6.075927734375,-12.722412109375
0.0625,18.948486328125,-2.632568359375,-15.525146484375
0.063,17.346923828125,1.651611328125,-18.167724609375
0.0635,15.385009765625,5.094970703125,-19.649169921875
0.064,12.662353515625,7.977783203125,-19.929443359375
0.0645,9.459228515625,11.140869140625,-20.049560546875
0.065,4.454345703125,14.984619140625,-19.128662109375
0.0655,0.250244140625,17.507080078125,-17.647216796875
0.066,-3.553466796875,19.388916015625,-16.005615234375
0.0665,-6.756591796875,20.590087890625,-14.203857421875
0.067,-9.919677734375,20.269775390625,-10.880615234375
0.0675,-13.082763671875,19.869384765625,-7.397216796875
0.068,-16.005615234375,19.068603515625,-3.793701171875
0.0685,-18.528076171875,16.906494140625,0.850830078125
0.069,-19.689208984375,15.024658203125,3.853759765625
0.0695,-20.089599609375,12.422119140625,6.776611328125
0.07,-19.849365234375,9.018798828125,9.899658203125
0.0705,-19.088623046875,4.534423828125,13.623291015625
0.071,-18.127685546875,1.051025390625,16.145751953125
0.0715,-16.606201171875,-2.792724609375,18.427978515625
0.072,-14.724365234375,-6.035888671875,19.869384765625
0.0725,-11.481201171875,-8.918701171875,19.549072265625
0.073,-7.957763671875,-12.201904296875,19.509033203125
0.0735,-3.553466796875,-15.565185546875,18.628173828125
0.074,1.211181640625,-17.967529296875,16.666259765625
0.0745,4.294189453125,-19.328857421875,15.184814453125
0.075,7.297119140625,-20.209716796875,13.182861328125
0.0755,10.420166015625,-19.969482421875,9.979736328125
0.076,13.823486328125,-19.208740234375,5.895751953125
0.0765,16.426025390625,-18.247802734375,2.492431640625
0.077,18.588134765625,-16.285888671875,-1.671630859375
0.0775,19.589111328125,-14.323974609375,-4.514404296875
0.078,19.509033203125,-11.361083984375,-7.437255859375
0.0785,19.348876953125,-7.957763671875,-10.600341796875
0.079,18.708251953125,-3.873779296875,-14.003662109375
0.0795,17.306884765625,0.130126953125,-16.566162109375
0.08,15.705322265625,3.373291015625,-18.247802734375
0.0805,13.783447265625,6.496337890625,-19.569091796875
0.081,10.219970703125,9.539306640625,-19.208740234375
0.0815,6.055908203125,13.062744140625,-18.728271484375
0.082,2.252197265625,15.985595703125,-18.007568359375
0.0825,-2.392333984375,18.307861328125,-16.005615234375
0.083,-5.155029296875,19.468994140625,-14.524169921875
0.0835,-8.238037109375,19.829345703125,-12.041748046875
0.084,-11.240966796875,19.669189453125,-8.958740234375
0.0845,-14.604248046875,18.708251953125,-4.834716796875
0.085,-17.086669921875,17.226806640625,-0.950927734375
0.0855,-18.768310546875,15.465087890625,2.532470703125
0.086,-19.569091796875,13.262939453125,5.455322265625
0.0865,-19.208740234375,9.899658203125,8.458251953125
0.087,-18.848388671875,6.135986328125,11.781494140625
0.0875,-18.287841796875,2.572509765625,14.784423828125
0.088,-16.646240234375,-1.631591796875,17.346923828125
0.0885,-14.964599609375,-4.594482421875,18.628173828125
0.089,-12.722412109375,-7.557373046875,19.428955078125
0.0895,-9.239013671875,-10.680419921875,19.188720703125
0.09,-4.674560546875,-14.123779296875,18.387939453125
0.0905,-0.670654296875,-16.726318359375,17.146728515625
0.091,3.253173828125,-18.728271484375,15.505126953125
0.0915,6.055908203125,-19.609130859375,13.823486328125
0.092,9.218994140625,-19.609130859375,10.740478515625
0.0925,12.261962890625,-19.328857421875,7.577392578125
0.093,15.385009765625,-18.488037109375,3.773681640625
0.0935,17.787353515625,-16.526123046875,-0.630615234375
0.094,18.988525390625,-14.884521484375,-3.433349609375
0.0945,19.509033203125,-12.442138671875,-6.396240234375
0.095,19.148681640625,-8.958740234375,-9.439208984375
0.0955,18.548095703125,-4.914794921875,-12.842529296875
0.096,17.787353515625,-1.471435546875,-15.525146484375
0.0965,16.185791015625,2.532470703125,-17.927490234375
0.097,14.263916015625,5.455322265625,-19.048583984375
0.0975,11.301025390625,8.498291015625,-19.248779296875
0.098,7.657470703125,11.941650390625,-19.168701171875
0.0985,3.253173828125,15.264892578125,-18.247802734375
0.099,-1.191162109375,17.667236328125,-16.526123046875
0.0995,-4.394287109375,19.268798828125,-15.084716796875
0.1,-7.397216796875,19.989501953125,-13.082763671875
0.1005,-10.600341796875,19.749267578125,-9.679443359375
0.101,-13.803466796875,19.148681640625,-6.035888671875
0.1015,-16.566162109375,18.067626953125,-2.312255859375
0.102,-18.848388671875,15.985595703125,2.052001953125
0.1025,-19.569091796875,13.983642578125,4.774658203125
0.103,-19.809326171875,11.060791015625,7.857666015625
0.1035,-19.408935546875,7.217041015625,11.260986328125
0.104,-18.688232421875,3.253173828125,14.464111328125
0.1045,-17.326904296875,-0.670654296875,17.026611328125
0.105,-15.805419921875,-4.194091796875,19.068603515625
0.1055,-13.563232421875,-7.116943359375,19.829345703125
0.106,-9.999755859375,-10.239990234375,19.549072265625
0.1065,-6.035888671875,-13.683349609375,19.228759765625
0.107,-1.631591796875,-16.726318359375,18.067626953125
0.1075,2.852783203125,-18.888427734375,16.025634765625
0.108,5.695556640625,-20.009521484375,14.544189453125
0.1085,8.818603515625,-20.449951171875,12.021728515625
0.109,12.141845703125,-19.929443359375,8.298095703125
0.1095,15.264892578125,-19.168701171875,4.494384765625
0.11,17.867431640625,-17.607177734375,0.490478515625
0.1105,19.789306640625,-15.645263671875,-3.473388671875
0.111,20.149658203125,-13.202880859375,-6.156005859375
0.1115,20.029541015625,-9.799560546875,-9.439208984375
0.112,19.509033203125,-5.835693359375,-12.842529296875
0.1125,18.748291015625,-2.152099609375,-15.805419921875
0.113,16.946533203125,2.052001953125,-18.207763671875
0.1135,15.224853515625,5.255126953125,-19.729248046875
0.114,12.502197265625,8.378173828125,-20.209716796875
0.1145,8.498291015625,11.821533203125,-19.729248046875
0.115,4.334228515625,15.064697265625,-19.128662109375
0.1155,-0.150146484375,17.907470703125,-17.727294921875
0.116,-4.354248046875,19.909423828125,-15.765380859375
0.1165,-7.116943359375,20.510009765625,-13.843505859375
0.117,-10.360107421875,20.750244140625,-10.920654296875
0.1175,-13.843505859375,20.029541015625,-6.916748046875
0.118,-16.686279296875,18.988525390625,-3.072998046875
0.1185,-19.048583984375,16.946533203125,1.291259765625
0.119,-20.530029296875,14.984619140625,4.734619140625
0.1195,-20.650146484375,12.061767578125,7.657470703125
0.12,-20.249755859375,8.177978515625,11.140869140625
0.1205,-19.529052734375,4.134033203125,14.303955078125
0.121,-18.488037109375,0.210205078125,17.306884765625
0.1215,-16.526123046875,-3.873779296875,19.388916015625
0.122,-14.484130859375,-6.676513671875,20.309814453125
0.1225,-11.521240234375,-9.799560546875,20.590087890625
0.123,-6.956787109375,-13.483154296875,19.869384765625
0.1235,-2.872802734375,-16.365966796875,18.868408203125
0.124,1.691650390625,-18.768310546875,17.026611328125
0.1245,5.415283203125,-20.530029296875,15.304931640625
0.125,8.177978515625,-20.690185546875,12.822509765625
0.1255,11.461181640625,-20.650146484375,9.659423828125
0.126,14.904541015625,-19.889404296875,5.575439453125
0.1265,17.627197265625,-18.528076171875,1.571533203125
0.127,19.669189453125,-16.406005859375,-2.552490234375
0.1275,20.630126953125,-14.323974609375,-5.595458984375
0.128,20.670166015625,-11.240966796875,-8.638427734375
0.1285,20.029541015625,-6.996826171875,-12.322021484375
0.129,19.268798828125,-3.353271484375,-15.124755859375
0.1295,17.907470703125,0.770751953125,-17.847412109375
0.13,16.025634765625,4.654541015625,-19.849365234375
0.1305,13.423095703125,7.537353515625,-20.209716796875
0.131,10.300048828125,10.660400390625,-20.369873046875
0.1315,5.535400390625,14.544189453125,-19.689208984375
0.132,1.291259765625,17.306884765625,-18.447998046875
0.1325,-3.032958984375,19.388916015625,-16.526123046875
0.133,-6.276123046875,20.830322265625,-14.884521484375
0.1335,-9.319091796875,20.830322265625,-12.001708984375
0.134,-12.722412109375,20.429931640625,-8.318115234375
0.1345,-15.845458984375,19.669189453125,-4.594482421875
0.135,-18.568115234375,17.867431640625,-0.150146484375
0.1355,-20.329833984375,15.745361328125,3.693603515625
0.136,-20.690185546875,13.182861328125,6.576416015625
0.1365,-20.690185546875,9.899658203125,9.859619140625
0.137,-19.929443359375,5.255126953125,13.703369140625
0.1375,-19.088623046875,1.611572265625,16.426025390625
0.138,-17.366943359375,-2.392333984375,18.748291015625
0.1385,-15.565185546875,-5.915771484375,20.590087890625
0.139,-12.522216796875,-8.838623046875,20.469970703125
0.1395,-8.838623046875,-12.121826171875,20.349853515625
0.14,-4.434326171875,-15.645263671875,19.629150390625
0.1405,0.490478515625,-18.447998046875,17.867431640625
0.141,4.294189453125,-20.169677734375,15.985595703125
0.1415,7.337158203125,-21.090576171875,14.063720703125
0.142,10.580322265625,-21.090576171875,10.940673828125
0.1425,14.223876953125,-20.249755859375,6.616455078125
0.143,16.946533203125,-19.368896484375,3.093017578125
0.1435,19.468994140625,-17.326904296875,-1.431396484375
0.144,20.910400390625,-15.244873046875,-4.874755859375
0.1445,20.790283203125,-12.281982421875,-7.797607421875
0.145,20.670166015625,-8.798583984375,-11.160888671875
0.1455,19.869384765625,-4.314208984375,-14.764404296875
0.146,18.668212890625,-0.310302734375,-17.567138671875
0.1465,16.706298828125,3.533447265625,-19.408935546875
0.147,14.744384765625,6.896728515625,-20.850341796875
0.1475,11.260986328125,9.979736328125,-20.650146484375
0.148,6.776611328125,13.743408203125,-20.049560546875
0.1485,2.852783203125,16.706298828125,-19.368896484375
0.149,-2.112060546875,19.388916015625,-17.326904296875
0.1495,-5.675537109375,20.870361328125,-15.525146484375
0.15,-8.678466796875,21.150634765625,-12.882568359375
0.1505,-11.841552734375,21.150634765625,-9.959716796875
0.151,-15.605224609375,20.029541015625,-5.195068359375
0.1515,-18.167724609375,18.628173828125,-1.311279296875
0.152,-20.129638671875,16.586181640625,2.692626953125
0.1525,-21.290771484375,14.303955078125,6.015869140625
0.153,-20.850341796875,10.860595703125,9.018798828125
0.1535,-20.449951171875,6.816650390625,12.702392578125
0.154,-19.729248046875,2.932861328125,15.825439453125
0.1545,-18.207763671875,-1.471435546875,18.628173828125
0.155,-16.165771484375,-5.074951171875,20.229736328125
0.1555,-13.803466796875,-8.037841796875,20.990478515625
0.156,-10.400146484375,-11.240966796875,20.910400390625
0.1565,-5.235107421875,-15.204833984375,19.909423828125
0.157,-1.231201171875,-17.807373046875,18.748291015625
0.1575,3.253173828125,-20.049560546875,16.826416015625
0.158,6.696533203125,-21.370849609375,14.984619140625
0.1585,9.859619140625,-21.170654296875,11.781494140625
0.159,13.022705078125,-21.010498046875,8.538330078125
0.1595,16.546142578125,-20.009521484375,4.134033203125
0.16,19.188720703125,-18.087646484375,-0.470458984375
0.1605,20.630126953125,-16.085693359375,-3.833740234375
0.161,21.350830078125,-13.603271484375,-7.036865234375
0.1615,20.990478515625,-9.959716796875,-10.159912109375
0.162,20.269775390625,-5.435302734375,-14.003662109375
0.1625,19.428955078125,-1.871826171875,-16.686279296875
0.163,17.667236328125,2.532470703125,-19.368896484375
0.1635,15.585205078125,6.055908203125,-20.810302734375
0.164,12.342041015625,9.218994140625,-20.850341796875
0.1645,8.938720703125,12.502197265625,-20.890380859375
0.165,3.773681640625,16.385986328125,-19.889404296875
0.1655,-0.950927734375,19.028564453125,-18.087646484375
0.166,-4.674560546875,20.750244140625,-16.285888671875
0.1665,-7.997802734375,21.791259765625,-14.283935546875
0.167,-11.441162109375,21.430908203125,-10.600341796875
0.1675,-14.764404296875,20.750244140625,-6.716552734375
0.168,-17.727294921875,19.789306640625,-2.872802734375
0.1685,-20.289794921875,17.386962890625,2.052001953125
0.169,-21.370849609375,15.184814453125,5.255126953125
0.1695,-21.571044921875,12.181884765625,8.498291015625
0.17,-21.210693359375,8.458251953125,11.781494140625
0.1705,-20.289794921875,3.653564453125,15.625244140625
0.171,-19.008544921875,-0.310302734375,18.307861328125
0.1715,-17.206787109375,-4.234130859375,20.469970703125
0.172,-15.004638671875,-7.677490234375,21.751220703125
0.1725,-11.080810546875,-10.920654296875,21.270751953125
0.173,-7.076904296875,-14.404052734375,20.990478515625
0.1735,-2.392333984375,-17.807373046875,19.869384765625
0.174,2.772705078125,-20.329833984375,17.587158203125
0.1745,6.055908203125,-21.531005859375,15.705322265625
0.175,9.379150390625,-22.131591796875,13.182861328125
0.1755,12.822509765625,-21.731201171875,9.459228515625
0.176,16.385986328125,-20.650146484375,4.934814453125
0.1765,19.068603515625,-19.288818359375,0.930908203125
0.177,21.270751953125,-17.006591796875,-3.553466796875
0.1775,21.951416015625,-14.484130859375,-6.636474609375
0.178,21.711181640625,-10.840576171875,-9.999755859375
0.1785,21.190673828125,-6.996826171875,-13.403076171875
0.179,20.309814453125,-2.592529296875,-16.806396484375
0.1795,18.387939453125,1.931884765625,-19.408935546875
0.18,16.345947265625,5.455322265625,-20.970458984375
0.1805,13.823486328125,8.818603515625,-21.931396484375
0.181,9.619384765625,12.221923828125,-21.290771484375
