wavelength,x,y,z
0.0,-1.551513671875,-6.436279296875,5.895751953125
0.0005,-2.712646484375,-5.715576171875,6.496337890625
0.001,-4.073974609375,-4.394287109375,6.856689453125
0.0015,-5.195068359375,-3.072998046875,6.896728515625
0.002,-5.835693359375,-1.751708984375,6.656494140625
0.0025,-6.156005859375,-0.910888671875,6.376220703125
0.003,-6.115966796875,0.130126953125,5.735595703125
0.0035,-5.915771484375,1.291259765625,4.734619140625
0.004,-5.635498046875,2.612548828125,3.373291015625
0.0045,-5.315185546875,3.853759765625,2.011962890625
0.005,-4.914794921875,4.734619140625,0.930908203125
0.0055,-4.514404296875,5.295166015625,0.090087890625
0.006,-3.633544921875,5.615478515625,-0.990966796875
0.0065,-2.272216796875,5.775634765625,-2.472412109375
0.007,-1.071044921875,5.975830078125,-3.913818359375
0.0075,0.130126953125,5.895751953125,-4.994873046875
0.008,0.850830078125,5.935791015625,-5.795654296875
0.0085,1.851806640625,5.495361328125,-6.476318359375
0.009,3.093017578125,4.494384765625,-6.996826171875
0.0095,4.334228515625,3.133056640625,-7.197021484375
0.01,5.295166015625,1.771728515625,-7.076904296875
0.0105,5.815673828125,0.610595703125,-6.716552734375
0.011,5.935791015625,-0.310302734375,-6.396240234375
0.0115,5.815673828125,-1.271240234375,-5.635498046875
0.012,5.535400390625,-2.512451171875,-4.354248046875
0.0125,5.295166015625,-3.873779296875,-3.032958984375
0.013,4.854736328125,-4.954833984375,-1.671630859375
0.0135,4.494384765625,-5.755615234375,-0.750732421875
0.014,3.893798828125,-6.196044921875,0.250244140625
0.0145,2.932861328125,-6.436279296875,1.331298828125
0.015,1.531494140625,-6.596435546875,2.892822265625
0.0155,0.170166015625,-6.636474609375,4.254150390625
0.016,-0.830810546875,-6.596435546875,5.255126953125
0.0165,-1.551513671875,-6.676513671875,6.055908203125
0.017,-2.632568359375,-5.995849609375,6.616455078125
0.0175,-3.993896484375,-4.794677734375,6.976806640625
0.018,-5.114990234375,-3.433349609375,7.096923828125
0.0185,-5.915771484375,-2.031982421875,6.856689453125
0.019,-6.316162109375,-1.031005859375,6.576416015625
0.0195,-6.316162109375,-0.190185546875,6.095947265625
0.02,-6.115966796875,0.890869140625,5.255126953125
0.0205,-5.835693359375,2.212158203125,3.893798828125
0.021,-5.515380859375,3.533447265625,2.532470703125
0.0215,-5.114990234375,4.534423828125,1.251220703125
0.022,-4.754638671875,5.255126953125,0.370361328125
0.0225,-3.993896484375,5.575439453125,-0.630615234375
0.023,-2.872802734375,5.775634765625,-1.951904296875
0.0235,-1.551513671875,6.015869140625,-3.393310546875
0.024,-0.270263671875,5.895751953125,-4.634521484375
0.0245,0.650634765625,5.935791015625,-5.555419921875
0.025,1.411376953125,5.775634765625,-6.276123046875
0.0255,2.572509765625,5.014892578125,-6.916748046875
0.026,3.933837890625,3.693603515625,-7.156982421875
0.0265,5.014892578125,2.372314453125,-7.197021484375
0.027,5.695556640625,1.010986328125,-6.876708984375
0.0275,5.975830078125,0.170166015625,-6.636474609375
0.028,5.895751953125,-0.790771484375,-6.035888671875
0.0285,5.695556640625,-1.951904296875,-4.954833984375
0.029,5.415283203125,-3.353271484375,-3.593505859375
0.0295,5.054931640625,-4.594482421875,-2.192138671875
0.03,4.654541015625,-5.475341796875,-1.071044921875
0.0305,4.214111328125,-6.115966796875,-0.270263671875
0.031,3.413330078125,-6.396240234375,0.890869140625
0.0315,2.052001953125,-6.556396484375,2.292236328125
0.032,0.690673828125,-6.716552734375,3.853759765625
0.0325,-0.590576171875,-6.636474609375,4.934814453125
0.033,-1.271240234375,-6.716552734375,5.735595703125
0.0335,-2.232177734375,-6.356201171875,6.416259765625
0.034,-3.473388671875,-5.275146484375,6.896728515625
0.0345,-4.754638671875,-3.913818359375,7.136962890625
0.035,-5.715576171875,-2.512451171875,7.016845703125
0.0355,-6.196044921875,-1.351318359375,6.696533203125
0.036,-6.356201171875,-0.510498046875,6.336181640625
0.0365,-6.236083984375,0.490478515625,5.615478515625
0.037,-5.955810546875,1.771728515625,4.414306640625
0.0375,-5.715576171875,3.173095703125,3.012939453125
0.038,-5.275146484375,4.294189453125,1.611572265625
0.0385,-4.874755859375,5.094970703125,0.610595703125
0.039,-4.314208984375,5.575439453125,-0.350341796875
0.0395,-3.313232421875,5.815673828125,-1.471435546875
0.04,-1.951904296875,6.055908203125,-3.032958984375
0.0405,-0.630615234375,6.015869140625,-4.434326171875
0.041,0.450439453125,6.015869140625,-5.435302734375
0.0415,1.131103515625,5.975830078125,-6.236083984375
0.042,2.252197265625,5.375244140625,-6.796630859375
0.0425,3.653564453125,4.134033203125,-7.197021484375
0.043,4.814697265625,2.772705078125,-7.317138671875
0.0435,5.575439453125,1.371337890625,-7.076904296875
0.044,6.015869140625,0.370361328125,-6.756591796875
0.0445,6.015869140625,-0.630615234375,-6.276123046875
0.045,5.815673828125,-1.591552734375,-5.395263671875
0.0455,5.535400390625,-2.952880859375,-3.993896484375
0.046,5.175048828125,-4.354248046875,-2.552490234375
0.0465,4.774658203125,-5.275146484375,-1.311279296875
0.047,4.374267578125,-6.035888671875,-0.390380859375
0.0475,3.613525390625,-6.356201171875,0.610595703125
0.048,2.452392578125,-6.556396484375,1.931884765625
0.0485,1.051025390625,-6.756591796875,3.493408203125
0.049,-0.310302734375,-6.676513671875,4.654541015625
0.0495,-1.111083984375,-6.716552734375,5.535400390625
0.05,-1.871826171875,-6.436279296875,6.256103515625
0.0505,-2.992919921875,-5.715576171875,6.776611328125
0.051,-4.354248046875,-4.354248046875,7.056884765625
0.0515,-5.395263671875,-2.992919921875,7.056884765625
0.052,-5.955810546875,-1.671630859375,6.696533203125
0.0525,-6.276123046875,-0.830810546875,6.416259765625
0.053,-6.156005859375,0.090087890625,5.815673828125
0.0535,-5.915771484375,1.211181640625,4.814697265625
0.054,-5.675537109375,2.492431640625,3.493408203125
0.0545,-5.315185546875,3.733642578125,2.132080078125
0.055,-4.914794921875,4.614501953125,1.010986328125
0.0555,-4.514404296875,5.255126953125,0.210205078125
0.056,-3.793701171875,5.575439453125,-0.830810546875
0.0565,-2.552490234375,5.735595703125,-2.192138671875
0.057,-1.271240234375,5.895751953125,-3.633544921875
0.0575,-0.150146484375,5.815673828125,-4.754638671875
0.058,0.690673828125,5.935791015625,-5.595458984375
0.0585,1.531494140625,5.655517578125,-6.276123046875
0.059,2.732666015625,4.774658203125,-6.756591796875
0.0595,3.973876953125,3.533447265625,-7.036865234375
0.06,4.974853515625,2.172119140625,-6.916748046875
0.0605,5.535400390625,0.970947265625,-6.676513671875
0.061,5.735595703125,0.170166015625,-6.436279296875
0.0615,5.695556640625,-0.830810546875,-5.755615234375
0.062,5.455322265625,-1.991943359375,-4.674560546875
0.0625,5.255126953125,-3.313232421875,-3.393310546875
0.063,4.854736328125,-4.474365234375,-2.072021484375
0.0635,4.574462890625,-5.315185546875,-1.151123046875
0.064,4.093994140625,-5.795654296875,-0.310302734375
0.0645,3.213134765625,-6.196044921875,0.850830078125
0.065,1.931884765625,-6.436279296875,2.292236328125
0.0655,0.610595703125,-6.476318359375,3.693603515625
0.066,-0.430419921875,-6.476318359375,4.694580078125
0.0665,-1.111083984375,-6.556396484375,5.535400390625
0.067,-2.072021484375,-6.035888671875,6.135986328125
0.0675,-3.353271484375,-4.994873046875,6.536376953125
0.068,-4.514404296875,-3.793701171875,6.736572265625
0.0685,-5.315185546875,-2.432373046875,6.536376953125
0.069,-5.755615234375,-1.511474609375,6.416259765625
0.0695,-5.875732421875,-0.710693359375,6.015869140625
0.07,-5.795654296875,0.290283203125,5.335205078125
0.0705,-5.595458984375,1.451416015625,4.174072265625
0.071,-5.315185546875,2.732666015625,2.892822265625
0.0715,-4.994873046875,3.773681640625,1.771728515625
0.072,-4.714599609375,4.534423828125,0.890869140625
0.0725,-4.154052734375,4.934814453125,0.050048828125
0.073,-3.193115234375,5.215087890625,-1.191162109375
0.0735,-2.192138671875,5.495361328125,-2.512451171875
0.074,-0.950927734375,5.575439453125,-3.713623046875
0.0745,-0.150146484375,5.735595703125,-4.674560546875
0.075,0.690673828125,5.735595703125,-5.475341796875
0.0755,1.651611328125,5.255126953125,-6.115966796875
0.076,2.932861328125,4.134033203125,-6.436279296875
0.0765,3.973876953125,2.932861328125,-6.596435546875
0.077,4.774658203125,1.731689453125,-6.436279296875
0.0775,5.215087890625,0.930908203125,-6.396240234375
0.078,5.295166015625,0.130126953125,-5.955810546875
0.0785,5.175048828125,-0.990966796875,-5.195068359375
0.079,5.054931640625,-2.072021484375,-4.154052734375
0.0795,4.814697265625,-3.313232421875,-2.952880859375
0.08,4.534423828125,-4.274169921875,-1.951904296875
0.0805,4.334228515625,-5.074951171875,-1.151123046875
0.081,3.773681640625,-5.515380859375,-0.310302734375
0.0815,2.772705078125,-5.835693359375,0.970947265625
0.082,1.691650390625,-6.075927734375,2.372314453125
0.0825,0.610595703125,-6.156005859375,3.493408203125
0.083,-0.190185546875,-6.396240234375,4.494384765625
0.0835,-0.990966796875,-6.276123046875,5.255126953125
0.084,-2.112060546875,-5.635498046875,5.815673828125
0.0845,-3.273193359375,-4.594482421875,6.216064453125
0.085,-4.354248046875,-3.393310546875,6.256103515625
0.0855,-4.994873046875,-2.352294921875,6.216064453125
0.086,-5.395263671875,-1.551513671875,6.095947265625
0.0865,-5.435302734375,-0.790771484375,5.655517578125
0.087,-5.395263671875,0.290283203125,4.814697265625
0.0875,-5.275146484375,1.531494140625,3.813720703125
0.088,-5.074951171875,2.692626953125,2.652587890625
0.0885,-4.874755859375,3.573486328125,1.731689453125
0.089,-4.554443359375,4.214111328125,0.970947265625
0.0895,-3.953857421875,4.654541015625,0.010009765625
0.09,-2.992919921875,5.094970703125,-1.311279296875
0.0905,-1.871826171875,5.295166015625,-2.592529296875
0.091,-0.990966796875,5.455322265625,-3.713623046875
0.0915,-0.270263671875,5.695556640625,-4.634521484375
0.092,0.770751953125,5.415283203125,-5.395263671875
0.0925,1.931884765625,4.614501953125,-5.915771484375
0.093,3.093017578125,3.653564453125,-6.236083984375
0.0935,4.013916015625,2.452392578125,-6.236083984375
0.094,4.614501953125,1.531494140625,-6.236083984375
0.0945,4.934814453125,0.810791015625,-6.075927734375
0.095,4.974853515625,0.010009765625,-5.555419921875
0.0955,4.934814453125,-1.231201171875,-4.674560546875
0.096,4.814697265625,-2.432373046875,-3.553466796875
0.0965,4.574462890625,-3.553466796875,-2.512451171875
0.097,4.454345703125,-4.434326171875,-1.671630859375
0.0975,4.013916015625,-4.994873046875,-0.950927734375
0.098,3.293212890625,-5.395263671875,0.250244140625
0.0985,2.332275390625,-5.755615234375,1.491455078125
0.099,1.251220703125,-5.915771484375,2.692626953125
0.0995,0.490478515625,-6.156005859375,3.773681640625
0.1,-0.350341796875,-6.276123046875,4.614501953125
0.1005,-1.311279296875,-5.915771484375,5.295166015625
0.101,-2.552490234375,-5.034912109375,5.775634765625
0.1015,-3.673583984375,-3.913818359375,6.015869140625
0.102,-4.514404296875,-2.792724609375,6.015869140625
0.1025,-4.994873046875,-2.072021484375,6.015869140625
0.103,-5.195068359375,-1.311279296875,5.735595703125
0.1035,-5.195068359375,-0.390380859375,5.135009765625
0.104,-5.155029296875,0.770751953125,4.294189453125
0.1045,-5.034912109375,1.931884765625,3.173095703125
0.105,-4.874755859375,2.972900390625,2.252197265625
0.1055,-4.714599609375,3.773681640625,1.411376953125
0.106,-4.274169921875,4.334228515625,0.610595703125
0.1065,-3.433349609375,4.734619140625,-0.630615234375
0.107,-2.472412109375,5.135009765625,-1.871826171875
0.1075,-1.471435546875,5.295166015625,-3.072998046875
0.108,-0.750732421875,5.615478515625,-4.033935546875
0.1085,0.210205078125,5.575439453125,-4.874755859375
0.109,1.291259765625,5.014892578125,-5.555419921875
0.1095,2.532470703125,4.093994140625,-5.995849609375
0.11,3.533447265625,2.932861328125,-6.115966796875
0.1105,4.334228515625,1.931884765625,-6.156005859375
0.111,4.734619140625,1.211181640625,-6.115966796875
0.1115,4.854736328125,0.410400390625,-5.755615234375
0.112,4.854736328125,-0.710693359375,-4.994873046875
0.1125,4.814697265625,-1.951904296875,-3.993896484375
0.113,4.654541015625,-3.072998046875,-2.952880859375
0.1135,4.494384765625,-4.033935546875,-2.072021484375
0.114,4.214111328125,-4.674560546875,-1.271240234375
0.1145,3.653564453125,-5.155029296875,-0.310302734375
0.115,2.692626953125,-5.595458984375,1.010986328125
0.1155,1.611572265625,-5.835693359375,2.332275390625
0.116,0.770751953125,-6.115966796875,3.453369140625
0.1165,0.050048828125,-6.356201171875,4.374267578125
0.117,-0.990966796875,-6.075927734375,5.094970703125
0.1175,-2.232177734375,-5.275146484375,5.695556640625
0.118,-3.393310546875,-4.234130859375,6.055908203125
0.1185,-4.354248046875,-3.072998046875,6.055908203125
0.119,-4.954833984375,-2.232177734375,6.095947265625
0.1195,-5.195068359375,-1.431396484375,5.855712890625
0.12,-5.275146484375,-0.630615234375,5.375244140625
0.1205,-5.195068359375,0.570556640625,4.494384765625
0.121,-5.114990234375,1.811767578125,3.373291015625
0.1215,-4.954833984375,2.852783203125,2.292236328125
0.122,-4.794677734375,3.813720703125,1.491455078125
0.1225,-4.354248046875,4.334228515625,0.650634765625
0.123,-3.553466796875,4.734619140625,-0.510498046875
0.1235,-2.592529296875,5.175048828125,-1.791748046875
0.124,-1.471435546875,5.335205078125,-3.072998046875
0.1245,-0.710693359375,5.575439453125,-4.073974609375
0.125,0.170166015625,5.615478515625,-4.954833984375
0.1255,1.211181640625,5.175048828125,-5.635498046875
0.126,2.532470703125,4.134033203125,-6.115966796875
0.1265,3.653564453125,3.012939453125,-6.316162109375
0.127,4.454345703125,1.891845703125,-6.276123046875
0.1275,4.934814453125,1.091064453125,-6.236083984375
0.128,5.054931640625,0.290283203125,-5.835693359375
0.1285,5.014892578125,-0.870849609375,-5.114990234375
0.129,4.934814453125,-2.072021484375,-4.114013671875
0.1295,4.734619140625,-3.273193359375,-2.952880859375
0.13,4.534423828125,-4.194091796875,-1.951904296875
0.1305,4.294189453125,-4.914794921875,-1.151123046875
0.131,3.693603515625,-5.355224609375,-0.270263671875
0.1315,2.692626953125,-5.715576171875,1.131103515625
0.132,1.571533203125,-6.035888671875,2.532470703125
0.1325,0.570556640625,-6.115966796875,3.613525390625
0.133,-0.270263671875,-6.396240234375,4.534423828125
0.1335,-1.151123046875,-6.115966796875,5.335205078125
0.134,-2.352294921875,-5.395263671875,5.895751953125
0.1345,-3.593505859375,-4.274169921875,6.256103515625
0.135,-4.594482421875,-3.032958984375,6.296142578125
0.1355,-5.195068359375,-2.031982421875,6.216064453125
0.136,-5.475341796875,-1.271240234375,6.015869140625
0.1365,-5.515380859375,-0.510498046875,5.495361328125
0.137,-5.395263671875,0.730712890625,4.534423828125
0.1375,-5.315185546875,1.971923828125,3.373291015625
0.138,-4.994873046875,3.173095703125,2.252197265625
0.1385,-4.834716796875,4.053955078125,1.331298828125
0.139,-4.394287109375,4.574462890625,0.530517578125
0.1395,-3.593505859375,4.934814453125,-0.590576171875
0.14,-2.552490234375,5.295166015625,-1.951904296875
0.1405,-1.351318359375,5.455322265625,-3.233154296875
0.141,-0.510498046875,5.655517578125,-4.274169921875
0.1415,0.290283203125,5.735595703125,-5.155029296875
0.142,1.331298828125,5.295166015625,-5.835693359375
0.1425,2.612548828125,4.334228515625,-6.356201171875
0.143,3.813720703125,3.173095703125,-6.596435546875
0.1435,4.654541015625,1.931884765625,-6.476318359375
0.144,5.175048828125,0.970947265625,-6.396240234375
0.1445,5.335205078125,0.130126953125,-6.075927734375
0.145,5.295166015625,-0.910888671875,-5.395263671875
0.1455,5.135009765625,-2.192138671875,-4.274169921875
0.146,4.974853515625,-3.433349609375,-3.032958984375
0.1465,4.694580078125,-4.474365234375,-1.871826171875
0.147,4.494384765625,-5.235107421875,-1.031005859375
0.1475,3.813720703125,-5.715576171875,0.010009765625
0.148,2.772705078125,-6.035888671875,1.211181640625
0.1485,1.571533203125,-6.316162109375,2.732666015625
0.149,0.410400390625,-6.396240234375,3.933837890625
0.1495,-0.510498046875,-6.556396484375,4.934814453125
0.15,-1.311279296875,-6.396240234375,5.695556640625
0.1505,-2.512451171875,-5.715576171875,6.336181640625
0.151,-3.873779296875,-4.434326171875,6.696533203125
0.1515,-4.994873046875,-3.072998046875,6.776611328125
0.152,-5.715576171875,-1.871826171875,6.576416015625
0.1525,-5.955810546875,-1.071044921875,6.336181640625
0.153,-5.955810546875,-0.190185546875,5.735595703125
0.1535,-5.795654296875,1.091064453125,4.614501953125
0.154,-5.595458984375,2.492431640625,3.373291015625
0.1545,-5.275146484375,3.733642578125,2.052001953125
0.155,-4.954833984375,4.614501953125,1.010986328125
0.1555,-4.474365234375,5.175048828125,0.170166015625
0.156,-3.673583984375,5.495361328125,-0.950927734375
0.1565,-2.312255859375,5.735595703125,-2.432373046875
0.157,-1.031005859375,5.895751953125,-3.873779296875
0.1575,0.090087890625,5.895751953125,-4.954833984375
0.158,0.810791015625,5.935791015625,-5.795654296875
0.1585,1.851806640625,5.415283203125,-6.436279296875
0.159,3.173095703125,4.334228515625,-6.916748046875
0.1595,4.414306640625,3.012939453125,-7.116943359375
0.16,5.335205078125,1.651611328125,-6.996826171875
0.1605,5.775634765625,0.530517578125,-6.716552734375
0.161,5.855712890625,-0.390380859375,-6.316162109375
0.1615,5.735595703125,-1.431396484375,-5.515380859375
0.162,5.455322265625,-2.672607421875,-4.154052734375
0.1625,5.175048828125,-4.033935546875,-2.832763671875
0.163,4.814697265625,-5.074951171875,-1.471435546875
0.1635,4.414306640625,-5.835693359375,-0.630615234375
0.164,3.773681640625,-6.236083984375,0.370361328125
0.1645,2.692626953125,-6.436279296875,1.571533203125
0.165,1.291259765625,-6.596435546875,3.173095703125
0.1655,0.010009765625,-6.596435546875,4.494384765625
0.166,-0.990966796875,-6.596435546875,5.375244140625
0.1665,-1.711669921875,-6.516357421875,6.095947265625
0.167,-2.832763671875,-5.755615234375,6.696533203125
0.1675,-4.154052734375,-4.514404296875,7.016845703125
0.168,-5.275146484375,-3.193115234375,7.096923828125
0.1685,-6.035888671875,-1.871826171875,6.776611328125
0.169,-6.356201171875,-0.950927734375,6.536376953125
0.1695,-6.276123046875,0.010009765625,5.935791015625
0.17,-6.075927734375,1.091064453125,5.054931640625
0.1705,-5.755615234375,2.412353515625,3.693603515625
0.171,-5.435302734375,3.773681640625,2.252197265625
0.1715,-5.034912109375,4.694580078125,1.091064453125
0.172,-4.634521484375,5.335205078125,0.210205078125
0.1725,-3.833740234375,5.615478515625,-0.830810546875
0.173,-2.632568359375,5.815673828125,-2.152099609375
0.1735,-1.351318359375,6.055908203125,-3.633544921875
0.174,0.010009765625,5.935791015625,-4.834716796875
0.1745,0.770751953125,6.015869140625,-5.715576171875
0.175,1.571533203125,5.735595703125,-6.356201171875
0.1755,2.732666015625,4.934814453125,-6.916748046875
0.176,4.093994140625,3.533447265625,-7.156982421875
0.1765,5.094970703125,2.132080078125,-7.156982421875
0.177,5.735595703125,0.850830078125,-6.836669921875
0.1775,5.935791015625,0.010009765625,-6.596435546875
0.178,5.855712890625,-0.950927734375,-5.915771484375
0.1785,5.615478515625,-2.112060546875,-4.794677734375
0.179,5.375244140625,-3.473388671875,-3.433349609375
0.1795,4.974853515625,-4.674560546875,-2.072021484375
0.18,4.614501953125,-5.555419921875,-0.990966796875
0.1805,4.134033203125,-6.115966796875,-0.150146484375
0.181,3.333251953125,-6.396240234375,0.970947265625
0.1815,1.931884765625,-6.556396484375,2.452392578125
0.182,0.570556640625,-6.716552734375,3.973876953125
0.1825,-0.630615234375,-6.636474609375,5.014892578125
0.183,-1.271240234375,-6.716552734375,5.815673828125
0.1835,-2.272216796875,-6.196044921875,6.456298828125
0.184,-3.593505859375,-5.114990234375,6.896728515625
0.1845,-4.834716796875,-3.793701171875,7.096923828125
0.185,-5.755615234375,-2.392333984375,6.976806640625
0.1855,-6.276123046875,-1.271240234375,6.696533203125
0.186,-6.356201171875,-0.430419921875,6.256103515625
0.1865,-6.156005859375,0.610595703125,5.495361328125
0.187,-5.915771484375,1.931884765625,4.214111328125
0.1875,-5.635498046875,3.293212890625,2.812744140625
0.188,-5.275146484375,4.414306640625,1.491455078125
