wavelength,x,y,z
0.0,5.0899658203125,-19.974487304688,15.059692382812
0.0005,7.7725830078125,-19.654174804688,12.176879882812
0.001,11.095825195312,-18.933471679688,8.3331298828125
0.0015,14.419067382812,-18.412963867188,4.4893798828125
0.002,17.421997070312,-16.931518554688,0.2452392578125
0.0025,19.463989257812,-15.410034179688,-3.2781982421875
0.003,20.144653320312,-13.328002929688,-6.0408935546875
0.0035,19.864379882812,-10.164916992188,-8.8436279296875
0.004,19.103637695312,-5.7606201171875,-12.527221679688
0.0045,18.463012695312,-2.1971435546875,-15.490112304688
0.005,17.261840820312,1.5665283203125,-18.012573242188
0.0055,15.980590820312,4.9298095703125,-20.134643554688
0.006,13.057739257812,7.5723876953125,-19.934448242188
0.0065,9.4141845703125,10.655395507812,-19.534057617188
0.007,4.8497314453125,14.338989257812,-18.853393554688
0.0075,0.2452392578125,17.301879882812,-17.331909179688
0.008,-3.2381591796875,19.063598632812,-15.930541992188
0.0085,-6.1209716796875,20.144653320312,-14.369018554688
0.009,-9.0037841796875,19.584106445312,-11.085815429688
0.0095,-12.767456054688,18.623168945312,-6.6414794921875
0.01,-15.810424804688,17.942504882812,-2.8778076171875
0.0105,-18.533081054688,16.380981445312,1.3262939453125
0.011,-20.334838867188,14.779418945312,4.6094970703125
0.0115,-20.294799804688,12.056762695312,7.3321533203125
0.012,-19.934448242188,8.6534423828125,10.295043945312
0.0125,-19.293823242188,4.4093017578125,13.978637695312
0.013,-18.292846679688,0.4454345703125,16.981567382812
0.0135,-16.891479492188,-3.1580810546875,19.103637695312
0.014,-15.530151367188,-6.1610107421875,20.825317382812
0.0145,-12.006713867188,-9.0037841796875,20.224731445312
0.015,-7.6424560546875,-12.487182617188,19.463989257812
0.0155,-3.4383544921875,-15.690307617188,18.703247070312
0.016,1.2862548828125,-18.412963867188,17.021606445312
0.0165,4.5294189453125,-20.014526367188,15.620239257812
0.017,7.3721923828125,-20.334838867188,13.257934570312
0.0175,10.335083007812,-19.894409179688,9.8946533203125
0.018,14.218872070312,-18.853393554688,5.2100830078125
0.0185,17.261840820312,-17.652221679688,1.1260986328125
0.019,19.504028320312,-16.090698242188,-2.6375732421875
0.0195,20.905395507812,-14.409057617188,-5.7205810546875
0.02,20.344848632812,-11.045776367188,-8.4832763671875
0.0205,19.784301757812,-7.1619873046875,-11.806518554688
0.021,19.263793945312,-3.2781982421875,-15.129760742188
0.0215,17.982543945312,0.9659423828125,-18.092651367188
0.022,16.461059570312,4.3292236328125,-19.894409179688
0.0225,14.419067382812,7.1719970703125,-20.815307617188
0.023,10.775512695312,10.094848632812,-20.254760742188
0.0235,5.7305908203125,13.938598632812,-19.213745117188
0.024,1.6065673828125,16.861450195312,-18.212768554688
0.0245,-2.5574951171875,19.143676757812,-16.651245117188
0.025,-5.7205810546875,20.545043945312,-15.129760742188
0.0255,-8.6033935546875,20.024536132812,-12.006713867188
0.026,-11.806518554688,19.504028320312,-8.3631591796875
0.0265,-15.450073242188,18.623168945312,-3.9588623046875
0.027,-18.453002929688,16.981567382812,0.6055908203125
0.0275,-20.214721679688,15.420043945312,3.8887939453125
0.028,-21.135620117188,13.297973632812,6.8516845703125
0.0285,-20.374877929688,9.7344970703125,9.7344970703125
0.029,-19.654174804688,5.4503173828125,13.297973632812
0.0295,-19.053588867188,1.7266845703125,16.380981445312
0.03,-17.692260742188,-2.3572998046875,19.143676757812
0.0305,-16.090698242188,-5.5203857421875,20.785278320312
0.031,-13.207885742188,-8.3231201171875,20.745239257812
0.0315,-9.6043701171875,-11.406127929688,20.304809570312
0.032,-4.3992919921875,-15.249877929688,19.183715820312
0.0325,0.2452392578125,-18.012573242188,17.582153320312
0.033,3.6885986328125,-19.894409179688,16.180786132812
0.0335,6.6514892578125,-20.935424804688,14.419067382812
0.034,9.7344970703125,-20.014526367188,10.735473632812
0.0345,13.177856445312,-19.253784179688,6.6915283203125
0.035,16.541137695312,-18.412963867188,2.5675048828125
0.0355,19.303833007812,-16.611206054688,-1.9569091796875
0.036,20.665161132812,-14.969604492188,-4.8797607421875
0.0365,20.905395507812,-12.206909179688,-7.8426513671875
0.037,20.224731445312,-8.6434326171875,-10.765502929688
0.0375,19.504028320312,-4.2391357421875,-14.449096679688
0.038,18.422973632812,-0.3153076171875,-17.331909179688
0.0385,17.101684570312,3.3682861328125,-19.654174804688
0.039,15.380004882812,6.4112548828125,-21.095581054688
0.0395,11.616333007812,9.3741455078125,-20.334838867188
0.04,7.6925048828125,12.657348632812,-19.854370117188
0.0405,3.0479736328125,16.140747070312,-18.893432617188
0.041,-1.7967529296875,18.703247070312,-16.931518554688
0.0415,-4.7596435546875,20.104614257812,-15.650268554688
0.042,-7.7225341796875,20.665161132812,-13.448120117188
0.0425,-10.885620117188,19.784301757812,-9.5643310546875
0.043,-14.489135742188,18.863403320312,-5.1199951171875
0.0435,-17.612182617188,17.702270507812,-0.9959716796875
0.044,-20.054565429688,15.980590820312,3.1680908203125
0.0445,-21.135620117188,14.138793945312,6.0108642578125
0.045,-20.775268554688,10.775512695312,9.0538330078125
0.0455,-20.174682617188,7.0518798828125,12.176879882812
0.046,-19.574096679688,2.8477783203125,15.780395507812
0.0465,-18.092651367188,-1.3963623046875,18.543090820312
0.047,-16.691284179688,-4.6395263671875,20.464965820312
0.0475,-14.729370117188,-7.5623779296875,21.465942382812
0.048,-10.485229492188,-10.685424804688,20.464965820312
0.0485,-5.9608154296875,-14.128784179688,19.624145507812
0.049,-1.4764404296875,-17.371948242188,18.543090820312
0.0495,3.0479736328125,-19.814331054688,16.661254882812
0.05,5.8507080078125,-20.775268554688,15.099731445312
0.0505,8.9337158203125,-20.695190429688,12.176879882812
0.051,12.296997070312,-19.854370117188,8.1729736328125
0.0515,15.860473632812,-18.893432617188,3.6885986328125
0.052,18.783325195312,-17.331909179688,-0.6756591796875
0.0525,20.825317382812,-15.730346679688,-4.2791748046875
0.053,21.465942382812,-13.448120117188,-7.1619873046875
0.0535,20.785278320312,-9.5643310546875,-10.405151367188
0.054,20.064575195312,-5.6004638671875,-13.608276367188
0.0545,19.423950195312,-1.5965576171875,-17.011596679688
0.055,17.782348632812,2.7276611328125,-19.694213867188
0.0555,16.060668945312,5.7706298828125,-21.095581054688
0.056,13.418090820312,8.7735595703125,-21.495971679688
0.0565,8.9337158203125,12.136840820312,-20.494995117188
0.057,4.1290283203125,15.660278320312,-19.494018554688
0.0575,-0.4754638671875,18.503051757812,-18.052612304688
0.058,-4.4393310546875,20.665161132812,-16.491088867188
0.0585,-7.2020263671875,21.265747070312,-14.449096679688
0.059,-10.525268554688,20.665161132812,-10.765502929688
0.0595,-14.048706054688,19.864379882812,-6.6014404296875
0.06,-17.492065429688,18.703247070312,-2.0770263671875
0.0605,-20.134643554688,16.821411132812,2.4073486328125
0.061,-21.736206054688,15.099731445312,5.6505126953125
0.0615,-21.976440429688,12.296997070312,8.6934814453125
0.062,-21.135620117188,8.0128173828125,12.176879882812
0.0625,-20.374877929688,3.8887939453125,15.500122070312
0.063,-19.333862304688,-0.3153076171875,18.583129882812
0.0635,-17.692260742188,-4.4793701171875,21.185668945312
0.064,-15.570190429688,-7.3621826171875,22.066528320312
0.0645,-12.126831054688,-10.525268554688,21.826293945312
0.065,-7.4022216796875,-14.168823242188,20.945434570312
0.0655,-2.5174560546875,-17.612182617188,19.584106445312
0.066,2.2071533203125,-20.054565429688,17.742309570312
0.0665,5.7305908203125,-21.816284179688,16.260864257812
0.067,8.7735595703125,-21.936401367188,13.578247070312
0.0675,12.256958007812,-20.975463867188,9.2540283203125
0.068,15.820434570312,-20.134643554688,5.0499267578125
0.0685,19.183715820312,-18.693237304688,0.3653564453125
0.069,21.586059570312,-16.691284179688,-4.0389404296875
0.0695,22.466918945312,-14.609252929688,-7.0018310546875
0.07,22.346801757812,-11.205932617188,-10.244995117188
0.0705,21.305786132812,-6.4412841796875,-13.968627929688
0.071,20.464965820312,-2.3973388671875,-17.211791992188
0.0715,18.943481445312,1.9268798828125,-19.934448242188
0.072,17.341918945312,5.8106689453125,-22.296752929688
0.0725,14.579223632812,8.6934814453125,-22.496948242188
0.073,10.375122070312,12.016723632812,-21.816284179688
0.0735,5.6104736328125,15.660278320312,-20.935424804688
0.074,0.5655517578125,19.023559570312,-19.373901367188
0.0745,-3.8787841796875,21.065551757812,-17.331909179688
0.075,-7.0018310546875,22.266723632812,-15.690307617188
0.0755,-10.204956054688,21.986450195312,-12.407104492188
0.076,-13.968627929688,20.745239257812,-7.5623779296875
0.0765,-17.251831054688,19.784301757812,-3.3983154296875
0.077,-20.334838867188,18.022583007812,1.4063720703125
0.0775,-22.456909179688,16.020629882812,5.4903564453125
0.078,-22.737182617188,13.338012695312,8.3731689453125
0.0785,-22.296752929688,9.6143798828125,11.696411132812
0.079,-21.335815429688,4.9698486328125,15.380004882812
0.0795,-20.374877929688,0.7657470703125,18.623168945312
0.08,-18.533081054688,-3.3983154296875,20.945434570312
0.0805,-16.931518554688,-6.8817138671875,22.867309570312
0.081,-13.608276367188,-9.9246826171875,22.667114257812
0.0815,-8.8836669921875,-13.448120117188,21.546020507812
0.082,-4.2791748046875,-16.771362304688,20.585083007812
0.0825,0.9659423828125,-19.894409179688,18.823364257812
0.083,4.9698486328125,-21.776245117188,16.901489257812
0.0835,7.8927001953125,-22.256713867188,14.739379882812
0.084,11.175903320312,-21.816284179688,11.215942382812
0.0845,15.099731445312,-20.575073242188,6.2110595703125
0.085,18.302856445312,-19.373901367188,1.8868408203125
0.0855,20.945434570312,-17.572143554688,-2.5574951171875
0.086,22.747192382812,-15.690307617188,-6.1610107421875
0.0865,22.426879882812,-12.447143554688,-9.1239013671875
0.087,21.786254882812,-8.3231201171875,-12.607299804688
0.0875,21.025512695312,-4.0789794921875,-16.010620117188
0.088,19.824340820312,0.4854736328125,-19.293823242188
0.0885,17.862426757812,4.4093017578125,-21.455932617188
0.089,15.940551757812,7.4923095703125,-22.617065429688
0.0895,12.296997070312,10.615356445312,-22.336791992188
0.09,6.9718017578125,14.579223632812,-21.135620117188
0.0905,2.6876220703125,17.622192382812,-20.054565429688
0.091,-2.1971435546875,20.344848632812,-18.172729492188
0.0915,-5.9207763671875,22.106567382812,-16.411010742188
0.092,-8.8836669921875,21.866333007812,-13.528198242188
0.0925,-12.206909179688,21.305786132812,-9.8045654296875
0.093,-16.170776367188,20.264770507812,-4.9598388671875
0.0935,-19.373901367188,18.623168945312,-0.1951904296875
0.094,-21.536010742188,16.741333007812,3.8487548828125
0.0945,-22.897338867188,14.739379882812,7.1319580078125
0.095,-22.376831054688,11.175903320312,10.174926757812
0.0955,-21.536010742188,6.5313720703125,14.018676757812
0.096,-20.775268554688,2.6075439453125,17.141723632812
0.0965,-19.333862304688,-1.9168701171875,20.224731445312
0.097,-17.492065429688,-5.7606201171875,22.306762695312
0.0975,-14.889526367188,-8.6834716796875,22.587036132812
0.098,-11.205932617188,-11.806518554688,22.266723632812
0.0985,-5.6405029296875,-15.930541992188,20.985473632812
0.099,-0.8358154296875,-18.933471679688,19.463989257812
0.0995,3.4483642578125,-21.095581054688,17.662231445312
0.1,6.9718017578125,-22.577026367188,15.940551757812
0.1005,10.054809570312,-21.936401367188,12.337036132812
0.101,13.618286132812,-21.015502929688,8.0128173828125
0.1015,17.341918945312,-20.174682617188,3.6085205078125
0.102,20.464965820312,-18.252807617188,-1.3963623046875
0.1025,22.266723632812,-16.370971679688,-5.0399169921875
0.103,22.867309570312,-13.768432617188,-8.2030029296875
0.1035,22.306762695312,-10.084838867188,-11.286010742188
0.104,21.345825195312,-5.1199951171875,-15.369995117188
0.1045,20.344848632812,-1.1561279296875,-18.292846679688
0.105,18.743286132812,3.0880126953125,-20.935424804688
0.1055,16.901489257812,6.6915283203125,-22.857299804688
0.106,13.297973632812,9.7344970703125,-22.296752929688
0.1065,9.2540283203125,13.097778320312,-21.776245117188
0.107,4.0489501953125,16.941528320312,-20.695190429688
0.1075,-1.2362060546875,19.904418945312,-18.653198242188
0.108,-4.8397216796875,21.586059570312,-16.971557617188
0.1085,-8.0428466796875,22.546997070312,-14.929565429688
0.109,-11.326049804688,21.706176757812,-10.965698242188
0.1095,-15.209838867188,20.464965820312,-6.1209716796875
0.11,-18.453002929688,19.383911132812,-1.8768310546875
0.1105,-21.215698242188,17.421997070312,2.8477783203125
0.111,-22.697143554688,15.420043945312,6.2510986328125
0.1115,-22.496948242188,12.176879882812,9.3341064453125
0.112,-21.976440429688,8.4132080078125,12.497192382812
0.1125,-21.135620117188,3.6885986328125,16.380981445312
0.113,-19.654174804688,-0.7156982421875,19.423950195312
0.1135,-17.972534179688,-4.5194091796875,21.425903320312
0.114,-16.210815429688,-7.7225341796875,23.027465820312
0.1145,-12.006713867188,-10.805541992188,22.026489257812
0.115,-7.2821044921875,-14.409057617188,21.105590820312
0.1155,-2.7176513671875,-17.772338867188,20.104614257812
0.116,2.4073486328125,-20.454956054688,17.942504882812
0.1165,5.7305908203125,-21.776245117188,16.260864257812
0.117,8.7735595703125,-21.936401367188,13.538208007812
0.1175,12.016723632812,-21.175659179688,9.7745361328125
0.118,15.980590820312,-20.014526367188,4.7696533203125
0.1185,19.063598632812,-18.533081054688,0.3253173828125
0.119,21.185668945312,-16.731323242188,-3.5985107421875
0.1195,22.426879882812,-14.769409179688,-6.7215576171875
0.12,21.626098632812,-11.005737304688,-9.7244873046875
0.1205,20.985473632812,-7.0418701171875,-13.127807617188
0.121,20.344848632812,-2.8778076171875,-16.571166992188
0.1215,18.743286132812,1.5665283203125,-19.534057617188
0.122,16.941528320312,5.0499267578125,-21.135620117188
0.1225,14.739379882812,8.0128173828125,-21.976440429688
0.123,10.815551757812,11.055786132812,-21.215698242188
0.1235,5.5704345703125,14.939575195312,-20.054565429688
0.124,1.2462158203125,17.902465820312,-18.933471679688
0.1245,-3.0780029296875,20.184692382812,-17.171752929688
0.125,-6.2010498046875,21.385864257812,-15.490112304688
0.1255,-9.2440185546875,20.825317382812,-12.126831054688
0.126,-12.527221679688,20.184692382812,-8.3231201171875
0.1265,-16.210815429688,19.223754882812,-3.7987060546875
0.127,-19.133666992188,17.421997070312,0.9259033203125
0.1275,-20.815307617188,15.740356445312,4.1690673828125
0.128,-21.656127929688,13.498168945312,7.1719970703125
0.1285,-20.895385742188,9.7745361328125,10.174926757812
0.129,-20.134643554688,5.4102783203125,13.738403320312
0.1295,-19.494018554688,1.5665283203125,16.861450195312
0.13,-18.052612304688,-2.5574951171875,19.624145507812
0.1305,-16.370971679688,-5.7205810546875,21.145629882812
0.131,-13.408081054688,-8.5233154296875,21.105590820312
0.1315,-9.6444091796875,-11.686401367188,20.625122070312
0.132,-4.4393310546875,-15.530151367188,19.504028320312
0.1325,0.2452392578125,-18.252807617188,17.862426757812
0.133,3.6885986328125,-20.094604492188,16.501098632812
0.1335,6.7315673828125,-21.135620117188,14.659301757812
0.134,9.8946533203125,-20.254760742188,10.815551757812
0.1345,13.418090820312,-19.534057617188,6.6915283203125
0.135,16.781372070312,-18.613159179688,2.5675048828125
0.1355,19.504028320312,-16.811401367188,-1.9569091796875
0.136,20.785278320312,-15.169799804688,-4.7996826171875
0.1365,20.985473632812,-12.407104492188,-7.7625732421875
0.137,20.344848632812,-8.7235107421875,-10.845581054688
0.1375,19.704223632812,-4.3992919921875,-14.529174804688
0.138,18.583129882812,-0.3553466796875,-17.452026367188
0.1385,17.301879882812,3.3282470703125,-19.814331054688
0.139,15.500122070312,6.3712158203125,-21.135620117188
0.1395,11.736450195312,9.3341064453125,-20.454956054688
0.14,7.6925048828125,12.777465820312,-19.934448242188
0.1405,3.0079345703125,16.300903320312,-19.013549804688
0.141,-1.7967529296875,18.863403320312,-17.091674804688
0.1415,-4.6795654296875,20.224731445312,-15.730346679688
0.142,-7.7225341796875,20.705200195312,-13.448120117188
0.1425,-10.925659179688,19.824340820312,-9.4842529296875
0.143,-14.569213867188,18.943481445312,-5.1600341796875
0.1435,-17.652221679688,17.742309570312,-0.9959716796875
0.144,-20.014526367188,16.020629882812,3.1680908203125
0.1445,-20.975463867188,14.138793945312,5.8907470703125
0.145,-20.615112304688,10.735473632812,8.9337158203125
0.1455,-20.054565429688,6.9718017578125,12.096801757812
0.146,-19.494018554688,2.8878173828125,15.620239257812
0.1465,-17.972534179688,-1.3162841796875,18.342895507812
0.147,-16.611206054688,-4.5594482421875,20.224731445312
0.1475,-14.609252929688,-7.4022216796875,21.145629882812
0.148,-10.405151367188,-10.485229492188,20.184692382812
0.1485,-5.9207763671875,-13.968627929688,19.343872070312
0.149,-1.5164794921875,-17.091674804688,18.262817382812
0.1495,2.8477783203125,-19.373901367188,16.501098632812
0.15,5.5704345703125,-20.334838867188,14.979614257812
0.1505,8.5733642578125,-20.214721679688,12.016723632812
0.151,11.896606445312,-19.413940429688,8.0528564453125
0.1515,15.380004882812,-18.533081054688,3.8487548828125
0.152,18.142700195312,-17.011596679688,-0.3953857421875
0.1525,20.064575195312,-15.530151367188,-3.7586669921875
0.153,20.625122070312,-13.287963867188,-6.5614013671875
0.1535,19.864379882812,-9.6043701171875,-9.6043701171875
0.154,19.303833007812,-5.7205810546875,-12.807495117188
0.1545,18.703247070312,-1.8768310546875,-16.050659179688
0.155,17.221801757812,2.2471923828125,-18.613159179688
0.1555,15.700317382812,5.0499267578125,-19.974487304688
0.156,13.097778320312,7.8927001953125,-20.254760742188
0.1565,8.9737548828125,11.095825195312,-19.494018554688
0.157,4.4893798828125,14.459106445312,-18.573120117188
0.1575,0.2052001953125,17.221801757812,-17.251831054688
0.158,-3.4783935546875,19.223754882812,-15.930541992188
0.1585,-6.1209716796875,19.864379882812,-14.088745117188
0.159,-9.1239013671875,19.263793945312,-10.645385742188
0.1595,-12.527221679688,18.703247070312,-6.8416748046875
0.16,-15.850463867188,17.702270507812,-2.6776123046875
0.1605,-18.412963867188,16.060668945312,1.4864501953125
0.161,-19.814331054688,14.659301757812,4.3292236328125
0.1615,-20.134643554688,12.016723632812,7.0919189453125
0.162,-19.413940429688,8.2530517578125,10.214965820312
0.1625,-18.893432617188,4.4893798828125,13.458129882812
0.163,-18.012573242188,0.6456298828125,16.501098632812
0.1635,-16.811401367188,-3.1180419921875,19.023559570312
0.164,-15.089721679688,-5.7606201171875,19.984497070312
0.1645,-11.846557617188,-8.6033935546875,19.704223632812
0.165,-7.7225341796875,-12.046752929688,19.183715820312
0.1655,-3.1981201171875,-15.410034179688,18.142700195312
0.166,1.0460205078125,-17.772338867188,16.581176757812
0.1665,4.0889892578125,-19.413940429688,15.460083007812
0.167,6.8516845703125,-19.734252929688,13.177856445312
0.1675,10.054809570312,-18.933471679688,9.3741455078125
0.168,13.418090820312,-18.412963867188,5.6104736328125
0.1685,16.541137695312,-17.331909179688,1.4464111328125
0.169,18.943481445312,-15.730346679688,-2.5174560546875
0.1695,19.784301757812,-14.008666992188,-5.1199951171875
0.17,19.744262695312,-10.965698242188,-8.0028076171875
0.1705,19.143676757812,-7.0018310546875,-11.326049804688
0.171,18.623168945312,-3.2781982421875,-14.569213867188
0.1715,17.421997070312,0.6055908203125,-17.171752929688
0.172,16.260864257812,3.9688720703125,-19.453979492188
0.1725,13.978637695312,6.6514892578125,-19.934448242188
0.173,10.214965820312,9.6544189453125,-19.333862304688
0.1735,6.0909423828125,13.097778320312,-18.813354492188
0.174,1.5665283203125,16.340942382812,-17.652221679688
0.1745,-2.4373779296875,18.503051757812,-16.090698242188
0.175,-5.1199951171875,19.584106445312,-14.769409179688
0.1755,-8.0028076171875,19.584106445312,-12.046752929688
0.176,-11.526245117188,18.663208007812,-7.7625732421875
0.1765,-14.729370117188,17.942504882812,-4.0389404296875
0.177,-17.532104492188,16.621215820312,0.1251220703125
0.1775,-19.734252929688,15.059692382812,3.7286376953125
0.178,-20.014526367188,12.777465820312,6.3712158203125
