wavelength,x,y,z
0.0,4.78466796875,-4.14404296875,-2.18212890625
0.0005,4.54443359375,-5.06494140625,-1.26123046875
0.001,4.10400390625,-5.66552734375,-0.34033203125
0.0015,3.14306640625,-6.02587890625,0.78076171875
0.002,1.94189453125,-6.26611328125,2.30224609375
0.0025,0.70068359375,-6.30615234375,3.62353515625
0.003,-0.30029296875,-6.38623046875,4.58447265625
0.0035,-0.98095703125,-6.50634765625,5.50537109375
0.004,-2.10205078125,-5.94580078125,6.18603515625
0.0045,-3.54345703125,-4.74462890625,6.58642578125
0.005,-4.74462890625,-3.46337890625,6.82666015625
0.0055,-5.50537109375,-2.10205078125,6.58642578125
0.006,-5.94580078125,-1.18115234375,6.42626953125
0.0065,-6.10595703125,-0.30029296875,6.02587890625
0.007,-6.02587890625,0.82080078125,5.14501953125
0.0075,-5.78564453125,2.18212890625,3.86376953125
0.008,-5.50537109375,3.46337890625,2.54248046875
0.0085,-5.02490234375,4.34423828125,1.30126953125
0.009,-4.74462890625,5.10498046875,0.46044921875
0.0095,-3.94384765625,5.46533203125,-0.66064453125
0.01,-2.70263671875,5.70556640625,-2.06201171875
0.0105,-1.42138671875,5.94580078125,-3.54345703125
0.011,-0.22021484375,5.86572265625,-4.70458984375
0.0115,0.62060546875,5.90576171875,-5.54541015625
0.012,1.50146484375,5.74560546875,-6.34619140625
0.0125,2.74267578125,4.82470703125,-6.86669921875
0.013,4.14404296875,3.42333984375,-7.10693359375
0.0135,5.14501953125,2.06201171875,-7.06689453125
0.014,5.70556640625,0.78076171875,-6.70654296875
0.0145,6.02587890625,-0.18017578125,-6.46630859375
0.015,5.90576171875,-1.14111328125,-5.78564453125
0.0155,5.66552734375,-2.30224609375,-4.58447265625
0.016,5.42529296875,-3.62353515625,-3.26318359375
0.0165,4.94482421875,-4.82470703125,-1.94189453125
0.017,4.50439453125,-5.62548828125,-0.90087890625
0.0175,4.06396484375,-6.26611328125,0.06005859375
0.018,3.18310546875,-6.42626953125,1.14111328125
0.0185,1.78173828125,-6.54638671875,2.62255859375
0.019,0.46044921875,-6.66650390625,4.02392578125
0.0195,-0.70068359375,-6.46630859375,5.02490234375
0.02,-1.34130859375,-6.58642578125,5.82568359375
0.0205,-2.30224609375,-6.14599609375,6.50634765625
0.021,-3.66357421875,-5.02490234375,6.90673828125
0.0215,-4.90478515625,-3.66357421875,7.10693359375
0.022,-5.74560546875,-2.26220703125,6.90673828125
0.0225,-6.22607421875,-1.14111328125,6.54638671875
0.023,-6.42626953125,-0.30029296875,6.26611328125
0.0235,-6.26611328125,0.74072265625,5.46533203125
0.024,-5.98583984375,2.02197265625,4.22412109375
0.0245,-5.74560546875,3.26318359375,2.90283203125
0.025,-5.18505859375,4.34423828125,1.58154296875
0.0255,-4.82470703125,5.10498046875,0.58056640625
0.026,-4.22412109375,5.58544921875,-0.46044921875
0.0265,-3.18310546875,5.78564453125,-1.58154296875
0.027,-1.78173828125,6.02587890625,-3.14306640625
0.0275,-0.50048828125,5.98583984375,-4.46435546875
0.028,0.50048828125,5.90576171875,-5.30517578125
0.0285,1.18115234375,6.02587890625,-6.18603515625
0.029,2.26220703125,5.26513671875,-6.70654296875
0.0295,3.66357421875,3.98388671875,-7.06689453125
0.03,4.78466796875,2.70263671875,-7.18701171875
0.0305,5.50537109375,1.30126953125,-6.86669921875
0.031,5.90576171875,0.30029296875,-6.62646484375
0.0315,6.02587890625,-0.66064453125,-6.18603515625
0.032,5.82568359375,-1.70166015625,-5.26513671875
0.0325,5.58544921875,-3.02294921875,-3.98388671875
0.033,5.22509765625,-4.30419921875,-2.58251953125
0.0335,4.70458984375,-5.26513671875,-1.38134765625
0.034,4.42431640625,-5.94580078125,-0.46044921875
0.0345,3.66357421875,-6.26611328125,0.58056640625
0.035,2.46240234375,-6.46630859375,1.90185546875
0.0355,1.10107421875,-6.66650390625,3.42333984375
0.036,-0.26025390625,-6.54638671875,4.58447265625
0.0365,-0.98095703125,-6.58642578125,5.42529296875
0.037,-1.78173828125,-6.46630859375,6.26611328125
0.0375,-2.98291015625,-5.66552734375,6.74658203125
0.038,-4.38427734375,-4.26416015625,7.06689453125
0.0385,-5.42529296875,-2.90283203125,7.06689453125
0.039,-6.02587890625,-1.58154296875,6.70654296875
0.0395,-6.38623046875,-0.70068359375,6.50634765625
0.04,-6.34619140625,0.30029296875,5.90576171875
0.0405,-6.10595703125,1.42138671875,4.82470703125
0.041,-5.90576171875,2.74267578125,3.46337890625
0.0415,-5.42529296875,3.90380859375,2.02197265625
0.042,-4.98486328125,4.86474609375,0.94091796875
0.0425,-4.58447265625,5.46533203125,0.02001953125
0.043,-3.70361328125,5.74560546875,-1.14111328125
0.0435,-2.30224609375,5.94580078125,-2.58251953125
0.044,-0.98095703125,6.10595703125,-4.02392578125
0.0445,0.26025390625,5.94580078125,-5.10498046875
0.045,0.94091796875,6.02587890625,-5.90576171875
0.0455,1.90185546875,5.62548828125,-6.62646484375
0.046,3.18310546875,4.54443359375,-7.06689453125
0.0465,4.50439453125,3.18310546875,-7.30712890625
0.047,5.42529296875,1.78173828125,-7.06689453125
0.0475,5.90576171875,0.58056640625,-6.74658203125
0.048,6.14599609375,-0.38037109375,-6.46630859375
0.0485,6.02587890625,-1.42138671875,-5.66552734375
0.049,5.74560546875,-2.70263671875,-4.42431640625
0.0495,5.42529296875,-4.02392578125,-3.06298828125
0.05,4.94482421875,-5.06494140625,-1.62158203125
0.0505,4.50439453125,-5.82568359375,-0.66064453125
0.051,3.94384765625,-6.34619140625,0.34033203125
0.0515,2.86279296875,-6.50634765625,1.54150390625
0.052,1.46142578125,-6.70654296875,3.10302734375
0.0525,0.14013671875,-6.62646484375,4.38427734375
0.053,-0.90087890625,-6.54638671875,5.26513671875
0.0535,-1.58154296875,-6.62646484375,6.10595703125
0.054,-2.66259765625,-5.90576171875,6.70654296875
0.0545,-4.02392578125,-4.66455078125,7.02685546875
0.055,-5.18505859375,-3.30322265625,7.10693359375
0.0555,-5.90576171875,-1.94189453125,6.78662109375
0.056,-6.34619140625,-0.94091796875,6.50634765625
0.0565,-6.38623046875,0.02001953125,6.10595703125
0.057,-6.18603515625,0.98095703125,5.18505859375
0.0575,-5.94580078125,2.26220703125,3.86376953125
0.058,-5.54541015625,3.54345703125,2.54248046875
0.0585,-5.06494140625,4.50439453125,1.30126953125
0.059,-4.74462890625,5.26513671875,0.38037109375
0.0595,-3.98388671875,5.58544921875,-0.66064453125
0.06,-2.82275390625,5.74560546875,-1.94189453125
0.0605,-1.50146484375,5.94580078125,-3.38330078125
0.061,-0.30029296875,5.82568359375,-4.54443359375
0.0615,0.62060546875,5.86572265625,-5.42529296875
0.062,1.34130859375,5.82568359375,-6.22607421875
0.0625,2.46240234375,5.06494140625,-6.70654296875
0.063,3.82373046875,3.78369140625,-6.98681640625
0.0635,4.82470703125,2.46240234375,-7.02685546875
0.064,5.46533203125,1.14111328125,-6.66650390625
0.0645,5.82568359375,0.26025390625,-6.54638671875
0.065,5.82568359375,-0.74072265625,-5.98583984375
0.0655,5.62548828125,-1.82177734375,-5.02490234375
0.066,5.42529296875,-3.06298828125,-3.78369140625
0.0665,5.02490234375,-4.18408203125,-2.42236328125
0.067,4.62451171875,-5.10498046875,-1.34130859375
0.0675,4.34423828125,-5.82568359375,-0.50048828125
0.068,3.54345703125,-6.10595703125,0.62060546875
0.0685,2.30224609375,-6.34619140625,1.94189453125
0.069,1.06103515625,-6.50634765625,3.34326171875
0.0695,-0.18017578125,-6.38623046875,4.42431640625
0.07,-0.90087890625,-6.54638671875,5.34521484375
0.0705,-1.74169921875,-6.38623046875,6.06591796875
0.071,-2.94287109375,-5.42529296875,6.54638671875
0.0715,-4.26416015625,-4.14404296875,6.82666015625
0.072,-5.22509765625,-2.82275390625,6.70654296875
0.0725,-5.78564453125,-1.66162109375,6.46630859375
0.073,-6.10595703125,-0.82080078125,6.34619140625
0.0735,-6.10595703125,0.10009765625,5.62548828125
0.074,-5.82568359375,1.30126953125,4.58447265625
0.0745,-5.62548828125,2.58251953125,3.38330078125
0.075,-5.18505859375,3.70361328125,2.06201171875
0.0755,-4.86474609375,4.50439453125,1.06103515625
0.076,-4.42431640625,5.10498046875,0.18017578125
0.0765,-3.54345703125,5.38525390625,-0.98095703125
0.077,-2.30224609375,5.62548828125,-2.38232421875
0.0775,-1.02099609375,5.70556640625,-3.66357421875
0.078,-0.14013671875,5.66552734375,-4.58447265625
0.0785,0.62060546875,5.86572265625,-5.46533203125
0.079,1.58154296875,5.38525390625,-6.10595703125
0.0795,2.86279296875,4.30419921875,-6.46630859375
0.08,3.98388671875,3.18310546875,-6.74658203125
0.0805,4.78466796875,1.78173828125,-6.50634765625
0.081,5.30517578125,0.82080078125,-6.38623046875
0.0815,5.42529296875,0.06005859375,-6.10595703125
0.082,5.42529296875,-0.90087890625,-5.42529296875
0.0825,5.22509765625,-2.02197265625,-4.38427734375
0.083,4.98486328125,-3.22314453125,-3.18310546875
0.0835,4.62451171875,-4.18408203125,-2.02197265625
0.084,4.42431640625,-5.06494140625,-1.14111328125
0.0845,3.86376953125,-5.50537109375,-0.30029296875
0.085,2.98291015625,-5.78564453125,0.90087890625
0.0855,1.94189453125,-6.10595703125,2.18212890625
0.086,0.74072265625,-6.10595703125,3.34326171875
0.0865,0.02001953125,-6.26611328125,4.30419921875
0.087,-0.86083984375,-6.38623046875,5.14501953125
0.0875,-1.82177734375,-5.90576171875,5.74560546875
0.088,-3.10302734375,-4.82470703125,6.18603515625
0.0885,-4.14404296875,-3.70361328125,6.34619140625
0.089,-4.90478515625,-2.54248046875,6.22607421875
0.0895,-5.42529296875,-1.66162109375,6.18603515625
0.09,-5.62548828125,-0.90087890625,5.90576171875
0.0905,-5.54541015625,0.14013671875,5.14501953125
0.091,-5.42529296875,1.26123046875,4.22412109375
0.0915,-5.18505859375,2.42236328125,3.06298828125
0.092,-4.90478515625,3.34326171875,2.02197265625
0.0925,-4.74462890625,4.22412109375,1.22119140625
0.093,-4.18408203125,4.70458984375,0.30029296875
0.0935,-3.22314453125,5.02490234375,-0.98095703125
0.094,-2.22216796875,5.38525390625,-2.30224609375
0.0945,-1.14111328125,5.38525390625,-3.38330078125
0.095,-0.46044921875,5.66552734375,-4.38427734375
0.0955,0.50048828125,5.62548828125,-5.22509765625
0.096,1.58154296875,4.98486328125,-5.78564453125
0.0965,2.82275390625,3.94384765625,-6.26611328125
0.097,3.82373046875,2.78271484375,-6.26611328125
0.0975,4.54443359375,1.62158203125,-6.30615234375
0.098,4.98486328125,0.98095703125,-6.14599609375
0.0985,5.10498046875,0.14013671875,-5.74560546875
0.099,5.06494140625,-0.98095703125,-4.98486328125
0.0995,4.98486328125,-2.10205078125,-4.02392578125
0.1,4.66455078125,-3.18310546875,-2.86279296875
0.1005,4.50439453125,-4.14404296875,-1.94189453125
0.101,4.26416015625,-4.82470703125,-1.14111328125
0.1015,3.58349609375,-5.26513671875,-0.18017578125
0.102,2.66259765625,-5.66552734375,1.14111328125
0.1025,1.58154296875,-5.82568359375,2.38232421875
0.103,0.70068359375,-6.02587890625,3.38330078125
0.1035,0.02001953125,-6.34619140625,4.42431640625
0.104,-1.02099609375,-6.10595703125,5.14501953125
0.1045,-2.22216796875,-5.30517578125,5.70556640625
0.105,-3.34326171875,-4.34423828125,6.06591796875
0.1055,-4.38427734375,-3.22314453125,5.98583984375
0.106,-4.90478515625,-2.18212890625,6.02587890625
0.1065,-5.26513671875,-1.42138671875,5.90576171875
0.107,-5.34521484375,-0.62060546875,5.46533203125
0.1075,-5.26513671875,0.50048828125,4.62451171875
0.108,-5.18505859375,1.66162109375,3.62353515625
0.1085,-4.90478515625,2.70263671875,2.54248046875
0.109,-4.82470703125,3.66357421875,1.66162109375
0.1095,-4.38427734375,4.22412109375,0.82080078125
0.11,-3.62353515625,4.62451171875,-0.34033203125
0.1105,-2.78271484375,5.10498046875,-1.58154296875
0.111,-1.66162109375,5.22509765625,-2.70263671875
0.1115,-0.90087890625,5.42529296875,-3.70361328125
0.112,-0.18017578125,5.62548828125,-4.66455078125
0.1125,0.90087890625,5.22509765625,-5.42529296875
0.113,2.10205078125,4.34423828125,-5.82568359375
0.1135,3.26318359375,3.42333984375,-6.14599609375
0.114,4.02392578125,2.18212890625,-6.02587890625
0.1145,4.66455078125,1.38134765625,-6.14599609375
0.115,4.94482421875,0.62060546875,-5.86572265625
0.1155,4.94482421875,-0.42041015625,-5.26513671875
0.116,4.94482421875,-1.50146484375,-4.46435546875
0.1165,4.78466796875,-2.62255859375,-3.34326171875
0.117,4.50439453125,-3.58349609375,-2.42236328125
0.1175,4.46435546875,-4.50439453125,-1.58154296875
0.118,3.98388671875,-5.02490234375,-0.70068359375
0.1185,3.06298828125,-5.42529296875,0.58056640625
0.119,2.14208984375,-5.78564453125,1.78173828125
0.1195,1.10107421875,-5.86572265625,2.90283203125
0.12,0.42041015625,-6.22607421875,3.90380859375
0.1205,-0.58056640625,-6.30615234375,4.78466796875
0.121,-1.62158203125,-5.70556640625,5.42529296875
0.1215,-2.82275390625,-4.70458984375,5.74560546875
0.122,-3.90380859375,-3.54345703125,6.02587890625
0.1225,-4.62451171875,-2.50244140625,5.94580078125
0.123,-5.18505859375,-1.74169921875,6.02587890625
0.1235,-5.34521484375,-0.98095703125,5.66552734375
0.124,-5.30517578125,0.18017578125,4.86474609375
0.1245,-5.30517578125,1.30126953125,3.98388671875
0.125,-5.02490234375,2.42236328125,2.86279296875
0.1255,-4.86474609375,3.34326171875,1.94189453125
0.126,-4.62451171875,4.14404296875,1.10107421875
0.1265,-3.98388671875,4.62451171875,0.14013671875
0.127,-3.02294921875,4.98486328125,-1.26123046875
0.1275,-1.98193359375,5.26513671875,-2.50244140625
0.128,-1.06103515625,5.38525390625,-3.50341796875
0.1285,-0.38037109375,5.70556640625,-4.46435546875
0.129,0.70068359375,5.42529296875,-5.26513671875
0.1295,1.74169921875,4.46435546875,-5.74560546875
0.13,3.06298828125,3.58349609375,-6.18603515625
0.1305,3.98388671875,2.30224609375,-6.10595703125
0.131,4.62451171875,1.42138671875,-6.10595703125
0.1315,5.02490234375,0.66064453125,-6.02587890625
0.132,5.10498046875,-0.30029296875,-5.50537109375
0.1325,4.98486328125,-1.42138671875,-4.54443359375
0.133,4.90478515625,-2.62255859375,-3.54345703125
0.1335,4.58447265625,-3.62353515625,-2.42236328125
0.134,4.50439453125,-4.54443359375,-1.58154296875
0.1345,4.02392578125,-5.10498046875,-0.66064453125
0.135,3.18310546875,-5.46533203125,0.50048828125
0.1355,2.18212890625,-5.90576171875,1.86181640625
0.136,1.10107421875,-5.94580078125,3.02294921875
0.1365,0.34033203125,-6.22607421875,3.90380859375
0.137,-0.62060546875,-6.34619140625,4.90478515625
0.1375,-1.66162109375,-5.82568359375,5.58544921875
0.138,-2.94287109375,-4.78466796875,6.06591796875
0.1385,-4.10400390625,-3.62353515625,6.26611328125
0.139,-4.82470703125,-2.42236328125,6.10595703125
0.1395,-5.42529296875,-1.58154296875,6.14599609375
0.14,-5.58544921875,-0.78076171875,5.78564453125
0.1405,-5.50537109375,0.30029296875,5.02490234375
0.141,-5.42529296875,1.50146484375,3.98388671875
0.1415,-5.18505859375,2.66259765625,2.82275390625
0.142,-4.86474609375,3.58349609375,1.78173828125
0.1425,-4.66455078125,4.42431640625,0.94091796875
0.143,-4.02392578125,4.82470703125,0.02001953125
0.1435,-2.94287109375,5.10498046875,-1.38134765625
0.144,-1.94189453125,5.46533203125,-2.70263671875
0.1445,-0.94091796875,5.42529296875,-3.70361328125
0.145,0.02001953125,5.66552734375,-4.70458984375
0.1455,0.82080078125,5.50537109375,-5.46533203125
0.146,1.98193359375,4.78466796875,-6.10595703125
0.1465,3.34326171875,3.58349609375,-6.42626953125
0.147,4.26416015625,2.38232421875,-6.42626953125
0.1475,4.90478515625,1.30126953125,-6.26611328125
0.148,5.26513671875,0.50048828125,-6.22607421875
0.1485,5.30517578125,-0.50048828125,-5.62548828125
0.149,5.18505859375,-1.58154296875,-4.66455078125
0.1495,5.10498046875,-2.82275390625,-3.58349609375
0.15,4.74462890625,-3.86376953125,-2.34228515625
0.1505,4.50439453125,-4.74462890625,-1.42138671875
0.151,4.14404296875,-5.42529296875,-0.58056640625
0.1515,3.34326171875,-5.74560546875,0.58056640625
0.152,2.18212890625,-6.06591796875,1.94189453125
0.1525,1.10107421875,-6.14599609375,3.18310546875
0.153,0.10009765625,-6.26611328125,4.14404296875
0.1535,-0.70068359375,-6.50634765625,5.10498046875
0.154,-1.74169921875,-6.06591796875,5.82568359375
0.1545,-3.06298828125,-4.98486328125,6.34619140625
0.155,-4.30419921875,-3.78369140625,6.58642578125
0.1555,-5.14501953125,-2.50244140625,6.42626953125
0.156,-5.66552734375,-1.50146484375,6.34619140625
0.1565,-5.90576171875,-0.70068359375,6.06591796875
0.157,-5.86572265625,0.38037109375,5.38525390625
0.1575,-5.70556640625,1.62158203125,4.18408203125
0.158,-5.50537109375,2.90283203125,2.98291015625
0.1585,-5.06494140625,3.90380859375,1.74169921875
0.159,-4.82470703125,4.74462890625,0.82080078125
0.1595,-4.14404296875,5.18505859375,-0.26025390625
0.16,-3.10302734375,5.46533203125,-1.50146484375
0.1605,-1.82177734375,5.66552734375,-3.14306640625
0.161,-0.66064453125,5.74560546875,-4.18408203125
0.1615,0.30029296875,5.78564453125,-5.10498046875
0.162,1.02099609375,5.82568359375,-5.94580078125
0.1625,2.26220703125,5.02490234375,-6.54638671875
0.163,3.66357421875,3.70361328125,-6.90673828125
0.1635,4.78466796875,2.42236328125,-6.98681640625
0.164,5.42529296875,1.10107421875,-6.66650390625
0.1645,5.78564453125,0.22021484375,-6.46630859375
0.165,5.78564453125,-0.78076171875,-5.90576171875
0.1655,5.62548828125,-1.94189453125,-4.82470703125
0.166,5.42529296875,-3.30322265625,-3.54345703125
0.1665,5.06494140625,-4.50439453125,-2.22216796875
0.167,4.58447265625,-5.30517578125,-1.10107421875
0.1675,4.22412109375,-5.94580078125,-0.26025390625
0.168,3.34326171875,-6.26611328125,0.94091796875
0.1685,1.90185546875,-6.50634765625,2.42236328125
0.169,0.70068359375,-6.66650390625,3.82373046875
0.1695,-0.50048828125,-6.54638671875,4.82470703125
0.17,-1.22119140625,-6.54638671875,5.66552734375
0.1705,-2.10205078125,-6.22607421875,6.38623046875
0.171,-3.46337890625,-5.14501953125,6.82666015625
0.1715,-4.78466796875,-3.74365234375,7.06689453125
0.172,-5.66552734375,-2.38232421875,6.90673828125
0.1725,-6.14599609375,-1.22119140625,6.54638671875
0.173,-6.38623046875,-0.38037109375,6.30615234375
0.1735,-6.26611328125,0.70068359375,5.50537109375
0.174,-5.98583984375,1.94189453125,4.22412109375
0.1745,-5.70556640625,3.26318359375,2.94287109375
0.175,-5.18505859375,4.34423828125,1.58154296875
0.1755,-4.78466796875,5.10498046875,0.58056640625
0.176,-4.22412109375,5.58544921875,-0.46044921875
0.1765,-3.14306640625,5.82568359375,-1.62158203125
0.177,-1.78173828125,5.94580078125,-3.14306640625
0.1775,-0.54052734375,5.98583984375,-4.46435546875
0.178,0.54052734375,5.90576171875,-5.34521484375
0.1785,1.22119140625,5.94580078125,-6.14599609375
0.179,2.26220703125,5.34521484375,-6.74658203125
0.1795,3.58349609375,4.06396484375,-7.06689453125
0.18,4.78466796875,2.74267578125,-7.22705078125
0.1805,5.54541015625,1.30126953125,-6.90673828125
0.181,5.90576171875,0.30029296875,-6.62646484375
0.1815,6.02587890625,-0.62060546875,-6.22607421875
0.182,5.82568359375,-1.58154296875,-5.34521484375
0.1825,5.54541015625,-2.94287109375,-3.98388671875
0.183,5.22509765625,-4.22412109375,-2.62255859375
0.1835,4.74462890625,-5.14501953125,-1.38134765625
0.184,4.42431640625,-5.90576171875,-0.50048828125
0.1845,3.58349609375,-6.26611328125,0.66064453125
0.185,2.54248046875,-6.50634765625,1.86181640625
0.1855,1.22119140625,-6.70654296875,3.30322265625
0.186,-0.18017578125,-6.54638671875,4.50439453125
0.1865,-0.98095703125,-6.58642578125,5.38525390625
0.187,-1.70166015625,-6.54638671875,6.14599609375
0.1875,-2.86279296875,-5.74560546875,6.70654296875
0.188,-4.22412109375,-4.38427734375,7.02685546875
0.1885,-5.30517578125,-3.06298828125,7.06689453125
0.189,-5.94580078125,-1.70166015625,6.70654296875
0.1895,-6.34619140625,-0.82080078125,6.50634765625
0.19,-6.34619140625,0.14013671875,5.94580078125
0.1905,-6.10595703125,1.26123046875,4.94482421875
0.191,-5.86572265625,2.58251953125,3.66357421875
0.1915,-5.46533203125,3.82373046875,2.26220703125
0.192,-5.06494140625,4.70458984375,1.10107421875
0.1925,-4.62451171875,5.30517578125,0.14013671875
0.193,-3.78369140625,5.66552734375,-0.98095703125
0.1935,-2.46240234375,5.90576171875,-2.42236328125
0.194,-1.18115234375,6.10595703125,-3.86376953125
0.1945,0.10009765625,5.94580078125,-4.98486328125
0.195,0.82080078125,6.06591796875,-5.78564453125
0.1955,1.74169921875,5.74560546875,-6.54638671875
0.196,2.98291015625,4.74462890625,-6.98681640625
0.1965,4.34423828125,3.34326171875,-7.26708984375
0.197,5.30517578125,1.94189453125,-7.10693359375
0.1975,5.82568359375,0.70068359375,-6.74658203125
0.198,6.10595703125,-0.30029296875,-6.54638671875
0.1985,5.98583984375,-1.26123046875,-5.74560546875
0.199,5.74560546875,-2.54248046875,-4.50439453125
