wavelength,x,y,z
0.0,-2.40234375,3.5234375,-1.5615234375
0.0005,-2.8828125,3.6435546875,-1.2412109375
0.001,-3.203125,3.04296875,-0.400390625
0.0015,-3.6435546875,3.0029296875,0.1201171875
0.002,-3.8837890625,2.4423828125,1.0009765625
0.0025,-4.1240234375,2.162109375,1.44140625
0.003,-3.9638671875,1.28125,2.2021484375
0.0035,-3.7236328125,0.6005859375,2.6025390625
0.004,-3.3232421875,-0.4404296875,3.1630859375
0.0045,-3.0029296875,-1.1611328125,3.5634765625
0.005,-2.6025390625,-1.9619140625,3.9638671875
0.0055,-2.001953125,-2.3623046875,3.763671875
0.006,-1.4013671875,-3.0830078125,3.84375
0.0065,-0.5205078125,-3.4033203125,3.2431640625
0.007,0.240234375,-4.00390625,3.123046875
0.0075,1.28125,-4.244140625,2.3623046875
0.008,1.841796875,-4.484375,2.001953125
0.0085,2.2822265625,-4.2041015625,1.2412109375
0.009,2.642578125,-4.1240234375,0.80078125
0.0095,2.962890625,-3.603515625,0.0
0.01,3.3232421875,-3.283203125,-0.640625
0.0105,3.603515625,-2.72265625,-1.44140625
0.011,3.4833984375,-2.2021484375,-1.8017578125
0.0115,3.36328125,-1.361328125,-2.5224609375
0.012,2.8427734375,-0.5205078125,-2.802734375
0.0125,2.642578125,0.2001953125,-3.283203125
0.013,2.08203125,1.0009765625,-3.5634765625
0.0135,1.841796875,1.6015625,-3.84375
0.014,1.0810546875,1.9619140625,-3.4833984375
0.0145,0.6005859375,2.5224609375,-3.4833984375
0.015,-0.2802734375,2.802734375,-2.9228515625
0.0155,-0.9609375,3.3232421875,-2.7626953125
0.016,-1.8818359375,3.603515625,-2.1220703125
0.0165,-2.2421875,3.5634765625,-1.8017578125
0.017,-2.72265625,3.4833984375,-1.1611328125
0.0175,-2.962890625,3.1630859375,-0.6806640625
0.018,-3.4833984375,2.962890625,0.0400390625
0.0185,-3.7236328125,2.5224609375,0.720703125
0.019,-4.1240234375,2.2021484375,1.44140625
0.0195,-3.8037109375,1.4013671875,1.8818359375
0.02,-3.8837890625,0.80078125,2.6025390625
0.0205,-3.203125,-0.2802734375,2.9228515625
0.021,-3.1630859375,-0.9208984375,3.5234375
0.0215,-2.5224609375,-1.8818359375,3.763671875
0.022,-2.1220703125,-2.322265625,3.84375
0.0225,-1.361328125,-2.8828125,3.6435546875
0.023,-0.7607421875,-3.36328125,3.4833984375
0.0235,0.16015625,-3.8037109375,2.962890625
0.024,0.9609375,-4.2041015625,2.6025390625
0.0245,1.921875,-4.564453125,1.921875
0.025,2.2421875,-4.244140625,1.28125
0.0255,2.8427734375,-4.244140625,0.720703125
0.026,3.0029296875,-3.603515625,0.0400390625
0.0265,3.4033203125,-3.36328125,-0.640625
0.027,3.603515625,-2.72265625,-1.44140625
0.0275,3.8037109375,-2.2822265625,-2.08203125
0.028,3.3232421875,-1.28125,-2.5625
0.0285,3.203125,-0.640625,-3.0830078125
0.029,2.482421875,0.3203125,-3.2431640625
0.0295,2.322265625,0.9609375,-3.7236328125
0.03,1.6416015625,1.921875,-3.9638671875
0.0305,1.041015625,2.2822265625,-3.7236328125
0.031,0.3603515625,2.802734375,-3.5634765625
0.0315,-0.3603515625,3.123046875,-3.1630859375
0.032,-1.1611328125,3.4833984375,-2.6826171875
0.0325,-2.001953125,3.68359375,-2.1220703125
0.033,-2.7626953125,3.8837890625,-1.6015625
0.0335,-3.04296875,3.4033203125,-0.9208984375
0.034,-3.5234375,3.5234375,-0.48046875
0.0345,-3.6435546875,2.8427734375,0.3603515625
0.035,-4.00390625,2.6025390625,0.9609375
0.0355,-4.244140625,1.921875,1.841796875
0.036,-4.2041015625,1.3212890625,2.322265625
0.0365,-3.8037109375,0.400390625,2.8828125
0.037,-3.5634765625,-0.400390625,3.3232421875
0.0375,-2.8828125,-1.3212890625,3.6435546875
0.038,-2.5625,-2.08203125,4.00390625
0.0385,-1.8818359375,-2.962890625,4.1640625
0.039,-1.0810546875,-3.283203125,3.7236328125
0.0395,-0.5205078125,-3.8837890625,3.763671875
0.04,0.560546875,-4.1640625,3.0029296875
0.0405,1.3212890625,-4.6044921875,2.5625
0.041,2.322265625,-4.8046875,1.841796875
0.0415,3.04296875,-4.8447265625,1.12109375
0.042,3.2431640625,-4.2041015625,0.3203125
0.0425,3.7236328125,-4.1240234375,-0.2001953125
0.043,3.84375,-3.2431640625,-1.1611328125
0.0435,4.083984375,-2.8828125,-1.8017578125
0.044,4.2041015625,-2.001953125,-2.7626953125
0.0445,3.84375,-1.1611328125,-3.203125
0.045,3.4033203125,-0.2001953125,-3.68359375
0.0455,2.8427734375,0.6806640625,-3.923828125
0.046,2.08203125,1.6416015625,-4.1640625
0.0465,1.6015625,2.3623046875,-4.3642578125
0.047,0.80078125,3.203125,-4.3642578125
0.0475,-0.1201171875,3.4033203125,-3.68359375
0.048,-0.6806640625,3.8837890625,-3.5634765625
0.0485,-1.9619140625,4.083984375,-2.5625
0.049,-2.6025390625,4.2841796875,-2.1220703125
0.0495,-3.5234375,4.32421875,-1.3212890625
0.05,-3.9638671875,4.1240234375,-0.6005859375
0.0505,-4.1640625,3.5634765625,0.16015625
0.051,-4.5244140625,3.283203125,0.7607421875
0.0515,-4.64453125,2.3623046875,1.8017578125
0.052,-4.6845703125,1.921875,2.2822265625
0.0525,-4.8447265625,1.041015625,3.283203125
0.053,-4.1640625,0.0,3.5634765625
0.0535,-3.8837890625,-0.80078125,4.1240234375
0.054,-3.04296875,-1.9619140625,4.32421875
0.0545,-2.40234375,-2.8828125,4.564453125
0.055,-1.681640625,-3.5634765625,4.5244140625
0.0555,-0.8408203125,-4.32421875,4.484375
0.056,0.1201171875,-4.5244140625,3.7236328125
0.0565,0.80078125,-5.0849609375,3.5234375
0.057,2.2822265625,-5.28515625,2.2822265625
0.0575,2.8427734375,-5.4052734375,1.841796875
0.058,3.763671875,-5.28515625,0.880859375
0.0585,4.1640625,-4.8447265625,0.080078125
0.059,4.32421875,-4.1640625,-0.720703125
0.0595,4.6044921875,-3.68359375,-1.5615234375
0.06,4.7646484375,-2.6025390625,-2.6826171875
0.0605,4.6044921875,-2.001953125,-3.123046875
0.061,4.6044921875,-1.0009765625,-4.1240234375
0.0615,3.68359375,0.16015625,-4.2841796875
0.062,3.2431640625,1.0009765625,-4.64453125
0.0625,2.2421875,2.2421875,-4.8447265625
0.063,1.4814453125,3.123046875,-4.96484375
0.0635,0.6806640625,3.68359375,-4.6845703125
0.064,-0.3203125,4.4443359375,-4.484375
0.0645,-1.28125,4.404296875,-3.5634765625
0.065,-2.0419921875,4.8447265625,-3.203125
0.0655,-3.5234375,4.96484375,-1.9619140625
0.066,-3.9638671875,4.9248046875,-1.3212890625
0.0665,-4.724609375,4.64453125,-0.3603515625
0.067,-5.0048828125,4.083984375,0.48046875
0.0675,-5.0849609375,3.4033203125,1.201171875
0.068,-5.28515625,2.6826171875,2.08203125
0.0685,-5.4052734375,1.76171875,3.1630859375
0.069,-5.044921875,1.0009765625,3.5234375
0.0695,-4.96484375,0.0400390625,4.404296875
0.07,-3.8837890625,-1.201171875,4.484375
0.0705,-3.5634765625,-1.9619140625,4.884765625
0.071,-2.322265625,-3.36328125,5.0048828125
0.0715,-1.7216796875,-4.0439453125,5.0849609375
0.072,-0.720703125,-4.564453125,4.6044921875
0.0725,0.16015625,-5.28515625,4.32421875
0.073,1.12109375,-5.28515625,3.443359375
0.0735,2.0419921875,-5.765625,2.962890625
0.074,3.5234375,-5.845703125,1.7216796875
0.0745,3.8837890625,-5.5654296875,1.0810546875
0.075,4.64453125,-5.28515625,0.0400390625
0.0755,4.8046875,-4.564453125,-0.8408203125
0.076,4.9248046875,-3.923828125,-1.6015625
0.0765,5.0849609375,-3.04296875,-2.6025390625
0.077,5.1650390625,-2.08203125,-3.603515625
0.0775,4.6044921875,-1.1611328125,-3.923828125
0.078,4.484375,-0.16015625,-4.7646484375
0.0785,3.2431640625,1.12109375,-4.7646484375
0.079,2.8828125,1.841796875,-5.0849609375
0.0795,1.6416015625,3.203125,-5.1650390625
0.08,0.9609375,3.84375,-5.125
0.0805,-0.1201171875,4.2841796875,-4.5244140625
0.081,-1.0009765625,4.8046875,-4.2041015625
0.0815,-1.9619140625,4.7646484375,-3.2431640625
0.082,-2.8828125,5.1650390625,-2.6826171875
0.0825,-4.2041015625,5.28515625,-1.44140625
0.083,-4.5244140625,4.8046875,-0.720703125
0.0835,-5.125,4.5244140625,0.2001953125
0.084,-5.205078125,3.7236328125,1.0009765625
0.0845,-5.3251953125,3.1630859375,1.7216796875
0.085,-5.4453125,2.162109375,2.7626953125
0.0855,-5.525390625,1.4013671875,3.6435546875
0.086,-4.8447265625,0.3603515625,3.9638671875
0.0865,-4.64453125,-0.6005859375,4.6845703125
0.087,-3.4833984375,-1.841796875,4.6845703125
0.0875,-3.1630859375,-2.5625,5.044921875
0.088,-1.9619140625,-3.8837890625,5.125
0.0885,-1.28125,-4.4443359375,4.8447265625
0.089,-0.16015625,-4.9248046875,4.32421875
0.0895,0.640625,-5.3251953125,3.923828125
0.09,1.5615234375,-5.365234375,3.0830078125
0.0905,2.5625,-5.6455078125,2.40234375
0.091,3.84375,-5.8056640625,1.3212890625
0.0915,4.083984375,-5.1650390625,0.5205078125
0.092,4.6845703125,-5.0048828125,-0.3203125
0.0925,4.64453125,-4.0439453125,-1.2412109375
0.093,4.8447265625,-3.5634765625,-1.8818359375
0.0935,4.9248046875,-2.5224609375,-2.962890625
0.094,4.96484375,-1.8017578125,-3.7236328125
0.0945,4.1640625,-0.640625,-4.0439453125
0.095,3.8837890625,0.2802734375,-4.64453125
0.0955,2.802734375,1.4013671875,-4.64453125
0.096,2.4423828125,2.08203125,-4.884765625
0.0965,1.3212890625,3.3232421875,-5.044921875
0.097,0.6005859375,3.68359375,-4.6044921875
0.0975,-0.3603515625,4.1640625,-4.2041015625
0.098,-1.2412109375,4.484375,-3.603515625
0.0985,-2.08203125,4.64453125,-2.9228515625
0.099,-3.0830078125,4.8447265625,-2.162109375
0.0995,-4.0439453125,4.96484375,-1.28125
0.1,-4.2041015625,4.2041015625,-0.400390625
0.1005,-4.8046875,4.1240234375,0.240234375
0.101,-4.7646484375,3.1630859375,1.12109375
0.1015,-5.0048828125,2.8427734375,1.681640625
0.102,-5.125,1.841796875,2.7626953125
0.1025,-4.96484375,1.201171875,3.2431640625
0.103,-4.3642578125,0.0400390625,3.763671875
0.1035,-4.00390625,-0.80078125,4.1640625
0.104,-3.123046875,-1.841796875,4.32421875
0.1045,-2.72265625,-2.5625,4.6044921875
0.105,-1.8017578125,-3.68359375,4.7646484375
0.1055,-1.0009765625,-3.8837890625,4.1240234375
0.106,-0.2802734375,-4.5244140625,4.083984375
0.1065,0.6806640625,-4.64453125,3.3232421875
0.107,1.44140625,-5.0048828125,2.8828125
0.1075,2.5224609375,-5.1650390625,2.001953125
0.108,3.283203125,-5.2451171875,1.3212890625
0.1085,3.5234375,-4.564453125,0.4404296875
0.109,4.0439453125,-4.484375,-0.16015625
0.1095,4.0439453125,-3.5634765625,-1.0810546875
0.11,4.32421875,-3.203125,-1.6416015625
0.1105,4.484375,-2.322265625,-2.72265625
0.111,4.1240234375,-1.6416015625,-3.0830078125
0.1115,3.763671875,-0.6005859375,-3.68359375
0.112,3.203125,0.2802734375,-3.923828125
0.1125,2.6025390625,1.1611328125,-4.244140625
0.113,2.0419921875,1.921875,-4.4443359375
0.1135,1.3212890625,2.802734375,-4.6044921875
0.114,0.48046875,3.0830078125,-3.8837890625
0.1145,-0.2001953125,3.68359375,-3.8837890625
0.115,-1.1611328125,3.84375,-3.04296875
0.1155,-1.841796875,4.2041015625,-2.72265625
0.116,-2.8828125,4.32421875,-1.841796875
0.1165,-3.36328125,4.2041015625,-1.28125
0.117,-3.7236328125,3.7236328125,-0.48046875
0.1175,-4.00390625,3.5234375,0.0400390625
0.118,-4.1640625,2.8427734375,0.880859375
0.1185,-4.3642578125,2.4423828125,1.44140625
0.119,-4.64453125,1.76171875,2.40234375
0.1195,-4.1240234375,1.0009765625,2.642578125
0.12,-4.0439453125,0.16015625,3.3232421875
0.1205,-3.283203125,-0.8408203125,3.5234375
0.121,-3.0830078125,-1.5615234375,3.9638671875
0.1215,-2.3623046875,-2.4423828125,4.1240234375
0.122,-1.8818359375,-3.0029296875,4.1640625
0.1225,-1.0009765625,-3.36328125,3.68359375
0.123,-0.4404296875,-3.923828125,3.68359375
0.1235,0.6005859375,-4.1640625,2.9228515625
0.124,1.28125,-4.564453125,2.6826171875
0.1245,2.2822265625,-4.8046875,1.841796875
0.125,2.5625,-4.484375,1.28125
0.1255,3.123046875,-4.32421875,0.560546875
0.126,3.3232421875,-3.84375,0.0
0.1265,3.68359375,-3.4033203125,-0.8408203125
0.127,3.8037109375,-2.8427734375,-1.521484375
0.1275,4.0439453125,-2.2822265625,-2.2822265625
0.128,3.4833984375,-1.361328125,-2.6025390625
0.1285,3.443359375,-0.720703125,-3.2431640625
0.129,2.6025390625,0.3203125,-3.443359375
0.1295,2.5224609375,0.9208984375,-3.923828125
0.13,1.76171875,1.8818359375,-4.0439453125
0.1305,1.28125,2.2421875,-3.923828125
0.131,0.48046875,2.72265625,-3.5634765625
0.1315,-0.2001953125,3.1630859375,-3.36328125
0.132,-1.0810546875,3.443359375,-2.7626953125
0.1325,-1.76171875,3.8037109375,-2.4423828125
0.133,-2.5625,3.923828125,-1.8017578125
0.1335,-2.7626953125,3.5234375,-1.1611328125
0.134,-3.283203125,3.5634765625,-0.6806640625
0.1345,-3.443359375,2.9228515625,0.0400390625
0.135,-3.84375,2.7626953125,0.6005859375
0.1355,-4.00390625,2.162109375,1.361328125
0.136,-4.1240234375,1.76171875,1.841796875
0.1365,-3.6435546875,0.7607421875,2.3623046875
0.137,-3.603515625,0.16015625,2.8828125
0.1375,-2.962890625,-0.880859375,3.203125
0.138,-2.8828125,-1.361328125,3.68359375
0.1385,-2.2822265625,-2.2421875,3.84375
0.139,-1.7216796875,-2.5625,3.6435546875
0.1395,-1.12109375,-3.203125,3.603515625
0.14,-0.2802734375,-3.5634765625,3.1630859375
0.1405,0.5205078125,-4.0439453125,2.8427734375
0.141,1.3212890625,-4.32421875,2.2822265625
0.1415,1.9619140625,-4.484375,1.8818359375
0.142,2.322265625,-4.00390625,1.12109375
0.1425,2.8427734375,-4.1640625,0.720703125
0.143,3.0830078125,-3.4833984375,-0.240234375
0.1435,3.5234375,-3.36328125,-0.720703125
0.144,3.68359375,-2.6025390625,-1.6416015625
0.1445,3.5634765625,-2.1220703125,-2.08203125
0.145,3.203125,-1.1611328125,-2.6826171875
0.1455,2.962890625,-0.4404296875,-3.0830078125
0.146,2.482421875,0.5205078125,-3.443359375
0.1465,2.2021484375,1.1611328125,-3.8037109375
0.147,1.6015625,1.921875,-3.8837890625
0.1475,0.880859375,2.2421875,-3.4833984375
0.148,0.3203125,2.802734375,-3.5234375
0.1485,-0.640625,3.0830078125,-2.8427734375
0.149,-1.28125,3.5234375,-2.642578125
0.1495,-2.1220703125,3.68359375,-1.9619140625
0.15,-2.5224609375,3.6435546875,-1.5615234375
0.1505,-2.8828125,3.283203125,-0.8408203125
0.151,-3.203125,3.203125,-0.4404296875
0.1515,-3.5234375,2.6826171875,0.400390625
0.152,-3.84375,2.4423828125,0.9609375
0.1525,-4.0439453125,1.8017578125,1.6416015625
0.153,-3.68359375,1.0810546875,2.0419921875
0.1535,-3.603515625,0.3203125,2.6826171875
0.154,-3.0830078125,-0.5205078125,3.0029296875
0.1545,-2.8828125,-1.2412109375,3.5234375
0.155,-2.3623046875,-1.9619140625,3.68359375
0.1555,-1.8818359375,-2.5224609375,3.763671875
0.156,-1.1611328125,-2.8828125,3.4033203125
0.1565,-0.640625,-3.4833984375,3.4033203125
0.157,0.48046875,-3.8037109375,2.6826171875
0.1575,1.0810546875,-4.244140625,2.5224609375
0.158,1.9619140625,-4.404296875,1.841796875
0.1585,2.2822265625,-4.1640625,1.28125
0.159,2.802734375,-3.9638671875,0.640625
0.1595,3.04296875,-3.603515625,0.0
0.16,3.4033203125,-3.203125,-0.80078125
0.1605,3.5634765625,-2.7626953125,-1.44140625
0.161,3.763671875,-2.162109375,-2.2021484375
0.1615,3.203125,-1.201171875,-2.6025390625
0.162,3.1630859375,-0.5205078125,-3.203125
0.1625,2.4423828125,0.48046875,-3.36328125
0.163,2.2822265625,1.12109375,-3.8837890625
0.1635,1.5615234375,1.921875,-3.8837890625
0.164,0.9609375,2.4423828125,-3.763671875
0.1645,0.2001953125,2.802734375,-3.36328125
0.165,-0.5205078125,3.3232421875,-3.1630859375
0.1655,-1.5615234375,3.5634765625,-2.4423828125
0.166,-2.1220703125,3.84375,-2.08203125
0.1665,-2.8828125,3.84375,-1.4013671875
0.167,-3.123046875,3.443359375,-0.7607421875
0.1675,-3.5634765625,3.3232421875,-0.2802734375
0.168,-3.7236328125,2.6826171875,0.6005859375
0.1685,-4.0439453125,2.3623046875,1.201171875
0.169,-4.0439453125,1.6416015625,1.921875
0.1695,-4.1240234375,1.041015625,2.482421875
0.17,-3.4833984375,0.080078125,2.8427734375
0.1705,-3.36328125,-0.6005859375,3.4033203125
0.171,-2.5625,-1.6416015625,3.603515625
0.1715,-2.40234375,-2.2021484375,3.9638671875
0.172,-1.6015625,-2.9228515625,3.8837890625
0.1725,-0.9609375,-3.3232421875,3.603515625
0.173,-0.2802734375,-3.7236328125,3.36328125
0.1735,0.720703125,-4.1640625,2.8427734375
0.174,1.6015625,-4.484375,2.2421875
0.1745,2.2421875,-4.5244140625,1.681640625
0.175,2.8828125,-4.5244140625,1.0810546875
0.1755,3.0830078125,-3.923828125,0.2802734375
0.176,3.5234375,-3.8837890625,-0.2802734375
0.1765,3.7236328125,-3.0830078125,-1.28125
0.177,3.9638671875,-2.7626953125,-1.8818359375
0.1775,3.8837890625,-1.8818359375,-2.6025390625
0.178,3.7236328125,-1.0810546875,-3.1630859375
0.1785,3.04296875,0.0,-3.4833984375
0.179,2.802734375,0.720703125,-3.923828125
0.1795,1.921875,1.8818359375,-4.1640625
0.18,1.5615234375,2.3623046875,-4.32421875
0.1805,0.640625,3.123046875,-4.1240234375
0.181,-0.16015625,3.443359375,-3.6435546875
0.1815,-0.9208984375,3.84375,-3.3232421875
0.182,-2.08203125,4.1240234375,-2.482421875
0.1825,-2.9228515625,4.32421875,-1.8818359375
0.183,-3.443359375,4.1240234375,-1.12109375
0.1835,-4.00390625,4.0439453125,-0.48046875
0.184,-4.083984375,3.283203125,0.3203125
0.1845,-4.4443359375,3.04296875,0.9208984375
0.185,-4.6044921875,2.001953125,2.0419921875
0.1855,-4.64453125,1.5615234375,2.5224609375
0.186,-4.4443359375,0.640625,3.2431640625
0.1865,-4.00390625,-0.2802734375,3.68359375
0.187,-3.3232421875,-1.2412109375,3.923828125
0.1875,-2.7626953125,-2.1220703125,4.2841796875
0.188,-1.9619140625,-3.1630859375,4.484375
0.1885,-1.3212890625,-3.5634765625,4.2041015625
0.189,-0.5205078125,-4.244140625,4.1240234375
0.1895,0.3203125,-4.404296875,3.443359375
0.19,1.0810546875,-4.8447265625,3.123046875
0.1905,2.40234375,-5.125,2.0419921875
0.191,3.1630859375,-5.205078125,1.44140625
0.1915,3.603515625,-4.8046875,0.560546875
0.192,4.1240234375,-4.6044921875,-0.1201171875
0.1925,4.1240234375,-3.8037109375,-0.9609375
0.193,4.4443359375,-3.443359375,-1.6015625
0.1935,4.6044921875,-2.40234375,-2.8828125
0.194,4.4443359375,-1.7216796875,-3.203125
0.1945,4.1240234375,-0.640625,-3.9638671875
0.195,3.5234375,0.3203125,-4.2841796875
0.1955,2.8427734375,1.28125,-4.5244140625
0.196,2.1220703125,2.2822265625,-4.7646484375
0.1965,1.2412109375,3.36328125,-4.96484375
0.197,0.400390625,3.68359375,-4.3642578125
0.1975,-0.5205078125,4.404296875,-4.244140625
0.198,-1.44140625,4.4443359375,-3.36328125
0.1985,-2.2822265625,4.8046875,-2.8828125
0.199,-3.603515625,5.0048828125,-1.76171875
0.1995,-4.3642578125,4.9248046875,-1.0009765625
0.2,-4.6845703125,4.2841796875,0.0
0.2005,-5.125,4.00390625,0.640625
0.201,-5.044921875,3.04296875,1.521484375
0.2015,-5.205078125,2.482421875,2.2421875
0.202,-5.4453125,1.44140625,3.5234375
0.2025,-4.9248046875,0.6005859375,3.84375
0.203,-4.564453125,-0.48046875,4.484375
0.2035,-3.763671875,-1.521484375,4.64453125
0.204,-3.04296875,-2.4423828125,4.8046875
0.2045,-2.162109375,-3.5234375,4.96484375
0.205,-1.2412109375,-4.5244140625,5.0849609375
0.2055,-0.2001953125,-4.6845703125,4.2041015625
0.206,0.48046875,-5.3251953125,4.1640625
0.2065,1.5615234375,-5.3251953125,3.04296875
0.207,2.40234375,-5.60546875,2.5625
0.2075,3.763671875,-5.765625,1.4013671875
0.208,4.2841796875,-5.4453125,0.560546875
0.2085,4.6044921875,-4.8447265625,-0.4404296875
0.209,4.9248046875,-4.484375,-1.12109375
0.2095,4.8447265625,-3.5234375,-2.0419921875
0.21,4.96484375,-2.7626953125,-2.72265625
0.2105,5.1650390625,-1.76171875,-3.923828125
0.211,4.404296875,-0.6806640625,-4.2041015625
0.2115,4.1240234375,0.3203125,-4.8447265625
0.212,3.123046875,1.4013671875,-4.884765625
0.2125,2.482421875,2.2421875,-5.125
0.213,1.521484375,3.3232421875,-5.1650390625
0.2135,0.6005859375,4.2841796875,-5.1650390625
0.214,-0.560546875,4.484375,-4.2041015625
0.2145,-1.2412109375,5.044921875,-4.1240234375
0.215,-2.5224609375,5.044921875,-2.8828125
0.2155,-3.203125,5.205078125,-2.40234375
0.216,-4.5244140625,5.365234375,-1.2412109375
0.2165,-4.9248046875,4.8046875,-0.3203125
0.217,-5.2451171875,4.1640625,0.6005859375
0.2175,-5.4453125,3.6435546875,1.28125
0.218,-5.4853515625,2.72265625,2.2822265625
0.2185,-5.4453125,1.9619140625,3.04296875
0.219,-5.6455078125,0.9609375,4.1240234375
0.2195,-4.64453125,-0.240234375,4.32421875
0.22,-4.4443359375,-1.1611328125,4.96484375
0.2205,-3.283203125,-2.2822265625,4.96484375
0.221,-2.6826171875,-3.1630859375,5.125
0.2215,-1.6416015625,-4.1640625,5.125
0.222,-0.720703125,-4.9248046875,4.9248046875
0.2225,0.3203125,-5.0849609375,4.0439453125
0.223,1.0009765625,-5.60546875,3.84375
0.2235,2.40234375,-5.6455078125,2.5625
0.224,3.0029296875,-5.765625,2.08203125
0.2245,4.2041015625,-5.845703125,0.9609375
0.225,4.4443359375,-5.1650390625,0.0
0.2255,4.8046875,-4.6845703125,-0.80078125
0.226,4.9248046875,-3.923828125,-1.5615234375
0.2265,4.96484375,-3.0830078125,-2.5224609375
0.227,4.9248046875,-2.2822265625,-3.203125
0.2275,5.0048828125,-1.3212890625,-4.2041015625
0.228,3.9638671875,0.0,-4.3642578125
0.2285,3.8037109375,0.720703125,-4.9248046875
0.229,2.5224609375,1.9619140625,-4.884765625
