wavelength,x,y,z
0.0,1.571533203125,-18.207763671875,16.466064453125
0.0005,5.054931640625,-19.649169921875,14.664306640625
0.001,7.977783203125,-19.769287109375,12.061767578125
0.0015,11.020751953125,-20.089599609375,9.459228515625
0.002,14.704345703125,-19.288818359375,5.295166015625
0.0025,17.306884765625,-17.727294921875,1.251220703125
0.003,18.948486328125,-15.885498046875,-2.312255859375
0.0035,20.069580078125,-13.723388671875,-5.515380859375
0.004,20.029541015625,-10.600341796875,-8.678466796875
0.0045,19.829345703125,-6.556396484375,-12.522216796875
0.005,19.228759765625,-3.193115234375,-15.324951171875
0.0055,17.707275390625,1.010986328125,-17.847412109375
0.006,15.505126953125,4.614501953125,-19.368896484375
0.0065,12.862548828125,7.617431640625,-19.809326171875
0.007,10.059814453125,10.740478515625,-20.209716796875
0.0075,4.974853515625,14.744384765625,-19.248779296875
0.008,0.810791015625,17.226806640625,-17.767333984375
0.0085,-3.072998046875,18.948486328125,-15.925537109375
0.009,-6.396240234375,20.189697265625,-14.043701171875
0.0095,-9.639404296875,19.989501953125,-10.920654296875
0.01,-12.802490234375,19.869384765625,-7.717529296875
0.0105,-15.885498046875,19.068603515625,-4.073974609375
0.011,-18.367919921875,17.026611328125,0.490478515625
0.0115,-19.689208984375,14.904541015625,3.853759765625
0.012,-20.329833984375,12.422119140625,6.936767578125
0.0125,-20.369873046875,9.459228515625,10.019775390625
0.013,-19.729248046875,4.894775390625,13.983642578125
0.0135,-18.728271484375,1.371337890625,16.506103515625
0.014,-16.966552734375,-2.552490234375,18.628173828125
0.0145,-14.884521484375,-5.955810546875,20.069580078125
0.015,-11.721435546875,-9.038818359375,19.989501953125
0.0155,-8.518310546875,-12.322021484375,20.189697265625
0.016,-3.833740234375,-15.805419921875,19.188720703125
0.0165,0.890869140625,-18.207763671875,17.066650390625
0.017,4.214111328125,-19.569091796875,15.344970703125
0.0175,7.417236328125,-20.489990234375,13.222900390625
0.018,10.540283203125,-20.369873046875,10.219970703125
0.0185,14.223876953125,-19.689208984375,6.095947265625
0.019,16.866455078125,-18.688232421875,2.572509765625
0.0195,19.068603515625,-16.646240234375,-1.631591796875
0.02,20.149658203125,-14.484130859375,-4.834716796875
0.0205,20.349853515625,-11.481201171875,-8.037841796875
0.021,20.389892578125,-8.318115234375,-11.281005859375
0.0215,19.709228515625,-4.033935546875,-14.924560546875
0.022,18.227783203125,0.010009765625,-17.406982421875
0.0225,16.265869140625,3.573486328125,-19.088623046875
0.023,14.183837890625,6.896728515625,-20.369873046875
0.0235,10.660400390625,10.099853515625,-20.209716796875
0.024,6.496337890625,13.783447265625,-19.809326171875
0.0245,2.412353515625,16.706298828125,-18.928466796875
0.025,-2.472412109375,18.948486328125,-16.606201171875
0.0255,-5.515380859375,19.989501953125,-14.724365234375
0.026,-8.718505859375,20.469970703125,-12.201904296875
0.0265,-11.841552734375,20.429931640625,-9.239013671875
0.027,-15.405029296875,19.468994140625,-4.834716796875
0.0275,-17.927490234375,17.907470703125,-0.910888671875
0.028,-19.729248046875,15.865478515625,2.932861328125
0.0285,-20.530029296875,13.503173828125,6.095947265625
0.029,-20.449951171875,10.179931640625,9.339111328125
0.0295,-20.209716796875,6.496337890625,12.822509765625
0.03,-19.529052734375,2.612548828125,16.025634765625
0.0305,-17.647216796875,-1.671630859375,18.427978515625
0.031,-15.525146484375,-4.994873046875,19.709228515625
0.0315,-13.202880859375,-8.197998046875,20.590087890625
0.032,-9.719482421875,-11.401123046875,20.469970703125
0.0325,-4.954833984375,-15.084716796875,19.428955078125
0.033,-0.830810546875,-17.687255859375,18.147705078125
0.0335,3.573486328125,-19.569091796875,16.025634765625
0.034,6.536376953125,-20.369873046875,14.023681640625
0.0345,9.899658203125,-20.489990234375,10.940673828125
0.035,13.062744140625,-20.249755859375,7.817626953125
0.0355,16.305908203125,-19.288818359375,3.733642578125
0.036,18.668212890625,-17.286865234375,-0.630615234375
0.0365,20.029541015625,-15.244873046875,-3.993896484375
0.037,20.710205078125,-12.682373046875,-7.197021484375
0.0375,20.550048828125,-9.239013671875,-10.560302734375
0.038,19.989501953125,-5.114990234375,-14.083740234375
0.0385,19.108642578125,-1.471435546875,-16.926513671875
0.039,17.146728515625,2.772705078125,-19.168701171875
0.0395,14.864501953125,5.975830078125,-20.129638671875
0.04,11.981689453125,9.259033203125,-20.570068359375
0.0405,8.177978515625,12.782470703125,-20.489990234375
0.041,3.493408203125,16.185791015625,-19.368896484375
0.0415,-1.031005859375,18.548095703125,-17.366943359375
0.042,-4.754638671875,20.149658203125,-15.525146484375
0.0425,-7.837646484375,20.750244140625,-13.322998046875
0.043,-11.200927734375,20.630126953125,-9.999755859375
0.0435,-14.564208984375,20.109619140625,-6.276123046875
0.044,-17.487060546875,18.868408203125,-2.272216796875
0.0445,-19.689208984375,16.586181640625,2.212158203125
0.045,-20.650146484375,14.384033203125,5.295166015625
0.0455,-21.090576171875,11.501220703125,8.658447265625
0.046,-20.850341796875,7.697509765625,12.181884765625
0.0465,-20.049560546875,3.573486328125,15.585205078125
0.047,-18.608154296875,-0.390380859375,18.107666015625
0.0475,-16.646240234375,-4.434326171875,20.189697265625
0.048,-14.163818359375,-7.517333984375,20.870361328125
0.0485,-10.880615234375,-10.840576171875,20.950439453125
0.049,-6.716552734375,-14.484130859375,20.550048828125
0.0495,-1.991943359375,-17.567138671875,19.188720703125
0.05,2.612548828125,-19.569091796875,16.826416015625
0.0505,5.855712890625,-20.770263671875,15.064697265625
0.051,9.098876953125,-21.170654296875,12.462158203125
0.0515,12.542236328125,-20.810302734375,8.818603515625
0.052,15.825439453125,-20.009521484375,4.934814453125
0.0525,18.548095703125,-18.447998046875,0.730712890625
0.053,20.510009765625,-16.165771484375,-3.553466796875
0.0535,20.990478515625,-13.603271484375,-6.516357421875
0.054,21.270751953125,-10.440185546875,-9.999755859375
0.0545,20.790283203125,-6.356201171875,-13.683349609375
0.055,19.949462890625,-2.392333984375,-16.806396484375
0.0555,17.987548828125,1.771728515625,-18.928466796875
0.056,15.985595703125,5.415283203125,-20.610107421875
0.0565,13.142822265625,8.618408203125,-21.130615234375
0.057,9.339111328125,12.101806640625,-20.890380859375
0.0575,5.054931640625,15.545166015625,-20.169677734375
0.058,0.330322265625,18.427978515625,-18.568115234375
0.0585,-4.154052734375,20.269775390625,-16.165771484375
0.059,-7.076904296875,20.870361328125,-14.123779296875
0.0595,-10.440185546875,21.150634765625,-11.281005859375
0.06,-13.963623046875,20.510009765625,-7.357177734375
0.0605,-16.926513671875,19.509033203125,-3.513427734375
0.061,-19.248779296875,17.547119140625,0.810791015625
0.0615,-20.970458984375,15.264892578125,4.734619140625
0.062,-21.170654296875,12.462158203125,7.737548828125
0.0625,-21.210693359375,8.978759765625,11.260986328125
0.063,-20.610107421875,4.934814453125,14.784423828125
0.0635,-19.529052734375,0.810791015625,17.827392578125
0.064,-17.326904296875,-3.353271484375,19.789306640625
0.0645,-15.244873046875,-6.556396484375,20.950439453125
0.065,-12.322021484375,-9.919677734375,21.430908203125
0.0655,-7.957763671875,-13.563232421875,20.910400390625
0.066,-3.753662109375,-16.606201171875,19.869384765625
0.0665,1.091064453125,-19.168701171875,17.907470703125
0.067,5.135009765625,-20.850341796875,15.825439453125
0.0675,8.057861328125,-21.130615234375,13.383056640625
0.068,11.381103515625,-21.330810546875,10.540283203125
0.0685,15.224853515625,-20.610107421875,6.135986328125
0.069,17.987548828125,-19.288818359375,2.092041015625
0.0695,20.069580078125,-17.166748046875,-2.072021484375
0.07,21.430908203125,-14.884521484375,-5.635498046875
0.0705,21.551025390625,-11.801513671875,-8.918701171875
0.071,21.390869140625,-7.757568359375,-12.802490234375
0.0715,20.630126953125,-3.993896484375,-15.885498046875
0.072,19.228759765625,0.450439453125,-18.728271484375
0.0725,16.946533203125,4.494384765625,-20.690185546875
0.073,14.343994140625,7.617431640625,-21.290771484375
0.0735,11.381103515625,11.060791015625,-21.771240234375
0.074,6.216064453125,15.224853515625,-20.930419921875
0.0745,1.931884765625,18.027587890625,-19.649169921875
0.075,-2.712646484375,20.149658203125,-17.447021484375
0.0755,-6.556396484375,21.751220703125,-15.445068359375
0.076,-9.719482421875,21.671142578125,-12.442138671875
0.0765,-13.082763671875,21.551025390625,-9.158935546875
0.077,-16.726318359375,20.790283203125,-4.954833984375
0.0775,-19.529052734375,18.868408203125,-0.310302734375
0.078,-21.330810546875,16.506103515625,3.853759765625
0.0785,-22.131591796875,13.983642578125,7.177001953125
0.079,-22.331787109375,10.620361328125,10.700439453125
0.0795,-21.771240234375,5.935791015625,14.904541015625
0.08,-20.810302734375,2.252197265625,17.787353515625
0.0805,-18.928466796875,-2.312255859375,20.229736328125
0.081,-16.606201171875,-6.396240234375,22.071533203125
0.0815,-13.403076171875,-9.479248046875,22.071533203125
0.082,-10.159912109375,-12.922607421875,22.391845703125
0.0825,-4.834716796875,-16.966552734375,21.230712890625
0.083,0.170166015625,-19.729248046875,19.308837890625
0.0835,4.334228515625,-21.330810546875,16.986572265625
0.084,7.937744140625,-22.491943359375,14.824462890625
0.0845,11.501220703125,-22.371826171875,11.381103515625
0.085,15.184814453125,-21.731201171875,7.257080078125
0.0855,18.267822265625,-20.810302734375,3.413330078125
0.086,20.950439453125,-18.608154296875,-1.591552734375
0.0865,22.431884765625,-16.045654296875,-5.435302734375
0.087,22.672119140625,-12.962646484375,-8.798583984375
0.0875,22.792236328125,-9.639404296875,-12.322021484375
0.088,21.911376953125,-4.634521484375,-16.526123046875
0.0885,20.550048828125,-0.590576171875,-19.248779296875
0.089,18.468017578125,3.773681640625,-21.170654296875
0.0895,15.985595703125,7.577392578125,-22.812255859375
0.09,12.141845703125,11.020751953125,-22.491943359375
0.0905,8.057861328125,14.744384765625,-22.251708984375
0.091,3.333251953125,18.187744140625,-21.170654296875
0.0915,-2.072021484375,20.830322265625,-18.728271484375
0.092,-5.955810546875,22.151611328125,-16.365966796875
0.0925,-9.359130859375,22.712158203125,-13.803466796875
0.093,-12.762451171875,22.672119140625,-10.600341796875
0.0935,-16.806396484375,21.470947265625,-5.595458984375
0.094,-19.529052734375,20.029541015625,-1.631591796875
0.0945,-21.651123046875,17.707275390625,2.892822265625
0.095,-22.892333984375,15.144775390625,6.696533203125
0.0955,-22.772216796875,11.541259765625,10.179931640625
0.096,-22.692138671875,7.937744140625,13.783447265625
0.0965,-21.771240234375,3.293212890625,17.467041015625
0.097,-19.849365234375,-1.351318359375,20.189697265625
0.0975,-17.406982421875,-5.275146484375,21.751220703125
0.098,-15.084716796875,-8.718505859375,22.952392578125
0.0985,-11.281005859375,-12.201904296875,22.712158203125
0.099,-6.196044921875,-16.165771484375,21.791259765625
0.0995,-1.951904296875,-19.008544921875,20.469970703125
0.1,3.253173828125,-21.290771484375,17.987548828125
0.1005,6.936767578125,-22.451904296875,15.665283203125
0.101,10.380126953125,-22.491943359375,12.502197265625
0.1015,13.623291015625,-22.451904296875,9.459228515625
0.102,17.587158203125,-21.250732421875,4.534423828125
0.1025,20.269775390625,-19.288818359375,0.010009765625
0.103,21.911376953125,-17.006591796875,-3.993896484375
0.1035,22.912353515625,-14.444091796875,-7.557373046875
0.104,22.632080078125,-10.680419921875,-10.960693359375
0.1045,22.231689453125,-6.436279296875,-15.004638671875
0.105,21.390869140625,-2.512451171875,-18.127685546875
0.1055,19.308837890625,2.292236328125,-20.770263671875
0.106,16.706298828125,6.135986328125,-22.091552734375
0.1065,13.783447265625,9.619384765625,-22.652099609375
0.107,10.179931640625,13.142822265625,-22.732177734375
0.1075,4.494384765625,17.306884765625,-21.410888671875
0.108,0.010009765625,19.909423828125,-19.689208984375
0.1085,-4.554443359375,21.831298828125,-17.366943359375
0.109,-8.197998046875,22.832275390625,-15.004638671875
0.1095,-11.841552734375,22.552001953125,-11.321044921875
0.11,-15.204833984375,22.151611328125,-7.797607421875
0.1105,-18.608154296875,20.990478515625,-3.353271484375
0.111,-21.250732421875,18.508056640625,1.771728515625
0.1115,-22.451904296875,16.065673828125,5.415283203125
0.112,-23.212646484375,13.182861328125,8.978759765625
0.1125,-22.932373046875,9.379150390625,12.502197265625
0.113,-22.091552734375,4.494384765625,16.586181640625
0.1135,-20.850341796875,0.570556640625,19.388916015625
0.114,-18.648193359375,-4.033935546875,21.791259765625
0.1145,-16.005615234375,-7.717529296875,22.912353515625
0.115,-12.442138671875,-11.240966796875,22.912353515625
0.1155,-8.638427734375,-14.884521484375,22.792236328125
0.116,-3.153076171875,-18.608154296875,21.270751953125
0.1165,2.011962890625,-21.010498046875,18.868408203125
0.117,5.895751953125,-22.451904296875,16.666259765625
0.1175,9.459228515625,-23.212646484375,14.103759765625
0.118,13.102783203125,-22.772216796875,10.260009765625
0.1185,16.786376953125,-21.931396484375,5.975830078125
0.119,19.789306640625,-20.570068359375,1.771728515625
0.1195,22.111572265625,-18.007568359375,-3.193115234375
0.12,22.992431640625,-15.445068359375,-6.596435546875
0.1205,23.232666015625,-12.121826171875,-10.280029296875
0.121,22.912353515625,-8.197998046875,-13.963623046875
0.1215,21.911376953125,-3.353271484375,-17.727294921875
0.122,20.069580078125,1.051025390625,-20.249755859375
0.1225,17.827392578125,5.215087890625,-22.131591796875
0.123,15.064697265625,8.818603515625,-23.092529296875
0.1235,10.940673828125,12.462158203125,-22.772216796875
0.124,6.496337890625,16.185791015625,-22.171630859375
0.1245,1.571533203125,19.468994140625,-20.770263671875
0.125,-3.713623046875,21.671142578125,-17.967529296875
0.1255,-7.156982421875,22.592041015625,-15.685302734375
0.126,-10.680419921875,23.032470703125,-12.842529296875
0.1265,-14.243896484375,22.511962890625,-9.038818359375
0.127,-17.807373046875,21.310791015625,-4.514404296875
0.1275,-20.409912109375,19.509033203125,0.010009765625
0.128,-22.451904296875,16.946533203125,4.494384765625
0.1285,-23.012451171875,14.143798828125,7.737548828125
0.129,-22.932373046875,10.420166015625,11.461181640625
0.1295,-22.451904296875,6.376220703125,15.104736328125
0.13,-21.450927734375,1.971923828125,18.548095703125
0.1305,-19.168701171875,-2.632568359375,20.830322265625
0.131,-16.766357421875,-6.356201171875,22.231689453125
0.1315,-14.043701171875,-9.799560546875,23.032470703125
0.132,-9.759521484375,-13.443115234375,22.471923828125
0.1325,-4.994873046875,-17.006591796875,21.430908203125
0.133,-0.230224609375,-19.849365234375,19.749267578125
0.1335,4.654541015625,-21.811279296875,17.146728515625
0.134,7.817626953125,-22.371826171875,14.784423828125
0.1345,11.461181640625,-22.572021484375,11.661376953125
0.135,15.024658203125,-22.011474609375,7.697509765625
0.1355,18.227783203125,-20.770263671875,3.333251953125
0.136,20.670166015625,-18.608154296875,-1.231201171875
0.1365,22.271728515625,-16.285888671875,-5.114990234375
0.137,22.672119140625,-13.322998046875,-8.478271484375
0.1375,22.431884765625,-9.399169921875,-12.161865234375
0.138,21.711181640625,-5.155029296875,-15.685302734375
0.1385,20.630126953125,-1.031005859375,-18.728271484375
0.139,18.267822265625,3.533447265625,-20.970458984375
0.1395,15.745361328125,6.896728515625,-21.851318359375
0.14,12.742431640625,10.380126953125,-22.411865234375
0.1405,8.258056640625,14.183837890625,-21.891357421875
0.141,3.493408203125,17.547119140625,-20.570068359375
0.1415,-1.271240234375,19.909423828125,-18.568115234375
0.142,-5.475341796875,21.711181640625,-16.365966796875
0.1425,-8.638427734375,22.071533203125,-13.803466796875
0.143,-12.041748046875,21.991455078125,-10.560302734375
0.1435,-15.685302734375,21.310791015625,-6.476318359375
0.144,-18.648193359375,19.869384765625,-2.192138671875
0.1445,-20.810302734375,17.427001953125,2.372314453125
0.145,-21.851318359375,15.064697265625,5.735595703125
0.1455,-22.291748046875,12.061767578125,9.259033203125
0.146,-21.891357421875,7.897705078125,13.022705078125
0.1465,-21.010498046875,3.853759765625,16.265869140625
0.147,-19.569091796875,-0.350341796875,18.948486328125
0.1475,-17.447021484375,-4.634521484375,21.110595703125
0.148,-14.764404296875,-7.717529296875,21.591064453125
0.1485,-11.561279296875,-11.040771484375,21.871337890625
0.149,-6.996826171875,-14.924560546875,21.270751953125
0.1495,-2.232177734375,-17.967529296875,19.789306640625
0.15,2.372314453125,-20.009521484375,17.467041015625
0.1505,5.935791015625,-21.370849609375,15.545166015625
0.151,9.218994140625,-21.691162109375,12.822509765625
0.1515,12.662353515625,-21.370849609375,9.259033203125
0.152,15.985595703125,-20.690185546875,5.415283203125
0.1525,18.828369140625,-19.088623046875,1.010986328125
0.153,20.830322265625,-16.726318359375,-3.353271484375
0.1535,21.470947265625,-14.083740234375,-6.356201171875
0.154,21.751220703125,-11.040771484375,-9.839599609375
0.1545,21.230712890625,-6.716552734375,-13.723388671875
0.155,20.349853515625,-2.832763671875,-16.726318359375
0.1555,18.508056640625,1.291259765625,-19.088623046875
0.156,16.506103515625,5.175048828125,-20.890380859375
0.1565,13.543212890625,8.378173828125,-21.210693359375
0.157,9.979736328125,11.821533203125,-21.210693359375
0.1575,5.575439453125,15.385009765625,-20.489990234375
0.158,0.770751953125,18.387939453125,-18.888427734375
0.1585,-3.673583984375,20.189697265625,-16.566162109375
0.159,-6.716552734375,21.070556640625,-14.604248046875
0.1595,-10.079833984375,21.390869140625,-11.841552734375
0.16,-13.723388671875,20.710205078125,-7.757568359375
0.1605,-16.606201171875,19.829345703125,-4.114013671875
0.161,-19.088623046875,17.907470703125,0.250244140625
0.1615,-20.890380859375,15.665283203125,4.214111328125
0.162,-21.130615234375,12.862548828125,7.297119140625
0.1625,-21.290771484375,9.619384765625,10.700439453125
0.163,-20.730224609375,5.375244140625,14.424072265625
0.1635,-19.689208984375,1.331298828125,17.467041015625
0.164,-17.567138671875,-2.752685546875,19.388916015625
0.1645,-15.605224609375,-6.075927734375,20.830322265625
0.165,-12.682373046875,-9.319091796875,21.190673828125
0.1655,-8.438232421875,-12.962646484375,20.750244140625
0.166,-4.394287109375,-16.005615234375,19.869384765625
0.1665,0.490478515625,-18.648193359375,17.947509765625
0.167,4.494384765625,-20.369873046875,15.905517578125
0.1675,7.377197265625,-20.730224609375,13.583251953125
0.168,10.580322265625,-21.130615234375,10.940673828125
0.1685,14.464111328125,-20.369873046875,6.536376953125
0.169,17.146728515625,-19.208740234375,2.732666015625
0.1695,19.228759765625,-17.166748046875,-1.271240234375
0.17,20.670166015625,-15.004638671875,-4.834716796875
0.1705,20.790283203125,-12.001708984375,-7.997802734375
0.171,20.790283203125,-8.278076171875,-11.681396484375
0.1715,20.149658203125,-4.554443359375,-14.804443359375
0.172,18.868408203125,-0.430419921875,-17.647216796875
0.1725,16.666259765625,3.613525390625,-19.489013671875
0.173,14.384033203125,6.576416015625,-20.209716796875
0.1735,11.621337890625,9.859619140625,-20.810302734375
0.174,6.696533203125,13.903564453125,-20.049560546875
0.1745,2.732666015625,16.586181640625,-18.968505859375
0.175,-1.751708984375,18.708251953125,-17.046630859375
0.1755,-5.435302734375,20.389892578125,-15.124755859375
0.176,-8.318115234375,20.349853515625,-12.482177734375
0.1765,-11.521240234375,20.469970703125,-9.639404296875
0.177,-15.044677734375,19.869384765625,-5.635498046875
0.1775,-17.767333984375,18.227783203125,-1.351318359375
0.178,-19.489013671875,16.105712890625,2.532470703125
0.1785,-20.489990234375,13.943603515625,5.655517578125
0.179,-20.690185546875,10.860595703125,8.858642578125
0.1795,-20.329833984375,6.616455078125,12.822509765625
0.18,-19.609130859375,3.173095703125,15.585205078125
0.1805,-18.087646484375,-0.990966796875,18.147705078125
0.181,-16.005615234375,-4.834716796875,19.989501953125
