wavelength,x,y,z
0.0,16.706298828125,9.659423828125,-26.495849609375
0.0005,11.661376953125,13.903564453125,-25.655029296875
0.001,6.976806640625,18.227783203125,-25.254638671875
0.0015,3.052978515625,20.670166015625,-23.893310546875
0.002,-2.872802734375,24.073486328125,-21.450927734375
0.0025,-7.797607421875,25.915283203125,-18.447998046875
0.003,-13.122802734375,26.075439453125,-13.403076171875
0.0035,-16.726318359375,26.235595703125,-10.079833984375
0.004,-20.610107421875,24.994384765625,-4.994873046875
0.0045,-23.172607421875,23.713134765625,-1.151123046875
0.005,-25.254638671875,20.950439453125,3.813720703125
0.0055,-26.896240234375,17.547119140625,8.978759765625
0.006,-25.454833984375,12.021728515625,13.102783203125
0.0065,-25.735107421875,8.378173828125,17.106689453125
0.007,-24.053466796875,4.134033203125,19.709228515625
0.0075,-22.251708984375,-1.151123046875,23.192626953125
0.008,-19.208740234375,-5.755615234375,24.634033203125
0.0085,-14.924560546875,-11.240966796875,25.755126953125
0.009,-10.400146484375,-14.884521484375,24.994384765625
0.0095,-5.755615234375,-18.928466796875,24.193603515625
0.01,-1.631591796875,-21.010498046875,22.351806640625
0.0105,3.693603515625,-23.893310546875,20.109619140625
0.011,8.898681640625,-25.614990234375,16.706298828125
0.0115,13.583251953125,-25.054443359375,11.501220703125
0.012,17.146728515625,-25.614990234375,8.618408203125
0.0125,20.550048828125,-24.133544921875,3.773681640625
0.013,23.232666015625,-22.652099609375,-0.510498046875
0.0135,24.674072265625,-19.809326171875,-4.794677734375
0.014,26.035400390625,-16.165771484375,-9.879638671875
0.0145,24.634033203125,-11.040771484375,-13.683349609375
0.015,24.714111328125,-7.397216796875,-17.487060546875
0.0155,22.912353515625,-3.393310546875,-19.689208984375
0.016,21.270751953125,1.731689453125,-23.092529296875
0.0165,17.787353515625,6.416259765625,-24.373779296875
0.017,13.262939453125,11.501220703125,-24.894287109375
0.0175,9.459228515625,15.024658203125,-24.654052734375
0.018,4.614501953125,18.748291015625,-23.452880859375
0.0185,0.410400390625,21.070556640625,-21.611083984375
0.019,-4.314208984375,23.472900390625,-19.408935546875
0.0195,-9.719482421875,25.034423828125,-15.725341796875
0.02,-13.883544921875,24.193603515625,-10.720458984375
0.0205,-17.487060546875,24.874267578125,-7.957763671875
0.021,-20.369873046875,23.072509765625,-3.353271484375
0.0215,-23.172607421875,21.510986328125,1.131103515625
0.022,-24.053466796875,18.427978515625,5.215087890625
0.0225,-25.134521484375,14.464111328125,10.219970703125
0.023,-24.133544921875,9.979736328125,13.823486328125
0.0235,-23.933349609375,6.055908203125,17.627197265625
0.024,-22.091552734375,2.132080078125,19.709228515625
0.0245,-20.369873046875,-2.832763671875,22.912353515625
0.025,-16.406005859375,-7.797607421875,23.913330078125
0.0255,-11.681396484375,-12.522216796875,23.753173828125
0.026,-8.518310546875,-15.845458984375,24.033447265625
0.0265,-3.233154296875,-19.208740234375,22.111572265625
0.027,1.131103515625,-21.651123046875,20.349853515625
0.0275,5.655517578125,-23.572998046875,17.787353515625
0.028,11.020751953125,-24.854248046875,13.863525390625
0.0285,14.864501953125,-23.893310546875,9.098876953125
0.029,18.508056640625,-24.413818359375,6.095947265625
0.0295,21.110595703125,-22.451904296875,1.571533203125
0.03,23.873291015625,-20.650146484375,-3.153076171875
0.0305,24.193603515625,-17.006591796875,-7.156982421875
0.031,24.834228515625,-12.842529296875,-12.041748046875
0.0315,24.113525390625,-8.998779296875,-15.244873046875
0.032,23.232666015625,-4.514404296875,-18.928466796875
0.0325,21.230712890625,-0.470458984375,-21.090576171875
0.033,19.068603515625,4.494384765625,-23.693115234375
0.0335,14.744384765625,9.499267578125,-24.413818359375
0.034,9.739501953125,13.943603515625,-23.733154296875
0.0345,6.896728515625,17.146728515625,-24.093505859375
0.035,1.291259765625,20.229736328125,-21.611083984375
0.0355,-3.193115234375,22.792236328125,-19.849365234375
0.036,-7.757568359375,23.953369140625,-16.486083984375
0.0365,-12.802490234375,24.954345703125,-12.562255859375
0.037,-16.365966796875,23.913330078125,-8.117919921875
0.0375,-19.769287109375,23.833251953125,-4.634521484375
0.038,-21.931396484375,21.631103515625,-0.310302734375
0.0385,-24.373779296875,19.509033203125,4.454345703125
0.039,-24.133544921875,15.304931640625,8.458251953125
0.0395,-24.373779296875,10.860595703125,13.142822265625
0.04,-23.973388671875,7.617431640625,16.105712890625
0.0405,-22.291748046875,2.612548828125,19.428955078125
0.041,-20.369873046875,-1.551513671875,21.631103515625
0.0415,-17.527099609375,-6.276123046875,23.392822265625
0.042,-13.403076171875,-10.960693359375,24.033447265625
0.0425,-8.398193359375,-14.924560546875,22.952392578125
0.043,-5.435302734375,-17.887451171875,22.912353515625
0.0435,0.010009765625,-20.489990234375,20.349853515625
0.044,4.414306640625,-23.092529296875,18.548095703125
0.0445,8.978759765625,-23.412841796875,14.384033203125
0.045,13.423095703125,-24.213623046875,10.860595703125
0.0455,16.786376953125,-23.572998046875,6.976806640625
0.046,19.909423828125,-22.812255859375,3.052978515625
0.0465,21.871337890625,-20.690185546875,-1.071044921875
0.047,23.833251953125,-18.287841796875,-5.475341796875
0.0475,23.512939453125,-14.043701171875,-9.519287109375
0.048,23.312744140625,-9.639404296875,-13.803466796875
0.0485,23.152587890625,-6.996826171875,-16.365966796875
0.049,21.070556640625,-1.871826171875,-19.489013671875
0.0495,19.388916015625,2.212158203125,-21.771240234375
0.05,15.665283203125,6.816650390625,-22.572021484375
0.0505,12.021728515625,11.260986328125,-23.412841796875
0.051,7.497314453125,14.864501953125,-22.451904296875
0.0515,4.093994140625,17.667236328125,-21.811279296875
0.052,-0.590576171875,20.029541015625,-19.609130859375
0.0525,-5.114990234375,22.552001953125,-17.727294921875
0.053,-9.439208984375,22.391845703125,-13.322998046875
0.0535,-13.483154296875,23.032470703125,-9.959716796875
0.054,-16.446044921875,22.752197265625,-6.876708984375
0.0545,-19.368896484375,21.470947265625,-2.672607421875
0.055,-21.170654296875,19.509033203125,1.251220703125
0.0555,-22.451904296875,16.626220703125,5.375244140625
0.056,-22.572021484375,12.782470703125,9.459228515625
0.0565,-22.091552734375,8.538330078125,13.262939453125
0.057,-21.971435546875,5.935791015625,15.745361328125
0.0575,-20.049560546875,1.211181640625,18.548095703125
0.058,-18.407958984375,-2.912841796875,21.030517578125
0.0585,-14.243896484375,-7.237060546875,21.270751953125
0.059,-10.920654296875,-11.441162109375,22.031494140625
0.0595,-7.076904296875,-14.684326171875,21.470947265625
0.06,-3.072998046875,-17.487060546875,20.189697265625
0.0605,0.930908203125,-19.569091796875,18.508056640625
0.061,5.775634765625,-21.931396484375,16.025634765625
0.0615,9.699462890625,-21.771240234375,12.021728515625
0.062,13.783447265625,-22.291748046875,8.578369140625
0.0625,16.385986328125,-22.131591796875,5.895751953125
0.063,19.348876953125,-20.650146484375,1.451416015625
0.0635,21.190673828125,-18.688232421875,-2.472412109375
0.064,21.791259765625,-15.244873046875,-6.516357421875
0.0645,22.351806640625,-11.881591796875,-10.560302734375
0.065,21.751220703125,-7.877685546875,-14.043701171875
0.0655,21.110595703125,-4.754638671875,-16.646240234375
0.066,19.388916015625,-0.350341796875,-19.288818359375
0.0665,17.106689453125,4.454345703125,-21.651123046875
0.067,12.782470703125,8.578369140625,-21.490966796875
0.0675,9.459228515625,12.622314453125,-22.131591796875
0.068,5.855712890625,15.545166015625,-21.490966796875
0.0685,1.251220703125,18.548095703125,-19.889404296875
0.069,-2.712646484375,20.510009765625,-18.047607421875
0.0695,-7.837646484375,22.271728515625,-14.764404296875
0.07,-11.481201171875,22.151611328125,-11.160888671875
0.0705,-15.445068359375,22.351806640625,-7.397216796875
0.071,-17.727294921875,21.711181640625,-4.514404296875
0.0715,-20.489990234375,19.989501953125,0.010009765625
0.072,-22.171630859375,17.507080078125,4.214111328125
0.0725,-22.091552734375,13.383056640625,8.298095703125
0.073,-22.692138671875,10.219970703125,12.141845703125
0.0735,-21.811279296875,6.176025390625,15.304931640625
0.074,-20.650146484375,2.412353515625,18.027587890625
0.0745,-18.728271484375,-1.831787109375,20.269775390625
0.075,-15.645263671875,-6.916748046875,22.271728515625
0.0755,-11.240966796875,-10.720458984375,21.591064453125
0.076,-7.837646484375,-14.604248046875,22.071533203125
0.0765,-3.993896484375,-17.006591796875,20.670166015625
0.077,0.770751953125,-20.009521484375,19.068603515625
0.0775,4.974853515625,-21.691162109375,16.626220703125
0.078,9.939697265625,-22.612060546875,12.702392578125
0.0785,13.222900390625,-22.652099609375,9.499267578125
0.079,17.106689453125,-22.451904296875,5.495361328125
0.0795,19.228759765625,-21.290771484375,2.212158203125
0.08,21.510986328125,-19.328857421875,-2.072021484375
0.0805,22.952392578125,-16.446044921875,-6.556396484375
0.081,22.151611328125,-11.881591796875,-10.400146484375
0.0815,22.752197265625,-8.998779296875,-13.963623046875
0.082,21.390869140625,-4.834716796875,-16.726318359375
0.0825,20.029541015625,-0.630615234375,-19.649169921875
0.083,17.627197265625,3.533447265625,-21.290771484375
0.0835,14.103759765625,8.618408203125,-22.812255859375
0.084,9.899658203125,12.061767578125,-22.011474609375
0.0845,6.256103515625,15.945556640625,-22.211669921875
0.085,2.292236328125,18.027587890625,-20.409912109375
0.0855,-2.312255859375,20.870361328125,-18.768310546875
0.086,-6.716552734375,22.271728515625,-15.805419921875
0.0865,-11.240966796875,22.431884765625,-11.601318359375
0.087,-14.484130859375,22.872314453125,-8.878662109375
0.0875,-17.927490234375,21.951416015625,-4.594482421875
0.088,-20.089599609375,20.630126953125,-1.111083984375
0.0885,-21.771240234375,18.347900390625,2.932861328125
0.089,-23.012451171875,15.024658203125,7.537353515625
0.0895,-22.051513671875,10.420166015625,11.140869140625
0.09,-22.612060546875,7.617431640625,14.744384765625
0.0905,-20.890380859375,3.533447265625,17.146728515625
0.091,-19.609130859375,-0.910888671875,20.229736328125
0.0915,-16.606201171875,-4.994873046875,21.310791015625
0.092,-12.802490234375,-9.879638671875,22.391845703125
0.0925,-9.078857421875,-13.122802734375,21.911376953125
0.093,-4.954833984375,-16.806396484375,21.430908203125
0.0935,-0.990966796875,-18.808349609375,19.509033203125
0.094,3.453369140625,-21.410888671875,17.787353515625
0.0945,8.177978515625,-22.491943359375,14.263916015625
0.095,12.261962890625,-22.291748046875,10.059814453125
0.0955,15.625244140625,-23.012451171875,7.537353515625
0.096,18.668212890625,-21.611083984375,3.093017578125
0.0965,21.110595703125,-20.089599609375,-0.990966796875
0.097,22.111572265625,-17.447021484375,-4.634521484375
0.0975,23.032470703125,-13.843505859375,-9.279052734375
0.098,22.151611328125,-9.479248046875,-12.762451171875
0.0985,22.391845703125,-6.316162109375,-16.205810546875
0.099,20.389892578125,-2.112060546875,-18.447998046875
0.0995,18.988525390625,2.372314453125,-21.490966796875
0.1,15.104736328125,6.816650390625,-22.051513671875
0.1005,11.100830078125,11.381103515625,-22.572021484375
0.101,7.857666015625,14.584228515625,-22.531982421875
0.1015,3.173095703125,17.947509765625,-21.170654296875
0.102,-1.031005859375,20.149658203125,-19.248779296875
0.1025,-5.395263671875,22.231689453125,-17.166748046875
0.103,-10.119873046875,23.072509765625,-13.322998046875
0.1035,-13.923583984375,22.471923828125,-9.038818359375
0.104,-17.166748046875,23.032470703125,-6.396240234375
0.1045,-19.889404296875,21.110595703125,-1.871826171875
0.105,-22.291748046875,19.268798828125,2.492431640625
0.1055,-22.612060546875,15.945556640625,6.135986328125
0.106,-23.372802734375,12.181884765625,10.860595703125
0.1065,-22.572021484375,8.218017578125,14.103759765625
0.107,-22.171630859375,4.494384765625,17.427001953125
0.1075,-20.049560546875,0.170166015625,19.669189453125
0.108,-18.207763671875,-4.354248046875,22.271728515625
0.1085,-13.963623046875,-8.918701171875,22.552001953125
0.109,-9.639404296875,-13.162841796875,22.431884765625
0.1095,-6.636474609375,-16.205810546875,22.471923828125
0.11,-1.311279296875,-19.328857421875,20.389892578125
0.1105,3.012939453125,-21.611083984375,18.468017578125
0.111,7.577392578125,-23.012451171875,15.385009765625
0.1115,11.901611328125,-23.693115234375,11.781494140625
0.112,15.665283203125,-23.012451171875,7.457275390625
0.1125,18.828369140625,-23.092529296875,4.454345703125
0.113,21.270751953125,-21.010498046875,-0.270263671875
0.1135,23.432861328125,-18.848388671875,-4.714599609375
0.114,23.192626953125,-14.724365234375,-8.518310546875
0.1145,23.713134765625,-10.880615234375,-12.962646484375
0.115,23.032470703125,-7.197021484375,-15.925537109375
0.1155,21.791259765625,-2.672607421875,-19.288818359375
0.116,19.589111328125,1.691650390625,-21.450927734375
0.1165,16.786376953125,6.536376953125,-23.412841796875
0.117,12.582275390625,10.820556640625,-23.492919921875
0.1175,8.057861328125,14.864501953125,-23.012451171875
0.118,4.974853515625,17.707275390625,-22.772216796875
0.1185,-0.590576171875,20.790283203125,-20.369873046875
0.119,-4.994873046875,22.992431640625,-18.247802734375
0.1195,-9.759521484375,23.552978515625,-14.123779296875
0.12,-13.803466796875,24.153564453125,-10.880615234375
0.1205,-17.447021484375,23.312744140625,-6.436279296875
0.121,-20.369873046875,22.632080078125,-2.872802734375
0.1215,-22.451904296875,20.429931640625,1.611572265625
0.122,-24.413818359375,17.707275390625,6.296142578125
0.1225,-23.572998046875,13.102783203125,10.099853515625
0.123,-23.853271484375,9.259033203125,14.343994140625
0.1235,-23.052490234375,5.735595703125,17.026611328125
0.124,-21.330810546875,0.770751953125,20.389892578125
0.1245,-19.008544921875,-3.553466796875,22.311767578125
0.125,-15.405029296875,-8.598388671875,23.673095703125
0.1255,-11.361083984375,-12.522216796875,23.552978515625
0.126,-6.796630859375,-16.486083984375,22.912353515625
0.1265,-3.193115234375,-18.968505859375,21.831298828125
0.127,1.971923828125,-21.771240234375,19.589111328125
0.1275,6.776611328125,-23.893310546875,17.066650390625
0.128,11.381103515625,-23.693115234375,12.302001953125
0.1285,15.224853515625,-24.373779296875,9.218994140625
0.129,18.788330078125,-23.492919921875,4.814697265625
0.1295,21.551025390625,-22.451904296875,0.730712890625
0.13,23.232666015625,-19.729248046875,-3.433349609375
0.1305,24.834228515625,-16.566162109375,-8.278076171875
0.131,23.753173828125,-11.881591796875,-11.921630859375
0.1315,23.873291015625,-7.997802734375,-16.005615234375
0.132,22.712158203125,-4.434326171875,-18.447998046875
0.1325,20.910400390625,0.770751953125,-21.771240234375
0.133,18.067626953125,5.255126953125,-23.372802734375
0.1335,13.743408203125,10.219970703125,-24.013427734375
0.134,10.099853515625,13.863525390625,-24.053466796875
0.1345,5.335205078125,17.747314453125,-23.132568359375
0.135,1.291259765625,20.189697265625,-21.571044921875
0.1355,-3.513427734375,22.632080078125,-19.368896484375
0.136,-8.678466796875,24.553955078125,-16.285888671875
0.1365,-12.922607421875,23.713134765625,-11.281005859375
0.137,-16.726318359375,24.393798828125,-8.278076171875
0.1375,-19.849365234375,23.192626953125,-3.833740234375
0.138,-22.692138671875,21.671142578125,0.530517578125
0.1385,-23.773193359375,18.708251953125,4.614501953125
0.139,-24.854248046875,14.904541015625,9.579345703125
0.1395,-23.933349609375,10.460205078125,13.182861328125
0.14,-23.813232421875,6.456298828125,17.106689453125
0.1405,-22.291748046875,2.772705078125,19.268798828125
0.141,-20.409912109375,-2.312255859375,22.471923828125
0.1415,-16.966552734375,-7.076904296875,23.793212890625
0.142,-12.201904296875,-11.841552734375,23.673095703125
0.1425,-8.918701171875,-15.324951171875,23.913330078125
0.143,-3.833740234375,-18.928466796875,22.431884765625
0.1435,0.610595703125,-21.410888671875,20.630126953125
0.144,4.934814453125,-23.332763671875,18.227783203125
0.1445,10.340087890625,-24.934326171875,14.544189453125
0.145,14.183837890625,-23.853271484375,9.659423828125
0.1455,17.947509765625,-24.533935546875,6.616455078125
0.146,20.830322265625,-22.772216796875,2.132080078125
0.1465,23.633056640625,-21.010498046875,-2.512451171875
0.147,24.233642578125,-17.767333984375,-6.436279296875
0.1475,24.834228515625,-13.563232421875,-11.361083984375
0.148,24.193603515625,-9.559326171875,-14.764404296875
0.1485,23.593017578125,-5.155029296875,-18.568115234375
0.149,21.671142578125,-1.151123046875,-20.730224609375
0.1495,19.709228515625,3.613525390625,-23.452880859375
0.15,15.665283203125,8.658447265625,-24.413818359375
0.1505,10.700439453125,13.102783203125,-23.853271484375
0.151,7.577392578125,16.666259765625,-24.333740234375
0.1515,2.172119140625,19.909423828125,-22.211669921875
0.152,-2.472412109375,22.592041015625,-20.329833984375
0.1525,-6.756591796875,23.953369140625,-17.487060546875
0.153,-12.121826171875,25.114501953125,-13.443115234375
0.1535,-15.645263671875,24.073486328125,-8.958740234375
0.154,-19.569091796875,24.393798828125,-5.395263671875
0.1545,-21.891357421875,22.311767578125,-1.031005859375
0.155,-24.493896484375,20.309814453125,3.733642578125
0.1555,-24.573974609375,16.466064453125,7.737548828125
0.156,-24.774169921875,11.861572265625,12.542236328125
0.1565,-24.373779296875,8.298095703125,15.825439453125
0.157,-23.132568359375,3.373291015625,19.509033203125
0.1575,-21.130615234375,-0.990966796875,21.791259765625
0.158,-18.648193359375,-5.555419921875,23.913330078125
0.1585,-14.404052734375,-10.560302734375,24.634033203125
0.159,-9.239013671875,-14.644287109375,23.512939453125
0.1595,-6.156005859375,-18.087646484375,23.953369140625
0.16,-0.510498046875,-21.050537109375,21.310791015625
0.1605,4.134033203125,-23.733154296875,19.428955078125
0.161,8.698486328125,-24.413818359375,15.665283203125
0.1615,13.503173828125,-25.414794921875,11.741455078125
0.162,17.186767578125,-24.373779296875,7.337158203125
0.1625,20.990478515625,-24.213623046875,3.373291015625
0.163,23.112548828125,-21.811279296875,-1.231201171875
0.1635,25.434814453125,-19.529052734375,-5.835693359375
0.164,25.034423828125,-15.124755859375,-9.959716796875
0.1645,24.914306640625,-10.400146484375,-14.604248046875
0.165,24.634033203125,-7.197021484375,-17.607177734375
0.1655,22.712158203125,-1.671630859375,-21.210693359375
0.166,20.550048828125,2.772705078125,-23.492919921875
0.1665,17.186767578125,7.657470703125,-24.894287109375
0.167,12.942626953125,12.462158203125,-25.494873046875
0.1675,7.697509765625,16.506103515625,-24.213623046875
0.168,4.174072265625,19.789306640625,-24.053466796875
0.1685,-1.471435546875,22.471923828125,-21.250732421875
0.169,-6.316162109375,25.114501953125,-19.168701171875
0.1695,-10.960693359375,25.074462890625,-14.444091796875
0.17,-15.525146484375,25.635009765625,-10.640380859375
0.1705,-19.048583984375,24.714111328125,-6.356201171875
0.171,-22.531982421875,23.753173828125,-1.831787109375
0.1715,-24.413818359375,21.110595703125,2.852783203125
0.172,-26.295654296875,18.227783203125,7.617431640625
0.1725,-25.534912109375,13.423095703125,11.741455078125
0.173,-25.174560546875,8.698486328125,16.225830078125
0.1735,-24.694091796875,5.495361328125,18.948486328125
0.174,-22.371826171875,-0.350341796875,22.431884765625
0.1745,-19.929443359375,-4.954833984375,24.634033203125
0.175,-15.565185546875,-9.959716796875,25.234619140625
0.1755,-11.521240234375,-14.364013671875,25.514892578125
0.176,-6.356201171875,-18.247802734375,24.193603515625
0.1765,-2.192138671875,-21.290771484375,23.112548828125
0.177,3.173095703125,-23.733154296875,20.349853515625
0.1775,8.378173828125,-26.215576171875,17.787353515625
0.178,12.942626953125,-25.334716796875,12.462158203125
0.1785,17.146728515625,-25.815185546875,8.818603515625
0.179,20.510009765625,-24.814208984375,4.534423828125
0.1795,23.753173828125,-23.332763671875,-0.270263671875
0.18,25.314697265625,-20.369873046875,-4.834716796875
0.1805,26.635986328125,-16.886474609375,-9.719482421875
