wavelength,x,y,z
0.0,1.131103515625,2.252197265625,-3.793701171875
0.0005,0.490478515625,2.652587890625,-3.633544921875
0.001,-0.190185546875,3.052978515625,-3.353271484375
0.0015,-0.950927734375,3.253173828125,-2.872802734375
0.002,-1.751708984375,3.573486328125,-2.272216796875
0.0025,-2.272216796875,3.573486328125,-1.791748046875
0.003,-2.832763671875,3.693603515625,-1.311279296875
0.0035,-3.032958984375,3.213134765625,-0.670654296875
0.004,-3.393310546875,3.012939453125,0.010009765625
0.0045,-3.513427734375,2.092041015625,0.970947265625
0.005,-3.793701171875,1.651611328125,1.691650390625
0.0055,-3.713623046875,0.970947265625,2.372314453125
0.006,-3.713623046875,0.490478515625,2.812744140625
0.0065,-3.353271484375,-0.270263671875,3.173095703125
0.007,-3.032958984375,-0.910888671875,3.493408203125
0.0075,-2.312255859375,-1.871826171875,3.773681640625
0.008,-1.671630859375,-2.512451171875,3.773681640625
0.0085,-0.990966796875,-3.233154296875,3.813720703125
0.009,-0.270263671875,-3.593505859375,3.453369140625
0.0095,0.450439453125,-3.993896484375,3.173095703125
0.01,1.331298828125,-4.073974609375,2.452392578125
0.0105,2.092041015625,-4.394287109375,1.971923828125
0.011,2.572509765625,-4.194091796875,1.371337890625
0.0115,3.093017578125,-4.274169921875,0.930908203125
0.012,3.213134765625,-3.673583984375,0.170166015625
0.0125,3.533447265625,-3.353271484375,-0.510498046875
0.013,3.653564453125,-2.392333984375,-1.631591796875
0.0135,3.813720703125,-1.911865234375,-2.272216796875
0.014,3.693603515625,-1.151123046875,-2.872802734375
0.0145,3.493408203125,-0.630615234375,-3.233154296875
0.015,3.133056640625,0.130126953125,-3.593505859375
0.0155,2.532470703125,0.930908203125,-3.793701171875
0.016,1.891845703125,1.851806640625,-4.073974609375
0.0165,1.091064453125,2.332275390625,-3.833740234375
0.017,0.490478515625,3.012939453125,-3.913818359375
0.0175,-0.350341796875,3.173095703125,-3.353271484375
0.018,-0.950927734375,3.533447265625,-3.153076171875
0.0185,-1.951904296875,3.693603515625,-2.232177734375
0.019,-2.552490234375,3.853759765625,-1.751708984375
0.0195,-3.032958984375,3.653564453125,-1.111083984375
0.02,-3.393310546875,3.533447265625,-0.630615234375
0.0205,-3.553466796875,2.932861328125,0.170166015625
0.021,-3.713623046875,2.412353515625,0.890869140625
0.0215,-3.913818359375,1.571533203125,1.931884765625
0.022,-3.873779296875,0.970947265625,2.492431640625
0.0225,-3.873779296875,0.370361328125,3.133056640625
0.023,-3.513427734375,-0.310302734375,3.333251953125
0.0235,-3.193115234375,-0.990966796875,3.733642578125
0.024,-2.432373046875,-1.871826171875,3.853759765625
0.0245,-1.791748046875,-2.712646484375,4.093994140625
0.025,-0.990966796875,-3.233154296875,3.773681640625
0.0255,-0.350341796875,-3.873779296875,3.813720703125
0.026,0.530517578125,-3.993896484375,3.173095703125
0.0265,1.171142578125,-4.274169921875,2.852783203125
0.027,2.252197265625,-4.514404296875,1.971923828125
0.0275,2.732666015625,-4.514404296875,1.451416015625
0.028,3.213134765625,-4.354248046875,0.810791015625
0.0285,3.493408203125,-3.993896484375,0.250244140625
0.029,3.693603515625,-3.393310546875,-0.590576171875
0.0295,3.813720703125,-2.712646484375,-1.431396484375
0.03,4.013916015625,-1.951904296875,-2.432373046875
0.0305,3.773681640625,-1.231201171875,-2.872802734375
0.031,3.813720703125,-0.630615234375,-3.513427734375
0.0315,3.213134765625,0.130126953125,-3.713623046875
0.032,2.852783203125,0.770751953125,-3.993896484375
0.0325,1.971923828125,1.771728515625,-4.154052734375
0.033,1.331298828125,2.492431640625,-4.234130859375
0.0335,0.490478515625,2.972900390625,-3.913818359375
0.034,-0.190185546875,3.533447265625,-3.793701171875
0.0345,-1.031005859375,3.653564453125,-3.113037109375
0.035,-1.671630859375,3.853759765625,-2.632568359375
0.0355,-2.712646484375,4.053955078125,-1.831787109375
0.036,-3.153076171875,3.853759765625,-1.231201171875
0.0365,-3.633544921875,3.773681640625,-0.630615234375
0.037,-3.713623046875,3.173095703125,0.130126953125
0.0375,-3.913818359375,2.652587890625,0.850830078125
0.038,-3.993896484375,1.771728515625,1.811767578125
0.0385,-4.194091796875,1.091064453125,2.692626953125
0.039,-3.793701171875,0.330322265625,3.052978515625
0.0395,-3.873779296875,-0.150146484375,3.573486328125
0.04,-3.193115234375,-0.990966796875,3.733642578125
0.0405,-2.752685546875,-1.671630859375,3.973876953125
0.041,-1.911865234375,-2.712646484375,4.134033203125
0.0415,-1.151123046875,-3.273193359375,3.973876953125
0.042,-0.350341796875,-3.793701171875,3.813720703125
0.0425,0.330322265625,-4.154052734375,3.493408203125
0.043,1.131103515625,-4.274169921875,2.852783203125
0.0435,1.851806640625,-4.434326171875,2.252197265625
0.044,2.812744140625,-4.634521484375,1.571533203125
0.0445,3.052978515625,-4.234130859375,0.930908203125
0.045,3.573486328125,-4.354248046875,0.490478515625
0.0455,3.573486328125,-3.553466796875,-0.390380859375
0.046,3.853759765625,-3.113037109375,-1.111083984375
0.0465,3.893798828125,-2.152099609375,-2.112060546875
0.047,4.013916015625,-1.551513671875,-2.832763671875
0.0475,3.653564453125,-0.790771484375,-3.233154296875
0.048,3.653564453125,-0.310302734375,-3.713623046875
0.0485,2.932861328125,0.570556640625,-3.873779296875
0.049,2.452392578125,1.251220703125,-4.114013671875
0.0495,1.651611328125,2.252197265625,-4.354248046875
0.05,0.850830078125,2.812744140625,-4.033935546875
0.0505,0.130126953125,3.453369140625,-3.993896484375
0.051,-0.670654296875,3.653564453125,-3.433349609375
0.0515,-1.431396484375,3.853759765625,-2.912841796875
0.052,-2.272216796875,3.973876953125,-2.232177734375
0.0525,-3.113037109375,4.174072265625,-1.591552734375
0.053,-3.353271484375,3.693603515625,-0.830810546875
0.0535,-3.873779296875,3.733642578125,-0.350341796875
0.054,-3.873779296875,2.812744140625,0.650634765625
0.0545,-4.114013671875,2.292236328125,1.331298828125
0.055,-4.194091796875,1.331298828125,2.492431640625
0.0555,-4.114013671875,0.690673828125,3.052978515625
0.056,-3.833740234375,0.010009765625,3.493408203125
0.0565,-3.553466796875,-0.670654296875,3.813720703125
0.057,-2.872802734375,-1.551513671875,3.973876953125
0.0575,-2.232177734375,-2.312255859375,4.053955078125
0.058,-1.431396484375,-3.193115234375,4.294189453125
0.0585,-0.590576171875,-3.553466796875,3.773681640625
0.059,0.050048828125,-4.154052734375,3.773681640625
0.0595,0.970947265625,-4.234130859375,2.972900390625
0.06,1.651611328125,-4.474365234375,2.532470703125
0.0605,2.532470703125,-4.514404296875,1.771728515625
0.061,3.093017578125,-4.554443359375,1.171142578125
0.0615,3.333251953125,-4.114013671875,0.530517578125
0.062,3.693603515625,-3.993896484375,0.010009765625
0.0625,3.693603515625,-3.072998046875,-0.990966796875
0.063,3.853759765625,-2.552490234375,-1.631591796875
0.0635,4.013916015625,-1.671630859375,-2.672607421875
0.064,3.773681640625,-1.071044921875,-3.072998046875
0.0645,3.653564453125,-0.510498046875,-3.553466796875
0.065,3.213134765625,0.170166015625,-3.793701171875
0.0655,2.612548828125,0.970947265625,-4.033935546875
0.066,1.931884765625,1.851806640625,-4.114013671875
0.0665,1.251220703125,2.652587890625,-4.274169921875
0.067,0.370361328125,3.012939453125,-3.793701171875
0.0675,-0.230224609375,3.573486328125,-3.833740234375
0.068,-1.151123046875,3.653564453125,-2.992919921875
0.0685,-1.791748046875,3.893798828125,-2.592529296875
0.069,-2.712646484375,4.013916015625,-1.831787109375
0.0695,-3.193115234375,3.853759765625,-1.231201171875
0.07,-3.553466796875,3.653564453125,-0.630615234375
0.0705,-3.793701171875,3.253173828125,0.090087890625
0.071,-3.873779296875,2.412353515625,1.010986328125
0.0715,-4.033935546875,1.851806640625,1.771728515625
0.072,-4.194091796875,1.091064453125,2.692626953125
0.0725,-3.833740234375,0.290283203125,3.052978515625
0.073,-3.833740234375,-0.270263671875,3.613525390625
0.0735,-3.153076171875,-1.111083984375,3.773681640625
0.074,-2.592529296875,-1.831787109375,4.013916015625
0.0745,-1.791748046875,-2.712646484375,4.053955078125
0.075,-1.111083984375,-3.353271484375,4.093994140625
0.0755,-0.270263671875,-3.713623046875,3.613525390625
0.076,0.370361328125,-4.154052734375,3.493408203125
0.0765,1.331298828125,-4.234130859375,2.572509765625
0.077,1.931884765625,-4.434326171875,2.212158203125
0.0775,2.772705078125,-4.514404296875,1.491455078125
0.078,3.093017578125,-4.234130859375,0.890869140625
0.0785,3.453369140625,-4.073974609375,0.330322265625
0.079,3.573486328125,-3.393310546875,-0.510498046875
0.0795,3.733642578125,-2.752685546875,-1.311279296875
0.08,3.813720703125,-2.072021484375,-2.112060546875
0.0805,3.893798828125,-1.471435546875,-2.872802734375
0.081,3.493408203125,-0.750732421875,-3.153076171875
0.0815,3.493408203125,-0.310302734375,-3.673583984375
0.082,2.692626953125,0.690673828125,-3.753662109375
0.0825,2.252197265625,1.371337890625,-3.993896484375
0.083,1.411376953125,2.252197265625,-4.033935546875
0.0835,0.770751953125,2.732666015625,-3.913818359375
0.084,0.050048828125,3.173095703125,-3.633544921875
0.0845,-0.630615234375,3.493408203125,-3.353271484375
0.085,-1.471435546875,3.613525390625,-2.592529296875
0.0855,-2.072021484375,3.813720703125,-2.192138671875
0.086,-2.872802734375,3.933837890625,-1.551513671875
0.0865,-3.072998046875,3.533447265625,-0.950927734375
0.087,-3.553466796875,3.493408203125,-0.430419921875
0.0875,-3.593505859375,2.612548828125,0.530517578125
0.088,-3.873779296875,2.172119140625,1.291259765625
0.0885,-3.913818359375,1.331298828125,2.092041015625
0.089,-3.993896484375,0.810791015625,2.692626953125
0.0895,-3.633544921875,0.090087890625,3.052978515625
0.09,-3.553466796875,-0.430419921875,3.533447265625
0.0905,-2.752685546875,-1.351318359375,3.733642578125
0.091,-2.272216796875,-2.072021484375,3.893798828125
0.0915,-1.471435546875,-2.912841796875,4.013916015625
0.092,-0.750732421875,-3.353271484375,3.733642578125
0.0925,-0.070068359375,-3.833740234375,3.573486328125
0.093,0.770751953125,-4.033935546875,3.012939453125
0.0935,1.571533203125,-4.274169921875,2.452392578125
0.094,2.212158203125,-4.354248046875,1.931884765625
0.0945,2.812744140625,-4.474365234375,1.371337890625
0.095,3.012939453125,-3.993896484375,0.690673828125
0.0955,3.493408203125,-3.913818359375,0.170166015625
0.096,3.453369140625,-2.912841796875,-0.910888671875
0.0965,3.733642578125,-2.552490234375,-1.591552734375
0.097,3.773681640625,-1.751708984375,-2.432373046875
0.0975,3.653564453125,-1.231201171875,-2.872802734375
0.098,3.373291015625,-0.510498046875,-3.233154296875
0.0985,3.133056640625,0.130126953125,-3.593505859375
0.099,2.412353515625,1.010986328125,-3.793701171875
0.0995,1.851806640625,1.691650390625,-3.873779296875
0.1,1.171142578125,2.492431640625,-3.993896484375
0.1005,0.410400390625,2.812744140625,-3.593505859375
0.101,-0.190185546875,3.253173828125,-3.553466796875
0.1015,-1.111083984375,3.413330078125,-2.792724609375
0.102,-1.751708984375,3.693603515625,-2.432373046875
0.1025,-2.392333984375,3.693603515625,-1.791748046875
0.103,-2.872802734375,3.693603515625,-1.311279296875
0.1035,-3.113037109375,3.293212890625,-0.670654296875
0.104,-3.473388671875,3.052978515625,-0.110107421875
0.1045,-3.513427734375,2.172119140625,0.890869140625
0.105,-3.793701171875,1.771728515625,1.571533203125
0.1055,-3.833740234375,1.051025390625,2.292236328125
0.106,-3.633544921875,0.570556640625,2.692626953125
0.1065,-3.553466796875,-0.070068359375,3.173095703125
0.107,-3.032958984375,-0.790771484375,3.373291015625
0.1075,-2.512451171875,-1.591552734375,3.693603515625
0.108,-1.791748046875,-2.272216796875,3.693603515625
0.1085,-1.271240234375,-2.952880859375,3.813720703125
0.109,-0.510498046875,-3.273193359375,3.413330078125
0.1095,0.130126953125,-3.793701171875,3.373291015625
0.11,1.010986328125,-3.873779296875,2.532470703125
0.1105,1.611572265625,-4.194091796875,2.292236328125
0.111,2.252197265625,-4.234130859375,1.691650390625
0.1115,2.612548828125,-4.114013671875,1.251220703125
0.112,3.012939453125,-3.833740234375,0.610595703125
0.1125,3.173095703125,-3.433349609375,-0.150146484375
0.113,3.373291015625,-2.752685546875,-0.990966796875
0.1135,3.573486328125,-2.272216796875,-1.751708984375
0.114,3.693603515625,-1.671630859375,-2.432373046875
0.1145,3.373291015625,-1.031005859375,-2.712646484375
0.115,3.373291015625,-0.510498046875,-3.233154296875
0.1155,2.692626953125,0.370361328125,-3.393310546875
0.116,2.252197265625,1.091064453125,-3.793701171875
0.1165,1.571533203125,1.851806640625,-3.753662109375
0.117,0.970947265625,2.412353515625,-3.793701171875
0.1175,0.250244140625,2.812744140625,-3.433349609375
0.118,-0.350341796875,3.173095703125,-3.273193359375
0.1185,-1.271240234375,3.373291015625,-2.552490234375
0.119,-1.831787109375,3.573486328125,-2.272216796875
0.1195,-2.512451171875,3.693603515625,-1.671630859375
0.12,-2.792724609375,3.413330078125,-1.151123046875
0.1205,-3.193115234375,3.213134765625,-0.550537109375
0.121,-3.273193359375,2.492431640625,0.330322265625
0.1215,-3.633544921875,1.971923828125,1.131103515625
0.122,-3.713623046875,1.411376953125,1.851806640625
0.1225,-3.793701171875,0.970947265625,2.452392578125
0.123,-3.473388671875,0.290283203125,2.812744140625
0.1235,-3.353271484375,-0.350341796875,3.253173828125
0.124,-2.592529296875,-1.271240234375,3.453369140625
0.1245,-2.152099609375,-1.951904296875,3.693603515625
0.125,-1.431396484375,-2.672607421875,3.693603515625
0.1255,-0.790771484375,-3.153076171875,3.533447265625
0.126,0.010009765625,-3.553466796875,3.293212890625
0.1265,0.650634765625,-3.793701171875,2.852783203125
0.127,1.451416015625,-4.033935546875,2.292236328125
0.1275,1.931884765625,-4.114013671875,1.891845703125
0.128,2.532470703125,-4.194091796875,1.411376953125
0.1285,2.732666015625,-3.833740234375,0.770751953125
0.129,3.173095703125,-3.713623046875,0.210205078125
0.1295,3.213134765625,-2.832763671875,-0.790771484375
0.13,3.533447265625,-2.432373046875,-1.471435546875
0.1305,3.493408203125,-1.711669921875,-2.152099609375
0.131,3.533447265625,-1.311279296875,-2.552490234375
0.1315,3.173095703125,-0.630615234375,-2.952880859375
0.132,2.972900390625,0.010009765625,-3.313232421875
0.1325,2.292236328125,0.930908203125,-3.553466796875
0.133,1.771728515625,1.531494140625,-3.713623046875
0.1335,1.171142578125,2.252197265625,-3.793701171875
0.134,0.490478515625,2.612548828125,-3.473388671875
0.1345,-0.150146484375,3.052978515625,-3.353271484375
0.135,-0.950927734375,3.213134765625,-2.712646484375
0.1355,-1.671630859375,3.573486328125,-2.352294921875
0.136,-2.192138671875,3.533447265625,-1.871826171875
0.1365,-2.712646484375,3.573486328125,-1.431396484375
0.137,-2.912841796875,3.173095703125,-0.710693359375
0.1375,-3.273193359375,2.892822265625,-0.150146484375
0.138,-3.393310546875,2.092041015625,0.930908203125
0.1385,-3.713623046875,1.731689453125,1.571533203125
0.139,-3.713623046875,1.051025390625,2.252197265625
0.1395,-3.593505859375,0.610595703125,2.612548828125
0.14,-3.353271484375,-0.150146484375,3.133056640625
0.1405,-2.872802734375,-0.870849609375,3.333251953125
0.141,-2.312255859375,-1.751708984375,3.693603515625
0.1415,-1.671630859375,-2.312255859375,3.613525390625
0.142,-1.071044921875,-3.032958984375,3.693603515625
0.1425,-0.310302734375,-3.353271484375,3.253173828125
0.143,0.290283203125,-3.753662109375,3.173095703125
0.1435,1.211181640625,-3.873779296875,2.412353515625
0.144,1.851806640625,-4.154052734375,2.052001953125
0.1445,2.292236328125,-4.154052734375,1.451416015625
0.145,2.692626953125,-4.114013671875,1.051025390625
0.1455,2.932861328125,-3.633544921875,0.330322265625
0.146,3.173095703125,-3.153076171875,-0.350341796875
0.1465,3.373291015625,-2.432373046875,-1.271240234375
0.147,3.493408203125,-1.951904296875,-1.871826171875
0.1475,3.533447265625,-1.391357421875,-2.512451171875
0.148,3.253173828125,-0.830810546875,-2.752685546875
0.1485,3.093017578125,-0.270263671875,-3.233154296875
0.149,2.452392578125,0.610595703125,-3.393310546875
0.1495,2.011962890625,1.331298828125,-3.753662109375
0.15,1.291259765625,1.931884765625,-3.593505859375
0.1505,0.770751953125,2.532470703125,-3.713623046875
0.151,0.010009765625,2.852783203125,-3.233154296875
0.1515,-0.550537109375,3.173095703125,-3.072998046875
0.152,-1.471435546875,3.413330078125,-2.392333984375
0.1525,-1.991943359375,3.533447265625,-2.072021484375
0.153,-2.552490234375,3.573486328125,-1.511474609375
0.1535,-2.832763671875,3.253173828125,-0.990966796875
0.154,-3.193115234375,3.012939453125,-0.310302734375
0.1545,-3.353271484375,2.372314453125,0.570556640625
0.155,-3.673583984375,1.851806640625,1.411376953125
0.1555,-3.633544921875,1.251220703125,1.971923828125
0.156,-3.793701171875,0.810791015625,2.572509765625
0.1565,-3.353271484375,0.090087890625,2.892822265625
0.157,-3.193115234375,-0.590576171875,3.333251953125
0.1575,-2.472412109375,-1.471435546875,3.533447265625
0.158,-1.951904296875,-2.152099609375,3.733642578125
0.1585,-1.231201171875,-2.792724609375,3.613525390625
0.159,-0.630615234375,-3.273193359375,3.533447265625
0.1595,0.130126953125,-3.593505859375,3.133056640625
0.16,0.850830078125,-3.833740234375,2.692626953125
0.1605,1.731689453125,-4.194091796875,2.172119140625
0.161,2.092041015625,-4.154052734375,1.651611328125
0.1615,2.692626953125,-4.274169921875,1.211181640625
0.162,2.852783203125,-3.713623046875,0.570556640625
0.1625,3.213134765625,-3.473388671875,-0.150146484375
0.163,3.333251953125,-2.592529296875,-1.071044921875
0.1635,3.653564453125,-2.192138671875,-1.791748046875
0.164,3.453369140625,-1.471435546875,-2.312255859375
0.1645,3.533447265625,-1.111083984375,-2.832763671875
0.165,3.052978515625,-0.350341796875,-3.153076171875
0.1655,2.772705078125,0.330322265625,-3.473388671875
0.166,2.092041015625,1.251220703125,-3.753662109375
0.1665,1.491455078125,1.891845703125,-3.753662109375
0.167,0.810791015625,2.532470703125,-3.753662109375
0.1675,0.170166015625,2.852783203125,-3.473388671875
0.168,-0.510498046875,3.173095703125,-3.153076171875
0.1685,-1.311279296875,3.373291015625,-2.552490234375
0.169,-2.112060546875,3.693603515625,-2.072021484375
0.1695,-2.472412109375,3.453369140625,-1.551513671875
0.17,-2.992919921875,3.613525390625,-1.111083984375
0.1705,-3.153076171875,3.012939453125,-0.310302734375
0.171,-3.473388671875,2.692626953125,0.370361328125
0.1715,-3.593505859375,1.771728515625,1.411376953125
0.172,-3.793701171875,1.331298828125,2.052001953125
0.1725,-3.633544921875,0.650634765625,2.572509765625
0.173,-3.553466796875,0.210205078125,3.012939453125
0.1735,-3.193115234375,-0.590576171875,3.333251953125
0.174,-2.632568359375,-1.311279296875,3.533447265625
0.1745,-2.072021484375,-2.232177734375,3.853759765625
0.175,-1.311279296875,-2.712646484375,3.653564453125
0.1755,-0.670654296875,-3.393310546875,3.733642578125
0.176,0.130126953125,-3.633544921875,3.213134765625
0.1765,0.770751953125,-4.033935546875,2.932861328125
0.177,1.651611328125,-4.194091796875,2.212158203125
0.1775,2.372314453125,-4.434326171875,1.731689453125
0.178,2.732666015625,-4.114013671875,1.131103515625
0.1785,3.173095703125,-4.114013671875,0.650634765625
0.179,3.293212890625,-3.473388671875,-0.190185546875
0.1795,3.533447265625,-2.952880859375,-0.910888671875
0.18,3.773681640625,-2.112060546875,-1.991943359375
0.1805,3.693603515625,-1.551513671875,-2.512451171875
0.181,3.613525390625,-0.950927734375,-3.072998046875
0.1815,3.293212890625,-0.310302734375,-3.353271484375
0.182,2.892822265625,0.450439453125,-3.673583984375
0.1825,2.212158203125,1.251220703125,-3.833740234375
0.183,1.571533203125,2.132080078125,-4.114013671875
0.1835,0.770751953125,2.532470703125,-3.713623046875
0.184,0.210205078125,3.173095703125,-3.793701171875
0.1845,-0.630615234375,3.253173828125,-3.153076171875
0.185,-1.311279296875,3.533447265625,-2.752685546875
0.1855,-2.272216796875,3.773681640625,-1.991943359375
0.186,-2.832763671875,3.773681640625,-1.431396484375
0.1865,-3.193115234375,3.573486328125,-0.910888671875
0.187,-3.473388671875,3.293212890625,-0.310302734375
0.1875,-3.593505859375,2.612548828125,0.530517578125
0.188,-3.753662109375,2.052001953125,1.291259765625
