wavelength,x,y,z
0.0,6.0709228515625,0.2252197265625,-6.6614990234375
0.0005,6.0709228515625,-0.6556396484375,-6.2210693359375
0.001,5.8306884765625,-1.5765380859375,-5.3802490234375
0.0015,5.4703369140625,-2.8577880859375,-4.0989990234375
0.002,5.2301025390625,-4.1790771484375,-2.6175537109375
0.0025,4.8297119140625,-5.2200927734375,-1.4163818359375
0.003,4.4693603515625,-5.8206787109375,-0.6156005859375
0.0035,3.7886962890625,-6.1409912109375,0.3453369140625
0.004,2.7076416015625,-6.3411865234375,1.5064697265625
0.0045,1.3062744140625,-6.4613037109375,3.0279541015625
0.005,0.0250244140625,-6.4613037109375,4.3492431640625
0.0055,-0.8958740234375,-6.5413818359375,5.2701416015625
0.006,-1.5364990234375,-6.4613037109375,5.9508056640625
0.0065,-2.5374755859375,-5.7806396484375,6.4312744140625
0.007,-3.8587646484375,-4.4993896484375,6.7115478515625
0.0075,-5.0999755859375,-3.0980224609375,6.7916259765625
0.008,-5.8607177734375,-1.7767333984375,6.5914306640625
0.0085,-6.1409912109375,-1.0560302734375,6.4312744140625
0.009,-6.1409912109375,-0.2952880859375,5.9908447265625
0.0095,-5.9808349609375,0.7857666015625,5.1099853515625
0.01,-5.7406005859375,2.1470947265625,3.8687744140625
0.0105,-5.4603271484375,3.5084228515625,2.4674072265625
0.011,-5.1400146484375,4.4693603515625,1.3863525390625
0.0115,-4.7796630859375,5.0699462890625,0.5855712890625
0.012,-4.0189208984375,5.4302978515625,-0.4554443359375
0.0125,-2.8577880859375,5.5904541015625,-1.7366943359375
0.013,-1.5364990234375,5.8306884765625,-3.2581787109375
0.0135,-0.3353271484375,5.8306884765625,-4.4993896484375
0.014,0.4654541015625,5.9908447265625,-5.4202880859375
0.0145,1.2662353515625,5.7506103515625,-6.0609130859375
0.015,2.4273681640625,4.8697509765625,-6.5013427734375
0.0155,3.7486572265625,3.5484619140625,-6.7415771484375
0.016,4.9097900390625,2.0670166015625,-6.7816162109375
0.0165,5.5103759765625,0.9058837890625,-6.6214599609375
0.017,5.7506103515625,0.1851806640625,-6.3812255859375
0.0175,5.6304931640625,-0.7757568359375,-5.7806396484375
0.018,5.4302978515625,-1.8568115234375,-4.7396240234375
0.0185,5.1900634765625,-3.1781005859375,-3.4583740234375
0.019,4.9498291015625,-4.3792724609375,-2.1370849609375
0.0195,4.6295166015625,-5.1800537109375,-1.2161865234375
0.02,4.1490478515625,-5.7005615234375,-0.4554443359375
0.0205,3.3482666015625,-5.9407958984375,0.6256103515625
0.021,2.1070556640625,-6.1409912109375,1.9869384765625
0.0215,0.7857666015625,-6.2611083984375,3.4683837890625
0.022,-0.2952880859375,-6.3411865234375,4.5093994140625
0.0225,-0.8958740234375,-6.4613037109375,5.3101806640625
0.023,-1.7767333984375,-6.0609130859375,5.8707275390625
0.0235,-3.0179443359375,-5.0198974609375,6.2711181640625
0.024,-4.2591552734375,-3.7386474609375,6.5113525390625
0.0245,-5.2601318359375,-2.4173583984375,6.4312744140625
0.025,-5.7406005859375,-1.5765380859375,6.3511962890625
0.0255,-5.8607177734375,-0.8558349609375,6.0709228515625
0.026,-5.7406005859375,0.1051025390625,5.4302978515625
0.0265,-5.5404052734375,1.2261962890625,4.4293212890625
0.027,-5.3802490234375,2.5875244140625,3.1080322265625
0.0275,-5.0999755859375,3.6685791015625,1.9869384765625
0.028,-4.8197021484375,4.4293212890625,1.1461181640625
0.0285,-4.3392333984375,4.8297119140625,0.3453369140625
0.029,-3.4583740234375,5.1099853515625,-0.7757568359375
0.0295,-2.2972412109375,5.4302978515625,-2.1370849609375
0.03,-1.0560302734375,5.5103759765625,-3.5384521484375
0.0305,-0.2952880859375,5.7105712890625,-4.4993896484375
0.031,0.5054931640625,5.7506103515625,-5.2601318359375
0.0315,1.4263916015625,5.3101806640625,-5.8206787109375
0.032,2.6676025390625,4.2291259765625,-6.2210693359375
0.0325,3.8687744140625,2.9078369140625,-6.4212646484375
0.033,4.7496337890625,1.6666259765625,-6.3812255859375
0.0335,5.1500244140625,0.9459228515625,-6.3411865234375
0.034,5.2701416015625,0.2652587890625,-6.0208740234375
0.0345,5.1900634765625,-0.7357177734375,-5.3001708984375
0.035,5.0699462890625,-1.8968505859375,-4.2991943359375
0.0355,4.9498291015625,-3.1781005859375,-3.0980224609375
0.036,4.7095947265625,-4.1790771484375,-2.0970458984375
0.0365,4.5093994140625,-4.8997802734375,-1.2962646484375
0.037,3.9488525390625,-5.3802490234375,-0.4954833984375
0.0375,3.0279541015625,-5.6204833984375,0.7056884765625
0.038,1.8668212890625,-5.9407958984375,2.1470947265625
0.0385,0.7857666015625,-6.1009521484375,3.3482666015625
0.039,0.0650634765625,-6.3411865234375,4.3492431640625
0.0395,-0.7757568359375,-6.3011474609375,5.1099853515625
0.04,-1.8568115234375,-5.7005615234375,5.6304931640625
0.0405,-3.1380615234375,-4.6195068359375,5.9908447265625
0.041,-4.2991943359375,-3.3382568359375,6.1510009765625
0.0415,-5.0599365234375,-2.2972412109375,6.1109619140625
0.042,-5.4202880859375,-1.5765380859375,6.1109619140625
0.0425,-5.4603271484375,-0.8157958984375,5.7506103515625
0.043,-5.4202880859375,0.2252197265625,4.9898681640625
0.0435,-5.3001708984375,1.4263916015625,3.9088134765625
0.044,-5.1400146484375,2.6676025390625,2.7877197265625
0.0445,-4.9798583984375,3.5885009765625,1.9068603515625
0.045,-4.6595458984375,4.1890869140625,1.1060791015625
0.0455,-4.0589599609375,4.6295166015625,0.2252197265625
0.046,-3.0579833984375,4.9898681640625,-1.0960693359375
0.0465,-1.9368896484375,5.2701416015625,-2.5374755859375
0.047,-0.9759521484375,5.4703369140625,-3.6185302734375
0.0475,-0.3353271484375,5.7105712890625,-4.4993896484375
0.048,0.6256103515625,5.4703369140625,-5.2200927734375
0.0485,1.7066650390625,4.7095947265625,-5.7406005859375
0.049,2.9478759765625,3.5484619140625,-6.0609130859375
0.0495,3.9888916015625,2.3472900390625,-6.1409912109375
0.05,4.6695556640625,1.4664306640625,-6.1409912109375
0.0505,4.9498291015625,0.8258056640625,-6.0609130859375
0.051,4.9898681640625,0.0650634765625,-5.6204833984375
0.0515,4.9097900390625,-1.0560302734375,-4.7796630859375
0.052,4.8697509765625,-2.3372802734375,-3.6986083984375
0.0525,4.7496337890625,-3.4583740234375,-2.6175537109375
0.053,4.5494384765625,-4.2991943359375,-1.8568115234375
0.0535,4.1890869140625,-4.8197021484375,-1.0960693359375
0.054,3.5084228515625,-5.2601318359375,0.0250244140625
0.0545,2.5474853515625,-5.6204833984375,1.2662353515625
0.055,1.3863525390625,-5.9007568359375,2.5875244140625
0.0555,0.6256103515625,-6.1009521484375,3.6285400390625
0.056,-0.1751708984375,-6.3411865234375,4.5093994140625
0.0565,-1.1361083984375,-6.0609130859375,5.1500244140625
0.057,-2.3372802734375,-5.1400146484375,5.6304931640625
0.0575,-3.6585693359375,-3.9788818359375,5.9508056640625
0.058,-4.5394287109375,-2.7376708984375,5.9908447265625
0.0585,-5.0999755859375,-2.0169677734375,6.0709228515625
0.059,-5.2601318359375,-1.3363037109375,5.8707275390625
0.0595,-5.3001708984375,-0.4954833984375,5.3502197265625
0.06,-5.2601318359375,0.7457275390625,4.4693603515625
0.0605,-5.1800537109375,2.0269775390625,3.3082275390625
0.061,-5.0198974609375,3.0679931640625,2.3072509765625
0.0615,-4.8197021484375,3.8687744140625,1.5865478515625
0.062,-4.3792724609375,4.3492431640625,0.7457275390625
0.0625,-3.5384521484375,4.7095947265625,-0.4954833984375
0.063,-2.5374755859375,5.1500244140625,-1.8568115234375
0.0635,-1.4564208984375,5.3502197265625,-3.0980224609375
0.064,-0.7357177734375,5.6304931640625,-4.0589599609375
0.0645,0.1451416015625,5.6304931640625,-4.8597412109375
0.065,1.1861572265625,5.1099853515625,-5.5003662109375
0.0655,2.4273681640625,4.0689697265625,-5.9007568359375
0.066,3.6685791015625,2.8277587890625,-6.1009521484375
0.0665,4.5093994140625,1.7867431640625,-6.1409912109375
0.067,4.8697509765625,1.1060791015625,-6.1009521484375
0.0675,4.9898681640625,0.3453369140625,-5.7406005859375
0.068,4.9498291015625,-0.7357177734375,-5.0198974609375
0.0685,4.9097900390625,-1.9368896484375,-4.0189208984375
0.069,4.7896728515625,-3.1781005859375,-2.8978271484375
0.0695,4.6295166015625,-4.0989990234375,-2.0570068359375
0.07,4.3892822265625,-4.7796630859375,-1.2962646484375
0.0705,3.7886962890625,-5.1800537109375,-0.4154052734375
0.071,2.7877197265625,-5.5404052734375,0.9058837890625
0.0715,1.6265869140625,-5.8607177734375,2.3472900390625
0.072,0.7056884765625,-6.1009521484375,3.4683837890625
0.0725,0.0650634765625,-6.3812255859375,4.3492431640625
0.073,-0.9359130859375,-6.1409912109375,5.1099853515625
0.0735,-2.0970458984375,-5.3802490234375,5.5904541015625
0.074,-3.3782958984375,-4.1790771484375,5.9508056640625
0.0745,-4.4993896484375,-2.8978271484375,6.1109619140625
0.075,-5.0999755859375,-2.0169677734375,6.1510009765625
0.0755,-5.4202880859375,-1.3363037109375,5.9908447265625
0.076,-5.4202880859375,-0.5755615234375,5.5103759765625
0.0765,-5.3402099609375,0.6256103515625,4.6295166015625
0.077,-5.2601318359375,1.9468994140625,3.5084228515625
0.0775,-5.0999755859375,3.1080322265625,2.3873291015625
0.078,-4.8997802734375,3.9088134765625,1.5465087890625
0.0785,-4.4993896484375,4.4693603515625,0.7457275390625
0.079,-3.6585693359375,4.8297119140625,-0.4154052734375
0.0795,-2.6175537109375,5.1500244140625,-1.7767333984375
0.08,-1.4163818359375,5.4302978515625,-3.1781005859375
0.0805,-0.6156005859375,5.6304931640625,-4.1790771484375
0.081,0.1851806640625,5.7506103515625,-5.0198974609375
0.0815,1.1461181640625,5.2301025390625,-5.7005615234375
0.082,2.4674072265625,4.2291259765625,-6.1009521484375
0.0825,3.7886962890625,2.9478759765625,-6.3411865234375
0.083,4.6695556640625,1.7467041015625,-6.3011474609375
0.0835,5.1099853515625,0.9459228515625,-6.2611083984375
0.084,5.2301025390625,0.2252197265625,-5.9007568359375
0.0845,5.1500244140625,-0.8558349609375,-5.1800537109375
0.085,5.0299072265625,-2.0570068359375,-4.1390380859375
0.0855,4.9498291015625,-3.4183349609375,-2.8978271484375
0.086,4.7496337890625,-4.4193115234375,-1.8968505859375
0.0865,4.4693603515625,-5.0999755859375,-1.0960693359375
0.087,3.8287353515625,-5.4603271484375,-0.2552490234375
0.0875,2.8277587890625,-5.7406005859375,1.0260009765625
0.088,1.5865478515625,-6.1009521484375,2.5474853515625
0.0885,0.5054931640625,-6.2611083984375,3.7886962890625
0.089,-0.2952880859375,-6.4212646484375,4.6695556640625
0.0895,-1.1361083984375,-6.3411865234375,5.3902587890625
0.09,-2.2572021484375,-5.5003662109375,5.9508056640625
0.0905,-3.5784912109375,-4.2591552734375,6.2711181640625
0.091,-4.8197021484375,-2.8978271484375,6.4312744140625
0.0915,-5.4603271484375,-1.8167724609375,6.3111572265625
0.092,-5.7406005859375,-1.1361083984375,6.1109619140625
0.0925,-5.7406005859375,-0.2952880859375,5.6304931640625
0.093,-5.6204833984375,0.8658447265625,4.6695556640625
0.0935,-5.4202880859375,2.2271728515625,3.4683837890625
0.094,-5.2601318359375,3.4683837890625,2.2271728515625
0.0945,-4.9798583984375,4.3092041015625,1.3062744140625
0.095,-4.5394287109375,4.8297119140625,0.5054931640625
0.0955,-3.7786865234375,5.1099853515625,-0.5755615234375
0.096,-2.5374755859375,5.3902587890625,-1.9368896484375
0.0965,-1.2562255859375,5.6304931640625,-3.4984130859375
0.097,-0.3353271484375,5.7506103515625,-4.6195068359375
0.0975,0.4654541015625,5.8306884765625,-5.4202880859375
0.098,1.3863525390625,5.4703369140625,-6.0208740234375
0.0985,2.7076416015625,4.4293212890625,-6.4613037109375
0.099,4.0289306640625,3.0679931640625,-6.7015380859375
0.0995,5.1099853515625,1.6666259765625,-6.7015380859375
0.1,5.6304931640625,0.7056884765625,-6.5413818359375
0.1005,5.7105712890625,-0.1751708984375,-6.2611083984375
0.101,5.5904541015625,-1.0560302734375,-5.4603271484375
0.1015,5.3902587890625,-2.3372802734375,-4.2591552734375
0.102,5.1900634765625,-3.7786865234375,-2.8978271484375
0.1025,4.9498291015625,-4.9398193359375,-1.6566162109375
0.103,4.5093994140625,-5.5804443359375,-0.8157958984375
0.1035,3.9088134765625,-5.9407958984375,0.1051025390625
0.104,2.8677978515625,-6.1810302734375,1.3062744140625
0.1045,1.4263916015625,-6.4613037109375,2.8677978515625
0.105,0.1451416015625,-6.5814208984375,4.3092041015625
0.1055,-0.7757568359375,-6.6614990234375,5.2301025390625
0.106,-1.4564208984375,-6.5413818359375,5.9908447265625
0.1065,-2.5775146484375,-5.7406005859375,6.4713134765625
0.107,-4.0189208984375,-4.4193115234375,6.7916259765625
0.1075,-5.3001708984375,-2.8978271484375,6.9117431640625
0.108,-6.1009521484375,-1.5765380859375,6.7115478515625
0.1085,-6.3411865234375,-0.7357177734375,6.4713134765625
0.109,-6.2611083984375,0.1851806640625,5.9107666015625
0.1095,-6.0609130859375,1.2662353515625,4.8697509765625
0.11,-5.7406005859375,2.6676025390625,3.5084228515625
0.1105,-5.5003662109375,4.0289306640625,2.0670166015625
0.111,-5.0999755859375,4.9498291015625,0.9859619140625
0.1115,-4.6195068359375,5.4302978515625,0.1451416015625
0.112,-3.7786865234375,5.6705322265625,-0.9359130859375
0.1125,-2.4173583984375,5.7506103515625,-2.3372802734375
0.113,-1.0159912109375,5.9508056640625,-3.9788818359375
0.1135,0.2252197265625,5.9908447265625,-5.1800537109375
0.114,0.9859619140625,6.0709228515625,-5.9407958984375
0.1145,1.7867431640625,5.7105712890625,-6.5413818359375
0.115,3.0279541015625,4.6695556640625,-6.9818115234375
0.1155,4.3892822265625,3.1881103515625,-7.1019287109375
0.116,5.5103759765625,1.6265869140625,-7.0618896484375
0.1165,6.0709228515625,0.4654541015625,-6.7816162109375
0.117,6.1510009765625,-0.4154052734375,-6.4212646484375
0.1175,5.9508056640625,-1.2962646484375,-5.7005615234375
0.118,5.6304931640625,-2.5374755859375,-4.4593505859375
0.1185,5.3902587890625,-3.8988037109375,-3.0579833984375
0.119,5.0299072265625,-5.1400146484375,-1.6566162109375
0.1195,4.6295166015625,-5.9007568359375,-0.6956787109375
0.12,4.0689697265625,-6.3011474609375,0.2252197265625
0.1205,3.1080322265625,-6.4613037109375,1.2261962890625
0.121,1.6265869140625,-6.5814208984375,2.7076416015625
0.1215,0.1851806640625,-6.7415771484375,4.2691650390625
0.122,-0.8958740234375,-6.6614990234375,5.3502197265625
0.1225,-1.5364990234375,-6.6214599609375,6.0709228515625
0.123,-2.4974365234375,-6.1009521484375,6.5513916015625
0.1235,-3.7786865234375,-4.8197021484375,6.9117431640625
0.124,-5.0599365234375,-3.4183349609375,7.0718994140625
0.1245,-6.0609130859375,-1.9368896484375,6.9117431640625
0.125,-6.4212646484375,-0.9359130859375,6.6715087890625
0.1255,-6.4212646484375,-0.1751708984375,6.2310791015625
0.126,-6.2210693359375,0.8258056640625,5.4302978515625
0.1265,-5.9007568359375,2.1070556640625,4.1090087890625
0.127,-5.6605224609375,3.5484619140625,2.6275634765625
0.1275,-5.2601318359375,4.6295166015625,1.3463134765625
0.128,-4.8597412109375,5.2701416015625,0.5054931640625
0.1285,-4.1390380859375,5.5904541015625,-0.4954833984375
0.129,-3.0579833984375,5.7506103515625,-1.6165771484375
0.1295,-1.7366943359375,5.9107666015625,-3.1781005859375
0.13,-0.2952880859375,5.9908447265625,-4.6595458984375
0.1305,0.6256103515625,6.0308837890625,-5.5404052734375
0.131,1.3062744140625,5.9508056640625,-6.2611083984375
0.1315,2.3472900390625,5.2301025390625,-6.7015380859375
0.132,3.7086181640625,3.9088134765625,-6.9818115234375
0.1325,4.9498291015625,2.4674072265625,-7.1019287109375
0.133,5.7906494140625,1.0260009765625,-6.9017333984375
0.1335,6.1109619140625,0.1851806640625,-6.6614990234375
0.134,6.0709228515625,-0.6956787109375,-6.1409912109375
0.1345,5.7906494140625,-1.7366943359375,-5.1800537109375
0.135,5.5103759765625,-3.0980224609375,-3.8587646484375
0.1355,5.2301025390625,-4.4993896484375,-2.3773193359375
0.136,4.8697509765625,-5.4603271484375,-1.2562255859375
0.1365,4.4693603515625,-6.1009521484375,-0.3753662109375
0.137,3.7086181640625,-6.3812255859375,0.6256103515625
0.1375,2.3873291015625,-6.5413818359375,1.9468994140625
0.138,0.9459228515625,-6.6614990234375,3.5484619140625
0.1385,-0.4154052734375,-6.6614990234375,4.8297119140625
0.139,-1.1361083984375,-6.7015380859375,5.7105712890625
0.1395,-1.9368896484375,-6.4613037109375,6.3511962890625
0.14,-3.0579833984375,-5.5404052734375,6.7916259765625
0.1405,-4.4993896484375,-4.0989990234375,7.0318603515625
0.141,-5.7406005859375,-2.5374755859375,7.0318603515625
0.1415,-6.3812255859375,-1.2962646484375,6.7916259765625
0.142,-6.5413818359375,-0.4954833984375,6.4713134765625
0.1425,-6.3812255859375,0.4654541015625,5.8306884765625
0.143,-6.1009521484375,1.6666259765625,4.6295166015625
0.1435,-5.8206787109375,3.1080322265625,3.2281494140625
0.144,-5.5003662109375,4.4293212890625,1.7867431640625
0.1445,-5.0999755859375,5.1900634765625,0.7457275390625
0.145,-4.5394287109375,5.6304931640625,-0.2152099609375
0.1455,-3.5784912109375,5.8306884765625,-1.2562255859375
0.146,-2.1370849609375,6.0308837890625,-2.7777099609375
0.1465,-0.6156005859375,6.1510009765625,-4.4193115234375
0.147,0.5054931640625,6.0709228515625,-5.4603271484375
0.1475,1.1861572265625,6.1109619140625,-6.2210693359375
0.148,2.1070556640625,5.5504150390625,-6.7415771484375
0.1485,3.4683837890625,4.3092041015625,-7.1019287109375
0.149,4.7896728515625,2.8277587890625,-7.2220458984375
0.1495,5.7906494140625,1.3062744140625,-7.0618896484375
0.15,6.1910400390625,0.2252197265625,-6.7415771484375
0.1505,6.2310791015625,-0.6556396484375,-6.3812255859375
0.151,5.9508056640625,-1.5765380859375,-5.5003662109375
0.1515,5.6304931640625,-2.8577880859375,-4.1390380859375
0.152,5.3101806640625,-4.2991943359375,-2.6575927734375
0.1525,4.9498291015625,-5.4202880859375,-1.3363037109375
0.153,4.5093994140625,-6.1009521484375,-0.4954833984375
0.1535,3.8287353515625,-6.3812255859375,0.4654541015625
0.154,2.7076416015625,-6.4613037109375,1.5865478515625
0.1545,1.3062744140625,-6.6214599609375,3.1480712890625
0.155,-0.2552490234375,-6.5814208984375,4.5494384765625
0.1555,-1.0560302734375,-6.6214599609375,5.4703369140625
0.156,-1.6966552734375,-6.5413818359375,6.1510009765625
0.1565,-2.6976318359375,-5.8206787109375,6.5914306640625
0.157,-4.0189208984375,-4.4993896484375,6.9117431640625
0.1575,-5.2601318359375,-3.0579833984375,6.9517822265625
0.158,-6.1009521484375,-1.6966552734375,6.7115478515625
0.1585,-6.3812255859375,-0.8157958984375,6.5113525390625
0.159,-6.3411865234375,0.0250244140625,6.0709228515625
0.1595,-6.1009521484375,0.9459228515625,5.1500244140625
0.16,-5.7406005859375,2.2672119140625,3.8687744140625
0.1605,-5.4603271484375,3.5885009765625,2.4674072265625
0.161,-5.0999755859375,4.5494384765625,1.3062744140625
0.1615,-4.7796630859375,5.1099853515625,0.4254150390625
0.162,-4.0189208984375,5.5103759765625,-0.4954833984375
0.1625,-2.8978271484375,5.6705322265625,-1.6966552734375
0.163,-1.5765380859375,5.8707275390625,-3.2181396484375
0.1635,-0.2952880859375,5.8707275390625,-4.5394287109375
0.164,0.5855712890625,5.9508056640625,-5.4202880859375
0.1645,1.2662353515625,5.8306884765625,-6.1009521484375
0.165,2.3072509765625,5.1099853515625,-6.5413818359375
0.1655,3.6685791015625,3.7486572265625,-6.8216552734375
0.166,4.8697509765625,2.2672119140625,-6.9017333984375
0.1665,5.6304931640625,1.0260009765625,-6.7015380859375
0.167,5.8306884765625,0.3052978515625,-6.5013427734375
0.1675,5.7506103515625,-0.6156005859375,-5.9407958984375
0.168,5.5504150390625,-1.6566162109375,-5.0198974609375
0.1685,5.3502197265625,-3.0179443359375,-3.6986083984375
0.169,5.0699462890625,-4.3392333984375,-2.3372802734375
0.1695,4.7496337890625,-5.2601318359375,-1.3363037109375
0.17,4.3492431640625,-5.7406005859375,-0.5755615234375
0.1705,3.5885009765625,-6.0609130859375,0.5054931640625
0.171,2.3072509765625,-6.2210693359375,1.7867431640625
0.1715,0.9859619140625,-6.3812255859375,3.3482666015625
0.172,-0.2552490234375,-6.3812255859375,4.5093994140625
0.1725,-0.8558349609375,-6.5413818359375,5.3101806640625
0.173,-1.6966552734375,-6.2611083984375,5.9107666015625
0.1735,-2.8978271484375,-5.2601318359375,6.3511962890625
0.174,-4.1790771484375,-3.9388427734375,6.5914306640625
0.1745,-5.2601318359375,-2.5374755859375,6.5513916015625
0.175,-5.8206787109375,-1.5364990234375,6.4312744140625
0.1755,-5.9808349609375,-0.8157958984375,6.2310791015625
0.176,-5.9007568359375,0.0650634765625,5.6304931640625
0.1765,-5.6204833984375,1.1461181640625,4.5093994140625
0.177,-5.4603271484375,2.4674072265625,3.2681884765625
0.1775,-5.1800537109375,3.6285400390625,1.9869384765625
0.178,-4.8997802734375,4.4693603515625,1.1461181640625
