wavelength,x,y,z
0.0,4.494384765625,-5.955810546875,-0.590576171875
0.0005,3.853759765625,-6.356201171875,0.330322265625
0.001,2.692626953125,-6.396240234375,1.491455078125
0.0015,1.171142578125,-6.476318359375,3.133056640625
0.002,-0.390380859375,-6.476318359375,4.614501953125
0.0025,-1.191162109375,-6.596435546875,5.615478515625
0.003,-1.831787109375,-6.516357421875,6.296142578125
0.0035,-2.792724609375,-5.795654296875,6.696533203125
0.004,-4.114013671875,-4.474365234375,6.976806640625
0.0045,-5.315185546875,-2.952880859375,6.976806640625
0.005,-6.236083984375,-1.631591796875,6.896728515625
0.0055,-6.556396484375,-0.710693359375,6.656494140625
0.006,-6.436279296875,0.130126953125,6.095947265625
0.0065,-6.115966796875,1.131103515625,5.054931640625
0.007,-5.715576171875,2.532470703125,3.533447265625
0.0075,-5.395263671875,3.933837890625,2.052001953125
0.008,-5.114990234375,5.014892578125,0.930908203125
0.0085,-4.674560546875,5.495361328125,0.090087890625
0.009,-3.833740234375,5.695556640625,-0.910888671875
0.0095,-2.552490234375,5.655517578125,-2.232177734375
0.01,-0.990966796875,5.815673828125,-3.833740234375
0.0105,0.370361328125,5.895751953125,-5.155029296875
0.011,1.091064453125,5.895751953125,-6.035888671875
0.0115,1.771728515625,5.695556640625,-6.596435546875
0.012,2.852783203125,4.774658203125,-6.916748046875
0.0125,4.214111328125,3.293212890625,-7.076904296875
0.013,5.295166015625,1.771728515625,-6.996826171875
0.0135,6.015869140625,0.570556640625,-6.876708984375
0.014,6.135986328125,-0.310302734375,-6.596435546875
0.0145,5.895751953125,-1.071044921875,-5.915771484375
0.015,5.535400390625,-2.192138671875,-4.674560546875
0.0155,5.135009765625,-3.553466796875,-3.193115234375
0.016,4.814697265625,-4.834716796875,-1.791748046875
0.0165,4.614501953125,-5.715576171875,-0.830810546875
0.017,4.093994140625,-6.196044921875,0.050048828125
0.0175,3.173095703125,-6.196044921875,0.970947265625
0.018,1.731689453125,-6.276123046875,2.332275390625
0.0185,0.250244140625,-6.276123046875,3.853759765625
0.019,-0.830810546875,-6.396240234375,5.054931640625
0.0195,-1.431396484375,-6.476318359375,5.775634765625
0.02,-2.192138671875,-6.115966796875,6.296142578125
0.0205,-3.273193359375,-5.074951171875,6.536376953125
0.021,-4.514404296875,-3.673583984375,6.656494140625
0.0215,-5.555419921875,-2.272216796875,6.656494140625
0.022,-6.115966796875,-1.311279296875,6.536376953125
0.0225,-6.196044921875,-0.630615234375,6.256103515625
0.023,-5.955810546875,0.290283203125,5.575439453125
0.0235,-5.595458984375,1.411376953125,4.334228515625
0.024,-5.275146484375,2.732666015625,2.892822265625
0.0245,-5.114990234375,3.933837890625,1.651611328125
0.025,-4.874755859375,4.774658203125,0.810791015625
0.0255,-4.314208984375,5.135009765625,-0.190185546875
0.026,-3.353271484375,5.375244140625,-1.031005859375
0.0265,-2.072021484375,5.495361328125,-2.432373046875
0.027,-0.670654296875,5.575439453125,-3.913818359375
0.0275,0.250244140625,5.735595703125,-4.994873046875
0.028,0.890869140625,5.775634765625,-5.715576171875
0.0285,1.771728515625,5.255126953125,-6.236083984375
0.029,3.012939453125,4.134033203125,-6.516357421875
0.0295,4.174072265625,2.812744140625,-6.676513671875
0.03,5.135009765625,1.531494140625,-6.676513671875
0.0305,5.615478515625,0.650634765625,-6.596435546875
0.031,5.655517578125,-0.150146484375,-6.236083984375
0.0315,5.415283203125,-1.031005859375,-5.435302734375
0.032,5.135009765625,-2.272216796875,-4.154052734375
0.0325,4.814697265625,-3.673583984375,-2.712646484375
0.033,4.694580078125,-4.794677734375,-1.671630859375
0.0335,4.214111328125,-5.555419921875,-0.830810546875
0.034,3.733642578125,-5.755615234375,0.090087890625
0.0345,2.612548828125,-5.835693359375,1.251220703125
0.035,1.291259765625,-5.995849609375,2.692626953125
0.0355,0.090087890625,-6.115966796875,4.013916015625
0.036,-0.670654296875,-6.356201171875,4.934814453125
0.0365,-1.311279296875,-6.236083984375,5.575439453125
0.037,-2.272216796875,-5.635498046875,6.015869140625
0.0375,-3.553466796875,-4.394287109375,6.256103515625
0.038,-4.634521484375,-3.072998046875,6.296142578125
0.0385,-5.435302734375,-1.951904296875,6.376220703125
0.039,-5.755615234375,-1.231201171875,6.216064453125
0.0395,-5.715576171875,-0.510498046875,5.735595703125
0.04,-5.435302734375,0.570556640625,4.814697265625
0.0405,-5.114990234375,1.651611328125,3.573486328125
0.041,-4.994873046875,2.932861328125,2.372314453125
0.0415,-4.834716796875,4.053955078125,1.531494140625
0.042,-4.554443359375,4.534423828125,0.770751953125
0.0425,-3.873779296875,4.814697265625,-0.190185546875
0.043,-2.752685546875,5.014892578125,-1.351318359375
0.0435,-1.471435546875,5.135009765625,-2.792724609375
0.044,-0.590576171875,5.415283203125,-3.993896484375
0.0445,0.170166015625,5.615478515625,-4.834716796875
0.045,0.930908203125,5.415283203125,-5.475341796875
0.0455,1.931884765625,4.614501953125,-5.915771484375
0.046,3.133056640625,3.533447265625,-6.156005859375
0.0465,4.174072265625,2.292236328125,-6.276123046875
0.047,4.934814453125,1.331298828125,-6.356201171875
0.0475,5.175048828125,0.690673828125,-6.236083984375
0.048,5.094970703125,-0.190185546875,-5.715576171875
0.0485,4.934814453125,-1.271240234375,-4.834716796875
0.049,4.694580078125,-2.432373046875,-3.553466796875
0.0495,4.734619140625,-3.593505859375,-2.552490234375
0.05,4.494384765625,-4.514404296875,-1.671630859375
0.0505,4.174072265625,-5.074951171875,-0.950927734375
0.051,3.333251953125,-5.315185546875,0.130126953125
0.0515,2.252197265625,-5.595458984375,1.411376953125
0.052,1.010986328125,-5.755615234375,2.812744140625
0.0525,0.210205078125,-6.075927734375,3.893798828125
0.053,-0.510498046875,-6.236083984375,4.734619140625
0.0535,-1.311279296875,-5.915771484375,5.295166015625
0.054,-2.432373046875,-5.034912109375,5.695556640625
0.0545,-3.593505859375,-3.873779296875,5.935791015625
0.055,-4.634521484375,-2.712646484375,6.055908203125
0.0555,-5.195068359375,-1.951904296875,6.135986328125
0.056,-5.395263671875,-1.271240234375,5.895751953125
0.0565,-5.355224609375,-0.590576171875,5.295166015625
0.057,-5.114990234375,0.690673828125,4.294189453125
0.0575,-4.954833984375,1.931884765625,3.093017578125
0.058,-4.954833984375,3.133056640625,2.172119140625
0.0585,-4.754638671875,3.853759765625,1.411376953125
0.059,-4.234130859375,4.294189453125,0.650634765625
0.0595,-3.353271484375,4.574462890625,-0.510498046875
0.06,-2.312255859375,4.854736328125,-1.791748046875
0.0605,-1.271240234375,5.094970703125,-3.072998046875
0.061,-0.590576171875,5.415283203125,-4.114013671875
0.0615,0.250244140625,5.495361328125,-4.874755859375
0.062,1.131103515625,5.054931640625,-5.395263671875
0.0625,2.332275390625,4.013916015625,-5.755615234375
0.063,3.453369140625,2.852783203125,-5.955810546875
0.0635,4.334228515625,1.851806640625,-6.115966796875
0.064,4.814697265625,1.171142578125,-6.156005859375
0.0645,4.934814453125,0.530517578125,-5.755615234375
0.065,4.774658203125,-0.630615234375,-5.114990234375
0.0655,4.614501953125,-1.671630859375,-4.114013671875
0.066,4.494384765625,-2.872802734375,-2.952880859375
0.0665,4.494384765625,-3.873779296875,-2.112060546875
0.067,4.294189453125,-4.554443359375,-1.391357421875
0.0675,3.733642578125,-4.994873046875,-0.630615234375
0.068,2.692626953125,-5.235107421875,0.690673828125
0.0685,1.611572265625,-5.475341796875,1.971923828125
0.069,0.730712890625,-5.795654296875,3.173095703125
0.0695,0.130126953125,-6.115966796875,4.093994140625
0.07,-0.750732421875,-6.035888671875,4.814697265625
0.0705,-1.711669921875,-5.395263671875,5.295166015625
0.071,-2.872802734375,-4.394287109375,5.615478515625
0.0715,-3.993896484375,-3.193115234375,5.815673828125
0.072,-4.754638671875,-2.392333984375,5.975830078125
0.0725,-4.994873046875,-1.711669921875,5.815673828125
0.073,-5.155029296875,-1.031005859375,5.535400390625
0.0735,-5.034912109375,0.050048828125,4.694580078125
0.074,-4.914794921875,1.251220703125,3.693603515625
0.0745,-4.874755859375,2.412353515625,2.692626953125
0.075,-4.834716796875,3.333251953125,1.931884765625
0.0755,-4.514404296875,3.893798828125,1.171142578125
0.076,-3.833740234375,4.294189453125,0.250244140625
0.0765,-2.872802734375,4.654541015625,-1.111083984375
0.077,-1.751708984375,4.934814453125,-2.432373046875
0.0775,-0.990966796875,5.295166015625,-3.553466796875
0.078,-0.350341796875,5.495361328125,-4.434326171875
0.0785,0.610595703125,5.255126953125,-5.074951171875
0.079,1.771728515625,4.454345703125,-5.555419921875
0.0795,2.892822265625,3.333251953125,-5.835693359375
0.08,3.973876953125,2.252197265625,-6.035888671875
0.0805,4.494384765625,1.331298828125,-6.156005859375
0.081,4.814697265625,0.770751953125,-5.995849609375
0.0815,4.814697265625,-0.150146484375,-5.435302734375
0.082,4.654541015625,-1.231201171875,-4.474365234375
0.0825,4.534423828125,-2.432373046875,-3.353271484375
0.083,4.534423828125,-3.553466796875,-2.432373046875
0.0835,4.414306640625,-4.394287109375,-1.631591796875
0.084,3.933837890625,-4.834716796875,-0.910888671875
0.0845,3.052978515625,-5.155029296875,0.290283203125
0.085,1.971923828125,-5.435302734375,1.571533203125
0.0855,0.930908203125,-5.755615234375,2.892822265625
0.086,0.290283203125,-6.075927734375,3.933837890625
0.0865,-0.550537109375,-6.115966796875,4.734619140625
0.087,-1.471435546875,-5.635498046875,5.295166015625
0.0875,-2.712646484375,-4.634521484375,5.695556640625
0.088,-3.873779296875,-3.433349609375,5.855712890625
0.0885,-4.714599609375,-2.392333984375,6.055908203125
0.089,-5.155029296875,-1.751708984375,6.055908203125
0.0895,-5.275146484375,-1.071044921875,5.655517578125
0.09,-5.155029296875,0.010009765625,4.854736328125
0.0905,-4.994873046875,1.211181640625,3.813720703125
0.091,-4.914794921875,2.452392578125,2.652587890625
0.0915,-4.834716796875,3.493408203125,1.811767578125
0.092,-4.594482421875,4.134033203125,1.091064453125
0.0925,-3.993896484375,4.494384765625,0.250244140625
0.093,-2.912841796875,4.734619140625,-1.071044921875
0.0935,-1.791748046875,4.974853515625,-2.512451171875
0.094,-0.910888671875,5.295166015625,-3.713623046875
0.0945,-0.230224609375,5.535400390625,-4.594482421875
0.095,0.690673828125,5.375244140625,-5.275146484375
0.0955,1.771728515625,4.534423828125,-5.755615234375
0.096,3.052978515625,3.413330078125,-6.075927734375
0.0965,4.134033203125,2.092041015625,-6.196044921875
0.097,4.854736328125,1.251220703125,-6.276123046875
0.0975,5.094970703125,0.610595703125,-6.115966796875
0.098,5.054931640625,-0.310302734375,-5.595458984375
0.0985,4.814697265625,-1.391357421875,-4.514404296875
0.099,4.654541015625,-2.632568359375,-3.353271484375
0.0995,4.614501953125,-3.873779296875,-2.272216796875
0.1,4.454345703125,-4.714599609375,-1.431396484375
0.1005,4.013916015625,-5.155029296875,-0.670654296875
0.101,3.173095703125,-5.435302734375,0.410400390625
0.1015,1.931884765625,-5.635498046875,1.811767578125
0.102,0.730712890625,-5.835693359375,3.173095703125
0.1025,0.010009765625,-6.115966796875,4.254150390625
0.103,-0.790771484375,-6.236083984375,5.014892578125
0.1035,-1.671630859375,-5.755615234375,5.575439453125
0.104,-2.912841796875,-4.714599609375,5.935791015625
0.1045,-4.114013671875,-3.473388671875,6.095947265625
0.105,-5.074951171875,-2.312255859375,6.216064453125
0.1055,-5.515380859375,-1.551513671875,6.216064453125
0.106,-5.595458984375,-0.790771484375,5.815673828125
0.1065,-5.435302734375,0.170166015625,5.094970703125
0.107,-5.195068359375,1.411376953125,3.853759765625
0.1075,-4.994873046875,2.652587890625,2.612548828125
0.108,-4.954833984375,3.773681640625,1.651611328125
0.1085,-4.674560546875,4.454345703125,0.930908203125
0.109,-4.033935546875,4.774658203125,0.090087890625
0.1095,-2.952880859375,4.974853515625,-1.231201171875
0.11,-1.751708984375,5.215087890625,-2.632568359375
0.1105,-0.630615234375,5.415283203125,-3.953857421875
0.111,0.170166015625,5.655517578125,-4.914794921875
0.1115,0.890869140625,5.575439453125,-5.635498046875
0.112,1.931884765625,4.854736328125,-6.115966796875
0.1125,3.293212890625,3.573486328125,-6.436279296875
0.113,4.494384765625,2.172119140625,-6.556396484375
0.1135,5.255126953125,1.131103515625,-6.556396484375
0.114,5.495361328125,0.490478515625,-6.436279296875
0.1145,5.455322265625,-0.470458984375,-5.835693359375
0.115,5.215087890625,-1.591552734375,-4.794677734375
0.1155,4.974853515625,-2.912841796875,-3.393310546875
0.116,4.774658203125,-4.234130859375,-2.152099609375
0.1165,4.614501953125,-5.155029296875,-1.231201171875
0.117,4.174072265625,-5.715576171875,-0.430419921875
0.1175,3.333251953125,-5.915771484375,0.610595703125
0.118,1.931884765625,-6.075927734375,2.092041015625
0.1185,0.490478515625,-6.196044921875,3.653564453125
0.119,-0.550537109375,-6.396240234375,4.814697265625
0.1195,-1.151123046875,-6.436279296875,5.615478515625
0.12,-2.072021484375,-5.955810546875,6.176025390625
0.1205,-3.353271484375,-4.874755859375,6.536376953125
0.121,-4.634521484375,-3.513427734375,6.696533203125
0.1215,-5.635498046875,-2.112060546875,6.696533203125
0.122,-6.196044921875,-1.111083984375,6.576416015625
0.1225,-6.236083984375,-0.350341796875,6.135986328125
0.123,-5.955810546875,0.610595703125,5.335205078125
0.1235,-5.635498046875,1.931884765625,3.933837890625
0.124,-5.315185546875,3.293212890625,2.452392578125
0.1245,-5.074951171875,4.494384765625,1.291259765625
0.125,-4.754638671875,5.175048828125,0.450439453125
0.1255,-4.033935546875,5.455322265625,-0.510498046875
0.126,-2.912841796875,5.535400390625,-1.671630859375
0.1265,-1.431396484375,5.695556640625,-3.273193359375
0.127,0.010009765625,5.735595703125,-4.714599609375
0.1275,0.770751953125,5.855712890625,-5.675537109375
0.128,1.451416015625,5.735595703125,-6.276123046875
0.1285,2.492431640625,4.934814453125,-6.756591796875
0.129,3.853759765625,3.533447265625,-6.996826171875
0.1295,5.054931640625,2.052001953125,-7.036865234375
0.13,5.855712890625,0.810791015625,-6.916748046875
0.1305,6.095947265625,0.010009765625,-6.676513671875
0.131,6.015869140625,-0.910888671875,-6.115966796875
0.1315,5.655517578125,-1.951904296875,-4.994873046875
0.132,5.295166015625,-3.353271484375,-3.513427734375
0.1325,4.894775390625,-4.674560546875,-1.991943359375
0.133,4.654541015625,-5.715576171875,-0.950927734375
0.1335,4.174072265625,-6.156005859375,0.010009765625
0.134,3.333251953125,-6.356201171875,0.850830078125
0.1345,1.931884765625,-6.396240234375,2.252197265625
0.135,0.410400390625,-6.396240234375,3.853759765625
0.1355,-0.910888671875,-6.436279296875,5.094970703125
0.136,-1.511474609375,-6.556396484375,5.895751953125
0.1365,-2.232177734375,-6.236083984375,6.456298828125
0.137,-3.313232421875,-5.315185546875,6.776611328125
0.1375,-4.634521484375,-3.833740234375,6.936767578125
0.138,-5.755615234375,-2.312255859375,6.896728515625
0.1385,-6.396240234375,-1.191162109375,6.696533203125
0.139,-6.436279296875,-0.430419921875,6.416259765625
0.1395,-6.236083984375,0.450439453125,5.695556640625
0.14,-5.795654296875,1.611572265625,4.414306640625
0.1405,-5.475341796875,3.012939453125,2.932861328125
0.141,-5.155029296875,4.254150390625,1.571533203125
0.1415,-4.914794921875,5.094970703125,0.650634765625
0.142,-4.354248046875,5.495361328125,-0.270263671875
0.1425,-3.393310546875,5.615478515625,-1.151123046875
0.143,-1.951904296875,5.695556640625,-2.632568359375
0.1435,-0.510498046875,5.735595703125,-4.194091796875
0.144,0.530517578125,5.855712890625,-5.315185546875
0.1445,1.131103515625,5.895751953125,-6.075927734375
0.145,1.971923828125,5.375244140625,-6.556396484375
0.1455,3.253173828125,4.174072265625,-6.876708984375
0.146,4.494384765625,2.852783203125,-7.036865234375
0.1465,5.495361328125,1.411376953125,-6.916748046875
0.147,6.015869140625,0.450439453125,-6.836669921875
0.1475,6.055908203125,-0.390380859375,-6.436279296875
0.148,5.735595703125,-1.271240234375,-5.635498046875
0.1485,5.415283203125,-2.552490234375,-4.234130859375
0.149,5.054931640625,-3.993896484375,-2.712646484375
0.1495,4.814697265625,-5.195068359375,-1.471435546875
0.15,4.494384765625,-5.915771484375,-0.590576171875
0.1505,3.853759765625,-6.196044921875,0.290283203125
0.151,2.692626953125,-6.316162109375,1.451416015625
0.1515,1.211181640625,-6.396240234375,3.052978515625
0.152,-0.310302734375,-6.436279296875,4.534423828125
0.1525,-1.111083984375,-6.556396484375,5.535400390625
0.153,-1.751708984375,-6.556396484375,6.216064453125
0.1535,-2.712646484375,-5.795654296875,6.656494140625
0.154,-4.114013671875,-4.434326171875,6.896728515625
0.1545,-5.275146484375,-2.952880859375,6.896728515625
0.155,-6.156005859375,-1.631591796875,6.856689453125
0.1555,-6.476318359375,-0.790771484375,6.656494140625
0.156,-6.356201171875,0.050048828125,6.095947265625
0.1565,-6.035888671875,1.091064453125,5.094970703125
0.157,-5.715576171875,2.452392578125,3.573486328125
0.1575,-5.315185546875,3.853759765625,2.052001953125
0.158,-5.114990234375,4.934814453125,0.930908203125
0.1585,-4.634521484375,5.495361328125,0.130126953125
0.159,-3.793701171875,5.695556640625,-0.910888671875
0.1595,-2.432373046875,5.735595703125,-2.312255859375
0.16,-0.950927734375,5.855712890625,-3.873779296875
0.1605,0.370361328125,5.935791015625,-5.195068359375
0.161,1.051025390625,5.935791015625,-6.035888671875
0.1615,1.851806640625,5.615478515625,-6.636474609375
0.162,2.892822265625,4.734619140625,-6.996826171875
0.1625,4.334228515625,3.173095703125,-7.156982421875
0.163,5.415283203125,1.651611328125,-7.076904296875
0.1635,6.095947265625,0.530517578125,-6.916748046875
0.164,6.176025390625,-0.310302734375,-6.596435546875
0.1645,5.895751953125,-1.151123046875,-5.835693359375
0.165,5.535400390625,-2.392333984375,-4.554443359375
0.1655,5.135009765625,-3.753662109375,-3.032958984375
0.166,4.854736328125,-5.034912109375,-1.631591796875
0.1665,4.494384765625,-5.835693359375,-0.630615234375
0.167,3.973876953125,-6.276123046875,0.210205078125
0.1675,3.012939453125,-6.316162109375,1.171142578125
0.168,1.451416015625,-6.396240234375,2.692626953125
0.1685,0.010009765625,-6.396240234375,4.214111328125
0.169,-1.031005859375,-6.516357421875,5.295166015625
0.1695,-1.631591796875,-6.516357421875,6.015869140625
0.17,-2.432373046875,-5.995849609375,6.456298828125
0.1705,-3.593505859375,-4.834716796875,6.696533203125
0.171,-4.834716796875,-3.473388671875,6.776611328125
0.1715,-5.755615234375,-2.072021484375,6.696533203125
0.172,-6.276123046875,-1.111083984375,6.536376953125
0.1725,-6.236083984375,-0.430419921875,6.216064453125
0.173,-5.955810546875,0.490478515625,5.415283203125
0.1735,-5.595458984375,1.651611328125,4.134033203125
0.174,-5.275146484375,3.012939453125,2.692626953125
0.1745,-5.034912109375,4.174072265625,1.531494140625
0.175,-4.754638671875,4.934814453125,0.650634765625
0.1755,-4.154052734375,5.255126953125,-0.190185546875
0.176,-3.193115234375,5.375244140625,-1.231201171875
0.1765,-1.831787109375,5.495361328125,-2.672607421875
0.177,-0.510498046875,5.575439453125,-4.154052734375
0.1775,0.410400390625,5.735595703125,-5.155029296875
0.178,0.970947265625,5.775634765625,-5.835693359375
0.1785,1.931884765625,5.175048828125,-6.316162109375
0.179,3.173095703125,4.053955078125,-6.596435546875
0.1795,4.334228515625,2.692626953125,-6.716552734375
0.18,5.295166015625,1.411376953125,-6.756591796875
0.1805,5.695556640625,0.610595703125,-6.676513671875
0.181,5.695556640625,-0.270263671875,-6.236083984375
0.1815,5.455322265625,-1.151123046875,-5.395263671875
0.182,5.175048828125,-2.432373046875,-4.033935546875
0.1825,4.894775390625,-3.833740234375,-2.632568359375
0.183,4.774658203125,-4.914794921875,-1.591552734375
0.1835,4.414306640625,-5.555419921875,-0.790771484375
0.184,3.693603515625,-5.835693359375,0.170166015625
0.1845,2.532470703125,-5.955810546875,1.411376953125
0.185,1.131103515625,-6.156005859375,2.892822265625
0.1855,0.010009765625,-6.276123046875,4.214111328125
0.186,-0.790771484375,-6.436279296875,5.135009765625
0.1865,-1.471435546875,-6.276123046875,5.735595703125
0.187,-2.512451171875,-5.555419921875,6.216064453125
0.1875,-3.833740234375,-4.234130859375,6.416259765625
0.188,-4.954833984375,-2.872802734375,6.456298828125
