wavelength,x,y,z
0.0,1.46142578125,-3.70361328125,2.34228515625
0.0005,1.86181640625,-3.58349609375,1.94189453125
0.001,2.42236328125,-3.78369140625,1.46142578125
0.0015,2.58251953125,-3.26318359375,0.66064453125
0.002,3.06298828125,-2.94287109375,0.02001953125
0.0025,3.26318359375,-2.30224609375,-0.98095703125
0.003,3.50341796875,-1.94189453125,-1.54150390625
0.0035,3.38330078125,-1.26123046875,-2.22216796875
0.004,3.38330078125,-0.78076171875,-2.70263671875
0.0045,3.02294921875,0.06005859375,-3.06298828125
0.005,2.62255859375,0.74072265625,-3.38330078125
0.0055,2.22216796875,1.54150390625,-3.70361328125
0.006,1.54150390625,1.98193359375,-3.54345703125
0.0065,0.94091796875,2.70263671875,-3.70361328125
0.007,0.18017578125,2.98291015625,-3.18310546875
0.0075,-0.50048828125,3.38330078125,-2.98291015625
0.008,-1.30126953125,3.58349609375,-2.42236328125
0.0085,-1.82177734375,3.78369140625,-2.06201171875
0.009,-2.26220703125,3.62353515625,-1.50146484375
0.0095,-2.70263671875,3.62353515625,-1.10107421875
0.01,-2.86279296875,3.06298828125,-0.30029296875
0.0105,-3.18310546875,2.70263671875,0.46044921875
0.011,-3.38330078125,2.06201171875,1.30126953125
0.0115,-3.38330078125,1.62158203125,1.78173828125
0.012,-3.38330078125,1.02099609375,2.42236328125
0.0125,-3.14306640625,0.46044921875,2.70263671875
0.013,-2.82275390625,-0.30029296875,3.10302734375
0.0135,-2.34228515625,-1.02099609375,3.34326171875
0.014,-1.90185546875,-1.70166015625,3.58349609375
0.0145,-1.18115234375,-2.18212890625,3.34326171875
0.015,-0.62060546875,-2.82275390625,3.50341796875
0.0155,0.18017578125,-3.02294921875,2.90283203125
0.016,0.74072265625,-3.34326171875,2.70263671875
0.0165,1.50146484375,-3.66357421875,2.26220703125
0.017,1.86181640625,-3.70361328125,1.94189453125
0.0175,2.38232421875,-3.70361328125,1.42138671875
0.018,2.62255859375,-3.42333984375,0.86083984375
0.0185,2.90283203125,-2.94287109375,0.10009765625
0.019,3.18310546875,-2.50244140625,-0.70068359375
0.0195,3.46337890625,-1.98193359375,-1.46142578125
0.02,3.30322265625,-1.46142578125,-1.94189453125
0.0205,3.50341796875,-0.98095703125,-2.54248046875
0.021,3.06298828125,-0.30029296875,-2.82275390625
0.0215,2.82275390625,0.38037109375,-3.18310546875
0.022,2.34228515625,1.14111328125,-3.54345703125
0.0225,1.94189453125,1.66162109375,-3.62353515625
0.023,1.18115234375,2.26220703125,-3.50341796875
0.0235,0.62060546875,2.82275390625,-3.46337890625
0.024,-0.14013671875,3.06298828125,-3.02294921875
0.0245,-0.70068359375,3.34326171875,-2.70263671875
0.025,-1.42138671875,3.66357421875,-2.34228515625
0.0255,-1.74169921875,3.54345703125,-1.94189453125
0.026,-2.30224609375,3.74365234375,-1.58154296875
0.0265,-2.50244140625,3.22314453125,-0.90087890625
0.027,-2.86279296875,2.94287109375,-0.22021484375
0.0275,-3.06298828125,2.42236328125,0.62060546875
0.028,-3.34326171875,2.10205078125,1.22119140625
0.0285,-3.22314453125,1.46142578125,1.78173828125
0.029,-3.38330078125,1.14111328125,2.30224609375
0.0295,-2.94287109375,0.30029296875,2.66259765625
0.03,-2.74267578125,-0.30029296875,3.06298828125
0.0305,-2.30224609375,-1.14111328125,3.38330078125
0.031,-1.78173828125,-1.58154296875,3.38330078125
0.0315,-1.14111328125,-2.30224609375,3.46337890625
0.032,-0.50048828125,-2.62255859375,3.18310546875
0.0325,0.18017578125,-3.02294921875,2.98291015625
0.033,0.86083984375,-3.34326171875,2.58251953125
0.0335,1.42138671875,-3.66357421875,2.30224609375
0.034,1.78173828125,-3.54345703125,1.90185546875
0.0345,2.38232421875,-3.70361328125,1.46142578125
0.035,2.58251953125,-3.14306640625,0.62060546875
0.0355,2.98291015625,-2.86279296875,0.02001953125
0.036,3.22314453125,-2.30224609375,-0.98095703125
0.0365,3.42333984375,-1.94189453125,-1.50146484375
0.037,3.38330078125,-1.26123046875,-2.18212890625
0.0375,3.34326171875,-0.78076171875,-2.58251953125
0.038,2.94287109375,0.06005859375,-3.06298828125
0.0385,2.62255859375,0.74072265625,-3.38330078125
0.039,2.18212890625,1.50146484375,-3.70361328125
0.0395,1.46142578125,2.02197265625,-3.54345703125
0.04,0.90087890625,2.78271484375,-3.70361328125
0.0405,0.14013671875,3.02294921875,-3.10302734375
0.041,-0.58056640625,3.38330078125,-2.86279296875
0.0415,-1.38134765625,3.58349609375,-2.42236328125
0.042,-1.86181640625,3.82373046875,-2.06201171875
0.0425,-2.34228515625,3.66357421875,-1.50146484375
0.043,-2.70263671875,3.62353515625,-1.02099609375
0.0435,-2.94287109375,2.98291015625,-0.14013671875
0.044,-3.22314453125,2.58251953125,0.62060546875
0.0445,-3.54345703125,1.94189453125,1.54150390625
0.045,-3.46337890625,1.42138671875,1.98193359375
0.0455,-3.54345703125,0.82080078125,2.66259765625
0.046,-3.06298828125,0.18017578125,2.94287109375
0.0465,-2.70263671875,-0.62060546875,3.34326171875
0.047,-2.22216796875,-1.38134765625,3.58349609375
0.0475,-1.62158203125,-2.10205078125,3.74365234375
0.048,-0.82080078125,-2.58251953125,3.46337890625
0.0485,-0.30029296875,-3.22314453125,3.54345703125
0.049,0.62060546875,-3.34326171875,2.82275390625
0.0495,1.22119140625,-3.70361328125,2.54248046875
0.05,2.06201171875,-3.90380859375,1.94189453125
0.0505,2.50244140625,-3.82373046875,1.42138671875
0.051,2.94287109375,-3.70361328125,0.90087890625
0.0515,3.14306640625,-3.26318359375,0.26025390625
0.052,3.34326171875,-2.70263671875,-0.62060546875
0.0525,3.54345703125,-2.14208984375,-1.42138671875
0.053,3.70361328125,-1.50146484375,-2.26220703125
0.0535,3.46337890625,-0.82080078125,-2.66259765625
0.054,3.50341796875,-0.30029296875,-3.22314453125
0.0545,2.86279296875,0.50048828125,-3.38330078125
0.055,2.50244140625,1.22119140625,-3.70361328125
0.0555,1.90185546875,1.98193359375,-3.90380859375
0.056,1.22119140625,2.54248046875,-3.82373046875
0.0565,0.46044921875,3.02294921875,-3.54345703125
0.057,-0.26025390625,3.42333984375,-3.30322265625
0.0575,-1.02099609375,3.54345703125,-2.62255859375
0.058,-1.58154296875,3.82373046875,-2.38232421875
0.0585,-2.34228515625,3.98388671875,-1.78173828125
0.059,-2.58251953125,3.70361328125,-1.26123046875
0.0595,-3.06298828125,3.70361328125,-0.78076171875
0.06,-3.10302734375,3.02294921875,0.02001953125
0.0605,-3.34326171875,2.54248046875,0.74072265625
0.061,-3.46337890625,1.94189453125,1.54150390625
0.0615,-3.54345703125,1.46142578125,2.10205078125
0.062,-3.26318359375,0.78076171875,2.54248046875
0.0625,-3.30322265625,0.34033203125,2.98291015625
0.063,-2.70263671875,-0.50048828125,3.18310546875
0.0635,-2.42236328125,-1.06103515625,3.46337890625
0.064,-1.78173828125,-1.86181640625,3.62353515625
0.0645,-1.18115234375,-2.30224609375,3.50341796875
0.065,-0.58056640625,-2.90283203125,3.46337890625
0.0655,0.14013671875,-3.14306640625,3.06298828125
0.066,0.82080078125,-3.34326171875,2.62255859375
0.0665,1.38134765625,-3.58349609375,2.30224609375
0.067,1.94189453125,-3.78369140625,1.94189453125
0.0675,2.26220703125,-3.54345703125,1.42138671875
0.068,2.74267578125,-3.66357421875,0.98095703125
0.0685,2.86279296875,-2.90283203125,0.14013671875
0.069,3.22314453125,-2.70263671875,-0.54052734375
0.0695,3.42333984375,-1.98193359375,-1.42138671875
0.07,3.50341796875,-1.62158203125,-1.90185546875
0.0705,3.42333984375,-0.98095703125,-2.50244140625
0.071,3.26318359375,-0.50048828125,-2.86279296875
0.0715,2.82275390625,0.38037109375,-3.18310546875
0.072,2.50244140625,0.98095703125,-3.54345703125
0.0725,1.98193359375,1.74169921875,-3.78369140625
0.073,1.30126953125,2.22216796875,-3.54345703125
0.0735,0.66064453125,2.90283203125,-3.66357421875
0.074,-0.14013671875,3.14306640625,-3.10302734375
0.0745,-0.78076171875,3.54345703125,-2.86279296875
0.075,-1.50146484375,3.74365234375,-2.38232421875
0.0755,-1.98193359375,3.86376953125,-1.98193359375
0.076,-2.42236328125,3.70361328125,-1.38134765625
0.0765,-2.82275390625,3.54345703125,-0.90087890625
0.077,-3.06298828125,2.86279296875,0.10009765625
0.0775,-3.38330078125,2.58251953125,0.78076171875
0.078,-3.54345703125,1.90185546875,1.70166015625
0.0785,-3.50341796875,1.34130859375,2.18212890625
0.079,-3.50341796875,0.70068359375,2.82275390625
0.0795,-3.06298828125,0.02001953125,3.10302734375
0.08,-2.66259765625,-0.82080078125,3.46337890625
0.0805,-2.10205078125,-1.58154296875,3.70361328125
0.081,-1.50146484375,-2.34228515625,3.86376953125
0.0815,-0.66064453125,-2.86279296875,3.50341796875
0.082,0.02001953125,-3.34326171875,3.46337890625
0.0825,0.94091796875,-3.54345703125,2.70263671875
0.083,1.50146484375,-3.86376953125,2.46240234375
0.0835,2.26220703125,-4.02392578125,1.86181640625
0.084,2.70263671875,-3.86376953125,1.30126953125
0.0845,3.14306640625,-3.70361328125,0.62060546875
0.085,3.34326171875,-3.18310546875,-0.14013671875
0.0855,3.54345703125,-2.46240234375,-1.14111328125
0.086,3.74365234375,-1.98193359375,-1.82177734375
0.0865,3.86376953125,-1.26123046875,-2.62255859375
0.087,3.50341796875,-0.50048828125,-3.06298828125
0.0875,3.42333984375,0.14013671875,-3.54345703125
0.088,2.70263671875,1.02099609375,-3.74365234375
0.0885,2.26220703125,1.78173828125,-3.98388671875
0.089,1.54150390625,2.50244140625,-3.98388671875
0.0895,0.82080078125,3.06298828125,-3.94384765625
0.09,-0.10009765625,3.50341796875,-3.54345703125
0.0905,-0.74072265625,3.86376953125,-3.22314453125
0.091,-1.70166015625,3.90380859375,-2.38232421875
0.0915,-2.18212890625,4.06396484375,-2.06201171875
0.092,-2.86279296875,4.14404296875,-1.38134765625
0.0925,-3.14306640625,3.78369140625,-0.78076171875
0.093,-3.46337890625,3.54345703125,-0.18017578125
0.0935,-3.54345703125,2.78271484375,0.70068359375
0.094,-3.70361328125,2.18212890625,1.50146484375
0.0945,-3.70361328125,1.58154296875,2.14208984375
0.095,-3.74365234375,0.98095703125,2.82275390625
0.0955,-3.30322265625,0.26025390625,3.14306640625
0.096,-3.18310546875,-0.34033203125,3.50341796875
0.0965,-2.38232421875,-1.26123046875,3.66357421875
0.097,-1.98193359375,-1.78173828125,3.86376953125
0.0975,-1.26123046875,-2.54248046875,3.82373046875
0.098,-0.62060546875,-2.94287109375,3.58349609375
0.0985,0.18017578125,-3.34326171875,3.26318359375
0.099,0.78076171875,-3.54345703125,2.86279296875
0.0995,1.58154296875,-3.74365234375,2.30224609375
0.1,1.98193359375,-3.86376953125,1.98193359375
0.1005,2.54248046875,-3.90380859375,1.42138671875
0.101,2.78271484375,-3.54345703125,0.90087890625
0.1015,3.18310546875,-3.46337890625,0.38037109375
0.102,3.18310546875,-2.62255859375,-0.62060546875
0.1025,3.54345703125,-2.34228515625,-1.18115234375
0.103,3.54345703125,-1.62158203125,-1.90185546875
0.1035,3.54345703125,-1.22119140625,-2.38232421875
0.104,3.26318359375,-0.50048828125,-2.86279296875
0.1045,3.10302734375,0.02001953125,-3.14306640625
0.105,2.54248046875,0.86083984375,-3.34326171875
0.1055,2.26220703125,1.34130859375,-3.66357421875
0.106,1.62158203125,2.06201171875,-3.74365234375
0.1065,0.98095703125,2.54248046875,-3.54345703125
0.107,0.38037109375,3.06298828125,-3.46337890625
0.1075,-0.38037109375,3.18310546875,-2.90283203125
0.108,-0.98095703125,3.54345703125,-2.70263671875
0.1085,-1.54150390625,3.66357421875,-2.26220703125
0.109,-1.98193359375,3.82373046875,-1.94189453125
0.1095,-2.38232421875,3.54345703125,-1.34130859375
0.11,-2.74267578125,3.42333984375,-0.82080078125
0.1105,-2.90283203125,2.74267578125,0.14013671875
0.111,-3.26318359375,2.58251953125,0.66064453125
0.1115,-3.34326171875,1.94189453125,1.46142578125
0.112,-3.42333984375,1.54150390625,1.86181640625
0.1125,-3.34326171875,0.82080078125,2.54248046875
0.113,-3.06298828125,0.26025390625,2.82275390625
0.1135,-2.70263671875,-0.58056640625,3.18310546875
0.114,-2.26220703125,-1.18115234375,3.38330078125
0.1145,-1.74169921875,-1.82177734375,3.54345703125
0.115,-0.98095703125,-2.38232421875,3.38330078125
0.1155,-0.50048828125,-2.86279296875,3.34326171875
0.116,0.38037109375,-3.06298828125,2.78271484375
0.1165,0.90087890625,-3.54345703125,2.70263671875
0.117,1.54150390625,-3.66357421875,2.26220703125
0.1175,1.94189453125,-3.70361328125,1.90185546875
0.118,2.42236328125,-3.54345703125,1.22119140625
0.1185,2.74267578125,-3.22314453125,0.58056640625
0.119,3.06298828125,-2.70263671875,-0.38037109375
0.1195,3.38330078125,-2.34228515625,-1.02099609375
0.12,3.54345703125,-1.74169921875,-1.78173828125
0.1205,3.42333984375,-1.22119140625,-2.26220703125
0.121,3.34326171875,-0.58056640625,-2.82275390625
0.1215,2.86279296875,0.26025390625,-3.14306640625
0.122,2.54248046875,0.98095703125,-3.58349609375
0.1225,1.94189453125,1.66162109375,-3.62353515625
0.123,1.38134765625,2.30224609375,-3.70361328125
0.1235,0.58056640625,2.82275390625,-3.46337890625
0.124,0.02001953125,3.18310546875,-3.26318359375
0.1245,-0.94091796875,3.46337890625,-2.62255859375
0.125,-1.42138671875,3.74365234375,-2.42236328125
0.1255,-2.06201171875,3.82373046875,-1.90185546875
0.126,-2.46240234375,3.70361328125,-1.34130859375
0.1265,-2.86279296875,3.46337890625,-0.70068359375
0.127,-3.06298828125,2.82275390625,0.14013671875
0.1275,-3.34326171875,2.42236328125,0.94091796875
0.128,-3.46337890625,1.86181640625,1.58154296875
0.1285,-3.54345703125,1.30126953125,2.26220703125
0.129,-3.26318359375,0.62060546875,2.70263671875
0.1295,-3.14306640625,0.02001953125,3.14306640625
0.13,-2.46240234375,-0.94091796875,3.34326171875
0.1305,-2.10205078125,-1.54150390625,3.66357421875
0.131,-1.34130859375,-2.26220703125,3.58349609375
0.1315,-0.70068359375,-2.74267578125,3.50341796875
0.132,0.06005859375,-3.14306640625,3.18310546875
0.1325,0.74072265625,-3.42333984375,2.74267578125
0.133,1.54150390625,-3.70361328125,2.26220703125
0.1335,1.94189453125,-3.78369140625,1.94189453125
0.134,2.54248046875,-3.86376953125,1.42138671875
0.1345,2.82275390625,-3.50341796875,0.78076171875
0.135,3.18310546875,-3.22314453125,0.14013671875
0.1355,3.26318359375,-2.42236328125,-0.82080078125
0.136,3.58349609375,-2.10205078125,-1.50146484375
0.1365,3.50341796875,-1.38134765625,-2.10205078125
0.137,3.54345703125,-0.90087890625,-2.62255859375
0.1375,3.14306640625,-0.22021484375,-3.06298828125
0.138,2.90283203125,0.50048828125,-3.38330078125
0.1385,2.30224609375,1.34130859375,-3.66357421875
0.139,1.86181640625,1.90185546875,-3.78369140625
0.1395,1.14111328125,2.54248046875,-3.74365234375
0.14,0.46044921875,3.02294921875,-3.54345703125
0.1405,-0.30029296875,3.34326171875,-3.18310546875
0.141,-1.02099609375,3.54345703125,-2.58251953125
0.1415,-1.62158203125,3.82373046875,-2.30224609375
0.142,-2.06201171875,3.70361328125,-1.78173828125
0.1425,-2.58251953125,3.82373046875,-1.38134765625
0.143,-2.78271484375,3.34326171875,-0.70068359375
0.1435,-3.14306640625,3.10302734375,-0.14013671875
0.144,-3.18310546875,2.34228515625,0.82080078125
0.1445,-3.50341796875,2.06201171875,1.42138671875
0.145,-3.38330078125,1.38134765625,2.10205078125
0.1455,-3.38330078125,0.86083984375,2.50244140625
0.146,-3.06298828125,0.22021484375,2.86279296875
0.1465,-2.70263671875,-0.46044921875,3.14306640625
0.147,-2.26220703125,-1.22119140625,3.50341796875
0.1475,-1.70166015625,-1.74169921875,3.46337890625
0.148,-1.14111328125,-2.42236328125,3.54345703125
0.1485,-0.42041015625,-2.82275390625,3.22314453125
0.149,0.18017578125,-3.18310546875,3.06298828125
0.1495,0.94091796875,-3.34326171875,2.50244140625
0.15,1.42138671875,-3.66357421875,2.34228515625
0.1505,1.94189453125,-3.62353515625,1.86181640625
0.151,2.30224609375,-3.70361328125,1.42138671875
0.1515,2.62255859375,-3.26318359375,0.74072265625
0.152,2.90283203125,-2.94287109375,0.10009765625
0.1525,3.18310546875,-2.46240234375,-0.74072265625
0.153,3.34326171875,-2.06201171875,-1.30126953125
0.1535,3.46337890625,-1.54150390625,-1.98193359375
0.154,3.34326171875,-0.90087890625,-2.46240234375
0.1545,3.18310546875,-0.30029296875,-2.90283203125
0.155,2.70263671875,0.50048828125,-3.18310546875
0.1555,2.42236328125,1.14111328125,-3.58349609375
0.156,1.78173828125,1.74169921875,-3.54345703125
0.1565,1.22119140625,2.38232421875,-3.62353515625
0.157,0.50048828125,2.74267578125,-3.26318359375
0.1575,-0.14013671875,3.14306640625,-3.14306640625
0.158,-0.90087890625,3.38330078125,-2.62255859375
0.1585,-1.34130859375,3.66357421875,-2.42236328125
0.159,-1.94189453125,3.70361328125,-1.94189453125
0.1595,-2.26220703125,3.58349609375,-1.46142578125
0.16,-2.70263671875,3.30322265625,-0.74072265625
0.1605,-2.86279296875,2.74267578125,0.06005859375
0.161,-3.22314453125,2.42236328125,0.78076171875
0.1615,-3.34326171875,1.90185546875,1.34130859375
0.162,-3.50341796875,1.50146484375,1.98193359375
0.1625,-3.18310546875,0.78076171875,2.42236328125
0.163,-3.06298828125,0.18017578125,2.90283203125
0.1635,-2.54248046875,-0.66064453125,3.18310546875
0.164,-2.22216796875,-1.30126953125,3.46337890625
0.1645,-1.50146484375,-1.94189453125,3.46337890625
0.165,-0.94091796875,-2.54248046875,3.46337890625
0.1655,-0.22021484375,-2.90283203125,3.14306640625
0.166,0.50048828125,-3.18310546875,2.82275390625
0.1665,1.18115234375,-3.54345703125,2.46240234375
0.167,1.58154296875,-3.62353515625,2.10205078125
0.1675,2.22216796875,-3.78369140625,1.66162109375
0.168,2.50244140625,-3.42333984375,1.02099609375
0.1685,2.90283203125,-3.18310546875,0.38037109375
0.169,3.10302734375,-2.50244140625,-0.58056640625
0.1695,3.42333984375,-2.26220703125,-1.26123046875
0.17,3.34326171875,-1.54150390625,-1.90185546875
0.1705,3.50341796875,-1.10107421875,-2.50244140625
0.171,3.10302734375,-0.34033203125,-2.86279296875
0.1715,2.86279296875,0.34033203125,-3.18310546875
0.172,2.42236328125,1.18115234375,-3.54345703125
0.1725,1.86181640625,1.74169921875,-3.66357421875
0.173,1.22119140625,2.42236328125,-3.66357421875
0.1735,0.50048828125,2.86279296875,-3.42333984375
0.174,-0.18017578125,3.22314453125,-3.14306640625
0.1745,-0.98095703125,3.46337890625,-2.58251953125
0.175,-1.58154296875,3.78369140625,-2.30224609375
0.1755,-1.98193359375,3.66357421875,-1.78173828125
0.176,-2.54248046875,3.78369140625,-1.38134765625
0.1765,-2.74267578125,3.22314453125,-0.58056640625
0.177,-3.06298828125,2.94287109375,0.10009765625
0.1775,-3.22314453125,2.26220703125,0.98095703125
0.178,-3.46337890625,1.94189453125,1.54150390625
0.1785,-3.34326171875,1.26123046875,2.14208984375
0.179,-3.34326171875,0.78076171875,2.58251953125
0.1795,-2.90283203125,0.02001953125,2.94287109375
0.18,-2.58251953125,-0.66064453125,3.18310546875
0.1805,-2.10205078125,-1.42138671875,3.54345703125
0.181,-1.46142578125,-1.94189453125,3.38330078125
0.1815,-0.94091796875,-2.58251953125,3.54345703125
0.182,-0.18017578125,-2.90283203125,3.06298828125
0.1825,0.42041015625,-3.22314453125,2.90283203125
0.183,1.22119140625,-3.46337890625,2.38232421875
0.1835,1.70166015625,-3.70361328125,2.10205078125
0.184,2.14208984375,-3.58349609375,1.58154296875
0.1845,2.54248046875,-3.66357421875,1.18115234375
0.185,2.74267578125,-3.14306640625,0.46044921875
0.1855,3.06298828125,-2.74267578125,-0.30029296875
0.186,3.30322265625,-2.18212890625,-1.14111328125
0.1865,3.38330078125,-1.74169921875,-1.66162109375
0.187,3.46337890625,-1.18115234375,-2.30224609375
0.1875,3.18310546875,-0.62060546875,-2.66259765625
0.188,2.94287109375,0.10009765625,-3.10302734375
0.1885,2.50244140625,0.82080078125,-3.34326171875
0.189,2.18212890625,1.46142578125,-3.66357421875
0.1895,1.42138671875,1.98193359375,-3.46337890625
0.19,0.94091796875,2.62255859375,-3.58349609375
0.1905,0.18017578125,2.86279296875,-3.14306640625
0.191,-0.46044921875,3.22314453125,-2.90283203125
0.1915,-1.18115234375,3.50341796875,-2.46240234375
0.192,-1.54150390625,3.62353515625,-2.22216796875
0.1925,-2.06201171875,3.66357421875,-1.66162109375
0.193,-2.38232421875,3.46337890625,-1.22119140625
0.1935,-2.74267578125,3.06298828125,-0.46044921875
0.194,-2.94287109375,2.58251953125,0.30029296875
0.1945,-3.26318359375,2.26220703125,0.98095703125
0.195,-3.22314453125,1.78173828125,1.46142578125
0.1955,-3.46337890625,1.34130859375,2.10205078125
0.196,-3.06298828125,0.62060546875,2.50244140625
0.1965,-2.90283203125,0.02001953125,2.90283203125
0.197,-2.46240234375,-0.78076171875,3.22314453125
0.1975,-2.06201171875,-1.34130859375,3.42333984375
0.198,-1.34130859375,-1.98193359375,3.38330078125
0.1985,-0.82080078125,-2.54248046875,3.34326171875
0.199,-0.14013671875,-2.86279296875,3.02294921875
0.1995,0.54052734375,-3.18310546875,2.74267578125
