wavelength,x,y,z
0.0,3.7686767578125,-7.5623779296875,3.6885986328125
0.0005,4.8897705078125,-7.8026123046875,2.6876220703125
0.001,5.6505126953125,-7.2420654296875,1.4063720703125
0.0015,6.5313720703125,-6.9217529296875,0.0850830078125
0.002,6.6114501953125,-5.7606201171875,-1.1961669921875
0.0025,7.0919189453125,-5.3602294921875,-2.1170654296875
0.003,7.1319580078125,-3.5985107421875,-3.8787841796875
0.0035,6.9718017578125,-2.7977294921875,-4.5194091796875
0.004,6.5313720703125,-1.2362060546875,-5.6405029296875
0.0045,5.5704345703125,0.4854736328125,-6.2811279296875
0.005,4.6895751953125,1.9268798828125,-6.7615966796875
0.0055,3.6885986328125,3.3282470703125,-7.2020263671875
0.006,2.4473876953125,4.9298095703125,-7.4822998046875
0.0065,1.4063720703125,5.4903564453125,-6.9217529296875
0.007,-0.1551513671875,6.6915283203125,-6.6014404296875
0.0075,-1.5565185546875,6.9317626953125,-5.4403076171875
0.008,-2.5975341796875,7.6524658203125,-5.0799560546875
0.0085,-4.5994873046875,7.8126220703125,-3.2381591796875
0.009,-5.4803466796875,7.8927001953125,-2.3973388671875
0.0095,-6.2811279296875,7.1319580078125,-0.9559326171875
0.01,-7.0018310546875,6.7315673828125,0.3653564453125
0.0105,-7.0418701171875,5.6505126953125,1.5665283203125
0.011,-7.3221435546875,5.0098876953125,2.5274658203125
0.0115,-7.4022216796875,3.4083251953125,4.2091064453125
0.012,-7.0018310546875,2.5274658203125,4.6895751953125
0.0125,-6.5614013671875,0.8858642578125,5.8907470703125
0.013,-5.4403076171875,-0.7557373046875,6.2911376953125
0.0135,-4.7996826171875,-2.0369873046875,6.8917236328125
0.014,-3.5184326171875,-3.5584716796875,7.0518798828125
0.0145,-2.5174560546875,-4.8797607421875,7.3321533203125
0.015,-1.2362060546875,-5.4002685546875,6.4913330078125
0.0155,0.2052001953125,-6.5614013671875,6.2911376953125
0.016,1.4464111328125,-6.6815185546875,5.0899658203125
0.0165,2.6075439453125,-7.4422607421875,4.6094970703125
0.017,4.6094970703125,-7.6824951171875,2.8878173828125
0.0175,5.2501220703125,-7.5623779296875,2.0069580078125
0.018,6.0909423828125,-6.8016357421875,0.5255126953125
0.0185,6.6114501953125,-6.2811279296875,-0.6356201171875
0.019,6.7716064453125,-5.3602294921875,-1.7567138671875
0.0195,6.9317626953125,-4.3992919921875,-2.8778076171875
0.02,7.1719970703125,-3.0780029296875,-4.3592529296875
0.0205,6.4112548828125,-1.9168701171875,-4.8797607421875
0.021,6.1710205078125,-0.3553466796875,-6.1209716796875
0.0215,4.8096923828125,1.3663330078125,-6.4012451171875
0.022,4.3692626953125,2.5274658203125,-7.0418701171875
0.0225,2.8878173828125,4.2491455078125,-7.2020263671875
0.023,2.0469970703125,5.4102783203125,-7.3621826171875
0.0235,0.4854736328125,6.0108642578125,-6.4012451171875
0.024,-0.8358154296875,7.0518798828125,-6.1610107421875
0.0245,-2.1571044921875,7.1319580078125,-4.9998779296875
0.025,-3.3983154296875,7.7725830078125,-4.3592529296875
0.0255,-5.4002685546875,7.9727783203125,-2.5574951171875
0.026,-5.9207763671875,7.5723876953125,-1.5164794921875
0.0265,-6.8016357421875,6.8917236328125,0.0850830078125
0.027,-7.1219482421875,6.2110595703125,1.1661376953125
0.0275,-7.2821044921875,5.2501220703125,2.2872314453125
0.028,-7.3621826171875,4.0089111328125,3.5684814453125
0.0285,-7.5223388671875,2.8077392578125,4.9698486328125
0.029,-6.4813232421875,1.3262939453125,5.4102783203125
0.0295,-6.2410888671875,-0.1951904296875,6.5714111328125
0.03,-4.7996826171875,-1.7967529296875,6.6514892578125
0.0305,-4.2391357421875,-2.9178466796875,7.2520751953125
0.031,-2.6776123046875,-4.7196044921875,7.3721923828125
0.0315,-1.5565185546875,-5.6405029296875,7.1719970703125
0.032,0.0850830078125,-6.2410888671875,6.1309814453125
0.0325,1.1260986328125,-7.0819091796875,5.8907470703125
0.033,2.5675048828125,-7.2420654296875,4.6094970703125
0.0335,3.8487548828125,-7.7225341796875,3.6885986328125
0.034,5.7305908203125,-7.8826904296875,2.0469970703125
0.0345,6.0909423828125,-7.0418701171875,0.8057861328125
0.035,6.8917236328125,-6.5614013671875,-0.5155029296875
0.0355,6.9718017578125,-5.6405029296875,-1.5965576171875
0.036,7.1719970703125,-4.7596435546875,-2.7176513671875
0.0365,7.0919189453125,-3.3582763671875,-4.0789794921875
0.037,7.1719970703125,-2.1971435546875,-5.2801513671875
0.0375,5.8907470703125,-0.5155029296875,-5.7606201171875
0.038,5.6505126953125,0.9259033203125,-6.7615966796875
0.0385,4.1290283203125,2.4874267578125,-6.7215576171875
0.039,3.6085205078125,3.6085205078125,-7.3221435546875
0.0395,2.0870361328125,5.3702392578125,-7.4422607421875
0.04,0.8458251953125,6.0909423828125,-6.9217529296875
0.0405,-0.6356201171875,6.7315673828125,-6.1209716796875
0.041,-1.7567138671875,7.3321533203125,-5.5604248046875
0.0415,-3.2381591796875,7.5723876953125,-4.3592529296875
0.042,-4.5194091796875,7.8526611328125,-3.3582763671875
0.0425,-6.1610107421875,8.0128173828125,-1.7967529296875
0.043,-6.4012451171875,6.8917236328125,-0.3953857421875
0.0435,-7.2420654296875,6.6915283203125,0.7657470703125
0.044,-7.1219482421875,5.4903564453125,1.8868408203125
0.0445,-7.4022216796875,4.6895751953125,2.9678955078125
0.045,-7.3621826171875,3.2081298828125,4.3692626953125
0.0455,-7.2420654296875,2.0870361328125,5.4102783203125
0.046,-6.0408935546875,0.2852783203125,5.9708251953125
0.0465,-5.7606201171875,-0.9959716796875,6.8917236328125
0.047,-4.2391357421875,-2.5574951171875,6.8917236328125
0.0475,-3.6385498046875,-3.7186279296875,7.3721923828125
0.048,-2.0770263671875,-5.4002685546875,7.4122314453125
0.0485,-0.6756591796875,-6.0408935546875,6.5714111328125
0.049,0.6055908203125,-6.8016357421875,6.1309814453125
0.0495,1.9268798828125,-7.3221435546875,5.2100830078125
0.05,3.4884033203125,-7.6024169921875,4.0089111328125
0.0505,4.7296142578125,-7.7625732421875,2.8878173828125
0.051,6.2110595703125,-7.8026123046875,1.4864501953125
0.0515,6.4112548828125,-6.5614013671875,0.0050048828125
0.052,7.1719970703125,-6.4012451171875,-0.9959716796875
0.0525,7.0919189453125,-4.9998779296875,-2.4373779296875
0.053,7.2921142578125,-4.1590576171875,-3.4383544921875
0.0535,7.2120361328125,-2.5975341796875,-4.9197998046875
0.054,6.7315673828125,-1.2362060546875,-5.8006591796875
0.0545,5.6104736328125,0.6055908203125,-6.4012451171875
0.055,5.0899658203125,1.8067626953125,-7.0418701171875
0.0555,3.5284423828125,3.5684814453125,-7.2020263671875
0.056,2.8477783203125,4.5694580078125,-7.4422607421875
0.0565,1.2462158203125,6.1309814453125,-7.4022216796875
0.057,-0.3553466796875,6.5714111328125,-6.2811279296875
0.0575,-1.4764404296875,7.3721923828125,-5.9608154296875
0.058,-3.0780029296875,7.7325439453125,-4.6395263671875
0.0585,-4.4393310546875,7.9727783203125,-3.5184326171875
0.059,-5.5203857421875,7.9327392578125,-2.2772216796875
0.0595,-6.7215576171875,7.6925048828125,-0.9158935546875
0.06,-6.8016357421875,6.4112548828125,0.6055908203125
0.0605,-7.4422607421875,6.2510986328125,1.4063720703125
0.061,-7.3221435546875,4.5694580078125,3.0079345703125
0.0615,-7.4022216796875,3.8487548828125,3.8087158203125
0.062,-7.2420654296875,2.2872314453125,5.2501220703125
0.0625,-6.4813232421875,0.8858642578125,5.8907470703125
0.063,-5.6405029296875,-0.7957763671875,6.5313720703125
0.0635,-4.8397216796875,-1.9969482421875,6.9718017578125
0.064,-3.4783935546875,-3.7186279296875,7.1719970703125
0.0645,-2.6776123046875,-4.5994873046875,7.2120361328125
0.065,-1.1961669921875,-5.9608154296875,7.0518798828125
0.0655,0.3253173828125,-6.3612060546875,5.8907470703125
0.066,1.2862548828125,-7.0819091796875,5.7305908203125
0.0665,3.1680908203125,-7.4022216796875,4.1290283203125
0.067,4.1690673828125,-7.6824951171875,3.3682861328125
0.0675,5.4102783203125,-7.4422607421875,1.9669189453125
0.068,6.2510986328125,-7.0819091796875,0.7657470703125
0.0685,6.4512939453125,-6.1209716796875,-0.6356201171875
0.069,7.0118408203125,-5.8006591796875,-1.4364013671875
0.0695,6.9718017578125,-4.1990966796875,-3.0780029296875
0.07,6.9718017578125,-3.3983154296875,-3.8387451171875
0.0705,6.8917236328125,-1.9569091796875,-5.2401123046875
0.071,5.8907470703125,-0.3953857421875,-5.7606201171875
0.0715,5.2501220703125,1.1260986328125,-6.5213623046875
0.072,4.2091064453125,2.6075439453125,-6.9217529296875
0.0725,3.1280517578125,4.0089111328125,-7.2420654296875
0.073,2.2071533203125,4.9298095703125,-7.1219482421875
0.0735,0.6856689453125,6.1309814453125,-6.9217529296875
0.074,-0.8358154296875,6.5313720703125,-5.7205810546875
0.0745,-1.8367919921875,7.4122314453125,-5.6004638671875
0.075,-3.8387451171875,7.6925048828125,-3.7586669921875
0.0755,-4.7196044921875,7.8927001953125,-3.1180419921875
0.076,-5.8807373046875,7.5723876953125,-1.5965576171875
0.0765,-6.5614013671875,7.0118408203125,-0.3153076171875
0.077,-6.8016357421875,6.0909423828125,0.9659423828125
0.0775,-7.2420654296875,5.5303955078125,1.9268798828125
0.078,-7.3221435546875,3.9688720703125,3.5684814453125
0.0785,-7.0819091796875,3.1280517578125,4.2091064453125
0.079,-7.0018310546875,1.6065673828125,5.6104736328125
0.0795,-5.7606201171875,0.0050048828125,6.0108642578125
0.08,-5.2801513671875,-1.3563232421875,6.7716064453125
0.0805,-3.9188232421875,-3.0780029296875,7.0518798828125
0.081,-2.9578857421875,-4.4393310546875,7.3321533203125
0.0815,-1.7967529296875,-5.2000732421875,6.8917236328125
0.082,-0.3153076171875,-6.3211669921875,6.5313720703125
0.0825,1.0860595703125,-6.6014404296875,5.4503173828125
0.083,2.2071533203125,-7.4022216796875,5.1300048828125
0.0835,4.2891845703125,-7.6024169921875,3.2081298828125
0.084,4.9698486328125,-7.5623779296875,2.5274658203125
0.0845,6.0509033203125,-7.1619873046875,1.0059814453125
0.085,6.5313720703125,-6.4412841796875,-0.3153076171875
0.0855,6.7716064453125,-5.6405029296875,-1.3563232421875
0.086,7.0518798828125,-4.7596435546875,-2.5975341796875
0.0865,7.1719970703125,-3.3983154296875,-4.0389404296875
0.087,6.6514892578125,-2.3172607421875,-4.6395263671875
0.0875,6.4112548828125,-0.8358154296875,-5.9207763671875
0.088,5.0499267578125,0.9659423828125,-6.1610107421875
0.0885,4.7296142578125,2.0469970703125,-6.9217529296875
0.089,3.0479736328125,3.8487548828125,-7.0819091796875
0.0895,2.4073486328125,4.8497314453125,-7.3621826171875
0.09,0.9659423828125,5.7305908203125,-6.6815185546875
0.0905,-0.5155029296875,6.6915283203125,-6.2410888671875
0.091,-1.7567138671875,6.9317626953125,-5.1600341796875
0.0915,-2.9178466796875,7.6124267578125,-4.5994873046875
0.092,-4.8397216796875,7.7325439453125,-2.8778076171875
0.0925,-5.2801513671875,7.5323486328125,-2.1571044921875
0.093,-6.3612060546875,7.0518798828125,-0.6356201171875
0.0935,-6.6014404296875,6.2110595703125,0.6055908203125
0.094,-6.9617919921875,5.6104736328125,1.5665283203125
0.0945,-7.0418701171875,4.4093017578125,2.8477783203125
0.095,-7.2020263671875,3.4083251953125,4.0489501953125
0.0955,-6.5614013671875,2.2071533203125,4.6495361328125
0.096,-6.3612060546875,0.7657470703125,5.7706298828125
0.0965,-4.9998779296875,-0.9559326171875,6.0108642578125
0.097,-4.7996826171875,-1.9569091796875,6.7716064453125
0.0975,-3.1580810546875,-3.8387451171875,6.8917236328125
0.098,-2.5574951171875,-4.5194091796875,7.0518798828125
0.0985,-0.9959716796875,-5.4403076171875,6.4112548828125
0.099,0.3253173828125,-6.2811279296875,5.9307861328125
0.0995,1.5264892578125,-6.6414794921875,5.0899658203125
0.1,2.9278564453125,-7.2420654296875,4.2091064453125
0.1005,4.6094970703125,-7.5623779296875,2.8477783203125
0.101,5.0499267578125,-7.1219482421875,1.9268798828125
0.1015,6.1309814453125,-6.8016357421875,0.5655517578125
0.102,6.3311767578125,-5.8807373046875,-0.7156982421875
0.1025,6.8516845703125,-5.4403076171875,-1.6766357421875
0.103,6.8917236328125,-3.9588623046875,-3.1981201171875
0.1035,7.0518798828125,-3.0780029296875,-4.2791748046875
0.104,6.2911376953125,-1.5565185546875,-5.0399169921875
0.1045,6.0108642578125,-0.1551513671875,-6.1610107421875
0.105,4.6094970703125,1.5665283203125,-6.4412841796875
0.1055,4.2091064453125,2.7276611328125,-7.1219482421875
0.106,2.6075439453125,4.7296142578125,-7.3621826171875
0.1065,1.7266845703125,5.4102783203125,-7.0819091796875
0.107,0.0850830078125,6.4112548828125,-6.4412841796875
0.1075,-1.2362060546875,7.0518798828125,-5.8006591796875
0.108,-2.4774169921875,7.4522705078125,-4.9197998046875
0.1085,-4.1190185546875,7.8526611328125,-3.7186279296875
0.109,-5.7606201171875,8.0928955078125,-2.2772216796875
0.1095,-6.1610107421875,7.2120361328125,-0.9959716796875
0.11,-7.1619873046875,6.8917236328125,0.4454345703125
0.1105,-7.0819091796875,5.6905517578125,1.6065673828125
0.111,-7.4022216796875,5.0499267578125,2.6075439453125
0.1115,-7.4022216796875,3.4083251953125,4.2491455078125
0.112,-7.3221435546875,2.4073486328125,5.1700439453125
0.1125,-6.2811279296875,0.6055908203125,5.8106689453125
0.113,-5.8006591796875,-0.8358154296875,6.7315673828125
0.1135,-4.4393310546875,-2.3572998046875,6.7716064453125
0.114,-3.7186279296875,-3.4783935546875,7.2120361328125
0.1145,-2.1170654296875,-5.2801513671875,7.3721923828125
0.115,-0.9959716796875,-5.7606201171875,6.6514892578125
0.1155,0.4454345703125,-6.6815185546875,6.1309814453125
0.116,1.6065673828125,-7.0018310546875,5.2501220703125
0.1165,2.8878173828125,-7.4022216796875,4.4493408203125
0.117,4.5294189453125,-7.6424560546875,3.0079345703125
0.1175,5.8907470703125,-7.7225341796875,1.6866455078125
0.118,6.1309814453125,-6.5614013671875,0.2852783203125
0.1185,7.0518798828125,-6.4412841796875,-0.7957763671875
0.119,6.8516845703125,-5.2000732421875,-1.9569091796875
0.1195,7.0919189453125,-4.5194091796875,-2.8778076171875
0.12,7.0919189453125,-2.9178466796875,-4.5194091796875
0.1205,6.6915283203125,-1.9168701171875,-5.1600341796875
0.121,5.8507080078125,-0.1551513671875,-6.0408935546875
0.1215,5.1700439453125,1.2061767578125,-6.6414794921875
0.122,4.0889892578125,2.6876220703125,-6.8817138671875
0.1225,3.2081298828125,3.9288330078125,-7.2020263671875
0.123,1.8868408203125,5.5704345703125,-7.4822998046875
0.1235,0.5255126953125,5.9708251953125,-6.4412841796875
0.124,-0.7557373046875,7.0518798828125,-6.2811279296875
0.1245,-2.0770263671875,7.2120361328125,-5.1199951171875
0.125,-3.3582763671875,7.8126220703125,-4.3992919921875
0.1255,-5.0799560546875,7.9327392578125,-2.8377685546875
0.126,-6.2010498046875,7.8927001953125,-1.5965576171875
0.1265,-6.5614013671875,6.7315673828125,0.0050048828125
0.127,-7.3221435546875,6.5714111328125,0.9259033203125
0.1275,-7.2420654296875,5.2501220703125,2.2071533203125
0.128,-7.4422607421875,4.4893798828125,3.2481689453125
0.1285,-7.5623779296875,2.8477783203125,4.9298095703125
0.129,-6.8416748046875,1.5665283203125,5.4903564453125
0.1295,-6.1209716796875,-0.2752685546875,6.4112548828125
0.13,-5.2801513671875,-1.5565185546875,6.8917236328125
0.1305,-4.1590576171875,-2.9979248046875,7.1719970703125
0.131,-3.0780029296875,-4.3592529296875,7.4122314453125
0.1315,-1.6365966796875,-5.9207763671875,7.4522705078125
0.132,0.0050048828125,-6.2410888671875,6.2110595703125
0.1325,1.0059814453125,-7.2420654296875,6.1710205078125
0.133,2.7276611328125,-7.4022216796875,4.6094970703125
0.1335,3.9288330078125,-7.8026123046875,3.8087158203125
0.134,5.5303955078125,-7.8426513671875,2.2471923828125
0.1345,6.4512939453125,-7.4822998046875,0.9259033203125
0.135,6.7315673828125,-6.4012451171875,-0.6356201171875
0.1355,7.2921142578125,-6.0408935546875,-1.5164794921875
0.136,7.2120361328125,-4.5194091796875,-2.9578857421875
0.1365,7.1719970703125,-3.6785888671875,-3.8787841796875
0.137,7.3321533203125,-2.1571044921875,-5.5203857421875
0.1375,6.1710205078125,-0.5155029296875,-5.9608154296875
0.138,5.6104736328125,1.0460205078125,-6.8016357421875
0.1385,4.4093017578125,2.5274658203125,-7.0819091796875
0.139,3.3682861328125,3.9688720703125,-7.4022216796875
0.1395,2.2471923828125,5.2100830078125,-7.4422607421875
0.14,0.8057861328125,6.5313720703125,-7.2821044921875
0.1405,-0.8758544921875,6.8516845703125,-5.9608154296875
0.141,-1.7967529296875,7.7325439453125,-5.8807373046875
0.1415,-3.7186279296875,7.8526611328125,-4.1190185546875
0.142,-4.6395263671875,8.1329345703125,-3.3983154296875
0.1425,-6.1610107421875,8.0128173828125,-1.7967529296875
0.143,-6.8016357421875,7.3721923828125,-0.4354248046875
0.1435,-7.2020263671875,6.4913330078125,0.9259033203125
0.144,-7.5623779296875,5.8907470703125,1.8868408203125
0.1445,-7.5623779296875,4.3692626953125,3.4083251953125
0.145,-7.4022216796875,3.4483642578125,4.2091064453125
0.1455,-7.4422607421875,1.9669189453125,5.7305908203125
0.146,-6.1209716796875,0.2852783203125,6.0909423828125
0.1465,-5.8006591796875,-1.1160888671875,7.0518798828125
0.147,-4.3592529296875,-2.7176513671875,7.1319580078125
0.1475,-3.4783935546875,-4.0389404296875,7.4923095703125
0.148,-2.1571044921875,-5.2000732421875,7.3321533203125
0.1485,-0.7156982421875,-6.3612060546875,6.9718017578125
0.149,0.8057861328125,-6.7215576171875,5.8106689453125
0.1495,1.9268798828125,-7.5623779296875,5.6104736328125
0.15,3.8887939453125,-7.7225341796875,3.7286376953125
0.1505,4.6895751953125,-7.8426513671875,3.0479736328125
0.151,6.1309814453125,-7.7225341796875,1.4464111328125
0.1515,6.5313720703125,-6.8016357421875,0.1251220703125
0.152,7.0118408203125,-6.2010498046875,-1.0760498046875
0.1525,7.2120361328125,-5.3201904296875,-2.2772216796875
0.153,7.3321533203125,-3.9588623046875,-3.7186279296875
0.1535,7.0518798828125,-2.8377685546875,-4.5194091796875
0.154,7.0118408203125,-1.3963623046875,-5.9207763671875
0.1545,5.5303955078125,0.4854736328125,-6.2410888671875
0.155,5.2901611328125,1.6866455078125,-7.1219482421875
0.1555,3.5684814453125,3.6485595703125,-7.2821044921875
0.156,2.8878173828125,4.6895751953125,-7.6024169921875
0.1565,1.4464111328125,5.8507080078125,-7.2821044921875
0.157,-0.1551513671875,6.8516845703125,-6.7215576171875
0.1575,-1.5164794921875,7.2120361328125,-5.6805419921875
0.158,-2.7176513671875,7.9727783203125,-5.2000732421875
0.1585,-4.7596435546875,8.1329345703125,-3.3182373046875
0.159,-5.4403076171875,8.0128173828125,-2.5574951171875
0.1595,-6.7615966796875,7.8126220703125,-0.9559326171875
0.16,-7.0819091796875,6.7315673828125,0.5255126953125
0.1605,-7.5223388671875,6.0909423828125,1.5665283203125
0.161,-7.6424560546875,4.8497314453125,3.0079345703125
0.1615,-7.7225341796875,3.6485595703125,4.3292236328125
0.162,-7.2020263671875,2.4073486328125,5.0899658203125
0.1625,-7.0018310546875,0.9259033203125,6.3311767578125
0.163,-5.4803466796875,-0.9959716796875,6.5714111328125
0.1635,-5.1600341796875,-2.1170654296875,7.3721923828125
0.164,-3.2781982421875,-4.1590576171875,7.4122314453125
0.1645,-2.5975341796875,-4.9998779296875,7.5323486328125
0.165,-0.9959716796875,-6.0809326171875,6.9718017578125
0.1655,0.5255126953125,-6.8817138671875,6.2911376953125
0.166,1.7667236328125,-7.1619873046875,5.2901611328125
0.1665,3.1680908203125,-7.7625732421875,4.4893798828125
0.167,4.9698486328125,-7.9227294921875,2.8477783203125
0.1675,5.4903564453125,-7.5623779296875,1.9268798828125
0.168,6.6514892578125,-7.2420654296875,0.4454345703125
0.1685,6.7716064453125,-6.1610107421875,-0.9158935546875
0.169,7.2120361328125,-5.7205810546875,-1.8367919921875
0.1695,7.2520751953125,-4.1590576171875,-3.3983154296875
0.17,7.3321533203125,-3.1981201171875,-4.4793701171875
0.1705,6.6514892578125,-1.7567138671875,-5.2401123046875
0.171,6.3311767578125,-0.3153076171875,-6.2811279296875
0.1715,4.8497314453125,1.5264892578125,-6.5614013671875
0.172,4.4893798828125,2.6075439453125,-7.2420654296875
0.1725,2.7276611328125,4.5694580078125,-7.4022216796875
0.173,2.1671142578125,5.2501220703125,-7.3621826171875
0.1735,0.4854736328125,6.3712158203125,-6.8016357421875
0.174,-0.9959716796875,7.0118408203125,-5.9608154296875
0.1745,-2.1571044921875,7.4522705078125,-5.2801513671875
0.175,-3.7586669921875,7.9327392578125,-4.1190185546875
0.1755,-5.3201904296875,8.1729736328125,-2.7977294921875
0.176,-5.8006591796875,7.6524658203125,-1.5965576171875
0.1765,-7.0018310546875,7.2520751953125,-0.2352294921875
0.177,-7.0418701171875,6.0909423828125,1.1260986328125
0.1775,-7.5623779296875,5.7305908203125,2.0069580078125
0.178,-7.5623779296875,4.0089111328125,3.7686767578125
