wavelength,x,y,z
0.0,2.40234375,4.2841796875,-6.1259765625
0.0005,3.6435546875,2.9228515625,-6.3662109375
0.001,4.6044921875,1.6416015625,-6.326171875
0.0015,5.125,0.7607421875,-6.2861328125
0.002,5.2451171875,0.16015625,-6.0458984375
0.0025,5.1650390625,-0.8408203125,-5.28515625
0.003,4.9248046875,-2.08203125,-4.1240234375
0.0035,4.8046875,-3.4033203125,-2.8427734375
0.004,4.5244140625,-4.484375,-1.76171875
0.0045,4.404296875,-5.205078125,-1.0009765625
0.005,3.84375,-5.6455078125,-0.16015625
0.0055,2.802734375,-5.8056640625,1.12109375
0.006,1.4814453125,-6.1259765625,2.5625
0.0065,0.2802734375,-6.166015625,3.8837890625
0.007,-0.560546875,-6.3662109375,4.8046875
0.0075,-1.28125,-6.3662109375,5.60546875
0.008,-2.2822265625,-5.685546875,6.0859375
0.0085,-3.68359375,-4.3642578125,6.3662109375
0.009,-4.884765625,-2.9228515625,6.4462890625
0.0095,-5.6455078125,-1.76171875,6.24609375
0.01,-5.92578125,-1.0009765625,6.166015625
0.0105,-5.8857421875,-0.2001953125,5.685546875
0.011,-5.6455078125,0.9609375,4.6044921875
0.0115,-5.4052734375,2.2822265625,3.3232421875
0.012,-5.125,3.5634765625,1.921875
0.0125,-4.8447265625,4.484375,0.9609375
0.013,-4.5244140625,5.0849609375,0.2001953125
0.0135,-3.763671875,5.365234375,-0.80078125
0.014,-2.4423828125,5.4853515625,-2.2021484375
0.0145,-1.12109375,5.7255859375,-3.7236328125
0.015,0.0400390625,5.7255859375,-4.8046875
0.0155,0.6806640625,5.8857421875,-5.6455078125
0.016,1.5615234375,5.525390625,-6.2861328125
0.0165,2.8427734375,4.404296875,-6.646484375
0.017,4.1240234375,2.9228515625,-6.8466796875
0.0175,5.1650390625,1.44140625,-6.7666015625
0.018,5.685546875,0.48046875,-6.5263671875
0.0185,5.8056640625,-0.3603515625,-6.2861328125
0.019,5.6455078125,-1.2412109375,-5.525390625
0.0195,5.28515625,-2.482421875,-4.1640625
0.02,5.044921875,-3.8837890625,-2.72265625
0.0205,4.64453125,-5.0048828125,-1.44140625
0.021,4.404296875,-5.765625,-0.640625
0.0215,3.84375,-6.1259765625,0.2802734375
0.022,2.802734375,-6.326171875,1.4013671875
0.0225,1.361328125,-6.4462890625,2.9228515625
0.023,-0.16015625,-6.4462890625,4.404296875
0.0235,-1.0009765625,-6.486328125,5.28515625
0.024,-1.6015625,-6.486328125,6.0458984375
0.0245,-2.6025390625,-5.92578125,6.5263671875
0.025,-3.9638671875,-4.5244140625,6.7666015625
0.0255,-5.205078125,-3.0830078125,6.806640625
0.026,-6.005859375,-1.6015625,6.56640625
0.0265,-6.326171875,-0.720703125,6.40625
0.027,-6.2861328125,0.1201171875,5.8857421875
0.0275,-6.005859375,1.0810546875,4.96484375
0.028,-5.6455078125,2.40234375,3.5234375
0.0285,-5.3251953125,3.8037109375,2.0419921875
0.029,-4.96484375,4.7646484375,0.9208984375
0.0295,-4.64453125,5.4052734375,0.1201171875
0.03,-3.8837890625,5.6455078125,-0.80078125
0.0305,-2.6025390625,5.7255859375,-2.1220703125
0.031,-1.2412109375,5.8857421875,-3.68359375
0.0315,0.16015625,5.8056640625,-4.96484375
0.032,0.880859375,5.8857421875,-5.8056640625
0.0325,1.5615234375,5.685546875,-6.4462890625
0.033,2.6826171875,4.8046875,-6.88671875
0.0335,4.0439453125,3.2431640625,-7.046875
0.034,5.205078125,1.8017578125,-6.966796875
0.0345,5.8056640625,0.6005859375,-6.6865234375
0.035,6.0458984375,-0.3203125,-6.486328125
0.0355,5.8857421875,-1.0810546875,-5.845703125
0.036,5.525390625,-2.2021484375,-4.64453125
0.0365,5.1650390625,-3.5634765625,-3.203125
0.037,4.8447265625,-4.8447265625,-1.8017578125
0.0375,4.484375,-5.6455078125,-0.7607421875
0.038,4.083984375,-6.2060546875,0.1201171875
0.0385,3.203125,-6.40625,1.041015625
0.039,1.8017578125,-6.4462890625,2.4423828125
0.0395,0.3203125,-6.486328125,4.00390625
0.04,-0.80078125,-6.4462890625,5.0849609375
0.0405,-1.44140625,-6.6064453125,5.8857421875
0.041,-2.2822265625,-6.2861328125,6.4462890625
0.0415,-3.5634765625,-5.0849609375,6.7265625
0.042,-4.8046875,-3.5634765625,6.88671875
0.0425,-5.765625,-2.08203125,6.7265625
0.043,-6.24609375,-1.041015625,6.4462890625
0.0435,-6.3662109375,-0.3203125,6.166015625
0.044,-6.1259765625,0.6005859375,5.4453125
0.0445,-5.765625,1.8017578125,4.1240234375
0.045,-5.4453125,3.203125,2.642578125
0.0455,-5.0849609375,4.3642578125,1.3212890625
0.046,-4.8046875,5.125,0.4404296875
0.0465,-4.244140625,5.525390625,-0.400390625
0.047,-3.2431640625,5.685546875,-1.4814453125
0.0475,-1.8017578125,5.8056640625,-3.0029296875
0.048,-0.400390625,5.8056640625,-4.4443359375
0.0485,0.560546875,5.8056640625,-5.4453125
0.049,1.1611328125,5.8857421875,-6.2060546875
0.0495,2.1220703125,5.28515625,-6.7265625
0.05,3.5234375,3.9638671875,-6.9267578125
0.0505,4.7646484375,2.482421875,-7.046875
0.051,5.60546875,1.0810546875,-6.806640625
0.0515,5.9658203125,0.16015625,-6.646484375
0.052,5.9658203125,-0.640625,-6.2060546875
0.0525,5.685546875,-1.6416015625,-5.2451171875
0.053,5.3251953125,-3.0029296875,-3.8037109375
0.0535,5.044921875,-4.404296875,-2.322265625
0.054,4.6845703125,-5.4052734375,-1.1611328125
0.0545,4.3642578125,-6.1259765625,-0.3203125
0.055,3.6435546875,-6.3662109375,0.6005859375
0.0555,2.3623046875,-6.4462890625,1.921875
0.056,0.880859375,-6.56640625,3.5234375
0.0565,-0.5205078125,-6.56640625,4.8046875
0.057,-1.28125,-6.6064453125,5.685546875
0.0575,-1.9619140625,-6.486328125,6.326171875
0.058,-3.04296875,-5.60546875,6.7265625
0.0585,-4.404296875,-4.0439453125,6.88671875
0.059,-5.525390625,-2.5224609375,6.7666015625
0.0595,-6.166015625,-1.28125,6.5263671875
0.06,-6.3662109375,-0.5205078125,6.326171875
0.0605,-6.2060546875,0.3203125,5.685546875
0.061,-5.845703125,1.44140625,4.484375
0.0615,-5.4853515625,2.802734375,3.0830078125
0.062,-5.1650390625,4.0439453125,1.681640625
0.0625,-4.8447265625,4.884765625,0.6806640625
0.063,-4.4443359375,5.4052734375,-0.16015625
0.0635,-3.603515625,5.60546875,-1.041015625
0.064,-2.2421875,5.685546875,-2.4423828125
0.0645,-0.8408203125,5.7255859375,-3.9638671875
0.065,0.3203125,5.7255859375,-5.044921875
0.0655,0.9208984375,5.8056640625,-5.8857421875
0.066,1.7216796875,5.525390625,-6.40625
0.0665,2.8828125,4.484375,-6.7265625
0.067,4.1640625,3.04296875,-6.8466796875
0.0675,5.125,1.5615234375,-6.7265625
0.068,5.685546875,0.5205078125,-6.486328125
0.0685,5.8056640625,-0.2802734375,-6.2861328125
0.069,5.6455078125,-1.041015625,-5.6455078125
0.0695,5.2451171875,-2.2021484375,-4.3642578125
0.07,4.96484375,-3.5634765625,-2.962890625
0.0705,4.64453125,-4.6845703125,-1.681640625
0.071,4.4443359375,-5.4853515625,-0.8408203125
0.0715,3.9638671875,-5.92578125,0.0
0.072,3.04296875,-6.1259765625,1.0009765625
0.0725,1.7216796875,-6.326171875,2.4423828125
0.073,0.3203125,-6.3662109375,3.8837890625
0.0735,-0.6806640625,-6.4462890625,4.8447265625
0.074,-1.28125,-6.5263671875,5.685546875
0.0745,-2.1220703125,-6.0458984375,6.166015625
0.075,-3.4033203125,-4.8046875,6.4462890625
0.0755,-4.64453125,-3.4033203125,6.56640625
0.076,-5.4853515625,-2.08203125,6.40625
0.0765,-5.92578125,-1.2412109375,6.326171875
0.077,-6.0458984375,-0.5205078125,6.005859375
0.0775,-5.765625,0.48046875,5.1650390625
0.078,-5.4853515625,1.6416015625,3.923828125
0.0785,-5.2451171875,3.04296875,2.5625
0.079,-4.96484375,4.0439453125,1.44140625
0.0795,-4.7646484375,4.8046875,0.640625
0.08,-4.1640625,5.125,-0.2001953125
0.0805,-3.0830078125,5.2451171875,-1.361328125
0.081,-1.8017578125,5.4853515625,-2.8427734375
0.0815,-0.6005859375,5.4853515625,-4.1240234375
0.082,0.2802734375,5.7255859375,-5.0048828125
0.0825,0.9609375,5.7255859375,-5.765625
0.083,1.921875,5.044921875,-6.24609375
0.0835,3.203125,3.763671875,-6.4462890625
0.084,4.404296875,2.322265625,-6.5263671875
0.0845,5.0849609375,1.201171875,-6.40625
0.085,5.4052734375,0.48046875,-6.2861328125
0.0855,5.4052734375,-0.3203125,-5.8857421875
0.086,5.125,-1.3212890625,-4.884765625
0.0865,4.9248046875,-2.5625,-3.7236328125
0.087,4.64453125,-3.8037109375,-2.40234375
0.0875,4.484375,-4.724609375,-1.44140625
0.088,4.2041015625,-5.4052734375,-0.720703125
0.0885,3.5634765625,-5.7255859375,0.2001953125
0.089,2.40234375,-5.8857421875,1.4013671875
0.0895,1.0810546875,-6.0859375,2.8427734375
0.09,0.1201171875,-6.1259765625,3.9638671875
0.0905,-0.640625,-6.3662109375,4.9248046875
0.091,-1.361328125,-6.2060546875,5.5654296875
0.0915,-2.4423828125,-5.3251953125,5.8857421875
0.092,-3.6435546875,-4.1240234375,6.1259765625
0.0925,-4.724609375,-2.802734375,6.1259765625
0.093,-5.3251953125,-1.841796875,6.0859375
0.0935,-5.60546875,-1.1611328125,6.005859375
0.094,-5.5654296875,-0.4404296875,5.525390625
0.0945,-5.28515625,0.6005859375,4.5244140625
0.095,-5.125,1.921875,3.3232421875
0.0955,-4.9248046875,3.04296875,2.2021484375
0.096,-4.7646484375,3.923828125,1.3212890625
0.0965,-4.484375,4.4443359375,0.640625
0.097,-3.7236328125,4.7646484375,-0.400390625
0.0975,-2.72265625,5.044921875,-1.6416015625
0.098,-1.44140625,5.2451171875,-3.0029296875
0.0985,-0.640625,5.4052734375,-4.0439453125
0.099,0.1201171875,5.685546875,-4.9248046875
0.0995,0.9609375,5.365234375,-5.5654296875
0.1,2.1220703125,4.404296875,-5.92578125
0.1005,3.3232421875,3.1630859375,-6.1259765625
0.101,4.2841796875,1.9619140625,-6.1259765625
0.1015,4.8447265625,1.1611328125,-6.166015625
0.102,5.044921875,0.5205078125,-6.0458984375
0.1025,4.96484375,-0.400390625,-5.4052734375
0.103,4.8046875,-1.4814453125,-4.404296875
0.1035,4.6044921875,-2.72265625,-3.203125
0.104,4.484375,-3.8037109375,-2.2021484375
0.1045,4.404296875,-4.64453125,-1.4814453125
0.105,4.00390625,-5.125,-0.720703125
0.1055,3.123046875,-5.4453125,0.3603515625
0.106,2.0419921875,-5.685546875,1.7216796875
0.1065,0.9609375,-5.845703125,2.962890625
0.107,0.2001953125,-6.1259765625,3.9638671875
0.1075,-0.560546875,-6.24609375,4.8046875
0.108,-1.4814453125,-5.8056640625,5.3251953125
0.1085,-2.642578125,-4.7646484375,5.685546875
0.109,-3.84375,-3.5634765625,5.845703125
0.1095,-4.64453125,-2.4423828125,5.8056640625
0.11,-5.125,-1.8017578125,5.92578125
0.1105,-5.2451171875,-1.1611328125,5.685546875
0.111,-5.125,-0.2802734375,4.9248046875
0.1115,-5.0048828125,0.9208984375,3.9638671875
0.112,-4.8447265625,2.1220703125,2.8427734375
0.1125,-4.8046875,3.0830078125,1.9619140625
0.113,-4.64453125,3.84375,1.28125
0.1135,-4.2041015625,4.2841796875,0.48046875
0.114,-3.2431640625,4.6044921875,-0.720703125
0.1145,-2.2822265625,4.96484375,-2.001953125
0.115,-1.28125,5.1650390625,-3.1630859375
0.1155,-0.640625,5.5654296875,-4.1640625
0.116,0.240234375,5.4853515625,-4.9248046875
0.1165,1.28125,4.8447265625,-5.4052734375
0.117,2.482421875,3.84375,-5.765625
0.1175,3.5634765625,2.6025390625,-5.8857421875
0.118,4.32421875,1.7216796875,-5.9658203125
0.1185,4.724609375,1.0810546875,-6.0458984375
0.119,4.8046875,0.3603515625,-5.7255859375
0.1195,4.6845703125,-0.720703125,-4.8447265625
0.12,4.6044921875,-1.921875,-3.84375
0.1205,4.484375,-3.0830078125,-2.8427734375
0.121,4.484375,-4.0439453125,-2.001953125
0.1215,4.2041015625,-4.724609375,-1.3212890625
0.122,3.603515625,-5.0849609375,-0.3603515625
0.1225,2.6826171875,-5.4453125,0.9208984375
0.123,1.521484375,-5.6455078125,2.2421875
0.1235,0.6806640625,-5.9658203125,3.3232421875
0.124,0.0400390625,-6.24609375,4.32421875
0.1245,-0.9208984375,-6.0458984375,5.0048828125
0.125,-2.08203125,-5.1650390625,5.4052734375
0.1255,-3.2431640625,-4.083984375,5.7255859375
0.126,-4.244140625,-2.8828125,5.765625
0.1265,-4.884765625,-2.08203125,5.8857421875
0.127,-5.1650390625,-1.44140625,5.8056640625
0.1275,-5.125,-0.640625,5.2451171875
0.128,-5.044921875,0.48046875,4.32421875
0.1285,-4.96484375,1.7216796875,3.203125
0.129,-4.8447265625,2.802734375,2.2421875
0.1295,-4.8046875,3.6435546875,1.4814453125
0.13,-4.3642578125,4.2041015625,0.7607421875
0.1305,-3.5634765625,4.5244140625,-0.400390625
0.131,-2.5625,4.9248046875,-1.681640625
0.1315,-1.4814453125,5.125,-2.962890625
0.132,-0.720703125,5.4453125,-4.00390625
0.1325,0.080078125,5.60546875,-4.8447265625
0.133,1.0810546875,5.0849609375,-5.4453125
0.1335,2.2822265625,4.00390625,-5.765625
0.134,3.5234375,2.7626953125,-5.9658203125
0.1345,4.32421875,1.7216796875,-6.0458984375
0.135,4.8046875,1.0009765625,-6.0859375
0.1355,4.96484375,0.3203125,-5.8056640625
0.136,4.8046875,-0.720703125,-4.96484375
0.1365,4.724609375,-1.9619140625,-3.923828125
0.137,4.5244140625,-3.203125,-2.7626953125
0.1375,4.404296875,-4.2041015625,-1.921875
0.138,4.2841796875,-4.8447265625,-1.1611328125
0.1385,3.68359375,-5.2451171875,-0.3203125
0.139,2.642578125,-5.525390625,0.9609375
0.1395,1.44140625,-5.765625,2.40234375
0.14,0.5205078125,-6.0458984375,3.5234375
0.1405,-0.240234375,-6.2861328125,4.484375
0.141,-1.041015625,-6.1259765625,5.205078125
0.1415,-2.162109375,-5.28515625,5.6455078125
0.142,-3.4033203125,-4.1240234375,5.92578125
0.1425,-4.5244140625,-2.8427734375,5.9658203125
0.143,-5.125,-1.8818359375,6.005859375
0.1435,-5.4453125,-1.2412109375,5.8857421875
0.144,-5.4052734375,-0.48046875,5.4052734375
0.1445,-5.1650390625,0.6005859375,4.3642578125
0.145,-5.0849609375,1.921875,3.1630859375
0.1455,-4.884765625,3.0830078125,2.0419921875
0.146,-4.7646484375,3.9638671875,1.28125
0.1465,-4.3642578125,4.484375,0.560546875
0.147,-3.5634765625,4.8046875,-0.5205078125
0.1475,-2.482421875,5.0849609375,-1.8818359375
0.148,-1.28125,5.2451171875,-3.203125
0.1485,-0.48046875,5.4853515625,-4.244140625
0.149,0.2802734375,5.6455078125,-5.125
0.1495,1.201171875,5.2451171875,-5.7255859375
0.15,2.482421875,4.1240234375,-6.0859375
0.1505,3.7236328125,2.8427734375,-6.2861328125
0.151,4.6044921875,1.6015625,-6.2060546875
0.1515,5.0849609375,0.80078125,-6.24609375
0.152,5.205078125,0.1201171875,-5.92578125
0.1525,5.0849609375,-0.9208984375,-5.1650390625
0.153,4.8447265625,-2.08203125,-4.0439453125
0.1535,4.64453125,-3.4033203125,-2.802734375
0.154,4.484375,-4.404296875,-1.7216796875
0.1545,4.32421875,-5.125,-1.0009765625
0.155,3.763671875,-5.525390625,-0.2001953125
0.1555,2.6826171875,-5.7255859375,1.0810546875
0.156,1.44140625,-6.005859375,2.5224609375
0.1565,0.3203125,-6.1259765625,3.8037109375
0.157,-0.48046875,-6.326171875,4.7646484375
0.1575,-1.201171875,-6.2861328125,5.4853515625
0.158,-2.2822265625,-5.5654296875,6.005859375
0.1585,-3.5634765625,-4.2841796875,6.24609375
0.159,-4.7646484375,-2.8828125,6.326171875
0.1595,-5.4853515625,-1.76171875,6.2060546875
0.16,-5.765625,-1.041015625,6.0859375
0.1605,-5.765625,-0.3603515625,5.60546875
0.161,-5.4853515625,0.8408203125,4.564453125
0.1615,-5.365234375,2.162109375,3.2431640625
0.162,-5.0849609375,3.4833984375,1.9619140625
0.1625,-4.8447265625,4.404296875,1.0810546875
0.163,-4.5244140625,4.96484375,0.2802734375
0.1635,-3.7236328125,5.2451171875,-0.720703125
0.164,-2.4423828125,5.4052734375,-2.1220703125
0.1645,-1.12109375,5.60546875,-3.68359375
0.165,0.0,5.685546875,-4.7646484375
0.1655,0.640625,5.845703125,-5.6455078125
0.166,1.5615234375,5.4453125,-6.2861328125
0.1665,2.8427734375,4.2841796875,-6.56640625
0.167,4.1640625,2.8427734375,-6.7666015625
0.1675,5.1650390625,1.4013671875,-6.646484375
0.168,5.6455078125,0.48046875,-6.486328125
0.1685,5.7255859375,-0.400390625,-6.2060546875
0.169,5.5654296875,-1.3212890625,-5.4453125
0.1695,5.1650390625,-2.642578125,-4.0439453125
0.17,4.96484375,-4.00390625,-2.6025390625
0.1705,4.64453125,-5.0849609375,-1.361328125
0.171,4.404296875,-5.765625,-0.560546875
0.1715,3.763671875,-6.1259765625,0.3603515625
0.172,2.6025390625,-6.2861328125,1.5615234375
0.1725,1.201171875,-6.40625,3.123046875
0.173,-0.2802734375,-6.40625,4.484375
0.1735,-1.041015625,-6.4462890625,5.4052734375
0.174,-1.7216796875,-6.40625,6.0859375
0.1745,-2.7626953125,-5.7255859375,6.56640625
0.175,-4.1240234375,-4.244140625,6.7666015625
0.1755,-5.28515625,-2.802734375,6.7666015625
0.176,-6.0458984375,-1.44140625,6.5263671875
0.1765,-6.326171875,-0.6806640625,6.326171875
0.177,-6.24609375,0.16015625,5.8056640625
0.1775,-5.92578125,1.201171875,4.6845703125
0.178,-5.525390625,2.5625,3.3232421875
0.1785,-5.205078125,3.8837890625,1.8818359375
0.179,-4.8447265625,4.8046875,0.7607421875
0.1795,-4.5244140625,5.4052734375,0.0
0.18,-3.7236328125,5.60546875,-0.9609375
0.1805,-2.4423828125,5.685546875,-2.2822265625
0.181,-1.041015625,5.8056640625,-3.84375
0.1815,0.2802734375,5.765625,-5.0048828125
0.182,0.9609375,5.8857421875,-5.845703125
0.1825,1.681640625,5.60546875,-6.4462890625
0.183,2.8427734375,4.64453125,-6.806640625
0.1835,4.1240234375,3.1630859375,-6.9267578125
0.184,5.2451171875,1.6416015625,-6.88671875
0.1845,5.8056640625,0.48046875,-6.646484375
0.185,6.005859375,-0.3603515625,-6.40625
0.1855,5.8056640625,-1.1611328125,-5.8056640625
0.186,5.4453125,-2.2822265625,-4.484375
0.1865,5.0849609375,-3.6435546875,-3.0830078125
0.187,4.8046875,-4.884765625,-1.681640625
0.1875,4.484375,-5.685546875,-0.720703125
0.188,4.00390625,-6.1259765625,0.1201171875
0.1885,3.123046875,-6.3662109375,1.0810546875
0.189,1.7216796875,-6.40625,2.5224609375
0.1895,0.240234375,-6.4462890625,4.083984375
0.19,-0.8408203125,-6.4462890625,5.0849609375
0.1905,-1.4814453125,-6.56640625,5.8857421875
0.191,-2.322265625,-6.1259765625,6.4462890625
0.1915,-3.603515625,-4.884765625,6.6865234375
0.192,-4.8447265625,-3.443359375,6.806640625
0.1925,-5.8056640625,-2.001953125,6.646484375
0.193,-6.24609375,-1.041015625,6.40625
0.1935,-6.2861328125,-0.3203125,6.0458984375
0.194,-6.0859375,0.640625,5.3251953125
0.1945,-5.685546875,1.921875,3.9638671875
0.195,-5.4052734375,3.3232421875,2.5224609375
0.1955,-5.0849609375,4.404296875,1.28125
0.196,-4.7646484375,5.125,0.4404296875
0.1965,-4.1640625,5.4853515625,-0.5205078125
0.197,-3.0830078125,5.6455078125,-1.6015625
0.1975,-1.681640625,5.8056640625,-3.1630859375
0.198,-0.3203125,5.8056640625,-4.564453125
0.1985,0.6005859375,5.8857421875,-5.4853515625
0.199,1.28125,5.8857421875,-6.2861328125
0.1995,2.2822265625,5.205078125,-6.7666015625
0.2,3.68359375,3.763671875,-6.9267578125
0.2005,4.8447265625,2.2421875,-7.0068359375
0.201,5.6455078125,0.880859375,-6.7666015625
0.2015,6.005859375,0.0,-6.6064453125
0.202,5.9658203125,-0.80078125,-6.1259765625
0.2025,5.6455078125,-1.8818359375,-5.044921875
0.203,5.3251953125,-3.203125,-3.5634765625
0.2035,5.0048828125,-4.64453125,-2.1220703125
0.204,4.6044921875,-5.5654296875,-1.0009765625
0.2045,4.32421875,-6.2060546875,-0.16015625
0.205,3.5234375,-6.4462890625,0.8408203125
0.2055,2.1220703125,-6.5263671875,2.2021484375
0.206,0.6005859375,-6.646484375,3.84375
0.2065,-0.6806640625,-6.56640625,5.0849609375
0.207,-1.4013671875,-6.646484375,5.8857421875
0.2075,-2.2021484375,-6.3662109375,6.5263671875
0.208,-3.4033203125,-5.3251953125,6.88671875
0.2085,-4.7646484375,-3.84375,7.0068359375
0.209,-5.845703125,-2.2822265625,6.88671875
0.2095,-6.40625,-1.12109375,6.56640625
0.21,-6.5263671875,-0.2802734375,6.326171875
0.2105,-6.2861328125,0.640625,5.60546875
0.211,-5.8857421875,1.841796875,4.244140625
0.2115,-5.525390625,3.2431640625,2.72265625
0.212,-5.1650390625,4.484375,1.3212890625
0.2125,-4.7646484375,5.205078125,0.3603515625
0.213,-4.244140625,5.6455078125,-0.5205078125
0.2135,-3.283203125,5.765625,-1.4814453125
0.214,-1.841796875,5.845703125,-2.962890625
0.2145,-0.400390625,5.845703125,-4.4443359375
0.215,0.640625,5.8056640625,-5.4453125
0.2155,1.28125,5.8857421875,-6.2060546875
0.216,2.162109375,5.365234375,-6.7265625
0.2165,3.4033203125,4.0439453125,-6.966796875
0.217,4.6044921875,2.6025390625,-7.0068359375
0.2175,5.4453125,1.1611328125,-6.7666015625
0.218,5.8857421875,0.240234375,-6.56640625
0.2185,5.92578125,-0.6005859375,-6.2060546875
0.219,5.685546875,-1.44140625,-5.4453125
0.2195,5.2451171875,-2.642578125,-4.0439453125
0.22,4.96484375,-4.00390625,-2.6025390625
0.2205,4.564453125,-5.044921875,-1.361328125
0.221,4.32421875,-5.765625,-0.560546875
0.2215,3.763671875,-6.1259765625,0.3203125
0.222,2.72265625,-6.24609375,1.361328125
0.2225,1.361328125,-6.3662109375,2.8427734375
0.223,0.0,-6.3662109375,4.1640625
0.2235,-0.9208984375,-6.40625,5.125
0.224,-1.521484375,-6.486328125,5.8857421875
0.2245,-2.4423828125,-5.92578125,6.3662109375
0.225,-3.7236328125,-4.64453125,6.5263671875
0.2255,-4.884765625,-3.283203125,6.56640625
0.226,-5.685546875,-1.921875,6.40625
0.2265,-6.0859375,-1.12109375,6.3662109375
0.227,-6.0859375,-0.3603515625,5.92578125
0.2275,-5.765625,0.640625,5.044921875
0.228,-5.4853515625,1.8818359375,3.8037109375
