wavelength,x,y,z
0.0,10.2099609375,-20.2998046875,10.5302734375
0.0005,13.9736328125,-19.7392578125,6.40625
0.001,17.296875,-18.6982421875,2.2021484375
0.0015,19.69921875,-16.7763671875,-2.2421875
0.002,20.6201171875,-14.7744140625,-5.0048828125
0.0025,20.98046875,-11.9716796875,-8.1279296875
0.003,20.8203125,-8.6484375,-11.4111328125
0.0035,20.1796875,-4.083984375,-15.294921875
0.004,18.8583984375,-0.16015625,-17.9775390625
0.0045,17.296875,3.36328125,-19.8994140625
0.005,15.0146484375,6.40625,-20.7001953125
0.0055,11.53125,9.5693359375,-20.5
0.006,7.4072265625,13.2529296875,-20.1796875
0.0065,2.6025390625,16.7763671875,-19.05859375
0.007,-2.08203125,19.0185546875,-16.896484375
0.0075,-4.96484375,19.9794921875,-15.2548828125
0.008,-8.0078125,20.419921875,-12.8525390625
0.0085,-11.291015625,20.01953125,-9.369140625
0.009,-15.134765625,19.21875,-4.884765625
0.0095,-18.09765625,17.8173828125,-0.720703125
0.01,-20.2197265625,15.9755859375,3.283203125
0.0105,-20.7802734375,13.7734375,6.0458984375
0.011,-20.8603515625,10.6103515625,9.2890625
0.0115,-20.66015625,6.88671875,12.7724609375
0.012,-19.9794921875,2.642578125,16.3759765625
0.0125,-18.2978515625,-1.4814453125,18.8583984375
0.013,-16.576171875,-4.564453125,20.259765625
0.0135,-14.173828125,-7.5673828125,20.8603515625
0.014,-10.4501953125,-10.7705078125,20.5
0.0145,-5.8056640625,-14.4541015625,19.7392578125
0.015,-1.28125,-17.5771484375,18.4580078125
0.0155,3.123046875,-19.5791015625,16.416015625
0.016,5.8056640625,-20.1796875,14.494140625
0.0165,9.0087890625,-20.419921875,11.69140625
0.017,12.6123046875,-20.01953125,7.9677734375
0.0175,16.1357421875,-19.05859375,3.5234375
0.018,18.818359375,-17.296875,-0.720703125
0.0185,20.4599609375,-15.53515625,-4.083984375
0.019,20.8203125,-13.052734375,-6.9267578125
0.0195,20.740234375,-9.689453125,-10.25
0.02,20.2998046875,-5.6455078125,-13.8935546875
0.0205,19.4990234375,-1.6015625,-17.1767578125
0.021,17.77734375,2.482421875,-19.4189453125
0.0215,15.6953125,5.3251953125,-20.2998046875
0.022,12.97265625,8.48828125,-20.8203125
0.0225,8.8486328125,12.1318359375,-20.3798828125
0.023,4.083984375,15.6552734375,-19.3388671875
0.0235,-0.400390625,18.2578125,-17.7373046875
0.024,-4.1640625,20.0595703125,-16.015625
0.0245,-6.9267578125,20.2998046875,-13.7333984375
0.025,-10.2099609375,20.2998046875,-10.650390625
0.0255,-14.09375,19.69921875,-6.486328125
0.026,-17.376953125,18.498046875,-2.001953125
0.0265,-19.69921875,16.6162109375,2.2021484375
0.027,-20.8203125,14.734375,5.1650390625
0.0275,-21.140625,11.8916015625,8.2880859375
0.028,-20.9404296875,8.1279296875,11.8515625
0.0285,-20.259765625,3.9638671875,15.375
0.029,-19.0986328125,0.0,18.2177734375
0.0295,-17.3369140625,-3.8837890625,20.33984375
0.03,-14.89453125,-6.6064453125,20.66015625
0.0305,-11.8515625,-9.76953125,20.900390625
0.031,-7.287109375,-13.6533203125,20.2998046875
0.0315,-2.4423828125,-16.9765625,18.978515625
0.032,1.921875,-19.05859375,16.9765625
0.0325,5.1650390625,-20.4599609375,15.3349609375
0.033,8.1279296875,-20.580078125,12.7724609375
0.0335,11.53125,-20.2998046875,9.208984375
0.034,15.21484375,-19.5390625,5.044921875
0.0345,18.2578125,-18.017578125,0.6005859375
0.035,20.2998046875,-16.095703125,-3.3232421875
0.0355,20.7802734375,-13.8935546875,-6.0458984375
0.036,21.060546875,-10.970703125,-9.208984375
0.0365,20.6201171875,-6.7666015625,-13.0927734375
0.037,19.859375,-2.802734375,-16.2958984375
0.0375,18.337890625,1.0810546875,-18.578125
0.038,16.65625,4.5244140625,-20.419921875
0.0385,13.8134765625,7.4072265625,-20.5
0.039,10.3701171875,10.6103515625,-20.419921875
0.0395,5.8056640625,14.4140625,-19.779296875
0.04,1.041015625,17.537109375,-18.2578125
0.0405,-2.9228515625,19.2587890625,-16.3759765625
0.041,-5.765625,20.0595703125,-14.6142578125
0.0415,-8.8486328125,20.1796875,-11.8916015625
0.042,-12.5322265625,19.619140625,-7.767578125
0.0425,-15.85546875,18.818359375,-3.8037109375
0.043,-18.5380859375,17.13671875,0.48046875
0.0435,-20.2998046875,15.3349609375,4.0439453125
0.044,-20.5,12.7724609375,6.7265625
0.0445,-20.66015625,9.76953125,9.9296875
0.045,-20.2197265625,5.4853515625,13.8134765625
0.0455,-19.3388671875,1.521484375,16.9365234375
0.046,-17.6572265625,-2.2021484375,18.8984375
0.0465,-15.9755859375,-5.1650390625,20.259765625
0.047,-13.0927734375,-8.2080078125,20.4599609375
0.0475,-8.96875,-11.7314453125,20.01953125
0.048,-4.6845703125,-15.0546875,19.21875
0.0485,0.080078125,-17.8974609375,17.537109375
0.049,3.763671875,-19.5791015625,15.8154296875
0.0495,6.40625,-19.8994140625,13.5732421875
0.05,9.5693359375,-20.099609375,10.970703125
0.0505,13.5732421875,-19.37890625,6.40625
0.051,16.65625,-18.2578125,2.322265625
0.0515,18.8583984375,-16.6162109375,-1.4814453125
0.052,20.2998046875,-14.814453125,-4.64453125
0.0525,20.33984375,-11.9716796875,-7.5673828125
0.053,20.33984375,-8.4482421875,-11.0908203125
0.0535,19.859375,-4.5244140625,-14.5341796875
0.054,18.7783203125,-0.48046875,-17.6171875
0.0545,16.9765625,3.1630859375,-19.37890625
0.055,14.814453125,5.92578125,-20.01953125
0.0555,12.01171875,9.0888671875,-20.4599609375
0.056,7.0068359375,13.1728515625,-19.7392578125
0.0565,2.8427734375,16.17578125,-18.73828125
0.057,-1.4814453125,18.498046875,-17.0166015625
0.0575,-4.884765625,19.9794921875,-15.3349609375
0.058,-7.7275390625,19.8994140625,-12.6923828125
0.0585,-10.970703125,19.9794921875,-9.6494140625
0.059,-14.974609375,19.2587890625,-5.125
0.0595,-17.9775390625,17.697265625,-0.640625
0.06,-19.859375,15.9755859375,3.0029296875
0.0605,-20.7802734375,13.8935546875,5.8857421875
0.061,-20.900390625,10.8505859375,9.0087890625
0.0615,-20.580078125,6.5263671875,13.0927734375
0.062,-19.8994140625,2.802734375,16.17578125
0.0625,-18.5380859375,-1.28125,18.8583984375
0.063,-16.65625,-4.8046875,20.5400390625
0.0635,-13.8134765625,-7.5673828125,20.580078125
0.064,-10.890625,-10.7705078125,20.900390625
0.0645,-5.525390625,-14.9345703125,19.859375
0.065,-0.9208984375,-17.8173828125,18.337890625
0.0655,2.8828125,-19.5791015625,16.576171875
0.066,6.1259765625,-20.66015625,14.734375
0.0665,9.2490234375,-20.4599609375,11.611328125
0.067,12.9326171875,-20.01953125,7.6875
0.0675,16.3759765625,-19.21875,3.603515625
0.068,19.1787109375,-17.376953125,-1.0009765625
0.0685,20.66015625,-15.4951171875,-4.3642578125
0.069,20.9404296875,-12.8525390625,-7.20703125
0.0695,21.1005859375,-9.9697265625,-10.330078125
0.07,20.5,-5.125,-14.6142578125
0.0705,19.4990234375,-1.3212890625,-17.45703125
0.071,17.9375,2.40234375,-19.4990234375
0.0715,15.9755859375,5.7255859375,-20.98046875
0.072,12.5322265625,8.728515625,-20.66015625
0.0725,8.888671875,12.2119140625,-20.5400390625
0.073,4.1240234375,15.935546875,-19.69921875
0.0735,-0.9208984375,18.6181640625,-17.697265625
0.074,-4.1640625,19.9794921875,-15.9755859375
0.0745,-7.126953125,20.6201171875,-13.8134765625
0.075,-10.2900390625,20.5400390625,-10.8505859375
0.0755,-14.4541015625,19.619140625,-5.9658203125
0.076,-17.4970703125,18.5380859375,-1.9619140625
0.0765,-19.859375,16.736328125,2.162109375
0.077,-21.0205078125,14.734375,5.3251953125
0.0775,-20.98046875,11.6513671875,8.2880859375
0.078,-21.140625,8.408203125,11.69140625
0.0785,-20.4599609375,3.8837890625,15.6552734375
0.079,-19.05859375,-0.400390625,18.5380859375
0.0795,-17.296875,-3.7236328125,20.1396484375
0.08,-15.3349609375,-6.806640625,21.1806640625
0.0805,-11.8515625,-9.9296875,20.98046875
0.081,-7.0068359375,-13.93359375,20.2998046875
0.0815,-2.72265625,-17.13671875,19.2587890625
0.082,2.0419921875,-19.4189453125,17.296875
0.0825,5.205078125,-20.5,15.4150390625
0.083,8.2080078125,-20.6201171875,12.732421875
0.0835,11.53125,-20.580078125,9.6494140625
0.084,15.615234375,-19.5791015625,4.724609375
0.0845,18.5380859375,-17.9775390625,0.2802734375
0.085,20.2998046875,-16.255859375,-3.203125
0.0855,21.1806640625,-14.09375,-6.24609375
0.086,20.98046875,-10.7705078125,-9.369140625
0.0865,20.740234375,-6.7666015625,-13.1328125
0.087,20.1396484375,-2.8427734375,-16.5361328125
0.0875,18.5380859375,1.44140625,-19.1787109375
0.088,16.49609375,4.6845703125,-20.419921875
0.0885,13.93359375,7.6875,-20.9404296875
0.089,10.6103515625,10.9306640625,-20.98046875
0.0895,5.0849609375,15.0947265625,-19.8994140625
0.09,0.7607421875,17.9375,-18.4580078125
0.0905,-3.1630859375,19.859375,-16.736328125
0.091,-6.3662109375,20.740234375,-14.7744140625
0.0915,-9.5693359375,20.4599609375,-11.4111328125
0.092,-13.052734375,20.1796875,-7.927734375
0.0925,-16.736328125,19.21875,-3.36328125
0.093,-19.5390625,17.296875,1.361328125
0.0935,-20.8203125,15.4150390625,4.4443359375
0.094,-21.4609375,12.9326171875,7.52734375
0.0945,-21.30078125,9.609375,10.73046875
0.095,-20.7001953125,4.96484375,14.8544921875
0.0955,-19.8193359375,1.0810546875,17.77734375
0.096,-18.177734375,-2.8828125,20.1796875
0.0965,-16.015625,-6.0458984375,21.1806640625
0.097,-12.732421875,-9.208984375,21.140625
0.0975,-9.12890625,-12.6923828125,21.1005859375
0.098,-3.7236328125,-16.6162109375,19.8193359375
0.0985,1.12109375,-19.0986328125,17.77734375
0.099,4.4443359375,-20.5,16.095703125
0.0995,7.607421875,-21.140625,13.853515625
0.1,10.890625,-20.7802734375,10.330078125
0.1005,14.734375,-20.099609375,6.005859375
0.101,18.017578125,-18.8984375,1.7216796875
0.1015,20.4599609375,-16.8564453125,-2.72265625
0.102,21.2607421875,-14.7744140625,-5.6455078125
0.1025,21.5009765625,-11.8115234375,-8.8486328125
0.103,21.3408203125,-8.328125,-12.251953125
0.1035,20.66015625,-3.68359375,-16.17578125
0.104,19.21875,0.48046875,-18.818359375
0.1045,17.4970703125,3.923828125,-20.66015625
0.105,15.0546875,7.046875,-21.4208984375
0.1055,11.3310546875,10.330078125,-21.140625
0.106,6.966796875,14.173828125,-20.66015625
0.1065,2.162109375,17.6171875,-19.4990234375
0.107,-2.6826171875,19.859375,-17.1767578125
0.1075,-5.60546875,20.7802734375,-15.4150390625
0.108,-8.728515625,21.060546875,-12.8125
0.1085,-12.2119140625,20.6201171875,-9.12890625
0.109,-16.015625,19.6591796875,-4.4443359375
0.1095,-18.9384765625,18.09765625,0.0
0.11,-20.98046875,16.1357421875,3.84375
0.1105,-21.5009765625,13.7734375,6.6865234375
0.111,-21.5009765625,10.41015625,10.0498046875
0.1115,-21.140625,6.5263671875,13.693359375
0.112,-20.3798828125,2.2421875,17.2568359375
0.1125,-18.5380859375,-2.001953125,19.6591796875
0.113,-16.6962890625,-5.125,20.9404296875
0.1135,-14.2138671875,-8.2080078125,21.5009765625
0.114,-10.25,-11.53125,21.0205078125
0.1145,-5.3251953125,-15.2548828125,20.0595703125
0.115,-0.720703125,-18.2578125,18.658203125
0.1155,3.6435546875,-20.2197265625,16.65625
0.116,6.3662109375,-20.7802734375,14.5341796875
0.1165,9.6494140625,-20.7802734375,11.5712890625
0.117,13.2529296875,-20.33984375,7.6875
0.1175,16.7763671875,-19.21875,3.1630859375
0.118,19.37890625,-17.376953125,-1.2412109375
0.1185,20.9404296875,-15.5751953125,-4.5244140625
0.119,21.2607421875,-12.97265625,-7.447265625
0.1195,21.140625,-9.4091796875,-10.8505859375
0.12,20.580078125,-5.28515625,-14.494140625
0.1205,19.69921875,-1.28125,-17.6572265625
0.121,17.8974609375,2.7626953125,-19.8994140625
0.1215,15.6552734375,5.60546875,-20.6201171875
0.122,12.892578125,8.8486328125,-21.0205078125
0.1225,8.6083984375,12.5322265625,-20.580078125
0.123,3.8037109375,16.0556640625,-19.458984375
0.1235,-0.7607421875,18.578125,-17.697265625
0.124,-4.404296875,20.259765625,-16.015625
0.1245,-7.20703125,20.5400390625,-13.61328125
0.125,-10.5703125,20.419921875,-10.41015625
0.1255,-14.3740234375,19.859375,-6.24609375
0.126,-17.697265625,18.5380859375,-1.76171875
0.1265,-19.8994140625,16.6162109375,2.40234375
0.127,-21.060546875,14.654296875,5.365234375
0.1275,-21.30078125,11.8115234375,8.5283203125
0.128,-21.140625,7.84765625,12.2119140625
0.1285,-20.419921875,3.7236328125,15.7353515625
0.129,-19.1787109375,-0.3603515625,18.5380859375
0.1295,-17.45703125,-4.1640625,20.6201171875
0.13,-14.89453125,-6.9267578125,20.9404296875
0.1305,-11.8115234375,-10.08984375,21.060546875
0.131,-7.126953125,-13.9736328125,20.4599609375
0.1315,-2.2021484375,-17.2568359375,19.138671875
0.132,2.1220703125,-19.37890625,17.056640625
0.1325,5.365234375,-20.6201171875,15.375
0.133,8.4482421875,-20.8203125,12.65234375
0.1335,11.9716796875,-20.3798828125,8.96875
0.134,15.615234375,-19.6591796875,4.8046875
0.1345,18.658203125,-18.09765625,0.2802734375
0.135,20.740234375,-16.17578125,-3.7236328125
0.1355,21.1005859375,-13.8134765625,-6.3662109375
0.136,21.380859375,-10.8505859375,-9.6494140625
0.1365,20.9404296875,-6.486328125,-13.61328125
0.137,20.1796875,-2.4423828125,-16.9365234375
0.1375,18.498046875,1.4013671875,-19.1787109375
0.138,16.736328125,4.96484375,-20.900390625
0.1385,13.7333984375,7.927734375,-20.98046875
0.139,10.08984375,11.291015625,-20.7802734375
0.1395,5.4853515625,15.0546875,-20.0595703125
0.14,0.48046875,18.1376953125,-18.4580078125
0.1405,-3.4833984375,19.8994140625,-16.416015625
0.141,-6.2861328125,20.5400390625,-14.57421875
0.1415,-9.5693359375,20.7001953125,-11.69140625
0.142,-13.4130859375,19.9794921875,-7.3671875
0.1425,-16.6162109375,19.0185546875,-3.283203125
0.143,-19.2587890625,17.296875,1.041015625
0.1435,-20.9404296875,15.375,4.64453125
0.144,-21.1005859375,12.6123046875,7.447265625
0.1445,-21.1806640625,9.44921875,10.810546875
0.145,-20.66015625,5.044921875,14.6943359375
0.1455,-19.7392578125,0.9208984375,17.857421875
0.146,-17.8974609375,-2.8427734375,19.779296875
0.1465,-15.9755859375,-5.8056640625,20.98046875
0.147,-12.8525390625,-9.0087890625,21.1005859375
0.1475,-8.5283203125,-12.8125,20.5400390625
0.148,-4.1240234375,-16.015625,19.5791015625
0.1485,0.6806640625,-18.6982421875,17.8173828125
0.149,4.404296875,-20.33984375,15.9755859375
0.1495,7.126953125,-20.4599609375,13.5732421875
0.15,10.330078125,-20.6201171875,10.7705078125
0.1505,14.4140625,-19.859375,6.0458984375
0.151,17.537109375,-18.578125,1.76171875
0.1515,19.69921875,-16.6962890625,-2.08203125
0.152,20.98046875,-14.814453125,-5.28515625
0.1525,20.9404296875,-11.8916015625,-8.2080078125
0.153,20.7802734375,-8.0478515625,-12.01171875
0.1535,20.1796875,-4.1640625,-15.3349609375
0.154,19.0185546875,0.1201171875,-18.2978515625
0.1545,17.13671875,3.68359375,-20.01953125
0.155,14.734375,6.4462890625,-20.5
0.1555,11.8115234375,9.609375,-20.8203125
0.156,6.6064453125,13.7734375,-19.939453125
0.1565,2.40234375,16.736328125,-18.818359375
0.157,-1.8017578125,18.8984375,-17.056640625
0.1575,-5.1650390625,20.33984375,-15.3349609375
0.158,-8.0078125,20.099609375,-12.572265625
0.1585,-11.4111328125,20.01953125,-9.2890625
0.159,-15.1748046875,19.298828125,-4.96484375
0.1595,-18.2578125,17.7373046875,-0.400390625
0.16,-19.9794921875,15.935546875,3.1630859375
0.1605,-20.7001953125,13.7734375,6.005859375
0.161,-20.900390625,10.8505859375,9.048828125
0.1615,-20.5400390625,6.326171875,13.1728515625
0.162,-19.8994140625,2.6826171875,16.2158203125
0.1625,-18.5380859375,-1.28125,18.73828125
0.163,-16.576171875,-4.7646484375,20.4599609375
0.1635,-13.61328125,-7.4873046875,20.33984375
0.164,-10.73046875,-10.650390625,20.6201171875
0.1645,-5.525390625,-14.734375,19.6591796875
0.165,-0.80078125,-17.6171875,18.09765625
0.1655,2.8427734375,-19.2587890625,16.3359375
0.166,6.0458984375,-20.259765625,14.5341796875
0.1665,9.0087890625,-20.2197265625,11.53125
0.167,12.6923828125,-19.7392578125,7.4873046875
0.1675,16.0556640625,-18.8984375,3.5634765625
0.168,18.818359375,-17.1767578125,-0.9208984375
0.1685,20.33984375,-15.3349609375,-4.1640625
0.169,20.5400390625,-12.6923828125,-6.966796875
0.1695,20.740234375,-9.9296875,-10.1298828125
0.17,20.2197265625,-5.125,-14.25390625
0.1705,19.21875,-1.2412109375,-17.13671875
0.171,17.6572265625,2.2421875,-19.0986328125
0.1715,15.8154296875,5.525390625,-20.5
0.172,12.3720703125,8.5283203125,-20.2998046875
0.1725,8.5283203125,12.1318359375,-20.099609375
0.173,4.0439453125,15.6552734375,-19.3388671875
0.1735,-0.8408203125,18.3779296875,-17.376953125
0.174,-4.1640625,19.69921875,-15.6953125
0.1745,-6.9267578125,20.1796875,-13.533203125
0.175,-10.1298828125,20.2197265625,-10.73046875
0.1755,-14.3740234375,19.3388671875,-5.765625
0.176,-17.296875,18.177734375,-1.8017578125
0.1765,-19.4990234375,16.49609375,2.08203125
0.177,-20.740234375,14.5341796875,5.205078125
0.1775,-20.66015625,11.4912109375,8.16796875
0.178,-20.8203125,8.16796875,11.611328125
0.1785,-20.259765625,3.84375,15.4150390625
0.179,-18.8583984375,-0.400390625,18.2978515625
0.1795,-17.13671875,-3.7236328125,19.859375
0.18,-15.0546875,-6.6865234375,20.8203125
0.1805,-11.771484375,-9.76953125,20.740234375
0.181,-6.7265625,-13.8134765625,19.9794921875
0.1815,-2.5625,-16.8564453125,19.0185546875
0.182,2.08203125,-19.0986328125,17.056640625
0.1825,5.205078125,-20.2998046875,15.2548828125
0.183,8.248046875,-20.2998046875,12.4521484375
0.1835,11.4912109375,-20.2998046875,9.44921875
0.184,15.4951171875,-19.3388671875,4.6044921875
0.1845,18.3779296875,-17.77734375,0.16015625
0.185,20.0595703125,-16.015625,-3.203125
0.1855,20.900390625,-13.853515625,-6.2060546875
0.186,20.740234375,-10.6103515625,-9.2890625
0.1865,20.3798828125,-6.40625,-13.1328125
0.187,19.8994140625,-2.6025390625,-16.3759765625
0.1875,18.2177734375,1.4013671875,-18.9384765625
0.188,16.2958984375,4.64453125,-20.1796875
0.1885,13.5732421875,7.607421875,-20.5
0.189,10.41015625,10.8505859375,-20.66015625
0.1895,4.96484375,15.0546875,-19.5390625
0.19,0.3603515625,17.7373046875,-18.09765625
0.1905,-3.1630859375,19.4990234375,-16.49609375
0.191,-6.2060546875,20.419921875,-14.57421875
0.1915,-9.369140625,20.1396484375,-11.2509765625
0.192,-12.97265625,19.8193359375,-7.5673828125
0.1925,-16.576171875,18.8583984375,-3.203125
0.193,-19.2587890625,16.9365234375,1.4013671875
0.1935,-20.5,15.0546875,4.32421875
0.194,-21.060546875,12.65234375,7.4072265625
0.1945,-20.7802734375,9.4892578125,10.5302734375
0.195,-20.4599609375,4.724609375,14.6943359375
0.1955,-19.298828125,0.9609375,17.5771484375
0.196,-17.857421875,-2.8828125,19.779296875
0.1965,-15.7353515625,-5.92578125,20.7802734375
0.197,-12.33203125,-9.0087890625,20.6201171875
0.1975,-8.728515625,-12.4521484375,20.580078125
0.198,-3.4833984375,-16.095703125,19.458984375
0.1985,1.0810546875,-18.7783203125,17.376953125
0.199,4.083984375,-20.0595703125,15.8154296875
0.1995,7.447265625,-20.6201171875,13.4931640625
0.2,10.5302734375,-20.259765625,10.169921875
0.2005,14.4541015625,-19.5791015625,5.7255859375
0.201,17.537109375,-18.4580078125,1.5615234375
0.2015,19.8193359375,-16.49609375,-2.5625
0.202,20.6201171875,-14.4140625,-5.3251953125
0.2025,20.98046875,-11.37109375,-8.48828125
0.203,20.7001953125,-8.16796875,-11.771484375
0.2035,19.9794921875,-3.6435546875,-15.615234375
0.204,18.5380859375,0.48046875,-18.2177734375
0.2045,16.9765625,3.68359375,-19.859375
0.205,14.6943359375,6.6865234375,-20.66015625
0.2055,11.130859375,9.76953125,-20.3798828125
0.206,6.88671875,13.7333984375,-19.779296875
0.2065,2.08203125,16.9365234375,-18.73828125
0.207,-2.4423828125,19.05859375,-16.7763671875
0.2075,-5.0849609375,19.9794921875,-14.974609375
0.208,-8.2080078125,20.259765625,-12.4921875
0.2085,-11.53125,19.939453125,-9.0087890625
0.209,-15.294921875,18.978515625,-4.4443359375
0.2095,-18.2578125,17.4169921875,-0.2802734375
0.21,-19.939453125,15.6953125,3.36328125
0.2105,-20.8603515625,13.453125,6.24609375
0.211,-20.66015625,10.2099609375,9.369140625
0.2115,-20.3798828125,6.4462890625,12.97265625
0.212,-19.7392578125,2.40234375,16.4560546875
0.2125,-18.017578125,-1.76171875,18.8583984375
0.213,-16.3359375,-4.6845703125,20.0595703125
0.2135,-13.8134765625,-7.7275390625,20.66015625
0.214,-9.9697265625,-11.130859375,20.33984375
0.2145,-5.1650390625,-14.734375,19.37890625
0.215,-0.6806640625,-17.697265625,18.0576171875
0.2155,3.283203125,-19.6591796875,16.2958984375
0.216,6.0859375,-20.1796875,14.25390625
0.2165,9.369140625,-20.259765625,11.2509765625
0.217,12.97265625,-19.8193359375,7.52734375
0.2175,16.6162109375,-18.73828125,3.04296875
0.218,18.8984375,-17.0166015625,-1.1611328125
0.2185,20.2998046875,-15.1748046875,-4.244140625
0.219,20.7802734375,-12.732421875,-7.3671875
