wavelength,x,y,z
0.0,17.251831054688,0.0750732421875,-16.541137695312
0.0005,16.330932617188,2.9979248046875,-18.583129882812
0.001,14.128784179688,5.8406982421875,-19.343872070312
0.0015,10.204956054688,9.0037841796875,-18.743286132812
0.002,6.3211669921875,12.487182617188,-18.302856445312
0.0025,1.9569091796875,15.810424804688,-17.542114257812
0.003,-2.2471923828125,18.252807617188,-16.020629882812
0.0035,-4.5294189453125,19.333862304688,-15.059692382812
0.004,-7.6524658203125,19.494018554688,-12.296997070312
0.0045,-10.975708007812,18.773315429688,-8.3731689453125
0.005,-14.459106445312,18.052612304688,-4.3692626953125
0.0055,-17.301879882812,16.931518554688,-0.6055908203125
0.006,-19.383911132812,15.650268554688,2.8377685546875
0.0065,-19.824340820312,13.488159179688,5.4002685546875
0.007,-19.343872070312,9.8846435546875,8.5633544921875
0.0075,-18.863403320312,6.1610107421875,11.806518554688
0.008,-18.422973632812,2.2371826171875,15.329956054688
0.0085,-17.061645507812,-1.7667236328125,19.213745117188
0.009,-15.980590820312,-4.3692626953125,19.453979492188
0.0095,-13.338012695312,-7.4122314453125,19.854370117188
0.01,-9.0137939453125,-10.775512695312,19.093627929688
0.0105,-4.6895751953125,-14.258911132812,18.412963867188
0.011,-0.4854736328125,-17.261840820312,17.411987304688
0.0115,3.4383544921875,-19.544067382812,16.050659179688
0.012,5.9207763671875,-20.104614257812,14.369018554688
0.0125,9.2039794921875,-19.864379882812,11.005737304688
0.013,12.767456054688,-19.183715820312,7.0018310546875
0.0135,16.130737304688,-18.302856445312,2.8377685546875
0.014,18.733276367188,-16.821411132812,-1.2061767578125
0.0145,20.334838867188,-15.460083007812,-4.0489501953125
0.015,20.334838867188,-12.577270507812,-6.9317626953125
0.0155,19.574096679688,-8.4532470703125,-10.375122070312
0.016,19.013549804688,-4.6495361328125,-13.538208007812
0.0165,18.292846679688,-0.8057861328125,-16.781372070312
0.017,16.891479492188,3.1180419921875,-17.942504882812
0.0175,15.009643554688,5.6405029296875,-20.024536132812
0.018,11.806518554688,8.8035888671875,-19.984497070312
0.0185,7.2020263671875,12.487182617188,-17.942504882812
0.019,2.8377685546875,15.810424804688,-18.302856445312
0.0195,-1.4464111328125,18.372924804688,-16.861450195312
0.02,-4.6094970703125,20.214721679688,-15.860473632812
0.0205,-7.4122314453125,20.254760742188,-13.297973632812
0.021,-10.695434570312,19.654174804688,-9.5743408203125
0.0215,-14.258911132812,18.973510742188,-5.4903564453125
0.022,-17.421997070312,17.892456054688,-1.3262939453125
0.0225,-19.744262695312,16.210815429688,2.5975341796875
0.023,-20.625122070312,14.529174804688,5.1600341796875
0.0235,-20.424926757812,11.245971679688,8.2030029296875
0.024,-19.624145507812,6.9217529296875,11.766479492188
0.0245,-18.943481445312,3.1580810546875,14.889526367188
0.025,-16.661254882812,-0.7257080078125,17.732299804688
0.0255,-16.741333007812,-4.2091064453125,19.974487304688
0.026,-14.218872070312,-6.8516845703125,20.214721679688
0.0265,-10.615356445312,-9.9747314453125,19.854370117188
0.027,-6.0509033203125,-13.698364257812,19.133666992188
0.0275,-1.4864501953125,-16.941528320312,17.972534179688
0.028,2.5174560546875,-19.103637695312,16.491088867188
0.0285,5.2401123046875,-19.223754882812,16.651245117188
0.029,8.3231201171875,-20.344848632812,12.327026367188
0.0295,11.806518554688,-19.504028320312,8.1629638671875
0.03,15.169799804688,-18.863403320312,4.3192138671875
0.0305,18.132690429688,-17.502075195312,0.1551513671875
0.031,20.174682617188,-16.020629882812,-3.3282470703125
0.0315,20.414916992188,-13.658325195312,-5.9307861328125
0.032,20.054565429688,-8.9737548828125,-9.0137939453125
0.0325,19.333862304688,-5.9307861328125,-12.657348632812
0.033,18.693237304688,-2.1671142578125,-15.860473632812
0.0335,17.331909179688,1.5965576171875,-18.262817382812
0.034,16.210815429688,4.7196044921875,-20.184692382812
0.0345,13.007690429688,7.6424560546875,-19.984497070312
0.035,10.244995117188,11.005737304688,-19.423950195312
0.0355,4.6795654296875,14.529174804688,-18.863403320312
0.036,0.1151123046875,17.612182617188,-17.542114257812
0.0365,-3.5284423828125,19.574096679688,-16.180786132812
0.037,-6.1309814453125,20.334838867188,-14.539184570312
0.0375,-9.3341064453125,20.054565429688,-11.296020507812
0.038,-13.057739257812,19.133666992188,-6.7716064453125
0.0385,-16.220825195312,18.332885742188,-2.9278564453125
0.039,-18.863403320312,16.851440429688,1.1561279296875
0.0395,-20.665161132812,15.490112304688,4.1990966796875
0.04,-20.384887695312,12.487182617188,6.9617919921875
0.0405,-19.944458007812,8.7635498046875,10.204956054688
0.041,-19.303833007812,4.5594482421875,13.808471679688
0.0415,-18.583129882812,0.5955810546875,17.011596679688
0.042,-17.061645507812,-3.0079345703125,20.494995117188
0.0425,-15.660278320312,-5.7706298828125,20.535034179688
0.043,-12.136840820312,-8.9337158203125,20.214721679688
0.0435,-7.4522705078125,-12.577270507812,19.413940429688
0.044,-3.2481689453125,-15.900512695312,18.693237304688
0.0445,2.5574951171875,-18.743286132812,17.251831054688
0.045,4.5194091796875,-19.223754882812,16.050659179688
0.0455,7.3621826171875,-20.585083007812,13.488159179688
0.046,10.605346679688,-20.224731445312,10.084838867188
0.0465,14.569213867188,-19.383911132812,5.4403076171875
0.047,17.652221679688,-18.262817382812,1.3563232421875
0.0475,19.894409179688,-16.701293945312,-2.4473876953125
0.048,21.175659179688,-15.059692382812,-5.3302001953125
0.0485,20.615112304688,-10.255004882812,-8.2930908203125
0.049,19.974487304688,-7.3721923828125,-11.856567382812
0.0495,19.373901367188,-3.4884033203125,-15.259887695312
0.05,18.332885742188,0.7557373046875,-18.302856445312
0.0505,16.771362304688,4.1190185546875,-20.224731445312
0.051,14.369018554688,7.0418701171875,-20.705200195312
0.0515,10.765502929688,11.526245117188,-20.464965820312
0.052,5.5604248046875,14.328979492188,-19.423950195312
0.0525,1.3162841796875,17.331909179688,-18.422973632812
0.053,-2.8878173828125,19.734252929688,-16.861450195312
0.0535,-5.8106689453125,21.255737304688,-15.700317382812
0.054,-9.0137939453125,20.695190429688,-12.216918945312
0.0545,-12.296997070312,20.094604492188,-8.4932861328125
0.055,-16.180786132812,19.253784179688,-4.0089111328125
0.0555,-19.183715820312,17.692260742188,0.5955810546875
0.056,-20.865356445312,16.130737304688,3.7987060546875
0.0565,-21.505981445312,13.808471679688,6.7215576171875
0.057,-20.825317382812,10.084838867188,9.7244873046875
0.0575,-20.064575195312,5.4803466796875,13.528198242188
0.058,-19.303833007812,1.7567138671875,17.932495117188
0.0585,-17.982543945312,-2.4073486328125,19.413940429688
0.059,-16.541137695312,-5.4903564453125,21.095581054688
0.0595,-13.137817382812,-8.4932861328125,20.775268554688
0.06,-9.4942626953125,-11.696411132812,20.454956054688
0.0605,-4.2091064453125,-15.740356445312,19.413940429688
0.061,0.4754638671875,-18.583129882812,19.213745117188
0.0615,3.9188232421875,-20.464965820312,16.531127929688
0.062,6.8817138671875,-21.505981445312,14.849487304688
0.0625,10.204956054688,-20.745239257812,11.005737304688
0.063,13.728393554688,-19.904418945312,6.7215576171875
0.0635,17.131713867188,-19.103637695312,2.6776123046875
0.064,19.894409179688,-17.341918945312,-1.8468017578125
0.0645,21.175659179688,-15.780395507812,-4.5694580078125
0.065,21.095581054688,-12.737426757812,-7.5723876953125
0.0655,21.776245117188,-9.1339111328125,-10.695434570312
0.066,19.734252929688,-4.3692626953125,-14.539184570312
0.0665,18.813354492188,-0.5655517578125,-17.502075195312
0.067,17.411987304688,3.1580810546875,-19.744262695312
0.0675,15.730346679688,6.1610107421875,-21.145629882812
0.068,11.686401367188,9.2840576171875,-20.384887695312
0.0685,7.6024169921875,12.767456054688,-19.864379882812
0.069,2.9979248046875,16.451049804688,-19.143676757812
0.0695,-1.8868408203125,19.253784179688,-17.341918945312
0.07,-4.6895751953125,20.655151367188,-16.180786132812
0.0705,-7.8126220703125,21.135620117188,-13.778442382812
0.071,-11.095825195312,20.454956054688,-9.9747314453125
0.0715,-14.979614257812,19.453979492188,-5.2901611328125
0.072,-18.062622070312,18.412963867188,-0.0050048828125
0.0725,-19.223754882812,16.691284179688,2.8377685546875
0.073,-21.505981445312,14.969604492188,5.5604248046875
0.0735,-21.025512695312,11.286010742188,8.6434326171875
0.074,-20.464965820312,7.5223388671875,11.886596679688
0.0745,-19.824340820312,3.1580810546875,15.730346679688
0.075,-18.543090820312,-1.1661376953125,18.693237304688
0.0755,-17.061645507812,-4.3292236328125,20.454956054688
0.076,-14.979614257812,-7.3721923828125,21.495971679688
0.0765,-10.695434570312,-10.735473632812,20.655151367188
0.077,-5.9307861328125,-14.459106445312,19.814331054688
0.0775,-1.4864501953125,-17.742309570312,18.853393554688
0.078,3.1981201171875,-20.424926757812,17.131713867188
0.0785,5.8807373046875,-21.505981445312,15.770385742188
0.079,9.2840576171875,-21.345825195312,12.447143554688
0.0795,12.687377929688,-20.705200195312,8.6434326171875
0.08,16.611206054688,-19.704223632812,3.7987060546875
0.0805,19.574096679688,-18.222778320312,-0.6055908203125
0.081,21.495971679688,-15.380004882812,-4.0489501953125
0.0815,22.056518554688,-14.298950195312,-7.0518798828125
0.082,21.255737304688,-10.014770507812,-10.455200195312
0.0825,20.535034179688,-5.8507080078125,-13.898559570312
0.083,19.894409179688,-1.7667236328125,-17.381958007812
0.0835,18.252807617188,2.7977294921875,-20.264770507812
0.084,16.611206054688,5.7205810546875,-21.505981445312
0.0845,13.448120117188,9.0037841796875,-21.826293945312
0.085,9.0438232421875,12.607299804688,-21.105590820312
0.0855,3.7987060546875,16.531127929688,-19.944458007812
0.086,-0.7257080078125,19.373901367188,-18.583129882812
0.0865,-4.8096923828125,21.616088867188,-16.981567382812
0.087,-6.4112548828125,22.256713867188,-15.019653320312
0.0875,-11.336059570312,21.616088867188,-10.895629882812
0.088,-14.779418945312,20.815307617188,-6.9317626953125
0.0885,-18.543090820312,19.614135742188,-2.0870361328125
0.089,-21.305786132812,17.612182617188,2.6776123046875
0.0895,-22.627075195312,15.930541992188,5.6004638671875
0.09,-22.827270507812,14.088745117188,8.9237060546875
0.0905,-20.505004882812,8.3231201171875,12.447143554688
0.091,-20.825317382812,5.1199951171875,16.010620117188
0.0915,-19.864379882812,-0.2852783203125,19.133666992188
0.092,-18.182739257812,-4.5694580078125,23.057495117188
0.0925,-16.020629882812,-7.4122314453125,22.536987304688
0.093,-12.056762695312,-10.895629882812,22.096557617188
0.0935,-7.5723876953125,-14.459106445312,21.375854492188
0.094,-2.1671142578125,-18.262817382812,19.974487304688
0.0945,2.5975341796875,-20.825317382812,18.092651367188
0.095,5.8807373046875,-22.466918945312,16.731323242188
0.0955,9.1239013671875,-22.787231445312,14.008666992188
0.096,14.088745117188,-21.706176757812,9.4442138671875
0.0965,16.370971679688,-20.825317382812,5.1600341796875
0.097,19.734252929688,-19.544067382812,0.6756591796875
0.0975,22.256713867188,-17.462036132812,-3.9688720703125
0.098,22.857299804688,-15.299926757812,-6.6514892578125
0.0985,22.617065429688,-11.616333007812,-10.094848632812
0.099,21.696166992188,-7.0919189453125,-13.658325195312
0.0995,20.695190429688,-2.6075439453125,-17.301879882812
0.1,20.494995117188,1.5965576171875,-19.944458007812
0.1005,17.732299804688,5.2801513671875,-22.186645507812
0.101,14.889526367188,8.3631591796875,-22.506958007812
0.1015,10.365112304688,11.926635742188,-21.706176757812
0.102,5.8807373046875,15.530151367188,-20.945434570312
0.1025,0.7957763671875,19.053588867188,-19.624145507812
0.103,-3.9288330078125,21.415893554688,-17.582153320312
0.1035,-6.6514892578125,22.416870117188,-16.100708007812
0.104,-10.134887695312,22.416870117188,-12.857543945312
0.1045,-13.818481445312,21.255737304688,-8.2130126953125
0.105,-17.421997070312,20.214721679688,-3.6485595703125
0.1055,-20.464965820312,18.653198242188,0.7557373046875
0.106,-22.627075195312,16.811401367188,4.7596435546875
0.1065,-22.827270507812,14.128784179688,7.6024169921875
0.107,-22.266723632812,10.084838867188,11.125854492188
0.1075,-21.425903320312,5.7205810546875,14.689331054688
0.108,-19.223754882812,1.3162841796875,18.252807617188
0.1085,-18.743286132812,-3.0880126953125,20.775268554688
0.109,-17.261840820312,-6.1710205078125,22.456909179688
0.1095,-13.978637695312,-9.4542236328125,22.577026367188
0.11,-9.1339111328125,-13.137817382812,21.495971679688
0.1105,-4.4493408203125,-16.701293945312,20.575073242188
0.111,0.5155029296875,-19.904418945312,19.173706054688
0.1115,4.8397216796875,-22.146606445312,17.291870117188
0.112,7.6024169921875,-22.587036132812,15.249877929688
0.1125,11.245971679688,-22.386840820312,11.566284179688
0.113,15.049682617188,-21.305786132812,6.8817138671875
0.1135,18.613159179688,-20.184692382812,2.2772216796875
0.114,21.335815429688,-18.302856445312,-2.2071533203125
0.1145,24.338745117188,-16.621215820312,-5.6104736328125
0.115,22.897338867188,-13.257934570312,-8.7335205078125
0.1155,22.136596679688,-8.7335205078125,-12.497192382812
0.116,21.255737304688,-4.4893798828125,-15.940551757812
0.1165,20.294799804688,1.2762451171875,-19.383911132812
0.117,18.292846679688,4.2791748046875,-21.746215820312
0.1175,16.250854492188,7.2020263671875,-22.707153320312
0.118,12.527221679688,10.725463867188,-22.587036132812
0.1185,7.2420654296875,14.729370117188,-21.465942382812
0.119,2.5174560546875,18.132690429688,-20.344848632812
0.1195,-2.2872314453125,20.935424804688,-18.583129882812
0.12,-6.0509033203125,22.857299804688,-17.061645507812
0.1205,-9.1339111328125,22.697143554688,-12.817504882812
0.121,-12.737426757812,22.056518554688,-10.094848632812
0.1215,-15.380004882812,21.055541992188,-5.3302001953125
0.122,-20.024536132812,19.574096679688,-0.6055908203125
0.1225,-22.346801757812,17.572143554688,3.7987060546875
0.123,-23.427856445312,15.530151367188,6.8016357421875
0.1235,-21.786254882812,11.806518554688,10.164916992188
0.124,-22.066528320312,6.9617919921875,15.369995117188
0.1245,-21.145629882812,2.7576904296875,17.411987304688
0.125,-19.864379882812,-1.6866455078125,21.776245117188
0.1255,-18.062622070312,-5.6505126953125,22.737182617188
0.126,-15.139770507812,-8.6134033203125,22.857299804688
0.1265,-11.255981445312,-12.096801757812,22.536987304688
0.127,-5.8106689453125,-16.180786132812,21.375854492188
0.1275,-0.8858642578125,-19.383911132812,19.854370117188
0.128,3.6385498046875,-21.706176757812,18.012573242188
0.1285,6.8817138671875,-23.267700195312,16.611206054688
0.129,10.285034179688,-22.787231445312,12.887573242188
0.1295,13.928588867188,-21.826293945312,8.4432373046875
0.13,17.732299804688,-20.865356445312,3.9588623046875
0.1305,20.855346679688,-19.183715820312,-0.8458251953125
0.131,22.737182617188,-17.181762695312,-4.6495361328125
0.1315,24.338745117188,-14.579223632812,-7.5723876953125
0.132,22.577026367188,-10.655395507812,-10.975708007812
0.1325,21.576049804688,-5.6905517578125,-15.059692382812
0.133,20.615112304688,-1.6065673828125,-18.222778320312
0.1335,19.053588867188,2.6776123046875,-20.825317382812
0.134,17.452026367188,6.2010498046875,-22.827270507812
0.1345,13.688354492188,9.4041748046875,-22.346801757812
0.135,9.5242919921875,12.927612304688,-20.505004882812
0.1355,4.3992919921875,16.891479492188,-20.865356445312
0.136,-0.6856689453125,19.974487304688,-19.183715820312
0.1365,-4.5694580078125,21.816284179688,-17.421997070312
0.137,-7.5723876953125,22.777221679688,-15.580200195312
0.1375,-11.135864257812,22.176635742188,-11.736450195312
0.138,-14.979614257812,21.015502929688,-6.8917236328125
0.1385,-18.382934570312,20.014526367188,-2.6075439453125
0.139,-21.185668945312,18.212768554688,2.0369873046875
0.1395,-22.787231445312,16.451049804688,5.3201904296875
0.14,-22.466918945312,13.087768554688,8.3231201171875
0.1405,-21.986450195312,9.2039794921875,11.766479492188
0.141,-21.105590820312,4.3992919921875,15.690307617188
0.1415,-19.984497070312,0.1551513671875,18.853393554688
0.142,-18.302856445312,-3.7686767578125,21.095581054688
0.1425,-15.380004882812,-6.9317626953125,22.657104492188
0.143,-12.617309570312,-10.214965820312,22.016479492188
0.1435,-7.8526611328125,-13.978637695312,21.095581054688
0.144,-3.2081298828125,-17.462036132812,20.214721679688
0.1445,1.8367919921875,-20.424926757812,18.412963867188
0.145,5.2000732421875,-22.066528320312,16.891479492188
0.1455,8.2830810546875,-22.266723632812,14.208862304688
0.146,11.726440429688,-21.746215820312,10.525268554688
0.1465,15.810424804688,-20.545043945312,5.4403076171875
0.147,18.893432617188,-19.303833007812,1.2362060546875
0.1475,21.175659179688,-17.542114257812,-2.8477783203125
0.148,22.416870117188,-15.700317382812,-5.8106689453125
0.1485,21.736206054688,-11.896606445312,-7.6925048828125
0.149,21.095581054688,-7.7325439453125,-12.537231445312
0.1495,20.454956054688,-3.4884033203125,-16.140747070312
0.15,20.494995117188,0.8758544921875,-17.942504882812
0.1505,17.532104492188,4.3192138671875,-21.025512695312
0.151,15.209838867188,7.4022216796875,-21.866333007812
0.1515,11.245971679688,10.725463867188,-21.385864257812
0.152,5.9608154296875,14.809448242188,-20.264770507812
0.1525,1.7567138671875,17.852416992188,-19.263793945312
0.153,-2.8878173828125,20.414916992188,-17.582153320312
0.1535,-5.8907470703125,23.057495117188,-16.260864257812
0.154,-9.1339111328125,21.415893554688,-12.777465820312
0.1545,-12.457153320312,20.855346679688,-9.0938720703125
0.155,-16.421020507812,19.854370117188,-4.2891845703125
0.1555,-19.423950195312,18.252807617188,0.2752685546875
0.156,-21.145629882812,16.611206054688,3.5584716796875
0.1565,-21.946411132812,14.369018554688,6.5213623046875
0.157,-21.185668945312,10.525268554688,9.6043701171875
0.1575,-20.464965820312,6.0408935546875,13.448120117188
0.158,-19.864379882812,2.1971435546875,16.691284179688
0.1585,-18.543090820312,-2.0469970703125,19.574096679688
0.159,-16.981567382812,-5.1700439453125,21.255737304688
0.1595,-13.818481445312,-8.2530517578125,21.215698242188
0.16,-10.134887695312,-10.255004882812,20.935424804688
0.1605,-4.6495361328125,-15.700317382812,19.774291992188
0.161,-0.1651611328125,-18.543090820312,18.372924804688
0.1615,3.5184326171875,-20.585083007812,16.931518554688
0.162,6.5213623046875,-21.706176757812,16.651245117188
0.1625,9.8846435546875,-20.905395507812,11.446166992188
0.163,13.408081054688,-20.224731445312,7.3621826171875
0.1635,16.931518554688,-19.383911132812,3.1981201171875
0.164,19.774291992188,-17.662231445312,-1.3663330078125
0.1645,21.015502929688,-16.100708007812,-4.0489501953125
0.165,21.175659179688,-13.217895507812,-7.0919189453125
0.1655,20.575073242188,-9.4942626953125,-8.9737548828125
0.166,19.814331054688,-4.8497314453125,-14.138793945312
0.1665,18.973510742188,-1.0860595703125,-17.101684570312
0.167,17.732299804688,2.6776123046875,-19.584106445312
0.1675,16.090698242188,5.7205810546875,-21.025512695312
0.168,12.166870117188,8.8836669921875,-20.384887695312
0.1685,8.2830810546875,12.286987304688,-20.064575195312
0.169,3.4783935546875,16.090698242188,-17.942504882812
0.1695,-1.3262939453125,18.853393554688,-17.502075195312
0.17,-4.1690673828125,20.414916992188,-16.380981445312
0.1705,-7.2921142578125,21.055541992188,-14.178833007812
0.171,-10.575317382812,20.334838867188,-10.295043945312
0.1715,-14.419067382812,19.413940429688,-5.7706298828125
0.172,-17.462036132812,18.493041992188,-1.9268798828125
0.1725,-19.944458007812,16.771362304688,2.2772216796875
0.173,-20.985473632812,15.129760742188,4.8397216796875
0.1735,-20.545043945312,11.646362304688,7.9227294921875
0.174,-20.144653320312,8.0028076171875,11.165893554688
0.1745,-19.504028320312,3.5584716796875,15.009643554688
0.175,-18.342895507812,-0.4854736328125,17.892456054688
0.1755,-17.061645507812,-3.6085205078125,19.814331054688
0.176,-15.219848632812,-6.6114501953125,20.975463867188
0.1765,-11.055786132812,-9.8946533203125,20.134643554688
0.177,-6.5714111328125,-13.498168945312,19.453979492188
0.1775,-2.2471923828125,-16.861450195312,18.573120117188
0.178,2.3973388671875,-19.423950195312,16.931518554688
