wavelength,x,y,z
0.0,-3.012939453125,2.792724609375,-0.250244140625
0.0005,-3.293212890625,2.432373046875,0.430419921875
0.001,-3.493408203125,1.591552734375,1.431396484375
0.0015,-3.533447265625,1.151123046875,1.951904296875
0.002,-3.493408203125,0.630615234375,2.512451171875
0.0025,-3.453369140625,0.230224609375,2.872802734375
0.003,-2.972900390625,-0.570556640625,3.193115234375
0.0035,-2.492431640625,-1.251220703125,3.353271484375
0.004,-1.891845703125,-2.092041015625,3.673583984375
0.0045,-1.131103515625,-2.652587890625,3.473388671875
0.005,-0.610595703125,-3.333251953125,3.633544921875
0.0055,0.110107421875,-3.533447265625,3.113037109375
0.006,0.710693359375,-3.813720703125,2.832763671875
0.0065,1.591552734375,-3.973876953125,2.192138671875
0.007,2.152099609375,-4.093994140625,1.751708984375
0.0075,2.552490234375,-3.973876953125,1.191162109375
0.008,2.912841796875,-3.893798828125,0.790771484375
0.0085,3.072998046875,-3.253173828125,-0.130126953125
0.009,3.313232421875,-2.852783203125,-0.770751953125
0.0095,3.513427734375,-2.092041015625,-1.851806640625
0.01,3.393310546875,-1.531494140625,-2.252197265625
0.0105,3.513427734375,-0.970947265625,-2.852783203125
0.011,3.193115234375,-0.410400390625,-3.052978515625
0.0115,2.752685546875,0.310302734375,-3.333251953125
0.012,2.112060546875,1.151123046875,-3.533447265625
0.0125,1.511474609375,1.951904296875,-3.773681640625
0.013,0.750732421875,2.432373046875,-3.533447265625
0.0135,0.270263671875,3.032958984375,-3.613525390625
0.014,-0.570556640625,3.113037109375,-2.972900390625
0.0145,-1.131103515625,3.393310546875,-2.652587890625
0.015,-2.052001953125,3.593505859375,-1.971923828125
0.0155,-2.492431640625,3.553466796875,-1.451416015625
0.016,-2.932861328125,3.473388671875,-0.970947265625
0.0165,-3.173095703125,3.072998046875,-0.370361328125
0.017,-3.333251953125,2.432373046875,0.470458984375
0.0175,-3.533447265625,1.831787109375,1.271240234375
0.018,-3.773681640625,1.231201171875,2.192138671875
0.0185,-3.533447265625,0.590576171875,2.592529296875
0.019,-3.653564453125,0.150146484375,3.153076171875
0.0195,-3.052978515625,-0.610595703125,3.273193359375
0.02,-2.612548828125,-1.291259765625,3.553466796875
0.0205,-1.811767578125,-2.212158203125,3.673583984375
0.021,-1.171142578125,-2.852783203125,3.713623046875
0.0215,-0.450439453125,-3.333251953125,3.473388671875
0.022,0.150146484375,-3.773681640625,3.353271484375
0.0225,0.990966796875,-3.813720703125,2.632568359375
0.023,1.591552734375,-4.053955078125,2.272216796875
0.0235,2.392333984375,-4.174072265625,1.591552734375
0.024,2.712646484375,-3.973876953125,0.990966796875
0.0245,3.153076171875,-3.973876953125,0.550537109375
0.025,3.193115234375,-3.333251953125,-0.250244140625
0.0255,3.393310546875,-2.812744140625,-0.970947265625
0.026,3.513427734375,-2.011962890625,-1.771728515625
0.0265,3.593505859375,-1.451416015625,-2.492431640625
0.027,3.273193359375,-0.810791015625,-2.852783203125
0.0275,3.353271484375,-0.410400390625,-3.293212890625
0.028,2.712646484375,0.430419921875,-3.413330078125
0.0285,2.272216796875,1.111083984375,-3.693603515625
0.029,1.471435546875,1.991943359375,-3.813720703125
0.0295,0.790771484375,2.552490234375,-3.693603515625
0.03,0.150146484375,3.072998046875,-3.573486328125
0.0305,-0.490478515625,3.353271484375,-3.213134765625
0.031,-1.291259765625,3.513427734375,-2.612548828125
0.0315,-1.971923828125,3.673583984375,-2.132080078125
0.032,-2.732666015625,3.833740234375,-1.571533203125
0.0325,-3.052978515625,3.473388671875,-0.890869140625
0.033,-3.533447265625,3.473388671875,-0.490478515625
0.0335,-3.533447265625,2.552490234375,0.550537109375
0.034,-3.773681640625,2.112060546875,1.311279296875
0.0345,-3.813720703125,1.231201171875,2.272216796875
0.035,-3.813720703125,0.630615234375,2.872802734375
0.0355,-3.533447265625,0.030029296875,3.273193359375
0.036,-3.413330078125,-0.570556640625,3.593505859375
0.0365,-2.612548828125,-1.531494140625,3.753662109375
0.037,-1.971923828125,-2.252197265625,3.873779296875
0.0375,-1.131103515625,-3.133056640625,3.953857421875
0.038,-0.370361328125,-3.573486328125,3.633544921875
0.0385,0.270263671875,-4.013916015625,3.513427734375
0.039,1.111083984375,-4.134033203125,2.792724609375
0.0395,1.831787109375,-4.254150390625,2.192138671875
0.04,2.512451171875,-4.254150390625,1.551513671875
0.0405,3.072998046875,-4.334228515625,0.990966796875
0.041,3.273193359375,-3.853759765625,0.310302734375
0.0415,3.593505859375,-3.773681640625,-0.250244140625
0.042,3.553466796875,-2.612548828125,-1.211181640625
0.0425,3.713623046875,-2.172119140625,-1.851806640625
0.043,3.673583984375,-1.291259765625,-2.692626953125
0.0435,3.513427734375,-0.730712890625,-3.133056640625
0.044,3.313232421875,-0.130126953125,-3.533447265625
0.0445,2.912841796875,0.470458984375,-3.693603515625
0.045,2.192138671875,1.311279296875,-3.813720703125
0.0455,1.471435546875,2.031982421875,-3.813720703125
0.046,0.790771484375,2.832763671875,-3.933837890625
0.0465,0.030029296875,3.193115234375,-3.533447265625
0.047,-0.490478515625,3.593505859375,-3.533447265625
0.0475,-1.411376953125,3.593505859375,-2.572509765625
0.048,-2.052001953125,3.833740234375,-2.172119140625
0.0485,-2.772705078125,3.713623046875,-1.451416015625
0.049,-3.213134765625,3.673583984375,-0.930908203125
0.0495,-3.493408203125,3.273193359375,-0.330322265625
0.05,-3.693603515625,2.992919921875,0.350341796875
0.0505,-3.733642578125,1.991943359375,1.351318359375
0.051,-3.853759765625,1.471435546875,1.991943359375
0.0515,-3.853759765625,0.670654296875,2.872802734375
0.052,-3.573486328125,0.070068359375,3.193115234375
0.0525,-3.533447265625,-0.490478515625,3.633544921875
0.053,-2.812744140625,-1.251220703125,3.713623046875
0.0535,-2.212158203125,-2.052001953125,3.913818359375
0.054,-1.331298828125,-2.812744140625,3.833740234375
0.0545,-0.690673828125,-3.533447265625,3.873779296875
0.055,0.150146484375,-3.813720703125,3.433349609375
0.0555,0.630615234375,-4.174072265625,3.353271484375
0.056,1.591552734375,-4.214111328125,2.352294921875
0.0565,2.232177734375,-4.414306640625,1.951904296875
0.057,2.912841796875,-4.374267578125,1.191162109375
0.0575,3.313232421875,-4.174072265625,0.630615234375
0.058,3.553466796875,-3.813720703125,0.030029296875
0.0585,3.673583984375,-3.173095703125,-0.770751953125
0.059,3.833740234375,-2.372314453125,-1.731689453125
0.0595,3.793701171875,-1.691650390625,-2.412353515625
0.06,3.833740234375,-0.970947265625,-3.173095703125
0.0605,3.433349609375,-0.330322265625,-3.453369140625
0.061,3.353271484375,0.230224609375,-3.853759765625
0.0615,2.432373046875,1.191162109375,-3.893798828125
0.062,1.831787109375,1.951904296875,-4.093994140625
0.0625,0.910888671875,2.712646484375,-3.893798828125
0.063,0.270263671875,3.313232421875,-3.893798828125
0.0635,-0.570556640625,3.553466796875,-3.453369140625
0.064,-1.131103515625,3.793701171875,-3.052978515625
0.0645,-2.132080078125,3.833740234375,-2.172119140625
0.065,-2.692626953125,3.793701171875,-1.611572265625
0.0655,-3.333251953125,3.793701171875,-0.970947265625
0.066,-3.533447265625,3.393310546875,-0.330322265625
0.0665,-3.813720703125,3.153076171875,0.310302734375
0.067,-3.813720703125,2.232177734375,1.191162109375
0.0675,-3.973876953125,1.511474609375,2.072021484375
0.068,-3.773681640625,0.750732421875,2.712646484375
0.0685,-3.813720703125,0.190185546875,3.313232421875
0.069,-3.373291015625,-0.570556640625,3.553466796875
0.0695,-3.173095703125,-1.010986328125,3.833740234375
0.07,-2.252197265625,-2.011962890625,3.913818359375
0.0705,-1.611572265625,-2.692626953125,3.993896484375
0.071,-0.770751953125,-3.373291015625,3.873779296875
0.0715,-0.090087890625,-3.893798828125,3.713623046875
0.072,0.630615234375,-4.174072265625,3.313232421875
0.0725,1.311279296875,-4.334228515625,2.712646484375
0.073,2.272216796875,-4.534423828125,1.991943359375
0.0735,2.752685546875,-4.414306640625,1.351318359375
0.074,3.393310546875,-4.454345703125,0.790771484375
0.0745,3.553466796875,-3.853759765625,0.110107421875
0.075,3.873779296875,-3.613525390625,-0.490478515625
0.0755,3.833740234375,-2.572509765625,-1.571533203125
0.076,3.993896484375,-1.971923828125,-2.372314453125
0.0765,3.793701171875,-1.131103515625,-3.052978515625
0.077,3.793701171875,-0.570556640625,-3.573486328125
0.0775,3.273193359375,0.230224609375,-3.813720703125
0.078,2.872802734375,0.830810546875,-4.013916015625
0.0785,1.951904296875,1.911865234375,-4.174072265625
0.079,1.231201171875,2.552490234375,-4.093994140625
0.0795,0.390380859375,3.273193359375,-4.013916015625
0.08,-0.370361328125,3.633544921875,-3.653564453125
0.0805,-1.010986328125,3.873779296875,-3.293212890625
0.081,-1.891845703125,3.873779296875,-2.492431640625
0.0815,-2.772705078125,4.033935546875,-1.771728515625
0.082,-3.173095703125,3.713623046875,-1.010986328125
0.0825,-3.733642578125,3.833740234375,-0.530517578125
0.083,-3.773681640625,3.113037109375,0.270263671875
0.0835,-3.973876953125,2.752685546875,0.870849609375
0.084,-3.973876953125,1.591552734375,1.991943359375
0.0845,-3.973876953125,0.990966796875,2.672607421875
0.085,-3.773681640625,0.190185546875,3.233154296875
0.0855,-3.653564453125,-0.330322265625,3.633544921875
0.086,-3.173095703125,-0.970947265625,3.833740234375
0.0865,-2.572509765625,-1.691650390625,3.913818359375
0.087,-1.811767578125,-2.612548828125,4.114013671875
0.0875,-0.970947265625,-3.173095703125,3.833740234375
0.088,-0.290283203125,-3.893798828125,3.873779296875
0.0885,0.510498046875,-4.093994140625,3.353271484375
0.089,1.031005859375,-4.374267578125,3.072998046875
0.0895,1.951904296875,-4.414306640625,2.112060546875
0.09,2.672607421875,-4.494384765625,1.591552734375
0.0905,3.153076171875,-4.174072265625,0.870849609375
0.091,3.553466796875,-4.174072265625,0.390380859375
0.0915,3.633544921875,-3.533447265625,-0.370361328125
0.092,3.793701171875,-3.052978515625,-0.970947265625
0.0925,3.873779296875,-2.052001953125,-2.092041015625
0.093,3.833740234375,-1.451416015625,-2.612548828125
0.0935,3.753662109375,-0.770751953125,-3.293212890625
0.094,3.433349609375,-0.170166015625,-3.573486328125
0.0945,3.113037109375,0.510498046875,-3.853759765625
0.095,2.312255859375,1.311279296875,-3.893798828125
0.0955,1.671630859375,2.192138671875,-4.174072265625
0.096,0.790771484375,2.712646484375,-3.813720703125
0.0965,0.190185546875,3.393310546875,-3.973876953125
0.097,-0.610595703125,3.553466796875,-3.333251953125
0.0975,-1.211181640625,3.753662109375,-3.052978515625
0.098,-2.212158203125,3.913818359375,-2.092041015625
0.0985,-2.812744140625,3.913818359375,-1.531494140625
0.099,-3.333251953125,3.753662109375,-0.890869140625
0.0995,-3.653564453125,3.553466796875,-0.370361328125
0.1,-3.773681640625,2.912841796875,0.430419921875
0.1005,-3.853759765625,2.272216796875,1.231201171875
0.101,-4.053955078125,1.431396484375,2.272216796875
0.1015,-3.813720703125,0.670654296875,2.792724609375
0.102,-3.853759765625,0.150146484375,3.433349609375
0.1025,-3.373291015625,-0.570556640625,3.593505859375
0.103,-3.052978515625,-1.211181640625,3.873779296875
0.1035,-2.172119140625,-2.132080078125,3.953857421875
0.104,-1.451416015625,-2.892822265625,4.033935546875
0.1045,-0.610595703125,-3.533447265625,3.713623046875
0.105,0.030029296875,-4.053955078125,3.713623046875
0.1055,0.790771484375,-4.134033203125,3.072998046875
0.106,1.391357421875,-4.294189453125,2.632568359375
0.1065,2.432373046875,-4.454345703125,1.791748046875
0.107,2.832763671875,-4.214111328125,1.191162109375
0.1075,3.393310546875,-4.214111328125,0.630615234375
0.108,3.473388671875,-3.733642578125,0.030029296875
0.1085,3.673583984375,-3.213134765625,-0.650634765625
0.109,3.673583984375,-2.412353515625,-1.531494140625
0.1095,3.833740234375,-1.731689453125,-2.412353515625
0.11,3.513427734375,-0.970947265625,-2.852783203125
0.1105,3.673583984375,-0.610595703125,-3.373291015625
0.111,3.072998046875,0.150146484375,-3.533447265625
0.1115,2.712646484375,0.750732421875,-3.773681640625
0.112,1.911865234375,1.751708984375,-3.933837890625
0.1125,1.231201171875,2.312255859375,-3.893798828125
0.113,0.470458984375,2.912841796875,-3.773681640625
0.1135,-0.170166015625,3.273193359375,-3.613525390625
0.114,-0.850830078125,3.513427734375,-3.093017578125
0.1145,-1.531494140625,3.673583984375,-2.532470703125
0.115,-2.412353515625,3.913818359375,-1.931884765625
0.1155,-2.852783203125,3.593505859375,-1.251220703125
0.116,-3.413330078125,3.793701171875,-0.810791015625
0.1165,-3.493408203125,3.113037109375,0.030029296875
0.117,-3.693603515625,2.712646484375,0.630615234375
0.1175,-3.773681640625,1.791748046875,1.631591796875
0.118,-3.933837890625,1.191162109375,2.392333984375
0.1185,-3.653564453125,0.430419921875,2.912841796875
0.119,-3.733642578125,0.030029296875,3.353271484375
0.1195,-3.133056640625,-0.770751953125,3.553466796875
0.12,-2.652587890625,-1.451416015625,3.713623046875
0.1205,-1.851806640625,-2.492431640625,3.953857421875
0.121,-1.091064453125,-3.052978515625,3.713623046875
0.1215,-0.450439453125,-3.733642578125,3.753662109375
0.122,0.310302734375,-3.853759765625,3.273193359375
0.1225,0.950927734375,-4.053955078125,2.872802734375
0.123,1.791748046875,-4.174072265625,2.192138671875
0.1235,2.512451171875,-4.334228515625,1.591552734375
0.124,2.832763671875,-3.973876953125,0.990966796875
0.1245,3.273193359375,-4.093994140625,0.630615234375
0.125,3.273193359375,-3.293212890625,-0.250244140625
0.1255,3.513427734375,-2.892822265625,-0.850830078125
0.126,3.593505859375,-2.011962890625,-1.891845703125
0.1265,3.553466796875,-1.451416015625,-2.412353515625
0.127,3.473388671875,-0.850830078125,-2.932861328125
0.1275,3.353271484375,-0.410400390625,-3.213134765625
0.128,2.872802734375,0.310302734375,-3.453369140625
0.1285,2.272216796875,0.990966796875,-3.653564453125
0.129,1.631591796875,1.871826171875,-3.853759765625
0.1295,0.830810546875,2.352294921875,-3.613525390625
0.13,0.350341796875,3.072998046875,-3.773681640625
0.1305,-0.370361328125,3.193115234375,-3.173095703125
0.131,-0.970947265625,3.473388671875,-2.892822265625
0.1315,-1.891845703125,3.633544921875,-2.172119140625
0.132,-2.412353515625,3.713623046875,-1.691650390625
0.1325,-2.852783203125,3.513427734375,-1.131103515625
0.133,-3.213134765625,3.433349609375,-0.650634765625
0.1335,-3.333251953125,2.752685546875,0.190185546875
0.134,-3.533447265625,2.272216796875,0.910888671875
0.1345,-3.773681640625,1.511474609375,1.951904296875
0.135,-3.573486328125,0.910888671875,2.352294921875
0.1355,-3.733642578125,0.390380859375,3.032958984375
0.136,-3.333251953125,-0.250244140625,3.193115234375
0.1365,-2.932861328125,-0.970947265625,3.513427734375
0.137,-2.212158203125,-1.811767578125,3.633544921875
0.1375,-1.611572265625,-2.612548828125,3.793701171875
0.138,-0.810791015625,-3.052978515625,3.553466796875
0.1385,-0.330322265625,-3.653564453125,3.633544921875
0.139,0.510498046875,-3.733642578125,2.952880859375
0.1395,1.111083984375,-3.973876953125,2.632568359375
0.14,1.991943359375,-4.174072265625,1.951904296875
0.1405,2.432373046875,-4.093994140625,1.431396484375
0.141,2.912841796875,-4.053955078125,0.910888671875
0.1415,3.072998046875,-3.693603515625,0.350341796875
0.142,3.273193359375,-3.133056640625,-0.450439453125
0.1425,3.393310546875,-2.452392578125,-1.251220703125
0.143,3.633544921875,-1.851806640625,-2.092041015625
0.1435,3.353271484375,-1.211181640625,-2.492431640625
0.144,3.553466796875,-0.810791015625,-3.052978515625
0.1445,2.952880859375,-0.170166015625,-3.213134765625
0.145,2.592529296875,0.510498046875,-3.533447265625
0.1455,1.871826171875,1.431396484375,-3.693603515625
0.146,1.271240234375,2.072021484375,-3.693603515625
0.1465,0.590576171875,2.632568359375,-3.573486328125
0.147,0.070068359375,3.072998046875,-3.453369140625
0.1475,-0.690673828125,3.193115234375,-2.852783203125
0.148,-1.331298828125,3.433349609375,-2.492431640625
0.1485,-2.172119140625,3.633544921875,-1.931884765625
0.149,-2.492431640625,3.393310546875,-1.331298828125
0.1495,-3.012939453125,3.513427734375,-0.970947265625
0.15,-3.052978515625,2.872802734375,-0.250244140625
0.1505,-3.333251953125,2.512451171875,0.470458984375
0.151,-3.493408203125,1.671630859375,1.431396484375
0.1515,-3.653564453125,1.271240234375,2.031982421875
0.152,-3.453369140625,0.630615234375,2.552490234375
0.1525,-3.573486328125,0.230224609375,2.952880859375
0.153,-2.972900390625,-0.610595703125,3.193115234375
0.1535,-2.532470703125,-1.251220703125,3.393310546875
0.154,-1.851806640625,-2.172119140625,3.673583984375
0.1545,-1.211181640625,-2.692626953125,3.513427734375
0.155,-0.610595703125,-3.333251953125,3.593505859375
0.1555,0.070068359375,-3.533447265625,3.193115234375
0.156,0.750732421875,-3.773681640625,2.832763671875
0.1565,1.511474609375,-3.973876953125,2.272216796875
0.157,2.192138671875,-4.174072265625,1.791748046875
0.1575,2.552490234375,-3.933837890625,1.191162109375
0.158,3.032958984375,-4.013916015625,0.790771484375
0.1585,3.072998046875,-3.213134765625,-0.090087890625
0.159,3.353271484375,-2.852783203125,-0.770751953125
0.1595,3.513427734375,-2.052001953125,-1.771728515625
0.16,3.513427734375,-1.571533203125,-2.252197265625
0.1605,3.473388671875,-0.970947265625,-2.852783203125
0.161,3.273193359375,-0.570556640625,-3.173095703125
0.1615,2.752685546875,0.310302734375,-3.373291015625
0.162,2.192138671875,1.111083984375,-3.573486328125
0.1625,1.551513671875,1.951904296875,-3.813720703125
0.163,0.750732421875,2.472412109375,-3.533447265625
0.1635,0.270263671875,3.072998046875,-3.693603515625
0.164,-0.570556640625,3.153076171875,-3.012939453125
0.1645,-1.131103515625,3.393310546875,-2.652587890625
0.165,-1.931884765625,3.513427734375,-2.011962890625
0.1655,-2.492431640625,3.553466796875,-1.531494140625
0.166,-2.812744140625,3.353271484375,-0.970947265625
0.1665,-3.173095703125,3.193115234375,-0.490478515625
0.167,-3.173095703125,2.432373046875,0.430419921875
0.1675,-3.453369140625,1.951904296875,1.151123046875
0.168,-3.613525390625,1.271240234375,1.991943359375
0.1685,-3.453369140625,0.630615234375,2.432373046875
0.169,-3.533447265625,0.190185546875,2.952880859375
0.1695,-3.052978515625,-0.490478515625,3.113037109375
0.17,-2.612548828125,-1.131103515625,3.393310546875
0.1705,-1.931884765625,-1.931884765625,3.513427734375
0.171,-1.371337890625,-2.612548828125,3.673583984375
0.1715,-0.610595703125,-3.133056640625,3.393310546875
0.172,-0.170166015625,-3.613525390625,3.473388671875
0.1725,0.670654296875,-3.693603515625,2.752685546875
0.173,1.271240234375,-3.973876953125,2.472412109375
0.1735,2.072021484375,-4.093994140625,1.791748046875
0.174,2.512451171875,-4.013916015625,1.311279296875
0.1745,2.912841796875,-3.933837890625,0.790771484375
0.175,3.072998046875,-3.533447265625,0.190185546875
0.1755,3.233154296875,-2.892822265625,-0.610595703125
0.176,3.473388671875,-2.292236328125,-1.451416015625
0.1765,3.593505859375,-1.731689453125,-2.212158203125
0.177,3.353271484375,-1.131103515625,-2.612548828125
0.1775,3.473388671875,-0.690673828125,-3.173095703125
0.178,2.832763671875,0.150146484375,-3.293212890625
0.1785,2.432373046875,0.870849609375,-3.613525390625
0.179,1.631591796875,1.751708984375,-3.693603515625
0.1795,0.990966796875,2.392333984375,-3.733642578125
0.18,0.310302734375,2.872802734375,-3.533447265625
0.1805,-0.250244140625,3.193115234375,-3.333251953125
0.181,-1.131103515625,3.313232421875,-2.652587890625
0.1815,-1.731689453125,3.553466796875,-2.252197265625
0.182,-2.492431640625,3.673583984375,-1.611572265625
0.1825,-2.812744140625,3.433349609375,-1.091064453125
0.183,-3.253173828125,3.393310546875,-0.610595703125
0.1835,-3.333251953125,2.632568359375,0.310302734375
0.184,-3.533447265625,2.112060546875,1.031005859375
0.1845,-3.613525390625,1.351318359375,1.911865234375
0.185,-3.733642578125,0.790771484375,2.592529296875
0.1855,-3.493408203125,0.150146484375,2.952880859375
0.186,-3.453369140625,-0.290283203125,3.393310546875
0.1865,-2.652587890625,-1.211181640625,3.513427734375
0.187,-2.132080078125,-1.931884765625,3.713623046875
0.1875,-1.291259765625,-2.812744140625,3.793701171875
0.188,-0.610595703125,-3.333251953125,3.593505859375
