wavelength,x,y,z
0.0,-17.6572265625,18.2177734375,-1.4814453125
0.0005,-20.2998046875,16.576171875,2.8427734375
0.001,-21.0205078125,14.7744140625,5.205078125
0.0015,-21.0205078125,11.8515625,8.16796875
0.002,-20.580078125,8.087890625,11.53125
0.0025,-19.619140625,3.3232421875,15.375
0.003,-18.3779296875,-0.880859375,18.2978515625
0.0035,-17.216796875,-4.0439453125,20.2998046875
0.004,-15.1748046875,-6.7265625,20.98046875
0.0045,-11.5712890625,-9.6494140625,20.4599609375
0.005,-6.806640625,-13.61328125,19.779296875
0.0055,-1.6416015625,-17.1767578125,18.41796875
0.006,2.8828125,-19.7392578125,16.6962890625
0.0065,5.3251953125,-20.6201171875,15.375
0.007,8.2080078125,-20.8203125,12.892578125
0.0075,11.5712890625,-20.33984375,9.0087890625
0.008,15.375,-19.0986328125,4.32421875
0.0085,18.5380859375,-17.8974609375,0.0
0.009,20.7802734375,-16.416015625,-3.6435546875
0.0095,21.1005859375,-14.2138671875,-6.0859375
0.01,20.7802734375,-10.890625,-9.048828125
0.0105,20.2197265625,-6.6865234375,-12.7724609375
0.011,19.3388671875,-2.2822265625,-16.3359375
0.0115,17.9775390625,1.841796875,-19.138671875
0.012,16.576171875,4.5244140625,-20.3798828125
0.0125,14.09375,7.4072265625,-20.8603515625
0.013,9.9296875,10.810546875,-20.1796875
0.0135,4.9248046875,14.654296875,-19.138671875
0.014,0.1201171875,17.8974609375,-17.8173828125
0.0145,-3.8837890625,20.099609375,-16.3359375
0.015,-6.2861328125,20.5,-14.6142578125
0.0155,-9.12890625,20.4599609375,-11.5712890625
0.016,-12.97265625,19.8193359375,-7.5673828125
0.0165,-16.5361328125,18.578125,-2.8828125
0.017,-19.37890625,17.13671875,1.361328125
0.0175,-21.0205078125,15.6953125,4.3642578125
0.018,-21.140625,13.1328125,7.046875
0.0185,-20.740234375,9.44921875,10.330078125
0.019,-19.9794921875,4.96484375,14.0537109375
0.0195,-19.0185546875,0.6806640625,17.4169921875
0.02,-17.6572265625,-3.203125,19.939453125
0.0205,-15.8955078125,-5.6455078125,20.6201171875
0.021,-13.0927734375,-8.6083984375,20.8603515625
0.0215,-8.328125,-12.412109375,20.099609375
0.022,-3.203125,-15.9755859375,18.6982421875
0.0225,1.3212890625,-18.73828125,17.216796875
0.023,4.724609375,-20.5400390625,15.8955078125
0.0235,7.3271484375,-20.580078125,13.6533203125
0.024,10.3701171875,-20.2998046875,10.3701171875
0.0245,14.2138671875,-19.5791015625,5.92578125
0.025,17.6171875,-18.2578125,1.28125
0.0255,20.1396484375,-16.65625,-2.72265625
0.026,20.98046875,-14.974609375,-5.205078125
0.0265,20.98046875,-12.1318359375,-8.0478515625
0.027,20.419921875,-7.84765625,-11.771484375
0.0275,19.458984375,-3.5634765625,-15.0947265625
0.028,18.3779296875,0.48046875,-18.09765625
0.0285,17.0966796875,3.923828125,-20.259765625
0.029,14.6943359375,6.4462890625,-20.3798828125
0.0295,11.53125,9.4091796875,-20.33984375
0.03,6.486328125,13.453125,-19.4990234375
0.0305,1.44140625,16.7763671875,-17.9775390625
0.031,-2.6025390625,19.0986328125,-16.49609375
0.0315,-5.3251953125,20.2998046875,-15.21484375
0.032,-8.0078125,20.2197265625,-12.65234375
0.0325,-11.37109375,19.4990234375,-8.9287109375
0.033,-14.89453125,18.658203125,-4.64453125
0.0335,-18.0576171875,17.3369140625,-0.2001953125
0.034,-20.1796875,15.85546875,3.4033203125
0.0345,-20.4599609375,13.7734375,5.7255859375
0.035,-20.3798828125,10.8505859375,8.568359375
0.0355,-19.7392578125,6.3662109375,12.4921875
0.036,-18.818359375,2.2021484375,15.7353515625
0.0365,-17.6572265625,-1.521484375,18.2578125
0.037,-16.5361328125,-4.404296875,20.01953125
0.0375,-13.93359375,-6.966796875,20.0595703125
0.038,-10.1298828125,-10.169921875,19.5390625
0.0385,-5.4052734375,-13.8134765625,18.6982421875
0.039,-0.5205078125,-17.13671875,17.2568359375
0.0395,3.1630859375,-19.0986328125,15.8955078125
0.04,5.4052734375,-19.69921875,14.3740234375
0.0405,8.2880859375,-19.8193359375,11.8115234375
0.041,12.0517578125,-19.0185546875,7.4072265625
0.0415,15.294921875,-17.9775390625,3.36328125
0.042,18.0576171875,-16.7763671875,-0.6005859375
0.0425,19.859375,-15.455078125,-3.603515625
0.043,19.8193359375,-12.97265625,-6.0458984375
0.0435,19.6591796875,-9.76953125,-9.0888671875
0.044,19.05859375,-5.4853515625,-12.8125
0.0445,18.177734375,-1.4013671875,-16.095703125
0.045,16.9765625,2.0419921875,-18.2978515625
0.0455,15.53515625,4.564453125,-19.37890625
0.046,12.8525390625,7.3671875,-19.5791015625
0.0465,8.16796875,11.1708984375,-18.8583984375
0.047,3.84375,14.4140625,-17.9375
0.0475,-0.640625,17.376953125,-16.6162109375
0.048,-3.8837890625,19.138671875,-15.4150390625
0.0485,-6.166015625,19.21875,-13.373046875
0.049,-9.048828125,19.21875,-10.7705078125
0.0495,-13.1328125,18.498046875,-6.1259765625
0.05,-16.2958984375,17.296875,-1.841796875
0.0505,-18.6181640625,16.1357421875,1.6416015625
0.051,-20.01953125,14.6943359375,4.32421875
0.0515,-19.8193359375,11.931640625,6.88671875
0.052,-19.4990234375,8.0078125,10.5302734375
0.0525,-18.7783203125,4.00390625,13.8935546875
0.053,-17.8974609375,0.0,17.0966796875
0.0535,-16.65625,-3.3232421875,19.0986328125
0.054,-14.6943359375,-5.6455078125,19.4990234375
0.0545,-11.9716796875,-8.48828125,19.7392578125
0.055,-6.646484375,-12.7724609375,18.73828125
0.0555,-2.0419921875,-15.85546875,17.4169921875
0.056,1.841796875,-18.2578125,16.2958984375
0.0565,4.7646484375,-19.8193359375,15.0546875
0.057,7.287109375,-19.5791015625,12.4921875
0.0575,10.5302734375,-19.2587890625,9.12890625
0.058,14.3740234375,-18.5380859375,4.8046875
0.0585,17.5771484375,-17.1767578125,0.3203125
0.059,19.4990234375,-15.9755859375,-2.8828125
0.0595,20.099609375,-13.9736328125,-5.365234375
0.06,20.01953125,-11.1708984375,-8.1279296875
0.0605,19.4189453125,-6.40625,-12.251953125
0.061,18.578125,-2.5625,-15.294921875
0.0615,17.6171875,1.1611328125,-18.017578125
0.062,16.3359375,4.2041015625,-19.859375
0.0625,13.4931640625,6.7666015625,-19.619140625
0.063,10.2099609375,9.9296875,-19.5791015625
0.0635,4.96484375,14.0537109375,-18.578125
0.064,0.0,17.13671875,-17.0166015625
0.0645,-3.203125,18.9384765625,-15.85546875
0.065,-5.8857421875,19.939453125,-14.3740234375
0.0655,-8.6884765625,19.69921875,-11.53125
0.066,-12.4521484375,19.0185546875,-7.2470703125
0.0665,-15.7353515625,18.09765625,-3.203125
0.067,-18.658203125,16.736328125,1.0810546875
0.0675,-20.2197265625,15.3349609375,3.9638671875
0.068,-20.2197265625,12.7724609375,6.5263671875
0.0685,-20.1796875,9.7294921875,9.4892578125
0.069,-19.37890625,4.8046875,13.693359375
0.0695,-18.337890625,0.6806640625,16.7763671875
0.07,-17.2568359375,-2.6025390625,18.8984375
0.0705,-15.8955078125,-5.4052734375,20.3798828125
0.071,-12.6123046875,-8.1279296875,19.939453125
0.0715,-8.328125,-11.771484375,19.37890625
0.072,-3.5634765625,-15.455078125,18.2978515625
0.0725,1.28125,-18.3779296875,16.7763671875
0.073,4.244140625,-19.8193359375,15.4951171875
0.0735,6.8466796875,-20.099609375,13.453125
0.074,9.7294921875,-20.01953125,10.73046875
0.0745,13.9736328125,-18.978515625,5.60546875
0.075,17.13671875,-17.8974609375,1.361328125
0.0755,19.5390625,-16.5361328125,-2.2822265625
0.076,20.740234375,-14.974609375,-4.96484375
0.0765,20.33984375,-11.8916015625,-7.6474609375
0.077,20.1396484375,-8.2080078125,-11.0908203125
0.0775,19.37890625,-3.8037109375,-14.89453125
0.078,18.2177734375,0.6005859375,-17.9775390625
0.0785,16.81640625,3.603515625,-19.619140625
0.079,14.8544921875,6.326171875,-20.5
0.0795,11.5712890625,9.2490234375,-20.2998046875
0.08,6.1259765625,13.4931640625,-19.2587890625
0.0805,1.5615234375,16.6962890625,-18.0576171875
0.081,-2.642578125,19.298828125,-16.65625
0.0815,-5.4853515625,20.4599609375,-15.21484375
0.082,-8.2080078125,20.1796875,-12.4521484375
0.0825,-11.4111328125,19.9794921875,-9.2490234375
0.083,-15.4150390625,18.8984375,-4.244140625
0.0835,-18.6982421875,17.3369140625,0.560546875
0.084,-20.4599609375,15.9755859375,3.5234375
0.0845,-21.140625,14.013671875,6.2060546875
0.085,-20.7001953125,10.73046875,9.0087890625
0.0855,-20.099609375,6.0859375,13.052734375
0.086,-19.2587890625,1.9619140625,16.3359375
0.0865,-18.09765625,-2.1220703125,19.3388671875
0.087,-16.49609375,-5.0048828125,20.6201171875
0.0875,-13.8134765625,-7.6474609375,20.66015625
0.088,-10.330078125,-10.810546875,20.5400390625
0.0885,-4.5244140625,-15.1748046875,19.0986328125
0.089,0.3603515625,-18.177734375,17.4970703125
0.0895,3.8037109375,-20.0595703125,16.255859375
0.09,6.5263671875,-20.900390625,14.57421875
0.0905,9.529296875,-20.3798828125,11.2509765625
0.091,13.1728515625,-19.8193359375,7.287109375
0.0915,16.7763671875,-18.73828125,2.6826171875
0.092,19.779296875,-17.0966796875,-1.921875
0.0925,20.9404296875,-15.615234375,-4.5244140625
0.093,21.1806640625,-13.052734375,-7.3271484375
0.0935,20.7802734375,-9.6494140625,-10.330078125
0.094,19.859375,-4.64453125,-14.494140625
0.0945,18.818359375,-0.5205078125,-17.4970703125
0.095,17.6572265625,3.04296875,-19.8994140625
0.0955,15.8154296875,5.8857421875,-20.98046875
0.096,12.33203125,8.80859375,-20.4599609375
0.0965,8.2080078125,12.4521484375,-20.1796875
0.097,2.8427734375,16.416015625,-18.8583984375
0.0975,-2.162109375,19.21875,-17.0166015625
0.098,-4.884765625,20.4599609375,-15.775390625
0.0985,-7.6875,20.98046875,-13.7333984375
0.099,-10.7705078125,20.33984375,-10.25
0.0995,-14.734375,19.37890625,-5.4453125
0.1,-18.017578125,18.177734375,-1.041015625
0.1005,-20.580078125,16.576171875,3.123046875
0.101,-21.30078125,14.7744140625,5.5654296875
0.1015,-21.140625,11.6513671875,8.4482421875
0.102,-20.740234375,7.927734375,11.8115234375
0.1025,-19.779296875,3.04296875,15.7353515625
0.103,-18.3779296875,-1.28125,18.6982421875
0.1035,-17.0966796875,-4.244140625,20.4599609375
0.104,-15.134765625,-7.0869140625,21.2607421875
0.1045,-11.291015625,-10.0498046875,20.5
0.105,-6.2861328125,-13.93359375,19.69921875
0.1055,-1.44140625,-17.4169921875,18.3779296875
0.106,3.1630859375,-19.8994140625,16.6162109375
0.1065,5.6455078125,-20.7001953125,15.1748046875
0.107,8.568359375,-20.8203125,12.5322265625
0.1075,11.8916015625,-20.33984375,8.9287109375
0.108,15.775390625,-19.0986328125,3.9638671875
0.1085,18.8583984375,-17.6572265625,-0.5205078125
0.109,20.8603515625,-16.255859375,-3.84375
0.1095,21.30078125,-14.09375,-6.40625
0.11,20.8203125,-10.650390625,-9.4091796875
0.1105,20.2197265625,-6.486328125,-13.1328125
0.111,19.37890625,-2.001953125,-16.6162109375
0.1115,17.9375,2.2421875,-19.37890625
0.112,16.3359375,4.8447265625,-20.5
0.1125,13.8935546875,7.6875,-20.98046875
0.113,9.7294921875,11.1708984375,-20.259765625
0.1135,4.4443359375,15.0546875,-19.0986328125
0.114,-0.3203125,18.177734375,-17.6572265625
0.1145,-4.1640625,20.259765625,-16.2158203125
0.115,-6.646484375,20.740234375,-14.4541015625
0.1155,-9.689453125,20.4599609375,-11.3310546875
0.116,-13.3330078125,19.8994140625,-7.3271484375
0.1165,-16.9765625,18.6181640625,-2.5625
0.117,-19.8193359375,17.0166015625,1.921875
0.1175,-21.140625,15.5751953125,4.64453125
0.118,-21.4208984375,12.97265625,7.4873046875
0.1185,-20.900390625,9.208984375,10.7705078125
0.119,-20.0595703125,4.564453125,14.57421875
0.1195,-19.0986328125,0.2802734375,17.857421875
0.12,-17.697265625,-3.68359375,20.3798828125
0.1205,-15.775390625,-6.166015625,21.060546875
0.121,-12.892578125,-9.208984375,21.140625
0.1215,-8.16796875,-12.97265625,20.4599609375
0.122,-2.7626953125,-16.65625,18.9384765625
0.1225,1.921875,-19.37890625,17.3369140625
0.123,5.0849609375,-21.060546875,16.015625
0.1235,7.8076171875,-21.2607421875,13.7333984375
0.124,11.05078125,-20.740234375,10.169921875
0.1245,14.974609375,-19.939453125,5.6455078125
0.125,18.41796875,-18.578125,0.9208984375
0.1255,20.98046875,-16.9365234375,-3.283203125
0.126,21.701171875,-15.0947265625,-5.765625
0.1265,21.701171875,-12.0517578125,-8.8486328125
0.127,21.1005859375,-7.6875,-12.6123046875
0.1275,20.0595703125,-3.123046875,-16.17578125
0.128,18.818359375,1.12109375,-19.0986328125
0.1285,17.4169921875,4.6044921875,-21.30078125
0.129,14.8544921875,7.287109375,-21.5009765625
0.1295,11.2509765625,10.490234375,-21.140625
0.13,6.0859375,14.5341796875,-20.33984375
0.1305,0.8408203125,18.09765625,-18.73828125
0.131,-3.5234375,20.419921875,-16.9765625
0.1315,-6.24609375,21.4609375,-15.5751953125
0.132,-9.2490234375,21.4609375,-12.8125
0.1325,-12.8525390625,20.66015625,-8.568359375
0.133,-16.49609375,19.619140625,-4.00390625
0.1335,-19.779296875,18.09765625,0.7607421875
0.134,-21.9013671875,16.4560546875,4.484375
0.1345,-22.0615234375,14.0537109375,7.046875
0.135,-21.9013671875,10.6904296875,10.2099609375
0.1355,-21.140625,5.8857421875,14.25390625
0.136,-20.01953125,1.3212890625,17.7373046875
0.1365,-18.498046875,-2.7626953125,20.2197265625
0.137,-16.9765625,-5.845703125,21.8212890625
0.1375,-14.0537109375,-8.6884765625,21.8212890625
0.138,-9.7294921875,-12.171875,21.140625
0.1385,-4.64453125,-15.935546875,19.9794921875
0.139,0.6806640625,-19.2587890625,18.2978515625
0.1395,4.6044921875,-21.220703125,16.6162109375
0.14,7.1669921875,-21.62109375,14.6943359375
0.1405,10.2900390625,-21.541015625,11.69140625
0.141,14.3740234375,-20.5400390625,6.8466796875
0.1415,17.7373046875,-19.21875,2.2421875
0.142,20.6201171875,-17.6572265625,-2.1220703125
0.1425,22.26171875,-16.015625,-5.4052734375
0.143,21.9814453125,-13.0126953125,-8.087890625
0.1435,21.62109375,-9.2890625,-11.53125
0.144,20.7001953125,-4.64453125,-15.2548828125
0.1445,19.4990234375,-0.16015625,-18.6181640625
0.145,17.857421875,3.6435546875,-20.7802734375
0.1455,15.935546875,6.4462890625,-21.6611328125
0.146,12.8125,9.529296875,-21.6611328125
0.1465,7.52734375,13.5732421875,-20.580078125
0.147,2.7626953125,16.8564453125,-19.298828125
0.1475,-2.1220703125,19.8193359375,-17.6572265625
0.148,-5.60546875,21.4609375,-16.095703125
0.1485,-8.1279296875,21.30078125,-13.61328125
0.149,-11.2509765625,21.1005859375,-10.5703125
0.1495,-15.455078125,20.0595703125,-5.4853515625
0.15,-18.73828125,18.5380859375,-0.720703125
0.1505,-21.1005859375,16.9365234375,3.1630859375
0.151,-22.1416015625,15.1748046875,6.005859375
0.1515,-21.861328125,11.931640625,8.9287109375
0.152,-21.30078125,7.4873046875,12.8125
0.1525,-20.2998046875,3.123046875,16.1357421875
0.153,-19.0986328125,-1.28125,19.3388671875
0.1535,-17.4970703125,-4.7646484375,21.3408203125
0.154,-15.0947265625,-7.2470703125,21.4609375
0.1545,-11.9716796875,-10.2900390625,21.4609375
0.155,-6.166015625,-14.6943359375,20.2197265625
0.1555,-1.1611328125,-17.857421875,18.578125
0.156,2.962890625,-20.1396484375,17.0966796875
0.1565,6.0859375,-21.541015625,15.6552734375
0.157,8.8486328125,-21.140625,12.65234375
0.1575,12.2119140625,-20.5400390625,9.0087890625
0.158,16.0556640625,-19.69921875,4.32421875
0.1585,19.37890625,-18.0576171875,-0.6005859375
0.159,21.2607421875,-16.49609375,-3.923828125
0.1595,21.62109375,-14.25390625,-6.56640625
0.16,21.4609375,-11.2109375,-9.529296875
0.1605,20.7001953125,-6.1259765625,-13.853515625
0.161,19.6591796875,-2.001953125,-16.896484375
0.1615,18.41796875,1.9619140625,-19.5390625
0.162,16.8564453125,5.2451171875,-21.30078125
0.1625,13.693359375,7.9677734375,-20.9404296875
0.163,10.1298828125,11.2509765625,-20.7802734375
0.1635,4.64453125,15.4150390625,-19.69921875
0.164,-0.640625,18.6181640625,-17.8974609375
0.1645,-4.00390625,20.33984375,-16.4560546875
0.165,-6.7666015625,21.1806640625,-14.7744140625
0.1655,-9.689453125,20.8603515625,-11.7314453125
0.166,-13.7333984375,19.9794921875,-7.046875
0.1665,-17.0166015625,18.9384765625,-2.7626953125
0.167,-19.9794921875,17.376953125,1.681640625
0.1675,-21.5009765625,15.775390625,4.7646484375
0.168,-21.30078125,12.892578125,7.4072265625
0.1685,-21.2607421875,9.6494140625,10.6103515625
0.169,-20.3798828125,4.484375,14.8544921875
0.1695,-19.138671875,0.2001953125,18.017578125
0.17,-17.8173828125,-3.203125,20.099609375
0.1705,-16.2158203125,-6.166015625,21.5009765625
0.171,-12.8125,-9.0087890625,21.0205078125
0.1715,-8.087890625,-12.8525390625,20.2998046875
0.172,-3.203125,-16.416015625,19.1787109375
0.1725,1.8017578125,-19.4189453125,17.4169921875
0.173,4.9248046875,-20.8203125,15.9755859375
0.1735,7.5673828125,-21.0205078125,13.693359375
0.174,10.5703125,-20.8603515625,10.7705078125
0.1745,14.89453125,-19.69921875,5.4052734375
0.175,18.1376953125,-18.337890625,0.9609375
0.1755,20.4599609375,-16.9365234375,-2.72265625
0.176,21.5810546875,-15.2548828125,-5.525390625
0.1765,21.060546875,-12.01171875,-8.2880859375
0.177,20.7802734375,-8.1279296875,-11.8916015625
0.1775,19.9794921875,-3.5634765625,-15.6552734375
0.178,18.6982421875,0.9609375,-18.6982421875
0.1785,17.13671875,3.9638671875,-20.3798828125
0.179,15.0546875,6.7265625,-21.1005859375
0.1795,11.771484375,9.76953125,-20.900390625
0.18,6.005859375,14.173828125,-19.69921875
0.1805,1.4013671875,17.296875,-18.4580078125
0.181,-2.8828125,19.859375,-16.9765625
0.1815,-5.8056640625,21.0205078125,-15.455078125
0.182,-8.6484375,20.66015625,-12.4921875
0.1825,-11.8515625,20.4599609375,-9.2490234375
0.183,-15.935546875,19.298828125,-4.2041015625
0.1835,-19.138671875,17.6572265625,0.6005859375
0.184,-20.7802734375,16.2158203125,3.6435546875
0.1845,-21.5009765625,14.1337890625,6.3662109375
0.185,-21.0205078125,10.810546875,9.208984375
0.1855,-20.3798828125,6.0458984375,13.4130859375
0.186,-19.458984375,1.921875,16.6162109375
0.1865,-18.2978515625,-2.2421875,19.5791015625
0.187,-16.65625,-5.1650390625,20.900390625
0.1875,-13.8134765625,-7.84765625,20.8603515625
0.188,-10.4501953125,-11.05078125,20.7802734375
0.1885,-4.5244140625,-15.4150390625,19.3388671875
0.189,0.48046875,-18.4580078125,17.697265625
0.1895,3.84375,-20.2998046875,16.3759765625
0.19,6.6865234375,-21.1806640625,14.6943359375
0.1905,9.7294921875,-20.66015625,11.3310546875
0.191,13.4130859375,-20.0595703125,7.20703125
0.1915,17.0166015625,-19.0185546875,2.6826171875
0.192,20.0595703125,-17.376953125,-2.001953125
0.1925,21.1806640625,-15.8154296875,-4.64453125
0.193,21.380859375,-13.1328125,-7.52734375
0.1935,21.1005859375,-9.76953125,-10.4501953125
0.194,20.1796875,-4.64453125,-14.7744140625
0.1945,19.0185546875,-0.4404296875,-17.8173828125
0.195,17.857421875,3.1630859375,-20.2197265625
0.1955,15.9755859375,6.0859375,-21.30078125
0.196,12.412109375,9.048828125,-20.8203125
0.1965,8.16796875,12.7724609375,-20.4599609375
0.197,2.802734375,16.6962890625,-19.1787109375
0.1975,-2.322265625,19.5791015625,-17.2568359375
0.198,-5.0849609375,20.7802734375,-15.9755859375
0.1985,-7.9677734375,21.2607421875,-13.7734375
0.199,-11.05078125,20.740234375,-10.2900390625
0.1995,-15.1748046875,19.619140625,-5.28515625
0.2,-18.4580078125,18.3779296875,-0.880859375
0.2005,-21.0205078125,16.7763671875,3.2431640625
0.201,-21.7412109375,14.8544921875,5.765625
0.2015,-21.5009765625,11.611328125,8.80859375
0.202,-21.1005859375,7.84765625,12.251953125
0.2025,-20.1396484375,2.8828125,16.255859375
0.203,-18.658203125,-1.521484375,19.21875
0.2035,-17.3369140625,-4.5244140625,20.8603515625
0.204,-15.21484375,-7.3271484375,21.6611328125
0.2045,-11.37109375,-10.330078125,20.9404296875
0.205,-6.166015625,-14.4140625,19.9794921875
0.2055,-1.201171875,-17.8173828125,18.658203125
0.206,3.4033203125,-20.3798828125,16.896484375
0.2065,5.8857421875,-21.1005859375,15.3349609375
0.207,8.888671875,-21.1005859375,12.5322265625
0.2075,12.2119140625,-20.580078125,8.9287109375
0.208,16.17578125,-19.37890625,3.84375
0.2085,19.21875,-17.8974609375,-0.720703125
0.209,21.140625,-16.416015625,-3.923828125
0.2095,21.62109375,-14.1337890625,-6.6064453125
0.21,21.1005859375,-10.650390625,-9.609375
0.2105,20.4599609375,-6.2861328125,-13.4130859375
0.211,19.5791015625,-1.921875,-16.9365234375
0.2115,18.177734375,2.3623046875,-19.69921875
0.212,16.49609375,5.0048828125,-20.740234375
0.2125,13.93359375,7.8876953125,-21.140625
0.213,9.8095703125,11.3310546875,-20.5
0.2135,4.4443359375,15.3349609375,-19.138671875
0.214,-0.48046875,18.2978515625,-17.77734375
0.2145,-4.1640625,20.419921875,-16.3759765625
0.215,-6.7265625,20.7802734375,-14.4541015625
0.2155,-9.689453125,20.4599609375,-11.291015625
0.216,-13.3330078125,19.859375,-7.2470703125
0.2165,-16.9765625,18.6181640625,-2.5625
0.217,-19.779296875,16.9365234375,1.8818359375
0.2175,-21.0205078125,15.4951171875,4.564453125
