wavelength,x,y,z
0.0,-8.3231201171875,20.665161132812,-12.807495117188
0.0005,-11.486206054688,20.905395507812,-10.124877929688
0.001,-15.530151367188,19.904418945312,-5.2801513671875
0.0015,-18.292846679688,18.422973632812,-1.1160888671875
0.002,-20.214721679688,16.340942382812,2.9278564453125
0.0025,-21.415893554688,13.898559570312,6.5313720703125
0.003,-21.455932617188,10.575317382812,9.8946533203125
0.0035,-21.455932617188,7.0118408203125,13.498168945312
0.004,-20.815307617188,3.1680908203125,16.661254882812
0.0045,-19.173706054688,-1.2762451171875,19.423950195312
0.005,-16.691284179688,-4.9998779296875,20.785278320312
0.0055,-14.208862304688,-8.2030029296875,21.546020507812
0.006,-11.245971679688,-11.326049804688,21.826293945312
0.0065,-5.9207763671875,-15.410034179688,20.785278320312
0.007,-1.7967529296875,-17.972534179688,19.423950195312
0.0075,2.6876220703125,-19.894409179688,17.261840820312
0.008,6.3712158203125,-21.135620117188,14.979614257812
0.0085,9.6544189453125,-21.095581054688,11.776489257812
0.009,12.897583007812,-21.055541992188,8.6534423828125
0.0095,16.661254882812,-20.134643554688,4.1690673828125
0.01,19.343872070312,-18.012573242188,-0.6356201171875
0.0105,20.825317382812,-15.770385742188,-4.2391357421875
0.011,21.706176757812,-13.127807617188,-7.7225341796875
0.0115,21.786254882812,-9.9647216796875,-10.965698242188
0.012,21.345825195312,-5.5203857421875,-14.969604492188
0.0125,20.464965820312,-1.9168701171875,-17.732299804688
0.013,18.543090820312,2.4874267578125,-20.134643554688
0.0135,15.980590820312,6.2110595703125,-21.415893554688
0.014,12.817504882812,9.4542236328125,-21.616088867188
0.0145,9.7344970703125,12.697387695312,-21.896362304688
0.015,4.4893798828125,16.621215820312,-20.695190429688
0.0155,-0.3553466796875,19.143676757812,-18.733276367188
0.016,-4.1990966796875,20.625122070312,-16.611206054688
0.0165,-7.7625732421875,21.586059570312,-14.248901367188
0.017,-11.245971679688,21.385864257812,-10.765502929688
0.0175,-14.889526367188,20.785278320312,-6.7215576171875
0.018,-18.092651367188,19.784301757812,-2.5574951171875
0.0185,-20.655151367188,17.421997070312,2.2872314453125
0.019,-21.776245117188,14.859497070312,5.8907470703125
0.0195,-22.296752929688,11.776489257812,9.4542236328125
0.02,-22.376831054688,8.6134033203125,12.777465820312
0.0205,-21.656127929688,3.8887939453125,16.781372070312
0.021,-20.134643554688,-0.3153076171875,19.423950195312
0.0215,-17.972534179688,-4.2791748046875,21.265747070312
0.022,-15.410034179688,-7.8426513671875,22.426879882812
0.0225,-11.646362304688,-11.286010742188,22.146606445312
0.023,-7.8426513671875,-14.729370117188,21.946411132812
0.0235,-2.9178466796875,-18.092651367188,20.625122070312
0.024,2.4073486328125,-20.414916992188,17.982543945312
0.0245,5.8106689453125,-21.455932617188,15.740356445312
0.025,9.3741455078125,-22.096557617188,13.057739257812
0.0255,12.777465820312,-21.856323242188,9.6143798828125
0.026,16.621215820312,-20.735229492188,4.8897705078125
0.0265,19.423950195312,-19.213745117188,0.6055908203125
0.027,21.505981445312,-16.811401367188,-3.8387451171875
0.0275,22.266723632812,-14.048706054688,-7.3221435546875
0.028,22.346801757812,-10.525268554688,-10.965698242188
0.0285,22.226684570312,-7.0819091796875,-14.288940429688
0.029,21.385864257812,-2.7576904296875,-17.812377929688
0.0295,19.263793945312,1.9268798828125,-20.254760742188
0.03,16.821411132812,5.4903564453125,-21.495971679688
0.0305,14.218872070312,8.9337158203125,-22.456909179688
0.031,10.375122070312,12.296997070312,-22.096557617188
0.0315,5.6905517578125,15.900512695312,-21.215698242188
0.032,1.2862548828125,18.783325195312,-19.894409179688
0.0325,-3.5985107421875,20.785278320312,-17.331909179688
0.033,-6.9217529296875,21.425903320312,-14.889526367188
0.0335,-10.405151367188,21.626098632812,-11.886596679688
0.034,-13.768432617188,21.385864257812,-8.4031982421875
0.0345,-17.331909179688,20.184692382812,-3.7586669921875
0.035,-19.974487304688,18.142700195312,0.9259033203125
0.0355,-21.536010742188,15.780395507812,4.7696533203125
0.036,-22.256713867188,13.017700195312,8.1729736328125
0.0365,-22.176635742188,9.4141845703125,11.776489257812
0.037,-21.736206054688,5.4102783203125,15.380004882812
0.0375,-20.855346679688,1.4864501953125,18.422973632812
0.038,-18.613159179688,-3.0780029296875,20.705200195312
0.0385,-16.050659179688,-6.4012451171875,21.546020507812
0.039,-13.368041992188,-9.6844482421875,22.226684570312
0.0395,-9.5643310546875,-13.127807617188,21.986450195312
0.04,-4.4793701171875,-16.651245117188,20.665161132812
0.0405,0.1651611328125,-19.213745117188,18.823364257812
0.041,4.3292236328125,-20.895385742188,16.621215820312
0.0415,7.6524658203125,-21.495971679688,14.098754882812
0.042,11.015747070312,-21.335815429688,10.775512695312
0.0425,14.579223632812,-20.895385742188,6.9718017578125
0.043,17.862426757812,-19.734252929688,2.5675048828125
0.0435,20.224731445312,-17.371948242188,-2.0770263671875
0.044,21.305786132812,-14.929565429688,-5.4803466796875
0.0445,21.946411132812,-12.166870117188,-8.9237060546875
0.045,21.826293945312,-8.4832763671875,-12.527221679688
0.0455,21.145629882812,-4.3592529296875,-15.970581054688
0.046,19.904418945312,-0.3553466796875,-18.733276367188
0.0465,17.742309570312,3.8887939453125,-20.815307617188
0.047,15.019653320312,7.1719970703125,-21.455932617188
0.0475,11.896606445312,10.535278320312,-21.776245117188
0.048,7.8526611328125,14.138793945312,-21.495971679688
0.0485,3.0479736328125,17.421997070312,-20.214721679688
0.049,-1.7967529296875,19.584106445312,-17.852416992188
0.0495,-5.3602294921875,20.905395507812,-15.890502929688
0.05,-8.7235107421875,21.465942382812,-13.207885742188
0.0505,-12.206909179688,21.185668945312,-9.6844482421875
0.051,-15.890502929688,20.505004882812,-5.5203857421875
0.0515,-18.893432617188,19.023559570312,-1.0760498046875
0.052,-21.055541992188,16.621215820312,3.5284423828125
0.0525,-21.776245117188,13.938598632812,6.8116455078125
0.053,-22.296752929688,10.815551757812,10.495239257812
0.0535,-22.096557617188,6.8516845703125,14.298950195312
0.054,-21.335815429688,2.7276611328125,17.622192382812
0.0545,-19.494018554688,-1.5965576171875,20.024536132812
0.055,-17.251831054688,-5.5203857421875,21.826293945312
0.0555,-14.409057617188,-8.8436279296875,22.386840820312
0.056,-10.765502929688,-12.327026367188,22.306762695312
0.0565,-6.2811279296875,-16.010620117188,21.666137695312
0.057,-1.2362060546875,-19.173706054688,20.024536132812
0.0575,3.6085205078125,-21.015502929688,17.381958007812
0.058,6.8917236328125,-21.776245117188,15.099731445312
0.0585,10.495239257812,-22.176635742188,12.176879882812
0.059,14.258911132812,-21.576049804688,7.9727783203125
0.0595,17.582153320312,-20.575073242188,3.8087158203125
0.06,20.344848632812,-18.573120117188,-0.9158935546875
0.0605,22.226684570312,-16.090698242188,-5.2401123046875
0.061,22.466918945312,-13.087768554688,-8.5233154296875
0.0615,22.787231445312,-9.6844482421875,-12.246948242188
0.062,22.266723632812,-5.4002685546875,-16.010620117188
0.0625,21.185668945312,-1.1561279296875,-19.213745117188
0.063,18.743286132812,3.2481689453125,-21.135620117188
0.0635,16.300903320312,6.9317626953125,-22.416870117188
0.064,13.217895507812,10.375122070312,-22.897338867188
0.0645,8.8135986328125,14.098754882812,-22.376831054688
0.065,4.4093017578125,17.261840820312,-21.415893554688
0.0655,-0.7156982421875,20.064575195312,-19.333862304688
0.066,-5.1199951171875,21.746215820312,-16.851440429688
0.0665,-8.3231201171875,21.986450195312,-14.128784179688
0.067,-11.806518554688,22.266723632812,-11.165893554688
0.0675,-15.850463867188,21.425903320312,-6.4412841796875
0.068,-18.893432617188,19.984497070312,-2.0770263671875
0.0685,-21.135620117188,17.702270507812,2.4473876953125
0.069,-22.577026367188,15.139770507812,6.4112548828125
0.0695,-22.817260742188,11.896606445312,9.8546142578125
0.07,-22.817260742188,8.0128173828125,13.778442382812
0.0705,-22.096557617188,3.9688720703125,17.141723632812
0.071,-20.695190429688,-0.5155029296875,20.144653320312
0.0715,-18.092651367188,-4.7596435546875,21.866333007812
0.072,-15.450073242188,-8.0028076171875,22.546997070312
0.0725,-12.447143554688,-11.406127929688,23.027465820312
0.073,-7.3221435546875,-15.450073242188,22.106567382812
0.0735,-2.8778076171875,-18.292846679688,20.705200195312
0.074,1.9669189453125,-20.494995117188,18.382934570312
0.0745,6.0909423828125,-21.936401367188,16.020629882812
0.075,9.2940673828125,-21.856323242188,12.977661132812
0.0755,12.657348632812,-21.896362304688,9.8546142578125
0.076,16.501098632812,-21.015502929688,5.3302001953125
0.0765,19.463989257812,-19.213745117188,0.6055908203125
0.077,21.265747070312,-16.811401367188,-3.5985107421875
0.0775,22.226684570312,-14.208862304688,-7.1219482421875
0.078,22.506958007812,-11.045776367188,-10.565307617188
0.0785,22.226684570312,-6.7215576171875,-14.609252929688
0.079,21.385864257812,-3.0379638671875,-17.492065429688
0.0795,19.584106445312,1.4063720703125,-20.174682617188
0.08,17.141723632812,5.5704345703125,-21.816284179688
0.0805,14.058715820312,8.6534423828125,-21.976440429688
0.081,11.015747070312,11.856567382812,-22.416870117188
0.0815,5.8907470703125,15.940551757812,-21.495971679688
0.082,1.2462158203125,18.743286132812,-19.814331054688
0.0825,-3.0379638671875,20.424926757812,-17.492065429688
0.083,-6.7215576171875,21.626098632812,-15.249877929688
0.0835,-10.084838867188,21.626098632812,-12.126831054688
0.084,-13.768432617188,21.185668945312,-8.2030029296875
0.0845,-17.051635742188,20.384887695312,-4.1990966796875
0.085,-19.894409179688,18.302856445312,0.6456298828125
0.0855,-21.495971679688,15.860473632812,4.6895751953125
0.086,-22.016479492188,13.017700195312,7.9727783203125
0.0865,-22.456909179688,9.9747314453125,11.416137695312
0.087,-21.936401367188,5.2501220703125,15.660278320312
0.0875,-20.815307617188,1.3663330078125,18.463012695312
0.088,-18.733276367188,-2.7176513671875,20.464965820312
0.0885,-16.491088867188,-6.5614013671875,22.106567382812
0.089,-13.127807617188,-9.6444091796875,22.066528320312
0.0895,-9.4842529296875,-13.207885742188,22.026489257812
0.09,-4.8397216796875,-16.691284179688,21.065551757812
0.0905,0.3653564453125,-19.413940429688,18.863403320312
0.091,4.3292236328125,-20.815307617188,16.581176757812
0.0915,7.6925048828125,-21.495971679688,14.098754882812
0.092,10.935668945312,-21.656127929688,11.215942382812
0.0925,15.019653320312,-20.775268554688,6.4112548828125
0.093,17.862426757812,-19.654174804688,2.5675048828125
0.0935,20.184692382812,-17.492065429688,-1.9168701171875
0.094,21.626098632812,-15.049682617188,-5.7205810546875
0.0945,21.746215820312,-11.846557617188,-9.0037841796875
0.095,21.986450195312,-8.6834716796875,-12.447143554688
0.0955,21.385864257812,-4.3592529296875,-16.170776367188
0.096,19.864379882812,0.0050048828125,-18.973510742188
0.0965,17.542114257812,3.8087158203125,-20.494995117188
0.097,15.219848632812,7.2520751953125,-21.776245117188
0.0975,11.976684570312,10.455200195312,-21.856323242188
0.098,7.2921142578125,14.379028320312,-21.175659179688
0.0985,3.3282470703125,17.221801757812,-20.254760742188
0.099,-1.6766357421875,19.584106445312,-17.972534179688
0.0995,-5.4002685546875,20.825317382812,-15.690307617188
0.1,-8.6033935546875,20.985473632812,-12.887573242188
0.1005,-11.806518554688,21.185668945312,-10.124877929688
0.101,-15.810424804688,20.224731445312,-5.2801513671875
0.1015,-18.573120117188,18.503051757812,-0.8758544921875
0.102,-20.334838867188,16.380981445312,3.0079345703125
0.1025,-21.495971679688,13.938598632812,6.5714111328125
0.103,-21.536010742188,10.615356445312,9.8946533203125
0.1035,-21.455932617188,6.7716064453125,13.698364257812
0.104,-20.855346679688,3.1280517578125,16.781372070312
0.1045,-19.133666992188,-1.3162841796875,19.463989257812
0.105,-16.651245117188,-5.0399169921875,20.785278320312
0.1055,-14.128784179688,-8.2030029296875,21.385864257812
0.106,-11.245971679688,-11.245971679688,21.746215820312
0.1065,-5.8807373046875,-15.249877929688,20.585083007812
0.107,-1.6365966796875,-17.812377929688,19.143676757812
0.1075,2.5675048828125,-19.614135742188,16.981567382812
0.108,6.1710205078125,-20.775268554688,14.779418945312
0.1085,9.4141845703125,-20.655151367188,11.656372070312
0.109,12.737426757812,-20.535034179688,8.3731689453125
0.1095,16.180786132812,-19.734252929688,4.2891845703125
0.11,18.863403320312,-17.652221679688,-0.4354248046875
0.1105,20.184692382812,-15.530151367188,-3.9188232421875
0.111,20.985473632812,-12.967651367188,-7.2420654296875
0.1115,21.145629882812,-9.9647216796875,-10.285034179688
0.112,20.665161132812,-5.5604248046875,-14.288940429688
0.1125,19.824340820312,-2.0770263671875,-16.971557617188
0.113,18.022583007812,1.9268798828125,-19.213745117188
0.1135,15.700317382812,5.5303955078125,-20.494995117188
0.114,12.617309570312,8.6534423828125,-20.575073242188
0.1145,9.5743408203125,11.856567382812,-20.895385742188
0.115,4.8096923828125,15.500122070312,-19.894409179688
0.1155,0.0450439453125,17.982543945312,-17.892456054688
0.116,-3.4383544921875,19.343872070312,-16.010620117188
0.1165,-6.8416748046875,20.344848632812,-13.848510742188
0.117,-9.9647216796875,20.304809570312,-10.885620117188
0.1175,-13.728393554688,19.704223632812,-6.7215576171875
0.118,-16.691284179688,18.823364257812,-2.9578857421875
0.1185,-19.013549804688,16.781372070312,1.4063720703125
0.119,-20.134643554688,14.419067382812,4.8096923828125
0.1195,-20.655151367188,11.576293945312,8.1729736328125
0.12,-20.935424804688,8.6534423828125,11.336059570312
0.1205,-20.454956054688,4.3692626953125,15.139770507812
0.121,-19.053588867188,0.3653564453125,17.782348632812
0.1215,-17.131713867188,-3.2381591796875,19.383911132812
0.122,-15.049682617188,-6.5614013671875,20.745239257812
0.1225,-11.686401367188,-9.6844482421875,20.665161132812
0.123,-7.7225341796875,-13.207885742188,20.344848632812
0.1235,-3.5184326171875,-16.370971679688,19.463989257812
0.124,1.4464111328125,-18.613159179688,17.101684570312
0.1245,4.6495361328125,-19.654174804688,15.059692382812
0.125,7.9327392578125,-20.294799804688,12.657348632812
0.1255,11.055786132812,-20.334838867188,9.7344970703125
0.126,14.819458007812,-19.413940429688,5.2501220703125
0.1265,17.582153320312,-18.012573242188,1.2061767578125
0.127,19.423950195312,-15.970581054688,-2.6375732421875
0.1275,20.344848632812,-13.608276367188,-5.9207763671875
0.128,20.464965820312,-10.445190429688,-9.2039794921875
0.1285,20.464965820312,-7.1219482421875,-12.567260742188
0.129,19.984497070312,-3.3983154296875,-15.850463867188
0.1295,18.142700195312,0.9259033203125,-18.292846679688
0.13,15.980590820312,4.2891845703125,-19.534057617188
0.1305,13.698364257812,7.5323486328125,-20.494995117188
0.131,10.455200195312,10.535278320312,-20.494995117188
0.1315,5.7706298828125,14.218872070312,-19.614135742188
0.132,1.7667236328125,16.941528320312,-18.533081054688
0.1325,-2.5574951171875,18.823364257812,-16.411010742188
0.133,-5.6805419921875,19.664184570312,-14.288940429688
0.1335,-8.9237060546875,19.864379882812,-11.406127929688
0.134,-12.126831054688,19.784301757812,-8.3231201171875
0.1345,-15.530151367188,18.903442382812,-4.1590576171875
0.135,-18.092651367188,16.941528320312,0.2852783203125
0.1355,-19.373901367188,14.899536132812,3.5684814453125
0.136,-20.214721679688,12.497192382812,6.7716064453125
0.1365,-20.254760742188,9.4141845703125,9.9346923828125
0.137,-19.894409179688,5.4503173828125,13.498168945312
0.1375,-19.213745117188,1.9268798828125,16.340942382812
0.138,-17.371948242188,-1.9569091796875,18.543090820312
0.1385,-15.129760742188,-5.2000732421875,19.504028320312
0.139,-12.567260742188,-8.2030029296875,19.984497070312
0.1395,-9.3641357421875,-11.366088867188,20.104614257812
0.14,-4.6395263671875,-14.769409179688,18.983520507812
0.1405,-0.3553466796875,-17.051635742188,17.221801757812
0.141,3.1680908203125,-18.573120117188,15.420043945312
0.1415,6.2911376953125,-19.373901367188,13.297973632812
0.142,9.2940673828125,-19.293823242188,10.415161132812
0.1425,12.697387695312,-18.973510742188,6.8516845703125
0.143,15.660278320312,-18.052612304688,3.0479736328125
0.1435,17.902465820312,-16.010620117188,-1.1561279296875
0.144,18.783325195312,-13.968627929688,-4.0389404296875
0.1445,19.423950195312,-11.526245117188,-7.2020263671875
0.145,19.544067382812,-8.5633544921875,-10.285034179688
0.1455,19.143676757812,-4.7196044921875,-13.728393554688
0.146,18.062622070312,-0.9959716796875,-16.210815429688
0.1465,16.300903320312,2.5274658203125,-18.052612304688
0.147,14.098754882812,5.5704345703125,-19.053588867188
0.1475,11.336059570312,8.4932861328125,-19.213745117188
0.148,7.7325439453125,11.856567382812,-19.213745117188
0.1485,3.5684814453125,14.979614257812,-18.252807617188
0.149,-0.7957763671875,17.021606445312,-16.210815429688
0.1495,-3.7186279296875,18.142700195312,-14.609252929688
0.15,-6.8016357421875,18.903442382812,-12.447143554688
0.1505,-9.8846435546875,18.823364257812,-9.5643310546875
0.151,-13.328002929688,18.262817382812,-5.7205810546875
0.1515,-16.010620117188,17.101684570312,-1.9168701171875
0.152,-17.972534179688,15.179809570312,1.9268798828125
0.1525,-18.733276367188,12.977661132812,4.8096923828125
0.153,-19.213745117188,10.214965820312,7.9727783203125
0.1535,-19.293823242188,7.0118408203125,11.336059570312
0.154,-18.893432617188,3.4884033203125,14.579223632812
0.1545,-17.331909179688,-0.4354248046875,16.821411132812
0.155,-15.530151367188,-3.5584716796875,18.222778320312
0.1555,-13.448120117188,-6.5614013671875,19.223754882812
0.156,-10.325073242188,-9.5643310546875,19.223754882812
0.1565,-6.3612060546875,-12.927612304688,18.703247070312
0.157,-2.1971435546875,-15.770385742188,17.622192382812
0.1575,1.9669189453125,-17.652221679688,15.620239257812
0.158,4.7696533203125,-18.412963867188,13.738403320312
0.1585,7.8126220703125,-18.933471679688,11.376098632812
0.159,11.175903320312,-18.773315429688,8.0928955078125
0.1595,14.298950195312,-18.012573242188,4.3692626953125
0.16,16.621215820312,-16.491088867188,0.4854736328125
0.1605,18.222778320312,-14.609252929688,-2.9578857421875
0.161,18.903442382812,-12.286987304688,-5.8807373046875
0.1615,19.103637695312,-9.3641357421875,-9.0037841796875
0.162,18.903442382812,-5.8406982421875,-12.327026367188
0.1625,18.302856445312,-2.2772216796875,-15.249877929688
0.163,16.501098632812,1.6065673828125,-17.331909179688
0.1635,14.499145507812,4.4893798828125,-18.292846679688
0.164,12.256958007812,7.5323486328125,-19.173706054688
0.1645,8.6934814453125,10.815551757812,-19.053588867188
0.165,4.7296142578125,13.858520507812,-18.252807617188
0.1655,0.6055908203125,16.300903320312,-16.731323242188
0.166,-3.0780029296875,17.942504882812,-15.049682617188
0.1665,-5.8406982421875,18.503051757812,-12.967651367188
0.167,-8.9237060546875,18.743286132812,-10.405151367188
0.1675,-12.447143554688,18.503051757812,-6.7615966796875
0.168,-15.369995117188,17.502075195312,-2.8377685546875
0.1685,-17.452026367188,15.620239257812,1.0059814453125
0.169,-18.573120117188,13.658325195312,4.0889892578125
0.1695,-19.253784179688,11.135864257812,7.1719970703125
0.17,-19.373901367188,7.8927001953125,10.615356445312
0.1705,-19.013549804688,4.4493408203125,13.698364257812
0.171,-17.932495117188,0.7257080078125,16.340942382812
0.1715,-16.090698242188,-3.0379638671875,18.262817382812
0.172,-13.888549804688,-5.8006591796875,18.903442382812
0.1725,-11.446166992188,-8.7235107421875,19.463989257812
0.173,-7.4022216796875,-12.367065429688,19.183715820312
0.1735,-3.1580810546875,-15.289916992188,18.062622070312
0.174,1.0059814453125,-17.251831054688,16.100708007812
0.1745,4.2491455078125,-18.573120117188,14.419067382812
0.175,7.1719970703125,-19.093627929688,12.136840820312
0.1755,10.375122070312,-18.973510742188,9.0938720703125
0.176,13.618286132812,-18.573120117188,5.4903564453125
0.1765,16.501098632812,-17.251831054688,1.4063720703125
0.177,18.382934570312,-15.249877929688,-2.4774169921875
0.1775,19.023559570312,-13.007690429688,-5.3201904296875
0.178,19.544067382812,-10.405151367188,-8.4031982421875
