wavelength,x,y,z
0.0,0.290283203125,5.575439453125,-4.994873046875
0.0005,1.331298828125,5.014892578125,-5.635498046875
0.001,2.612548828125,3.893798828125,-6.035888671875
0.0015,3.813720703125,2.652587890625,-6.276123046875
0.002,4.614501953125,1.531494140625,-6.115966796875
0.0025,5.094970703125,0.730712890625,-6.075927734375
0.003,5.255126953125,-0.150146484375,-5.755615234375
0.0035,5.255126953125,-1.151123046875,-4.994873046875
0.004,5.135009765625,-2.432373046875,-3.913818359375
0.0045,4.974853515625,-3.673583984375,-2.752685546875
0.005,4.654541015625,-4.514404296875,-1.791748046875
0.0055,4.374267578125,-5.195068359375,-0.990966796875
0.006,3.733642578125,-5.635498046875,0.050048828125
0.0065,2.652587890625,-5.915771484375,1.291259765625
0.007,1.411376953125,-6.156005859375,2.732666015625
0.0075,0.330322265625,-6.115966796875,3.853759765625
0.008,-0.470458984375,-6.276123046875,4.694580078125
0.0085,-1.271240234375,-6.156005859375,5.415283203125
0.009,-2.432373046875,-5.435302734375,5.935791015625
0.0095,-3.833740234375,-4.154052734375,6.256103515625
0.01,-4.874755859375,-2.712646484375,6.336181640625
0.0105,-5.475341796875,-1.631591796875,6.095947265625
0.011,-5.755615234375,-0.910888671875,5.975830078125
0.0115,-5.795654296875,0.090087890625,5.455322265625
0.012,-5.715576171875,1.291259765625,4.414306640625
0.0125,-5.635498046875,2.572509765625,3.253173828125
0.013,-5.275146484375,3.733642578125,2.052001953125
0.0135,-4.994873046875,4.494384765625,1.131103515625
0.014,-4.514404296875,5.054931640625,0.290283203125
0.0145,-3.713623046875,5.375244140625,-0.830810546875
0.015,-2.432373046875,5.575439453125,-2.272216796875
0.0155,-1.111083984375,5.695556640625,-3.713623046875
0.016,0.010009765625,5.695556640625,-4.634521484375
0.0165,0.610595703125,5.735595703125,-5.475341796875
0.017,1.611572265625,5.215087890625,-6.075927734375
0.0175,2.932861328125,4.093994140625,-6.476318359375
0.018,4.214111328125,2.812744140625,-6.716552734375
0.0185,5.135009765625,1.411376953125,-6.556396484375
0.019,5.575439453125,0.450439453125,-6.356201171875
0.0195,5.735595703125,-0.470458984375,-6.075927734375
0.02,5.695556640625,-1.471435546875,-5.315185546875
0.0205,5.495361328125,-2.832763671875,-3.993896484375
0.021,5.255126953125,-4.154052734375,-2.712646484375
0.0215,4.854736328125,-5.114990234375,-1.551513671875
0.022,4.494384765625,-5.755615234375,-0.670654296875
0.0225,3.853759765625,-6.156005859375,0.330322265625
0.023,2.692626953125,-6.396240234375,1.571533203125
0.0235,1.291259765625,-6.556396484375,3.173095703125
0.024,0.010009765625,-6.476318359375,4.454345703125
0.0245,-0.910888671875,-6.516357421875,5.255126953125
0.025,-1.631591796875,-6.396240234375,5.895751953125
0.0255,-2.792724609375,-5.635498046875,6.416259765625
0.026,-4.154052734375,-4.194091796875,6.736572265625
0.0265,-5.315185546875,-2.752685546875,6.776611328125
0.027,-5.995849609375,-1.431396484375,6.456298828125
0.0275,-6.276123046875,-0.590576171875,6.216064453125
0.028,-6.276123046875,0.370361328125,5.695556640625
0.0285,-6.115966796875,1.531494140625,4.654541015625
0.029,-5.835693359375,2.892822265625,3.293212890625
0.0295,-5.515380859375,4.134033203125,1.931884765625
0.03,-5.074951171875,4.934814453125,0.890869140625
0.0305,-4.594482421875,5.455322265625,0.050048828125
0.031,-3.753662109375,5.735595703125,-0.990966796875
0.0315,-2.432373046875,5.895751953125,-2.432373046875
0.032,-1.031005859375,6.015869140625,-3.913818359375
0.0325,0.250244140625,5.775634765625,-4.994873046875
0.033,0.930908203125,5.775634765625,-5.755615234375
0.0335,1.691650390625,5.455322265625,-6.356201171875
0.034,2.892822265625,4.494384765625,-6.756591796875
0.0345,4.334228515625,3.052978515625,-6.956787109375
0.035,5.335205078125,1.571533203125,-6.876708984375
0.0355,5.815673828125,0.490478515625,-6.556396484375
0.036,6.015869140625,-0.430419921875,-6.276123046875
0.0365,5.895751953125,-1.351318359375,-5.595458984375
0.037,5.695556640625,-2.592529296875,-4.394287109375
0.0375,5.415283203125,-3.993896484375,-3.072998046875
0.038,5.054931640625,-5.074951171875,-1.751708984375
0.0385,4.614501953125,-5.755615234375,-0.790771484375
0.039,4.093994140625,-6.276123046875,0.130126953125
0.0395,3.133056640625,-6.436279296875,1.211181640625
0.04,1.691650390625,-6.596435546875,2.732666015625
0.0405,0.290283203125,-6.676513671875,4.134033203125
0.041,-0.790771484375,-6.516357421875,5.094970703125
0.0415,-1.431396484375,-6.556396484375,5.735595703125
0.042,-2.392333984375,-5.955810546875,6.336181640625
0.0425,-3.713623046875,-4.794677734375,6.696533203125
0.043,-4.954833984375,-3.353271484375,6.856689453125
0.0435,-5.795654296875,-1.951904296875,6.616455078125
0.044,-6.236083984375,-0.910888671875,6.376220703125
0.0445,-6.356201171875,0.010009765625,6.015869140625
0.045,-6.236083984375,0.930908203125,5.255126953125
0.0455,-5.955810546875,2.252197265625,3.893798828125
0.046,-5.715576171875,3.573486328125,2.572509765625
0.0465,-5.275146484375,4.534423828125,1.371337890625
0.047,-4.874755859375,5.175048828125,0.490478515625
0.0475,-4.194091796875,5.615478515625,-0.510498046875
0.048,-3.153076171875,5.775634765625,-1.631591796875
0.0485,-1.751708984375,5.895751953125,-3.193115234375
0.049,-0.390380859375,5.815673828125,-4.514404296875
0.0495,0.530517578125,5.775634765625,-5.395263671875
0.05,1.211181640625,5.775634765625,-6.035888671875
0.0505,2.292236328125,5.054931640625,-6.556396484375
0.051,3.693603515625,3.733642578125,-6.836669921875
0.0515,4.854736328125,2.292236328125,-6.916748046875
0.052,5.615478515625,0.970947265625,-6.676513671875
0.0525,5.895751953125,0.090087890625,-6.436279296875
0.053,5.975830078125,-0.910888671875,-5.955810546875
0.0535,5.815673828125,-1.951904296875,-5.034912109375
0.054,5.615478515625,-3.393310546875,-3.673583984375
0.0545,5.255126953125,-4.674560546875,-2.312255859375
0.055,4.854736328125,-5.515380859375,-1.231201171875
0.0555,4.454345703125,-6.115966796875,-0.350341796875
0.056,3.573486328125,-6.436279296875,0.770751953125
0.0565,2.252197265625,-6.676513671875,2.172119140625
0.057,0.890869140625,-6.796630859375,3.773681640625
0.0575,-0.550537109375,-6.676513671875,4.854736328125
0.058,-1.231201171875,-6.596435546875,5.695556640625
0.0585,-2.031982421875,-6.316162109375,6.336181640625
0.059,-3.273193359375,-5.315185546875,6.776611328125
0.0595,-4.714599609375,-3.833740234375,7.016845703125
0.06,-5.755615234375,-2.272216796875,6.896728515625
0.0605,-6.316162109375,-1.111083984375,6.536376953125
0.061,-6.476318359375,-0.310302734375,6.256103515625
0.0615,-6.396240234375,0.770751953125,5.495361328125
0.062,-6.156005859375,2.052001953125,4.254150390625
0.0625,-5.915771484375,3.453369140625,2.892822265625
0.063,-5.435302734375,4.574462890625,1.531494140625
0.0635,-4.994873046875,5.255126953125,0.570556640625
0.064,-4.394287109375,5.735595703125,-0.390380859375
0.0645,-3.393310546875,5.895751953125,-1.471435546875
0.065,-1.951904296875,5.975830078125,-3.032958984375
0.0655,-0.550537109375,5.975830078125,-4.514404296875
0.066,0.610595703125,5.815673828125,-5.395263671875
0.0665,1.211181640625,5.815673828125,-6.035888671875
0.067,2.172119140625,5.255126953125,-6.556396484375
0.0675,3.493408203125,3.973876953125,-6.876708984375
0.068,4.734619140625,2.572509765625,-6.996826171875
0.0685,5.575439453125,1.171142578125,-6.756591796875
0.069,5.895751953125,0.170166015625,-6.436279296875
0.0695,6.015869140625,-0.670654296875,-6.115966796875
0.07,5.855712890625,-1.671630859375,-5.315185546875
0.0705,5.575439453125,-2.952880859375,-4.033935546875
0.071,5.295166015625,-4.274169921875,-2.672607421875
0.0715,4.814697265625,-5.235107421875,-1.471435546875
0.072,4.494384765625,-5.835693359375,-0.630615234375
0.0725,3.853759765625,-6.276123046875,0.330322265625
0.073,2.732666015625,-6.436279296875,1.531494140625
0.0735,1.371337890625,-6.596435546875,2.972900390625
0.074,0.010009765625,-6.436279296875,4.294189453125
0.0745,-0.910888671875,-6.436279296875,5.094970703125
0.075,-1.511474609375,-6.396240234375,5.815673828125
0.0755,-2.512451171875,-5.755615234375,6.336181640625
0.076,-3.833740234375,-4.514404296875,6.576416015625
0.0765,-4.994873046875,-3.072998046875,6.696533203125
0.077,-5.755615234375,-1.791748046875,6.416259765625
0.0775,-6.115966796875,-0.950927734375,6.256103515625
0.078,-6.156005859375,-0.150146484375,5.815673828125
0.0785,-6.035888671875,0.970947265625,4.974853515625
0.079,-5.795654296875,2.212158203125,3.773681640625
0.0795,-5.515380859375,3.493408203125,2.452392578125
0.08,-5.155029296875,4.414306640625,1.411376953125
0.0805,-4.794677734375,4.974853515625,0.610595703125
0.081,-4.073974609375,5.335205078125,-0.470458984375
0.0815,-2.952880859375,5.495361328125,-1.711669921875
0.082,-1.671630859375,5.775634765625,-3.153076171875
0.0825,-0.510498046875,5.695556640625,-4.274169921875
0.083,0.370361328125,5.775634765625,-5.114990234375
0.0835,1.131103515625,5.615478515625,-5.795654296875
0.084,2.212158203125,4.854736328125,-6.276123046875
0.0845,3.533447265625,3.533447265625,-6.556396484375
0.085,4.614501953125,2.172119140625,-6.556396484375
0.0855,5.215087890625,1.051025390625,-6.396240234375
0.086,5.535400390625,0.290283203125,-6.276123046875
0.0865,5.575439453125,-0.670654296875,-5.715576171875
0.087,5.415283203125,-1.751708984375,-4.754638671875
0.0875,5.255126953125,-3.072998046875,-3.553466796875
0.088,4.974853515625,-4.154052734375,-2.392333984375
0.0885,4.614501953125,-4.994873046875,-1.431396484375
0.089,4.294189453125,-5.635498046875,-0.630615234375
0.0895,3.493408203125,-5.955810546875,0.410400390625
0.09,2.292236328125,-6.115966796875,1.771728515625
0.0905,1.010986328125,-6.236083984375,3.173095703125
0.091,0.050048828125,-6.236083984375,4.134033203125
0.0915,-0.710693359375,-6.356201171875,4.974853515625
0.092,-1.591552734375,-6.035888671875,5.615478515625
0.0925,-2.752685546875,-5.074951171875,6.015869140625
0.093,-3.993896484375,-3.833740234375,6.256103515625
0.0935,-4.914794921875,-2.552490234375,6.216064453125
0.094,-5.475341796875,-1.591552734375,6.095947265625
0.0945,-5.715576171875,-0.910888671875,5.895751953125
0.095,-5.715576171875,0.090087890625,5.295166015625
0.0955,-5.555419921875,1.211181640625,4.334228515625
0.096,-5.435302734375,2.452392578125,3.173095703125
0.0965,-5.114990234375,3.413330078125,2.052001953125
0.097,-4.874755859375,4.174072265625,1.251220703125
0.0975,-4.434326171875,4.734619140625,0.410400390625
0.098,-3.593505859375,5.054931640625,-0.630615234375
0.0985,-2.512451171875,5.335205078125,-1.991943359375
0.099,-1.271240234375,5.375244140625,-3.233154296875
0.0995,-0.470458984375,5.455322265625,-4.194091796875
0.1,0.290283203125,5.615478515625,-4.954833984375
0.1005,1.251220703125,5.175048828125,-5.635498046875
0.101,2.452392578125,4.134033203125,-5.955810546875
0.1015,3.613525390625,2.932861328125,-6.156005859375
0.102,4.454345703125,1.771728515625,-6.115966796875
0.1025,4.934814453125,1.010986328125,-6.115966796875
0.103,5.135009765625,0.250244140625,-5.835693359375
0.1035,5.135009765625,-0.750732421875,-5.235107421875
0.104,5.054931640625,-1.911865234375,-4.274169921875
0.1045,4.934814453125,-3.153076171875,-3.153076171875
0.105,4.694580078125,-4.073974609375,-2.192138671875
0.1055,4.494384765625,-4.874755859375,-1.431396484375
0.106,3.973876953125,-5.315185546875,-0.550537109375
0.1065,3.052978515625,-5.635498046875,0.690673828125
0.107,1.971923828125,-5.915771484375,1.971923828125
0.1075,0.850830078125,-5.955810546875,3.173095703125
0.108,0.170166015625,-6.156005859375,4.053955078125
0.1085,-0.670654296875,-6.156005859375,4.854736328125
0.109,-1.711669921875,-5.635498046875,5.415283203125
0.1095,-2.952880859375,-4.514404296875,5.735595703125
0.11,-4.033935546875,-3.313232421875,5.895751953125
0.1105,-4.794677734375,-2.272216796875,5.815673828125
0.111,-5.195068359375,-1.591552734375,5.815673828125
0.1115,-5.355224609375,-0.790771484375,5.495361328125
0.112,-5.315185546875,0.290283203125,4.774658203125
0.1125,-5.315185546875,1.331298828125,3.853759765625
0.113,-5.114990234375,2.492431640625,2.812744140625
0.1135,-4.954833984375,3.333251953125,1.931884765625
0.114,-4.674560546875,4.093994140625,1.211181640625
0.1145,-4.114013671875,4.494384765625,0.330322265625
0.115,-3.193115234375,4.854736328125,-0.990966796875
0.1155,-2.112060546875,5.094970703125,-2.272216796875
0.116,-1.191162109375,5.255126953125,-3.233154296875
0.1165,-0.510498046875,5.455322265625,-4.154052734375
0.117,0.450439453125,5.295166015625,-4.874755859375
0.1175,1.531494140625,4.614501953125,-5.395263671875
0.118,2.692626953125,3.613525390625,-5.755615234375
0.1185,3.693603515625,2.452392578125,-5.835693359375
0.119,4.334228515625,1.571533203125,-5.915771484375
0.1195,4.774658203125,0.890869140625,-5.875732421875
0.12,4.934814453125,0.090087890625,-5.515380859375
0.1205,4.894775390625,-1.071044921875,-4.754638671875
0.121,4.854736328125,-2.272216796875,-3.793701171875
0.1215,4.654541015625,-3.353271484375,-2.872802734375
0.122,4.574462890625,-4.154052734375,-1.991943359375
0.1225,4.254150390625,-4.834716796875,-1.231201171875
0.123,3.573486328125,-5.235107421875,-0.190185546875
0.1235,2.612548828125,-5.635498046875,1.131103515625
0.124,1.491455078125,-5.795654296875,2.412353515625
0.1245,0.690673828125,-6.035888671875,3.373291015625
0.125,0.010009765625,-6.196044921875,4.294189453125
0.1255,-1.031005859375,-5.915771484375,4.974853515625
0.126,-2.272216796875,-4.994873046875,5.455322265625
0.1265,-3.473388671875,-3.873779296875,5.735595703125
0.127,-4.354248046875,-2.752685546875,5.735595703125
0.1275,-4.914794921875,-1.951904296875,5.815673828125
0.128,-5.195068359375,-1.271240234375,5.655517578125
0.1285,-5.275146484375,-0.350341796875,5.094970703125
0.129,-5.275146484375,0.850830078125,4.214111328125
0.1295,-5.235107421875,2.052001953125,3.173095703125
0.13,-4.994873046875,3.052978515625,2.252197265625
0.1305,-4.834716796875,3.853759765625,1.491455078125
0.131,-4.354248046875,4.374267578125,0.610595703125
0.1315,-3.513427734375,4.734619140625,-0.590576171875
0.132,-2.512451171875,5.094970703125,-1.871826171875
0.1325,-1.431396484375,5.215087890625,-3.072998046875
0.133,-0.710693359375,5.415283203125,-3.993896484375
0.1335,0.170166015625,5.455322265625,-4.794677734375
0.134,1.211181640625,4.894775390625,-5.395263671875
0.1345,2.492431640625,3.853759765625,-5.755615234375
0.135,3.613525390625,2.652587890625,-5.915771484375
0.1355,4.334228515625,1.611572265625,-5.915771484375
0.136,4.814697265625,0.930908203125,-5.955810546875
0.1365,4.974853515625,0.050048828125,-5.595458984375
0.137,4.934814453125,-1.071044921875,-4.834716796875
0.1375,4.894775390625,-2.272216796875,-3.873779296875
0.138,4.774658203125,-3.353271484375,-2.832763671875
0.1385,4.534423828125,-4.194091796875,-1.951904296875
0.139,4.334228515625,-4.914794921875,-1.151123046875
0.1395,3.693603515625,-5.315185546875,-0.230224609375
0.14,2.652587890625,-5.635498046875,1.131103515625
0.1405,1.531494140625,-5.875732421875,2.412353515625
0.141,0.610595703125,-5.955810546875,3.453369140625
0.1415,0.010009765625,-6.196044921875,4.334228515625
0.142,-1.031005859375,-5.955810546875,5.054931640625
0.1425,-2.232177734375,-5.114990234375,5.535400390625
0.143,-3.473388671875,-3.993896484375,5.855712890625
0.1435,-4.434326171875,-2.752685546875,5.895751953125
0.144,-5.034912109375,-1.871826171875,5.815673828125
0.1445,-5.355224609375,-1.191162109375,5.735595703125
0.145,-5.435302734375,-0.350341796875,5.255126953125
0.1455,-5.395263671875,0.890869140625,4.294189453125
0.146,-5.275146484375,2.132080078125,3.293212890625
0.1465,-5.074951171875,3.173095703125,2.252197265625
0.147,-4.834716796875,3.933837890625,1.451416015625
0.1475,-4.434326171875,4.494384765625,0.610595703125
0.148,-3.633544921875,4.814697265625,-0.510498046875
0.1485,-2.592529296875,5.175048828125,-1.791748046875
0.149,-1.431396484375,5.255126953125,-3.072998046875
0.1495,-0.630615234375,5.415283203125,-3.993896484375
0.15,0.130126953125,5.575439453125,-4.834716796875
0.1505,1.131103515625,5.094970703125,-5.435302734375
0.151,2.412353515625,4.053955078125,-5.875732421875
0.1515,3.573486328125,2.852783203125,-6.115966796875
0.152,4.414306640625,1.691650390625,-6.075927734375
0.1525,4.934814453125,0.890869140625,-6.075927734375
0.153,5.135009765625,0.130126953125,-5.755615234375
0.1535,5.094970703125,-0.990966796875,-5.114990234375
0.154,5.094970703125,-2.112060546875,-4.114013671875
0.1545,4.934814453125,-3.353271484375,-2.952880859375
0.155,4.654541015625,-4.274169921875,-1.951904296875
0.1555,4.494384765625,-5.034912109375,-1.191162109375
0.156,3.853759765625,-5.435302734375,-0.270263671875
0.1565,2.812744140625,-5.755615234375,1.051025390625
0.157,1.691650390625,-6.075927734375,2.412353515625
0.1575,0.570556640625,-6.075927734375,3.573486328125
0.158,-0.230224609375,-6.276123046875,4.494384765625
0.1585,-1.031005859375,-6.156005859375,5.255126953125
0.159,-2.192138671875,-5.435302734375,5.735595703125
0.1595,-3.513427734375,-4.234130859375,6.095947265625
0.16,-4.634521484375,-2.912841796875,6.135986328125
0.1605,-5.275146484375,-1.871826171875,6.055908203125
0.161,-5.635498046875,-1.111083984375,5.975830078125
0.1615,-5.755615234375,-0.270263671875,5.415283203125
0.162,-5.635498046875,1.051025390625,4.494384765625
0.1625,-5.515380859375,2.292236328125,3.373291015625
0.163,-5.275146484375,3.493408203125,2.212158203125
0.1635,-4.994873046875,4.294189453125,1.291259765625
0.164,-4.634521484375,4.854736328125,0.490478515625
0.1645,-3.793701171875,5.175048828125,-0.630615234375
0.165,-2.552490234375,5.415283203125,-2.031982421875
0.1655,-1.271240234375,5.615478515625,-3.473388671875
0.166,-0.310302734375,5.615478515625,-4.474365234375
0.1665,0.450439453125,5.735595703125,-5.275146484375
0.167,1.411376953125,5.295166015625,-5.915771484375
0.1675,2.732666015625,4.174072265625,-6.356201171875
0.168,4.013916015625,2.852783203125,-6.556396484375
0.1685,4.974853515625,1.451416015625,-6.476318359375
0.169,5.455322265625,0.530517578125,-6.356201171875
0.1695,5.615478515625,-0.350341796875,-6.115966796875
0.17,5.615478515625,-1.311279296875,-5.315185546875
0.1705,5.415283203125,-2.672607421875,-4.033935546875
0.171,5.255126953125,-3.993896484375,-2.752685546875
0.1715,4.854736328125,-4.994873046875,-1.631591796875
0.172,4.494384765625,-5.635498046875,-0.790771484375
0.1725,3.853759765625,-6.115966796875,0.250244140625
0.173,2.692626953125,-6.276123046875,1.531494140625
0.1735,1.331298828125,-6.476318359375,3.052978515625
0.174,0.050048828125,-6.436279296875,4.334228515625
0.1745,-0.830810546875,-6.436279296875,5.135009765625
0.175,-1.511474609375,-6.356201171875,5.815673828125
0.1755,-2.672607421875,-5.595458984375,6.376220703125
0.176,-4.114013671875,-4.194091796875,6.656494140625
0.1765,-5.235107421875,-2.832763671875,6.696533203125
0.177,-5.915771484375,-1.511474609375,6.416259765625
0.1775,-6.236083984375,-0.670654296875,6.176025390625
0.178,-6.236083984375,0.290283203125,5.655517578125
0.1785,-6.075927734375,1.451416015625,4.614501953125
0.179,-5.795654296875,2.852783203125,3.333251953125
0.1795,-5.475341796875,4.093994140625,1.971923828125
0.18,-5.074951171875,4.854736328125,0.970947265625
0.1805,-4.634521484375,5.415283203125,0.130126953125
0.181,-3.793701171875,5.695556640625,-0.990966796875
0.1815,-2.432373046875,5.775634765625,-2.352294921875
0.182,-1.111083984375,5.935791015625,-3.833740234375
0.1825,0.170166015625,5.815673828125,-4.954833984375
0.183,0.890869140625,5.815673828125,-5.715576171875
0.1835,1.651611328125,5.495361328125,-6.276123046875
0.184,2.852783203125,4.534423828125,-6.716552734375
0.1845,4.254150390625,3.052978515625,-6.916748046875
0.185,5.295166015625,1.571533203125,-6.836669921875
0.1855,5.735595703125,0.450439453125,-6.556396484375
0.186,5.975830078125,-0.390380859375,-6.276123046875
0.1865,5.895751953125,-1.311279296875,-5.635498046875
0.187,5.695556640625,-2.592529296875,-4.394287109375
0.1875,5.415283203125,-3.953857421875,-3.072998046875
0.188,5.054931640625,-5.074951171875,-1.751708984375
