wavelength,x,y,z
0.0,-20.324829101562,3.2581787109375,16.230834960938
0.0005,-18.923461914062,-1.1060791015625,19.073608398438
0.001,-16.641235351562,-4.8297119140625,20.595092773438
0.0015,-14.118774414062,-7.6324462890625,20.995483398438
0.002,-11.356079101562,-10.715454101562,21.355834960938
0.0025,-6.1510009765625,-14.759399414062,20.314819335938
0.003,-1.9468994140625,-17.442016601562,18.953491210938
0.0035,2.3372802734375,-19.363891601562,16.951538085938
0.004,5.9007568359375,-20.605102539062,14.869506835938
0.0045,8.8636474609375,-20.364868164062,11.906616210938
0.005,12.226928710938,-20.164672851562,8.5833740234375
0.0055,15.790405273438,-19.323852539062,4.3392333984375
0.006,18.713256835938,-17.482055664062,-0.3853759765625
0.0065,20.314819335938,-15.400024414062,-4.0289306640625
0.007,20.995483398438,-12.957641601562,-7.1119384765625
0.0075,21.075561523438,-10.074829101562,-10.194946289062
0.008,20.595092773438,-5.6304931640625,-14.158813476562
0.0085,19.714233398438,-2.1871337890625,-16.881469726562
0.009,18.072631835938,1.8568115234375,-19.203735351562
0.0095,15.870483398438,5.5003662109375,-20.645141601562
0.01,12.867553710938,8.3831787109375,-20.605102539062
0.0105,9.8646240234375,11.546264648438,-20.805297851562
0.011,4.9398193359375,15.309936523438,-19.844360351562
0.0115,0.2152099609375,18.072631835938,-18.042602539062
0.012,-3.5084228515625,19.514038085938,-16.040649414062
0.0125,-6.7515869140625,20.394897460938,-13.958618164062
0.013,-9.7545166015625,20.194702148438,-10.915649414062
0.0135,-13.518188476562,19.514038085938,-6.7515869140625
0.014,-16.441040039062,18.593139648438,-3.0279541015625
0.0145,-19.083618164062,16.631225585938,1.5364990234375
0.015,-20.364868164062,14.389038085938,5.0599365234375
0.0155,-20.645141601562,11.666381835938,7.9827880859375
0.016,-20.805297851562,8.8636474609375,11.105834960938
0.0165,-20.124633789062,4.3392333984375,14.949584960938
0.017,-18.923461914062,0.4554443359375,17.632202148438
0.0175,-17.081665039062,-3.0679931640625,19.353881835938
0.018,-15.079711914062,-6.3511962890625,20.635131835938
0.0185,-11.836547851562,-9.3140869140625,20.474975585938
0.019,-8.1129150390625,-12.757446289062,20.194702148438
0.0195,-3.8687744140625,-15.880493164062,19.273803710938
0.02,1.0159912109375,-18.442993164062,17.191772460938
0.0205,4.4193115234375,-19.564086914062,15.189819335938
0.021,7.3822021484375,-20.004516601562,12.907592773438
0.0215,10.385131835938,-20.004516601562,10.104858398438
0.022,14.308959960938,-19.043579101562,5.4202880859375
0.0225,17.071655273438,-17.802368164062,1.5364990234375
0.023,19.193725585938,-15.920532226562,-2.3873291015625
0.0235,20.234741210938,-13.758422851562,-5.6304931640625
0.024,20.234741210938,-10.755493164062,-8.8336181640625
0.0245,20.234741210938,-7.5924072265625,-11.916625976562
0.025,19.714233398438,-3.7086181640625,-15.279907226562
0.0255,18.232788085938,0.5355224609375,-17.962524414062
0.026,16.150756835938,3.8187255859375,-19.243774414062
0.0265,14.068725585938,6.8616943359375,-20.244750976562
0.027,11.025756835938,9.7845458984375,-20.204711914062
0.0275,6.3011474609375,13.628295898438,-19.403930664062
0.028,2.4573974609375,16.350952148438,-18.483032226562
0.0285,-1.9468994140625,18.473022460938,-16.481079101562
0.029,-5.1900634765625,19.473999023438,-14.399047851562
0.0295,-8.1129150390625,19.473999023438,-11.796508789062
0.03,-11.195922851562,19.473999023438,-8.9537353515625
0.0305,-14.879516601562,18.513061523438,-4.4693603515625
0.031,-17.642211914062,16.791381835938,0.0150146484375
0.0315,-19.163696289062,14.909545898438,3.2982177734375
0.032,-20.084594726562,12.587280273438,6.3411865234375
0.0325,-20.004516601562,9.7445068359375,9.3040771484375
0.033,-19.724243164062,5.8206787109375,12.987670898438
0.0335,-19.083618164062,2.4173583984375,15.950561523438
0.034,-17.562133789062,-1.6265869140625,18.392944335938
0.0345,-15.400024414062,-4.8697509765625,19.514038085938
0.035,-12.957641601562,-7.7125244140625,19.954467773438
0.0355,-10.114868164062,-10.755493164062,20.114624023438
0.036,-5.0699462890625,-14.439086914062,19.033569335938
0.0365,-0.9058837890625,-17.041625976562,17.552124023438
0.037,2.8577880859375,-18.643188476562,15.750366210938
0.0375,6.0208740234375,-19.524047851562,13.708374023438
0.038,9.0238037109375,-19.323852539062,10.705444335938
0.0385,12.427124023438,-19.003540039062,7.2220458984375
0.039,15.630249023438,-18.122680664062,3.2581787109375
0.0395,18.272827148438,-16.240844726562,-1.2662353515625
0.04,19.313842773438,-14.278930664062,-4.3092041015625
0.0405,19.994506835938,-11.876586914062,-7.3521728515625
0.041,20.114624023438,-8.9136962890625,-10.234985351562
0.0415,19.514038085938,-4.7496337890625,-14.038696289062
0.042,18.553100585938,-1.1060791015625,-16.721313476562
0.0425,16.951538085938,2.5775146484375,-18.763305664062
0.043,14.749389648438,5.7406005859375,-19.844360351562
0.0435,11.666381835938,8.8236083984375,-19.844360351562
0.044,8.3031005859375,12.146850585938,-19.924438476562
0.0445,3.6986083984375,15.550170898438,-18.923461914062
0.045,-1.0660400390625,17.992553710938,-16.841430664062
0.0455,-4.1490478515625,19.153686523438,-15.079711914062
0.046,-7.2320556640625,19.834350585938,-12.917602539062
0.0465,-10.355102539062,19.514038085938,-9.7545166015625
0.047,-14.038696289062,18.793334960938,-5.5103759765625
0.0475,-16.961547851562,17.632202148438,-1.5865478515625
0.048,-19.203735351562,15.670288085938,2.6976318359375
0.0485,-20.044555664062,13.388061523438,5.7406005859375
0.049,-20.364868164062,10.505249023438,8.7835693359375
0.0495,-20.364868164062,7.3421630859375,12.186889648438
0.05,-19.804321289062,3.1781005859375,15.670288085938
0.0505,-18.162719726562,-0.9058837890625,18.192749023438
0.051,-16.360961914062,-4.1890869140625,19.714233398438
0.0515,-14.078735351562,-7.2320556640625,20.555053710938
0.052,-10.715454101562,-10.315063476562,20.354858398438
0.0525,-6.5513916015625,-13.798461914062,19.794311523438
0.053,-2.1470947265625,-16.881469726562,18.633178710938
0.0535,2.5374755859375,-18.963500976562,16.350952148438
0.054,5.5003662109375,-19.684204101562,14.348999023438
0.0545,8.6234130859375,-20.044555664062,11.786499023438
0.055,11.866577148438,-19.684204101562,8.3831787109375
0.0555,15.390014648438,-18.683227539062,4.0989990234375
0.056,18.152709960938,-17.161743164062,-0.2652587890625
0.0565,19.954467773438,-15.119750976562,-4.0289306640625
0.057,20.515014648438,-12.717407226562,-7.0318603515625
0.0575,20.595092773438,-9.4742431640625,-10.275024414062
0.058,20.234741210938,-5.8707275390625,-13.638305664062
0.0585,19.554077148438,-2.0269775390625,-16.801391601562
0.059,17.632202148438,2.2572021484375,-19.083618164062
0.0595,15.430053710938,5.3402099609375,-20.084594726562
0.06,12.987670898438,8.4232177734375,-20.805297851562
0.0605,9.2640380859375,11.706420898438,-20.444946289062
0.061,4.7796630859375,15.109741210938,-19.484008789062
0.0615,0.3353271484375,17.952514648438,-18.042602539062
0.062,-3.9488525390625,19.714233398438,-15.880493164062
0.0625,-6.8717041015625,20.114624023438,-13.558227539062
0.063,-10.074829101562,20.194702148438,-10.635375976562
0.0635,-13.518188476562,19.674194335938,-6.8717041015625
0.064,-16.761352539062,18.432983398438,-2.5875244140625
0.0645,-19.283813476562,16.431030273438,1.9368896484375
0.065,-20.645141601562,14.268920898438,5.3402099609375
0.0655,-21.085571289062,11.666381835938,8.4632568359375
0.066,-21.005493164062,8.1829833984375,11.906616210938
0.0665,-20.324829101562,4.2191162109375,15.229858398438
0.067,-19.283813476562,0.2552490234375,18.232788085938
0.0675,-17.241821289062,-3.8687744140625,20.274780273438
0.068,-14.759399414062,-6.7916259765625,20.795288085938
0.0685,-12.036743164062,-9.9146728515625,21.235717773438
0.069,-7.8726806640625,-13.438110351562,20.755249023438
0.0695,-3.1881103515625,-16.641235351562,19.353881835938
0.07,1.3763427734375,-18.923461914062,17.391967773438
0.0705,5.0999755859375,-20.444946289062,15.390014648438
0.071,8.1029052734375,-20.525024414062,12.787475585938
0.0715,11.346069335938,-20.364868164062,9.5843505859375
0.072,14.949584960938,-19.684204101562,5.4202880859375
0.0725,17.992553710938,-18.242797851562,1.0159912109375
0.073,20.194702148438,-16.040649414062,-3.3082275390625
0.0735,20.995483398438,-13.718383789062,-6.3912353515625
0.074,21.315795898438,-10.875610351562,-9.5543212890625
0.0745,20.995483398438,-6.9918212890625,-13.197875976562
0.075,20.154663085938,-3.1480712890625,-16.280883789062
0.0755,18.713256835938,0.9759521484375,-18.843383789062
0.076,16.631225585938,4.7796630859375,-20.645141601562
0.0765,13.828491210938,7.7425537109375,-20.885375976562
0.077,10.825561523438,10.865600585938,-21.045532226562
0.0775,6.3411865234375,14.589233398438,-20.364868164062
0.078,1.6566162109375,17.632202148438,-18.963500976562
0.0785,-2.7877197265625,19.473999023438,-16.681274414062
0.079,-6.1109619140625,20.474975585938,-14.679321289062
0.0795,-9.1939697265625,20.635131835938,-11.956665039062
0.08,-12.517211914062,20.154663085938,-8.2730712890625
0.0805,-15.880493164062,19.233764648438,-4.3092041015625
0.081,-18.843383789062,17.512084960938,0.3753662109375
0.0815,-20.725219726562,15.309936523438,4.4993896484375
0.082,-21.125610351562,12.747436523438,7.4222412109375
0.0825,-21.445922851562,9.7445068359375,10.705444335938
0.083,-20.965454101562,5.5003662109375,14.509155273438
0.0835,-19.964477539062,1.5765380859375,17.552124023438
0.084,-18.082641601562,-2.4273681640625,19.634155273438
0.0845,-16.040649414062,-5.9107666015625,21.155639648438
0.085,-13.077758789062,-8.9537353515625,21.275756835938
0.0855,-9.5543212890625,-12.196899414062,21.115600585938
0.086,-5.1099853515625,-15.640258789062,20.194702148438
0.0865,-0.1051025390625,-18.603149414062,18.432983398438
0.087,4.0189208984375,-20.164672851562,16.150756835938
0.0875,7.0618896484375,-20.685180664062,13.908569335938
0.088,10.345092773438,-20.845336914062,11.025756835938
0.0885,14.108764648438,-20.124633789062,6.6614990234375
0.089,17.071655273438,-19.043579101562,2.6976318359375
0.0895,19.714233398438,-17.041625976562,-1.8267822265625
0.09,21.275756835938,-14.759399414062,-5.6304931640625
0.0905,21.435913085938,-11.916625976562,-8.6734619140625
0.091,21.515991210938,-8.7135009765625,-12.036743164062
0.0915,20.835327148438,-4.4293212890625,-15.640258789062
0.092,19.714233398438,-0.2652587890625,-18.683227539062
0.0925,17.432006835938,3.6185302734375,-20.364868164062
0.093,15.229858398438,6.9017333984375,-21.365844726562
0.0935,12.146850585938,10.104858398438,-21.526000976562
0.094,7.6624755859375,13.788452148438,-20.925415039062
0.0945,3.5384521484375,16.711303710938,-19.884399414062
0.095,-1.5465087890625,19.393920898438,-17.842407226562
0.0955,-5.3902587890625,20.795288085938,-15.560180664062
0.096,-8.2730712890625,20.795288085938,-12.957641601562
0.0965,-11.476196289062,20.875366210938,-10.114868164062
0.097,-15.480102539062,19.874389648438,-5.2701416015625
0.0975,-18.362915039062,18.352905273438,-0.9459228515625
0.098,-20.444946289062,16.310913085938,3.1781005859375
0.0985,-21.646118164062,13.948608398438,6.7015380859375
0.099,-21.646118164062,10.825561523438,9.8646240234375
0.0995,-21.485961914062,7.0618896484375,13.508178710938
0.1,-20.685180664062,3.1781005859375,16.671264648438
0.1005,-19.243774414062,-1.2662353515625,19.594116210938
0.101,-16.841430664062,-5.0699462890625,21.075561523438
0.1015,-14.359008789062,-7.9927978515625,21.556030273438
0.102,-11.396118164062,-11.075805664062,21.796264648438
0.1025,-6.2310791015625,-15.159790039062,20.795288085938
0.103,-1.9468994140625,-17.802368164062,19.393920898438
0.1035,2.5775146484375,-19.884399414062,17.231811523438
0.104,6.3011474609375,-21.165649414062,15.069702148438
0.1045,9.3040771484375,-20.965454101562,12.026733398438
0.105,12.627319335938,-20.845336914062,8.7835693359375
0.1055,16.350952148438,-19.804321289062,4.2191162109375
0.106,19.353881835938,-17.882446289062,-0.6256103515625
0.1065,21.035522460938,-15.680297851562,-4.4293212890625
0.107,21.796264648438,-13.157836914062,-7.7125244140625
0.1075,21.796264648438,-10.114868164062,-10.835571289062
0.108,21.315795898438,-5.6705322265625,-14.839477539062
0.1085,20.394897460938,-2.0269775390625,-17.602172851562
0.109,18.633178710938,2.2572021484375,-20.044555664062
0.1095,16.190795898438,6.0208740234375,-21.485961914062
0.11,13.067749023438,9.0238037109375,-21.485961914062
0.1105,10.064819335938,12.226928710938,-21.646118164062
0.111,4.7396240234375,16.230834960938,-20.484985351562
0.1115,-0.1451416015625,18.993530273438,-18.683227539062
0.112,-4.0289306640625,20.474975585938,-16.561157226562
0.1125,-7.5123291015625,21.435913085938,-14.278930664062
0.113,-10.795532226562,21.075561523438,-10.955688476562
0.1135,-14.399047851562,20.474975585938,-6.9117431640625
0.114,-17.642211914062,19.473999023438,-2.8277587890625
0.1145,-20.484985351562,17.311889648438,2.1771240234375
0.115,-21.726196289062,14.869506835938,5.8206787109375
0.1155,-22.086547851562,11.986694335938,9.1038818359375
0.116,-22.166625976562,8.9437255859375,12.307006835938
0.1165,-21.405883789062,4.0989990234375,16.431030273438
0.117,-20.044555664062,0.0550537109375,19.193725585938
0.1175,-18.082641601562,-3.8687744140625,21.075561523438
0.118,-15.680297851562,-7.4322509765625,22.356811523438
0.1185,-12.036743164062,-10.715454101562,21.996459960938
0.119,-8.3531494140625,-14.078735351562,21.796264648438
0.1195,-3.4683837890625,-17.642211914062,20.595092773438
0.12,1.9368896484375,-20.324829101562,18.192749023438
0.1205,5.5003662109375,-21.365844726562,15.950561523438
0.121,8.8636474609375,-21.926391601562,13.348022460938
0.1215,12.186889648438,-21.606079101562,10.064819335938
0.122,16.190795898438,-20.484985351562,5.0999755859375
0.1225,19.153686523438,-19.083618164062,0.8958740234375
0.123,21.475952148438,-16.881469726562,-3.6685791015625
0.1235,22.436889648438,-14.278930664062,-7.1920166015625
0.124,22.436889648438,-10.875610351562,-10.595336914062
0.1245,22.276733398438,-7.5523681640625,-13.878540039062
0.125,21.395874023438,-3.0279541015625,-17.562133789062
0.1255,19.514038085938,1.6566162109375,-20.364868164062
0.126,17.151733398438,5.2200927734375,-21.606079101562
0.1265,14.669311523438,8.6634521484375,-22.567016601562
0.127,10.865600585938,11.986694335938,-22.166625976562
0.1275,6.1009521484375,15.750366210938,-21.325805664062
0.128,1.6566162109375,18.713256835938,-20.124633789062
0.1285,-3.5484619140625,20.995483398438,-17.562133789062
0.129,-6.9117431640625,21.716186523438,-15.119750976562
0.1295,-10.234985351562,21.796264648438,-12.116821289062
0.13,-13.478149414062,21.475952148438,-8.7535400390625
0.1305,-17.361938476562,20.154663085938,-3.7086181640625
0.131,-20.244750976562,18.152709960938,1.1361083984375
0.1315,-21.886352539062,15.870483398438,4.9798583984375
0.132,-22.607055664062,13.187866210938,8.3431396484375
0.1325,-22.326782226562,9.5843505859375,11.786499023438
0.133,-21.846313476562,5.5804443359375,15.349975585938
0.1335,-20.965454101562,1.5765380859375,18.473022460938
0.134,-18.843383789062,-3.0679931640625,20.995483398438
0.1345,-16.200805664062,-6.4312744140625,21.796264648438
0.135,-13.558227539062,-9.6343994140625,22.436889648438
0.1355,-9.9547119140625,-12.837524414062,22.076538085938
0.136,-4.5494384765625,-16.681274414062,20.675170898438
0.1365,0.0150146484375,-19.363891601562,19.073608398438
0.137,4.3392333984375,-21.205688476562,16.791381835938
0.1375,7.6624755859375,-21.646118164062,14.268920898438
0.138,11.025756835938,-21.405883789062,10.865600585938
0.1385,14.389038085938,-20.885375976562,7.2620849609375
0.139,17.872436523438,-19.644165039062,2.6575927734375
0.1395,20.555053710938,-17.361938476562,-2.3072509765625
0.14,21.636108398438,-15.039672851562,-5.7105712890625
0.1405,22.276733398438,-12.357055664062,-8.9537353515625
0.141,21.956420898438,-8.8736572265625,-12.196899414062
0.1415,21.155639648438,-4.5093994140625,-15.880493164062
0.142,20.074584960938,-0.6256103515625,-18.723266601562
0.1425,18.072631835938,3.6185302734375,-20.885375976562
0.143,15.390014648438,6.9818115234375,-21.566040039062
0.1435,12.226928710938,10.224975585938,-21.766235351562
0.144,8.5032958984375,13.588256835938,-21.566040039062
0.1445,3.3782958984375,17.151733398438,-20.204711914062
0.145,-1.6265869140625,19.594116210938,-17.962524414062
0.1455,-5.1099853515625,20.915405273438,-16.000610351562
0.146,-8.3931884765625,21.475952148438,-13.438110351562
0.1465,-11.716430664062,20.995483398438,-9.9146728515625
0.147,-15.359985351562,20.194702148438,-5.7105712890625
0.1475,-18.442993164062,18.833374023438,-1.3463134765625
0.148,-20.845336914062,16.511108398438,3.3782958984375
0.1485,-21.526000976562,14.028686523438,6.5413818359375
0.149,-21.926391601562,11.025756835938,9.9046630859375
0.1495,-21.726196289062,7.5023193359375,13.307983398438
0.15,-20.805297851562,3.1380615234375,16.831420898438
0.1505,-19.203735351562,-1.1060791015625,19.433959960938
0.151,-17.161743164062,-4.8297119140625,21.155639648438
0.1515,-14.559204101562,-8.0328369140625,21.836303710938
0.152,-11.035766601562,-11.276000976562,21.596069335938
0.1525,-6.9117431640625,-14.839477539062,21.115600585938
0.153,-2.0269775390625,-18.082641601562,19.674194335938
0.1535,2.8978271484375,-20.124633789062,17.151733398438
0.154,6.0609130859375,-20.965454101562,15.069702148438
0.1545,9.3841552734375,-21.325805664062,12.387084960938
0.155,12.787475585938,-20.805297851562,8.6634521484375
0.1555,16.310913085938,-19.764282226562,4.2191162109375
0.156,19.233764648438,-18.082641601562,-0.3052978515625
0.1565,21.235717773438,-15.840454101562,-4.5093994140625
0.157,21.636108398438,-13.157836914062,-7.5924072265625
0.1575,21.796264648438,-9.9547119140625,-11.035766601562
0.158,21.355834960938,-6.1510009765625,-14.519165039062
0.1585,20.474975585938,-1.9468994140625,-17.762329101562
0.159,18.473022460938,2.3773193359375,-20.004516601562
0.1595,16.190795898438,5.7406005859375,-21.245727539062
0.16,13.468139648438,8.9437255859375,-21.806274414062
0.1605,9.6243896484375,12.347045898438,-21.365844726562
0.161,5.0999755859375,15.750366210938,-20.484985351562
0.1615,0.3753662109375,18.793334960938,-18.923461914062
0.162,-4.1890869140625,20.635131835938,-16.521118164062
0.1625,-7.1519775390625,20.915405273438,-14.118774414062
0.163,-10.475219726562,21.115600585938,-11.235961914062
0.1635,-14.078735351562,20.474975585938,-7.1519775390625
0.164,-17.321899414062,19.193725585938,-2.7877197265625
0.1645,-19.884399414062,17.151733398438,1.7366943359375
0.165,-21.485961914062,14.869506835938,5.5404052734375
0.1655,-21.766235351562,12.146850585938,8.6634521484375
0.166,-21.726196289062,8.6634521484375,12.186889648438
0.1665,-21.005493164062,4.5794677734375,15.550170898438
0.167,-20.004516601562,0.4554443359375,18.673217773438
0.1675,-17.762329101562,-3.7886962890625,20.675170898438
0.168,-15.400024414062,-6.8717041015625,21.395874023438
0.1685,-12.597290039062,-10.074829101562,21.916381835938
0.169,-8.2730712890625,-13.678344726562,21.235717773438
0.1695,-3.7086181640625,-16.721313476562,19.994506835938
0.17,1.0159912109375,-19.283813476562,18.072631835938
0.1705,5.0599365234375,-20.885375976562,15.910522460938
0.171,8.0228271484375,-20.965454101562,13.307983398438
0.1715,11.265991210938,-20.925415039062,10.224975585938
0.172,15.069702148438,-20.164672851562,5.9007568359375
0.1725,18.072631835938,-18.763305664062,1.4163818359375
0.173,20.394897460938,-16.521118164062,-2.9478759765625
0.1735,21.395874023438,-14.198852539062,-6.2711181640625
0.174,21.756225585938,-11.356079101562,-9.5142822265625
0.1745,21.515991210938,-7.4722900390625,-13.197875976562
0.175,20.675170898438,-3.5885009765625,-16.320922851562
0.1755,19.353881835938,0.6156005859375,-19.203735351562
0.176,17.151733398438,4.6195068359375,-21.045532226562
0.1765,14.389038085938,7.6624755859375,-21.285766601562
0.177,11.506225585938,10.825561523438,-21.766235351562
0.1775,6.6614990234375,14.869506835938,-20.965454101562
0.178,2.0169677734375,17.872436523438,-19.564086914062
