wavelength,x,y,z
0.0,14.739379882812,-21.015502929688,6.9718017578125
0.0005,17.902465820312,-20.174682617188,3.1680908203125
0.001,20.424926757812,-18.332885742188,-1.1561279296875
0.0015,22.066528320312,-16.170776367188,-4.9998779296875
0.002,22.066528320312,-12.847534179688,-8.2430419921875
0.0025,22.146606445312,-9.2840576171875,-11.886596679688
0.003,21.706176757812,-4.9197998046875,-15.730346679688
0.0035,20.545043945312,-0.7957763671875,-18.853393554688
0.004,18.463012695312,3.1280517578125,-20.615112304688
0.0045,16.260864257812,6.5313720703125,-21.896362304688
0.005,12.777465820312,9.8546142578125,-21.816284179688
0.0055,7.8927001953125,13.938598632812,-21.215698242188
0.006,3.9688720703125,16.981567382812,-20.535034179688
0.0065,-0.9959716796875,19.584106445312,-18.533081054688
0.007,-4.8397216796875,21.105590820312,-16.411010742188
0.0075,-7.8826904296875,21.065551757812,-13.608276367188
0.008,-11.286010742188,21.145629882812,-10.525268554688
0.0085,-15.410034179688,20.384887695312,-5.7606201171875
0.009,-18.292846679688,19.023559570312,-1.6365966796875
0.0095,-20.334838867188,17.141723632812,2.1671142578125
0.01,-21.536010742188,14.899536132812,5.6505126953125
0.0105,-21.455932617188,11.496215820312,8.8936767578125
0.011,-21.295776367188,7.4923095703125,12.777465820312
0.0115,-20.895385742188,3.8487548828125,15.980590820312
0.012,-19.534057617188,-0.3153076171875,18.783325195312
0.0125,-17.411987304688,-3.9989013671875,20.464965820312
0.013,-14.889526367188,-7.0418701171875,20.985473632812
0.0135,-11.806518554688,-10.244995117188,21.225708007812
0.014,-6.6014404296875,-14.409057617188,20.344848632812
0.0145,-2.5574951171875,-17.091674804688,19.223754882812
0.015,1.5264892578125,-19.133666992188,17.462036132812
0.0155,5.0499267578125,-20.494995117188,15.580200195312
0.016,8.1729736328125,-20.254760742188,12.417114257812
0.0165,11.536254882812,-20.214721679688,9.0938720703125
0.017,15.179809570312,-19.614135742188,5.1700439453125
0.0175,17.942504882812,-18.052612304688,0.9659423828125
0.018,19.664184570312,-16.210815429688,-2.5574951171875
0.0185,20.384887695312,-13.848510742188,-5.7205810546875
0.019,20.464965820312,-10.765502929688,-8.8035888671875
0.0195,20.224731445312,-6.4412841796875,-12.847534179688
0.02,19.744262695312,-3.1580810546875,-15.690307617188
0.0205,18.382934570312,0.6456298828125,-18.092651367188
0.021,16.461059570312,4.2091064453125,-19.814331054688
0.0215,13.418090820312,7.1319580078125,-19.734252929688
0.022,10.375122070312,10.415161132812,-20.134643554688
0.0225,5.7706298828125,14.298950195312,-19.494018554688
0.023,1.3262939453125,16.941528320312,-17.972534179688
0.0235,-2.1571044921875,18.543090820312,-16.411010742188
0.024,-5.4403076171875,19.704223632812,-14.449096679688
0.0245,-8.6033935546875,19.504028320312,-11.526245117188
0.025,-12.367065429688,19.183715820312,-7.4822998046875
0.0255,-15.490112304688,18.703247070312,-4.0389404296875
0.026,-17.972534179688,17.141723632812,0.0050048828125
0.0265,-19.534057617188,15.339965820312,3.4083251953125
0.027,-19.854370117188,12.457153320312,6.4112548828125
0.0275,-20.134643554688,9.4942626953125,9.6143798828125
0.028,-19.894409179688,5.2901611328125,13.618286132812
0.0285,-19.013549804688,1.6466064453125,16.380981445312
0.029,-17.532104492188,-1.7967529296875,18.342895507812
0.0295,-15.690307617188,-5.0799560546875,19.864379882812
0.03,-12.447143554688,-8.1229248046875,19.704223632812
0.0305,-8.5233154296875,-11.806518554688,19.584106445312
0.031,-4.5594482421875,-15.089721679688,19.143676757812
0.0315,0.0450439453125,-17.371948242188,17.381958007812
0.032,3.2081298828125,-18.933471679688,15.700317382812
0.0325,6.2510986328125,-19.534057617188,13.378051757812
0.033,9.4942626953125,-19.534057617188,10.455200195312
0.0335,13.458129882812,-18.973510742188,6.0909423828125
0.034,16.300903320312,-18.092651367188,2.5274658203125
0.0345,18.382934570312,-16.531127929688,-1.0760498046875
0.035,19.584106445312,-14.489135742188,-4.1990966796875
0.0355,19.584106445312,-11.406127929688,-7.3221435546875
0.036,19.784301757812,-8.0028076171875,-10.885620117188
0.0365,19.584106445312,-4.3592529296875,-14.369018554688
0.037,18.382934570312,-0.5555419921875,-17.011596679688
0.0375,16.661254882812,2.8077392578125,-18.573120117188
0.038,14.659301757812,5.9307861328125,-19.614135742188
0.0385,11.336059570312,8.9737548828125,-19.614135742188
0.039,6.7315673828125,12.857543945312,-19.093627929688
0.0395,2.8878173828125,15.780395507812,-18.332885742188
0.04,-1.1160888671875,17.902465820312,-16.731323242188
0.0405,-4.2791748046875,19.063598632812,-14.969604492188
0.041,-7.3621826171875,19.143676757812,-12.166870117188
0.0415,-10.725463867188,19.183715820312,-9.0438232421875
0.042,-14.328979492188,18.623168945312,-5.0799560546875
0.0425,-16.971557617188,17.261840820312,-1.1561279296875
0.043,-18.653198242188,15.660278320312,2.1270751953125
0.0435,-19.574096679688,13.418090820312,5.2501220703125
0.044,-19.574096679688,10.295043945312,8.2930908203125
0.0445,-19.494018554688,6.4112548828125,12.096801757812
0.045,-19.173706054688,3.1280517578125,15.099731445312
0.0455,-17.892456054688,-0.6356201171875,17.582153320312
0.046,-16.010620117188,-3.7186279296875,19.023559570312
0.0465,-13.328002929688,-6.8416748046875,19.343872070312
0.047,-10.204956054688,-10.084838867188,19.504028320312
0.0475,-5.4403076171875,-13.928588867188,18.743286132812
0.048,-1.3963623046875,-16.451049804688,17.462036132812
0.0485,2.0069580078125,-18.252807617188,16.060668945312
0.049,5.1300048828125,-19.093627929688,14.098754882812
0.0495,8.2530517578125,-18.933471679688,11.015747070312
0.05,11.816528320312,-18.813354492188,7.5323486328125
0.0505,15.019653320312,-18.252807617188,3.9688720703125
0.051,17.462036132812,-16.651245117188,0.0050048828125
0.0515,18.703247070312,-14.929565429688,-2.9578857421875
0.052,19.263793945312,-12.367065429688,-6.0809326171875
0.0525,19.343872070312,-9.3240966796875,-9.1639404296875
0.053,19.143676757812,-5.3602294921875,-12.967651367188
0.0535,18.422973632812,-1.9569091796875,-15.690307617188
0.054,17.061645507812,1.6065673828125,-17.812377929688
0.0545,15.059692382812,4.6895751953125,-19.013549804688
0.055,11.976684570312,7.7325439453125,-19.013549804688
0.0555,8.4532470703125,11.255981445312,-19.173706054688
0.056,4.2091064453125,14.699340820312,-18.573120117188
0.0565,-0.1551513671875,16.981567382812,-16.811401367188
0.057,-3.1580810546875,18.382934570312,-15.369995117188
0.0575,-6.2010498046875,19.023559570312,-13.127807617188
0.058,-9.4041748046875,18.863403320312,-9.9647216796875
0.0585,-13.087768554688,18.503051757812,-6.1209716796875
0.059,-15.890502929688,17.622192382812,-2.5975341796875
0.0595,-18.212768554688,15.980590820312,1.3262939453125
0.06,-19.173706054688,14.018676757812,4.2091064453125
0.0605,-19.413940429688,11.015747070312,7.4122314453125
0.061,-19.494018554688,7.6925048828125,10.895629882812
0.0615,-19.253784179688,3.9688720703125,14.379028320312
0.062,-18.012573242188,0.3253173828125,16.861450195312
0.0625,-16.531127929688,-2.9979248046875,18.543090820312
0.063,-14.328979492188,-6.0408935546875,19.504028320312
0.0635,-10.885620117188,-9.2440185546875,19.303833007812
0.064,-6.7615966796875,-12.847534179688,18.983520507812
0.0645,-2.7176513671875,-15.930541992188,18.102661132812
0.065,1.4464111328125,-17.932495117188,16.340942382812
0.0655,4.2891845703125,-18.813354492188,14.579223632812
0.066,7.4522705078125,-19.133666992188,11.976684570312
0.0665,10.855590820312,-18.933471679688,8.5733642578125
0.067,14.218872070312,-18.332885742188,4.8096923828125
0.0675,16.861450195312,-17.091674804688,1.0860595703125
0.068,18.703247070312,-15.410034179688,-2.4373779296875
0.0685,19.263793945312,-13.127807617188,-5.3201904296875
0.069,19.343872070312,-9.9647216796875,-8.4832763671875
0.0695,19.223754882812,-6.4012451171875,-12.006713867188
0.07,18.903442382812,-2.8778076171875,-15.209838867188
0.0705,17.381958007812,0.9259033203125,-17.411987304688
0.071,15.620239257812,3.8887939453125,-18.653198242188
0.0715,13.137817382812,6.8917236328125,-19.293823242188
0.072,9.4542236328125,10.255004882812,-19.133666992188
0.0725,5.2901611328125,13.698364257812,-18.573120117188
0.073,1.2462158203125,16.421020507812,-17.331909179688
0.0735,-2.5574951171875,18.222778320312,-15.770385742188
0.074,-5.2801513671875,18.783325195312,-13.728393554688
0.0745,-8.4832763671875,18.903442382812,-10.885620117188
0.075,-12.046752929688,18.623168945312,-7.3221435546875
0.0755,-15.209838867188,17.942504882812,-3.5985107421875
0.076,-17.492065429688,16.380981445312,0.2852783203125
0.0765,-18.933471679688,14.699340820312,3.2882080078125
0.077,-19.413940429688,12.056762695312,6.3712158203125
0.0775,-19.413940429688,8.6534423828125,9.8145751953125
0.078,-19.213745117188,5.0899658203125,13.177856445312
0.0785,-18.533081054688,1.5665283203125,16.020629882812
0.079,-16.971557617188,-2.1971435546875,18.222778320312
0.0795,-14.929565429688,-4.9598388671875,19.023559570312
0.08,-12.166870117188,-8.0428466796875,19.343872070312
0.0805,-8.1629638671875,-11.806518554688,19.143676757812
0.081,-3.9188232421875,-14.929565429688,18.382934570312
0.0815,0.3253173828125,-16.971557617188,16.661254882812
0.082,3.4483642578125,-18.733276367188,15.259887695312
0.0825,6.3311767578125,-18.973510742188,12.897583007812
0.083,9.6143798828125,-18.853393554688,9.6544189453125
0.0835,13.057739257812,-18.573120117188,6.1710205078125
0.084,16.060668945312,-17.652221679688,2.2872314453125
0.0845,18.222778320312,-15.970581054688,-1.4764404296875
0.085,19.063598632812,-14.008666992188,-4.1990966796875
0.0855,19.504028320312,-11.245971679688,-7.4022216796875
0.086,19.383911132812,-7.4022216796875,-11.085815429688
0.0865,19.143676757812,-3.9989013671875,-14.248901367188
0.087,18.022583007812,-0.5155029296875,-16.691284179688
0.0875,16.461059570312,3.0479736328125,-18.733276367188
0.088,14.018676757812,5.9307861328125,-19.173706054688
0.0885,10.815551757812,9.0538330078125,-19.293823242188
0.089,6.7716064453125,12.777465820312,-19.053588867188
0.0895,2.5274658203125,15.900512695312,-18.052612304688
0.09,-1.4764404296875,17.822387695312,-16.330932617188
0.0905,-4.4393310546875,18.943481445312,-14.689331054688
0.091,-7.6024169921875,19.223754882812,-12.046752929688
0.0915,-11.165893554688,18.863403320312,-8.3231201171875
0.092,-14.369018554688,18.503051757812,-4.8797607421875
0.0925,-17.171752929688,17.261840820312,-0.9959716796875
0.093,-19.093627929688,15.460083007812,2.8077392578125
0.0935,-19.574096679688,12.977661132812,5.6104736328125
0.094,-19.894409179688,10.014770507812,8.9337158203125
0.0945,-19.734252929688,6.0509033203125,12.737426757812
0.095,-19.213745117188,2.4073486328125,15.860473632812
0.0955,-17.692260742188,-1.2762451171875,17.942504882812
0.096,-16.010620117188,-4.5194091796875,19.584106445312
0.0965,-13.127807617188,-7.6024169921875,19.864379882812
0.097,-9.2840576171875,-11.045776367188,19.664184570312
0.0975,-5.3201904296875,-14.409057617188,19.183715820312
0.098,-0.7957763671875,-17.251831054688,17.742309570312
0.0985,3.0479736328125,-19.013549804688,15.940551757812
0.099,5.8507080078125,-19.494018554688,13.818481445312
0.0995,9.0938720703125,-19.734252929688,11.055786132812
0.1,13.057739257812,-19.213745117188,6.7716064453125
0.1005,16.020629882812,-18.453002929688,3.1680908203125
0.101,18.382934570312,-16.771362304688,-0.5155029296875
0.1015,20.024536132812,-15.089721679688,-4.1590576171875
0.102,20.104614257812,-12.086791992188,-7.1219482421875
0.1025,20.104614257812,-8.8436279296875,-10.685424804688
0.103,19.864379882812,-4.9598388671875,-14.088745117188
0.1035,19.023559570312,-1.0760498046875,-17.171752929688
0.104,17.181762695312,2.6876220703125,-19.013549804688
0.1045,15.059692382812,5.6104736328125,-19.934448242188
0.105,12.176879882812,8.8135986328125,-20.254760742188
0.1055,7.4122314453125,12.817504882812,-19.694213867188
0.106,3.6885986328125,15.740356445312,-19.053588867188
0.1065,-0.7156982421875,18.142700195312,-17.331909179688
0.107,-4.3992919921875,19.784301757812,-15.530151367188
0.1075,-7.2420654296875,19.744262695312,-12.887573242188
0.108,-10.565307617188,19.864379882812,-9.8846435546875
0.1085,-14.409057617188,19.343872070312,-5.7606201171875
0.109,-17.371948242188,18.062622070312,-1.5965576171875
0.1095,-19.373901367188,16.340942382812,2.0870361328125
0.11,-20.535034179688,14.218872070312,5.3302001953125
0.1105,-20.535034179688,11.095825195312,8.5333251953125
0.111,-20.494995117188,6.9718017578125,12.537231445312
0.1115,-20.054565429688,3.5284423828125,15.540161132812
0.112,-18.853393554688,-0.3953857421875,18.262817382812
0.1125,-16.931518554688,-4.1590576171875,20.064575195312
0.113,-14.168823242188,-7.0018310546875,20.344848632812
0.1135,-11.245971679688,-10.244995117188,20.625122070312
0.114,-6.1610107421875,-14.288940429688,19.864379882812
0.1145,-1.9569091796875,-17.131713867188,18.663208007812
0.115,1.9669189453125,-18.973510742188,16.901489257812
0.1155,5.4102783203125,-20.334838867188,15.059692382812
0.116,8.6134033203125,-20.134643554688,11.896606445312
0.1165,12.176879882812,-19.854370117188,8.2530517578125
0.117,15.620239257812,-19.373901367188,4.5294189453125
0.1175,18.422973632812,-17.812377929688,0.2452392578125
0.118,20.144653320312,-15.890502929688,-3.3582763671875
0.1185,20.625122070312,-13.328002929688,-6.4012451171875
0.119,20.825317382812,-10.244995117188,-9.6444091796875
0.1195,20.424926757812,-5.7606201171875,-13.808471679688
0.12,19.744262695312,-2.2772216796875,-16.651245117188
0.1205,18.222778320312,1.4864501953125,-18.893432617188
0.121,16.300903320312,5.0899658203125,-20.535034179688
0.1215,12.937622070312,8.1329345703125,-20.334838867188
0.122,9.5343017578125,11.536254882812,-20.575073242188
0.1225,4.9698486328125,15.299926757812,-19.814331054688
0.123,0.2852783203125,18.022583007812,-18.092651367188
0.1235,-3.3182373046875,19.504028320312,-16.330932617188
0.124,-6.5213623046875,20.424926757812,-14.168823242188
0.1245,-9.7645263671875,20.224731445312,-11.045776367188
0.125,-13.768432617188,19.624145507812,-6.6414794921875
0.1255,-16.811401367188,18.903442382812,-3.0780029296875
0.126,-19.213745117188,17.221801757812,1.0059814453125
0.1265,-20.735229492188,15.179809570312,4.4893798828125
0.127,-20.815307617188,12.096801757812,7.6925048828125
0.1275,-21.015502929688,8.8135986328125,11.095825195312
0.128,-20.535034179688,4.4893798828125,15.019653320312
0.1285,-19.494018554688,0.6055908203125,17.862426757812
0.129,-17.652221679688,-2.9578857421875,19.624145507812
0.1295,-15.690307617188,-6.2410888671875,21.025512695312
0.13,-12.126831054688,-9.3240966796875,20.785278320312
0.1305,-7.7225341796875,-13.328002929688,20.344848632812
0.131,-3.6785888671875,-16.491088867188,19.664184570312
0.1315,1.0860595703125,-18.933471679688,17.662231445312
0.132,4.4893798828125,-20.214721679688,15.780395507812
0.1325,7.6124267578125,-20.454956054688,13.137817382812
0.133,10.935668945312,-20.454956054688,10.054809570312
0.1335,14.979614257812,-19.694213867188,5.4102783203125
0.134,17.862426757812,-18.453002929688,1.5264892578125
0.1345,19.824340820312,-16.691284179688,-2.1971435546875
0.135,20.945434570312,-14.489135742188,-5.5203857421875
0.1355,20.785278320312,-11.085815429688,-8.8035888671875
0.136,20.705200195312,-7.4022216796875,-12.487182617188
0.1365,20.344848632812,-3.7586669921875,-15.970581054688
0.137,18.903442382812,0.5655517578125,-18.533081054688
0.1375,16.821411132812,4.0489501953125,-20.014526367188
0.138,14.379028320312,7.1719970703125,-20.775268554688
0.1385,11.015747070312,10.415161132812,-20.775268554688
0.139,5.9307861328125,14.499145507812,-19.934448242188
0.1395,1.9669189453125,17.301879882812,-18.933471679688
0.14,-2.2772216796875,19.383911132812,-17.051635742188
0.1405,-5.6405029296875,20.464965820312,-15.089721679688
0.141,-8.9637451171875,20.264770507812,-11.766479492188
0.1415,-12.327026367188,20.184692382812,-8.5233154296875
0.142,-16.010620117188,19.463989257812,-4.3192138671875
0.1425,-18.773315429688,17.742309570312,0.1251220703125
0.143,-20.374877929688,15.860473632812,3.4884033203125
0.1435,-21.135620117188,13.338012695312,6.7716064453125
0.144,-21.015502929688,9.9346923828125,10.094848632812
0.1445,-20.775268554688,5.6104736328125,14.058715820312
0.145,-20.134643554688,2.0469970703125,17.061645507812
0.1455,-18.573120117188,-1.9569091796875,19.504028320312
0.146,-16.370971679688,-5.4002685546875,20.785278320312
0.1465,-13.127807617188,-8.6434326171875,20.905395507812
0.147,-9.7244873046875,-12.046752929688,21.025512695312
0.1475,-4.5594482421875,-16.010620117188,19.984497070312
0.148,0.0050048828125,-18.573120117188,18.302856445312
0.1485,3.5684814453125,-20.214721679688,16.621215820312
0.149,6.8917236328125,-21.015502929688,14.338989257812
0.1495,10.375122070312,-20.655151367188,10.735473632812
0.15,14.098754882812,-20.254760742188,6.8516845703125
0.1505,17.421997070312,-19.413940429688,2.8477783203125
0.151,19.984497070312,-17.452026367188,-1.5965576171875
0.1515,21.105590820312,-15.410034179688,-4.7596435546875
0.152,21.505981445312,-12.407104492188,-8.2030029296875
0.1525,21.385864257812,-8.8436279296875,-11.726440429688
0.153,20.945434570312,-4.4393310546875,-15.530151367188
0.1535,19.784301757812,-0.5555419921875,-18.332885742188
0.154,18.062622070312,3.3282470703125,-20.494995117188
0.1545,15.620239257812,6.6915283203125,-21.495971679688
0.155,11.856567382812,10.094848632812,-21.215698242188
0.1555,7.7725830078125,13.858520507812,-21.095581054688
0.156,3.1680908203125,17.542114257812,-20.054565429688
0.1565,-1.8367919921875,19.824340820312,-17.932495117188
0.157,-5.1199951171875,21.025512695312,-16.090698242188
0.1575,-8.5233154296875,21.465942382812,-13.408081054688
0.158,-12.206909179688,21.065551757812,-9.5643310546875
0.1585,-15.970581054688,20.344848632812,-5.2801513671875
0.159,-18.973510742188,19.143676757812,-1.1160888671875
0.1595,-21.295776367188,16.981567382812,3.2481689453125
0.16,-22.016479492188,14.459106445312,6.4512939453125
0.1605,-22.176635742188,10.855590820312,10.174926757812
0.161,-21.936401367188,7.0518798828125,13.858520507812
0.1615,-21.335815429688,2.8077392578125,17.542114257812
0.162,-19.614135742188,-1.4764404296875,20.024536132812
0.1625,-17.612182617188,-5.1199951171875,21.706176757812
0.163,-14.849487304688,-8.4832763671875,22.426879882812
0.1635,-10.565307617188,-12.166870117188,21.906372070312
0.164,-6.0408935546875,-15.890502929688,21.265747070312
0.1645,-1.3162841796875,-19.093627929688,19.984497070312
0.165,3.4884033203125,-21.135620117188,17.662231445312
0.1655,6.6514892578125,-21.816284179688,15.380004882812
0.166,10.214965820312,-21.976440429688,12.216918945312
0.1665,14.098754882812,-21.455932617188,8.0528564453125
0.167,17.662231445312,-20.454956054688,3.6885986328125
0.1675,20.424926757812,-18.773315429688,-0.7156982421875
0.168,22.346801757812,-16.651245117188,-4.7596435546875
0.1685,22.627075195312,-13.648315429688,-8.0428466796875
0.169,22.546997070312,-9.7244873046875,-11.846557617188
0.1695,22.066528320312,-5.5604248046875,-15.570190429688
0.17,21.265747070312,-1.3563232421875,-18.933471679688
0.1705,19.143676757812,3.0079345703125,-21.215698242188
0.171,16.741333007812,6.4112548828125,-22.296752929688
0.1715,13.618286132812,9.8946533203125,-22.737182617188
0.172,8.9737548828125,13.818481445312,-22.096557617188
0.1725,4.3292236328125,17.301879882812,-21.135620117188
0.173,-0.5955810546875,20.104614257812,-19.413940429688
0.1735,-4.7996826171875,22.066528320312,-17.171752929688
0.174,-8.0828857421875,22.146606445312,-14.489135742188
0.1745,-11.726440429688,22.066528320312,-10.965698242188
0.175,-15.730346679688,21.425903320312,-6.6014404296875
0.1755,-19.093627929688,20.144653320312,-2.0770263671875
0.176,-21.455932617188,18.062622070312,2.3673095703125
0.1765,-22.897338867188,15.700317382812,5.9708251953125
0.177,-23.057495117188,12.457153320312,9.4942626953125
0.1775,-22.777221679688,8.0928955078125,13.498168945312
0.178,-22.096557617188,4.0489501953125,16.941528320312
