wavelength,x,y,z
0.0,-20.850341796875,8.378173828125,11.541259765625
0.0005,-20.089599609375,3.853759765625,15.304931640625
0.001,-18.488037109375,-0.630615234375,18.227783203125
0.0015,-16.606201171875,-3.993896484375,19.669189453125
0.002,-14.644287109375,-6.916748046875,20.790283203125
0.0025,-11.361083984375,-9.879638671875,20.469970703125
0.003,-6.636474609375,-13.643310546875,19.629150390625
0.0035,-2.072021484375,-16.966552734375,18.548095703125
0.004,2.812744140625,-19.408935546875,16.385986328125
0.0045,5.695556640625,-20.329833984375,14.664306640625
0.005,8.658447265625,-20.650146484375,12.221923828125
0.0055,11.661376953125,-20.570068359375,9.459228515625
0.006,15.545166015625,-19.489013671875,4.654541015625
0.0065,18.508056640625,-17.807373046875,0.130126953125
0.007,20.189697265625,-16.005615234375,-3.313232421875
0.0075,20.870361328125,-13.963623046875,-6.115966796875
0.008,20.630126953125,-10.880615234375,-8.958740234375
0.0085,20.269775390625,-6.996826171875,-12.522216796875
0.009,19.589111328125,-2.912841796875,-16.005615234375
0.0095,17.867431640625,1.571533203125,-18.728271484375
0.01,15.825439453125,4.734619140625,-19.809326171875
0.0105,13.423095703125,7.737548828125,-20.489990234375
0.011,10.099853515625,10.940673828125,-20.449951171875
0.0115,4.814697265625,14.904541015625,-19.248779296875
0.012,0.130126953125,17.987548828125,-17.887451171875
0.0125,-3.953857421875,19.949462890625,-16.005615234375
0.013,-6.836669921875,20.750244140625,-14.123779296875
0.0135,-10.119873046875,20.750244140625,-11.200927734375
0.014,-13.363037109375,20.469970703125,-7.797607421875
0.0145,-16.966552734375,19.268798828125,-3.233154296875
0.015,-19.809326171875,17.226806640625,1.691650390625
0.0155,-20.890380859375,15.304931640625,4.654541015625
0.016,-21.450927734375,12.822509765625,7.617431640625
0.0165,-21.130615234375,9.459228515625,10.740478515625
0.017,-20.409912109375,4.894775390625,14.584228515625
0.0175,-19.328857421875,0.690673828125,17.747314453125
0.018,-17.487060546875,-3.473388671875,20.109619140625
0.0185,-15.204833984375,-6.476318359375,20.830322265625
0.019,-12.201904296875,-9.599365234375,20.990478515625
0.0195,-8.318115234375,-13.122802734375,20.790283203125
0.02,-2.952880859375,-16.926513671875,19.348876953125
0.0205,2.132080078125,-19.529052734375,17.226806640625
0.021,5.455322265625,-20.970458984375,15.545166015625
0.0215,8.498291015625,-21.531005859375,13.302978515625
0.022,11.781494140625,-21.210693359375,9.979736328125
0.0225,15.344970703125,-20.409912109375,5.775634765625
0.023,18.588134765625,-19.008544921875,1.251220703125
0.0235,20.990478515625,-16.806396484375,-3.353271484375
0.024,21.510986328125,-14.604248046875,-6.035888671875
0.0245,21.751220703125,-11.841552734375,-9.118896484375
0.025,21.310791015625,-8.037841796875,-12.522216796875
0.0255,20.349853515625,-3.553466796875,-16.125732421875
0.026,18.708251953125,1.010986328125,-18.928466796875
0.0265,16.786376953125,4.694580078125,-20.730224609375
0.027,14.223876953125,7.697509765625,-21.290771484375
0.0275,10.780517578125,10.900634765625,-21.090576171875
0.028,6.296142578125,14.624267578125,-20.409912109375
0.0285,1.171142578125,18.107666015625,-18.968505859375
0.029,-3.713623046875,20.349853515625,-16.646240234375
0.0295,-6.516357421875,21.150634765625,-14.884521484375
0.03,-9.639404296875,21.591064453125,-12.442138671875
0.0305,-12.962646484375,21.070556640625,-8.838623046875
0.031,-16.526123046875,19.909423828125,-4.314208984375
0.0315,-19.489013671875,18.187744140625,0.410400390625
0.032,-21.410888671875,16.065673828125,4.374267578125
0.0325,-21.651123046875,13.623291015625,6.976806640625
0.033,-21.651123046875,10.420166015625,10.219970703125
0.0335,-21.010498046875,6.256103515625,13.743408203125
0.034,-20.009521484375,1.931884765625,17.226806640625
0.0345,-18.007568359375,-2.472412109375,19.589111328125
0.035,-16.045654296875,-5.595458984375,20.790283203125
0.0355,-13.523193359375,-8.598388671875,21.310791015625
0.036,-9.599365234375,-11.921630859375,20.790283203125
0.0365,-4.874755859375,-15.405029296875,19.709228515625
0.037,0.250244140625,-18.608154296875,18.107666015625
0.0375,4.534423828125,-20.570068359375,15.985595703125
0.038,7.177001953125,-21.010498046875,14.023681640625
0.0385,10.340087890625,-21.290771484375,11.381103515625
0.039,13.943603515625,-20.650146484375,7.377197265625
0.0395,17.226806640625,-19.408935546875,2.972900390625
0.04,19.869384765625,-17.447021484375,-1.551513671875
0.0405,21.230712890625,-15.565185546875,-4.834716796875
0.041,21.430908203125,-13.002685546875,-7.557373046875
0.0415,21.190673828125,-9.559326171875,-10.920654296875
0.042,20.469970703125,-5.315185546875,-14.364013671875
0.0425,19.388916015625,-0.950927734375,-17.727294921875
0.043,17.306884765625,3.293212890625,-19.849365234375
0.0435,15.144775390625,6.135986328125,-20.530029296875
0.044,12.462158203125,9.259033203125,-21.090576171875
0.0445,7.897705078125,13.102783203125,-20.449951171875
0.045,3.173095703125,16.426025390625,-19.248779296875
0.0455,-1.751708984375,19.188720703125,-17.326904296875
0.046,-5.435302734375,20.830322265625,-15.565185546875
0.0465,-8.157958984375,21.070556640625,-13.282958984375
0.047,-11.361083984375,21.110595703125,-10.400146484375
0.0475,-15.124755859375,20.309814453125,-6.035888671875
0.048,-18.407958984375,18.828369140625,-1.351318359375
0.0485,-20.610107421875,16.706298828125,2.892822265625
0.049,-21.490966796875,14.664306640625,5.815673828125
0.0495,-21.691162109375,11.821533203125,8.898681640625
0.05,-21.290771484375,7.697509765625,12.662353515625
0.0505,-20.369873046875,3.573486328125,15.905517578125
0.051,-18.928466796875,-0.950927734375,18.908447265625
0.0515,-16.806396484375,-4.834716796875,20.830322265625
0.052,-14.243896484375,-7.597412109375,21.030517578125
0.0525,-11.361083984375,-10.720458984375,21.270751953125
0.053,-6.236083984375,-14.764404296875,20.349853515625
0.0535,-1.231201171875,-18.007568359375,18.788330078125
0.054,3.293212890625,-20.049560546875,16.666259765625
0.0545,6.496337890625,-21.490966796875,14.864501953125
0.055,9.539306640625,-21.410888671875,12.221923828125
0.0555,12.902587890625,-21.010498046875,8.698486328125
0.056,16.345947265625,-20.049560546875,4.494384765625
0.0565,19.509033203125,-18.247802734375,-0.470458984375
0.057,21.230712890625,-16.165771484375,-4.234130859375
0.0575,21.470947265625,-13.803466796875,-6.876708984375
0.058,21.591064453125,-10.880615234375,-9.879638671875
0.0585,20.830322265625,-6.236083984375,-13.843505859375
0.059,19.829345703125,-2.112060546875,-16.926513671875
0.0595,17.947509765625,2.052001953125,-19.248779296875
0.06,15.945556640625,5.495361328125,-20.850341796875
0.0605,13.102783203125,8.418212890625,-20.810302734375
0.061,9.579345703125,11.701416015625,-20.650146484375
0.0615,4.814697265625,15.385009765625,-19.729248046875
0.062,-0.510498046875,18.548095703125,-17.927490234375
0.0625,-4.354248046875,20.229736328125,-15.925537109375
0.063,-7.076904296875,20.910400390625,-14.083740234375
0.0635,-10.119873046875,21.110595703125,-11.521240234375
0.064,-13.803466796875,20.229736328125,-7.197021484375
0.0645,-16.886474609375,19.188720703125,-3.193115234375
0.065,-19.529052734375,17.266845703125,1.331298828125
0.0655,-21.010498046875,15.224853515625,4.734619140625
0.066,-20.970458984375,12.622314453125,7.377197265625
0.0665,-21.010498046875,9.539306640625,10.540283203125
0.067,-20.209716796875,5.054931640625,14.263916015625
0.0675,-19.088623046875,0.770751953125,17.467041015625
0.068,-17.166748046875,-3.032958984375,19.308837890625
0.0685,-15.284912109375,-6.035888671875,20.469970703125
0.069,-12.402099609375,-8.958740234375,20.630126953125
0.0695,-7.997802734375,-12.682373046875,19.989501953125
0.07,-3.673583984375,-15.885498046875,19.028564453125
0.0705,1.411376953125,-18.648193359375,17.066650390625
0.071,4.894775390625,-20.209716796875,15.304931640625
0.0715,7.537353515625,-20.489990234375,13.142822265625
0.072,10.500244140625,-20.810302734375,10.740478515625
0.0725,14.504150390625,-19.889404296875,5.935791015625
0.073,17.547119140625,-18.528076171875,1.731689453125
0.0735,19.669189453125,-16.686279296875,-2.192138671875
0.074,20.790283203125,-14.764404296875,-5.155029296875
0.0745,20.710205078125,-11.961669921875,-7.917724609375
0.075,20.510009765625,-8.197998046875,-11.561279296875
0.0755,19.829345703125,-4.234130859375,-14.844482421875
0.076,18.468017578125,0.290283203125,-17.967529296875
0.0765,16.466064453125,3.853759765625,-19.569091796875
0.077,14.223876953125,6.656494140625,-20.209716796875
0.0775,11.501220703125,9.739501953125,-20.570068359375
0.078,6.135986328125,13.903564453125,-19.569091796875
0.0785,1.771728515625,16.946533203125,-18.327880859375
0.079,-2.672607421875,19.228759765625,-16.526123046875
0.0795,-5.915771484375,20.550048828125,-14.844482421875
0.08,-8.798583984375,20.550048828125,-12.201904296875
0.0805,-11.921630859375,20.510009765625,-9.279052734375
0.081,-15.725341796875,19.589111328125,-4.754638671875
0.0815,-18.768310546875,17.747314453125,0.130126953125
0.082,-20.369873046875,15.905517578125,3.533447265625
0.0825,-21.090576171875,13.743408203125,6.416259765625
0.083,-21.090576171875,10.860595703125,9.299072265625
0.0835,-20.489990234375,6.216064453125,13.423095703125
0.084,-19.609130859375,2.332275390625,16.466064453125
0.0845,-18.007568359375,-1.951904296875,19.068603515625
0.085,-16.005615234375,-5.435302734375,20.550048828125
0.0855,-13.122802734375,-8.238037109375,20.550048828125
0.086,-10.079833984375,-11.401123046875,20.790283203125
0.0865,-4.634521484375,-15.525146484375,19.589111328125
0.087,0.490478515625,-18.528076171875,17.747314453125
0.0875,4.134033203125,-20.049560546875,15.945556640625
0.088,7.217041015625,-21.130615234375,14.103759765625
0.0885,10.300048828125,-21.090576171875,11.140869140625
0.089,13.903564453125,-20.449951171875,7.136962890625
0.0895,17.226806640625,-19.489013671875,3.012939453125
0.09,19.989501953125,-17.366943359375,-1.831787109375
0.0905,21.030517578125,-15.364990234375,-4.834716796875
0.091,21.190673828125,-12.722412109375,-7.677490234375
0.0915,21.190673828125,-9.759521484375,-10.680419921875
0.092,20.389892578125,-4.834716796875,-14.804443359375
0.0925,19.068603515625,-0.590576171875,-17.767333984375
0.093,17.266845703125,3.213134765625,-19.689208984375
0.0935,15.224853515625,6.456298828125,-20.970458984375
0.094,11.821533203125,9.459228515625,-20.650146484375
0.0945,7.817626953125,13.102783203125,-20.369873046875
0.095,3.012939453125,16.706298828125,-19.328857421875
0.0955,-2.312255859375,19.468994140625,-17.126708984375
0.096,-5.435302734375,20.630126953125,-15.324951171875
0.0965,-8.438232421875,21.150634765625,-13.162841796875
0.097,-11.401123046875,21.150634765625,-10.360107421875
0.0975,-15.405029296875,19.989501953125,-5.435302734375
0.098,-18.488037109375,18.628173828125,-1.151123046875
0.0985,-20.610107421875,16.666259765625,3.012939453125
0.099,-21.450927734375,14.584228515625,5.895751953125
0.0995,-21.290771484375,11.501220703125,8.818603515625
0.1,-21.130615234375,7.977783203125,12.221923828125
0.1005,-20.289794921875,3.453369140625,15.985595703125
0.101,-18.568115234375,-1.191162109375,18.908447265625
0.1015,-16.606201171875,-4.514404296875,20.189697265625
0.102,-14.484130859375,-7.517333984375,21.190673828125
0.1025,-11.080810546875,-10.600341796875,20.910400390625
0.103,-6.035888671875,-14.524169921875,19.869384765625
0.1035,-1.391357421875,-17.767333984375,18.708251953125
0.104,3.373291015625,-20.049560546875,16.546142578125
0.1045,6.336181640625,-20.970458984375,14.704345703125
0.105,9.419189453125,-21.130615234375,12.021728515625
0.1055,12.502197265625,-21.050537109375,9.058837890625
0.106,16.305908203125,-19.729248046875,4.254150390625
0.1065,19.228759765625,-17.927490234375,-0.590576171875
0.107,20.750244140625,-16.005615234375,-3.833740234375
0.1075,21.390869140625,-13.843505859375,-6.676513671875
0.108,21.110595703125,-10.640380859375,-9.599365234375
0.1085,20.510009765625,-6.396240234375,-13.403076171875
0.109,19.749267578125,-2.272216796875,-16.686279296875
0.1095,17.947509765625,2.212158203125,-19.328857421875
0.11,15.745361328125,5.335205078125,-20.329833984375
0.1105,13.142822265625,8.338134765625,-20.810302734375
0.111,9.699462890625,11.621337890625,-20.730224609375
0.1115,4.294189453125,15.625244140625,-19.448974609375
0.112,-0.590576171875,18.548095703125,-17.767333984375
0.1125,-4.434326171875,20.309814453125,-15.965576171875
0.113,-7.317138671875,21.030517578125,-14.043701171875
0.1135,-10.560302734375,20.910400390625,-10.960693359375
0.114,-13.923583984375,20.469970703125,-7.317138671875
0.1145,-17.366943359375,19.308837890625,-2.832763671875
0.115,-20.129638671875,17.146728515625,2.052001953125
0.1155,-21.010498046875,15.104736328125,4.974853515625
0.116,-21.531005859375,12.662353515625,7.897705078125
0.1165,-21.290771484375,9.259033203125,11.060791015625
0.117,-20.409912109375,4.614501953125,14.944580078125
0.1175,-19.248779296875,0.410400390625,17.987548828125
0.118,-17.447021484375,-3.633544921875,20.189697265625
0.1185,-15.164794921875,-6.676513671875,20.990478515625
0.119,-12.041748046875,-9.719482421875,20.990478515625
0.1195,-7.997802734375,-13.363037109375,20.670166015625
0.12,-2.712646484375,-17.086669921875,19.268798828125
0.1205,2.412353515625,-19.689208984375,16.986572265625
0.121,5.535400390625,-20.890380859375,15.344970703125
0.1215,8.618408203125,-21.531005859375,13.142822265625
0.122,11.821533203125,-21.130615234375,9.819580078125
0.1225,15.505126953125,-20.209716796875,5.455322265625
0.123,18.708251953125,-18.848388671875,0.970947265625
0.1235,20.950439453125,-16.646240234375,-3.393310546875
0.124,21.390869140625,-14.484130859375,-6.035888671875
0.1245,21.510986328125,-11.561279296875,-9.078857421875
0.125,21.110595703125,-7.797607421875,-12.522216796875
0.1255,20.189697265625,-3.233154296875,-16.085693359375
0.126,18.468017578125,1.211181640625,-18.888427734375
0.1265,16.586181640625,4.654541015625,-20.489990234375
0.127,14.143798828125,7.697509765625,-21.130615234375
0.1275,10.540283203125,10.900634765625,-20.810302734375
0.128,5.935791015625,14.624267578125,-20.049560546875
0.1285,0.970947265625,18.027587890625,-18.728271484375
0.129,-3.833740234375,20.229736328125,-16.406005859375
0.1295,-6.556396484375,20.910400390625,-14.604248046875
0.13,-9.639404296875,21.350830078125,-12.161865234375
0.1305,-13.082763671875,20.870361328125,-8.558349609375
0.131,-16.606201171875,19.709228515625,-3.993896484375
0.1315,-19.489013671875,17.947509765625,0.650634765625
0.132,-21.250732421875,15.905517578125,4.414306640625
0.1325,-21.531005859375,13.503173828125,7.056884765625
0.133,-21.450927734375,10.219970703125,10.219970703125
0.1335,-20.810302734375,6.095947265625,13.783447265625
0.134,-19.889404296875,1.771728515625,17.266845703125
0.1345,-17.847412109375,-2.672607421875,19.589111328125
0.135,-15.805419921875,-5.715576171875,20.630126953125
0.1355,-13.322998046875,-8.678466796875,21.230712890625
0.136,-9.279052734375,-12.121826171875,20.710205078125
0.1365,-4.394287109375,-15.685302734375,19.509033203125
0.137,0.610595703125,-18.728271484375,17.827392578125
0.1375,4.734619140625,-20.650146484375,15.825439453125
0.138,7.377197265625,-20.970458984375,13.783447265625
0.1385,10.540283203125,-21.170654296875,11.060791015625
0.139,14.143798828125,-20.530029296875,7.056884765625
0.1395,17.507080078125,-19.288818359375,2.572509765625
0.14,19.989501953125,-17.286865234375,-1.951904296875
0.1405,21.190673828125,-15.364990234375,-4.994873046875
0.141,21.430908203125,-12.762451171875,-7.797607421875
0.1415,21.150634765625,-9.118896484375,-11.240966796875
0.142,20.309814453125,-4.914794921875,-14.604248046875
0.1425,19.188720703125,-0.630615234375,-17.847412109375
0.143,17.146728515625,3.573486328125,-19.929443359375
0.1435,14.824462890625,6.336181640625,-20.489990234375
0.144,12.181884765625,9.459228515625,-20.890380859375
0.1445,7.497314453125,13.262939453125,-20.249755859375
0.145,2.692626953125,16.626220703125,-18.968505859375
0.1455,-2.072021484375,19.108642578125,-16.966552734375
0.146,-5.515380859375,20.670166015625,-15.284912109375
0.1465,-8.278076171875,20.910400390625,-13.042724609375
0.147,-11.441162109375,20.790283203125,-10.119873046875
0.1475,-15.084716796875,20.029541015625,-5.755615234375
0.148,-18.287841796875,18.508056640625,-1.111083984375
0.1485,-20.489990234375,16.466064453125,3.093017578125
0.149,-21.130615234375,14.384033203125,5.775634765625
0.1495,-21.410888671875,11.581298828125,8.858642578125
0.15,-20.930419921875,7.457275390625,12.582275390625
0.1505,-20.009521484375,3.333251953125,15.825439453125
0.151,-18.528076171875,-0.990966796875,18.548095703125
0.1515,-16.606201171875,-4.674560546875,20.469970703125
0.152,-14.083740234375,-7.437255859375,20.670166015625
0.1525,-10.960693359375,-10.600341796875,20.790283203125
0.153,-6.115966796875,-14.484130859375,19.989501953125
0.1535,-1.031005859375,-17.767333984375,18.427978515625
0.154,3.333251953125,-19.809326171875,16.345947265625
0.1545,6.256103515625,-20.850341796875,14.704345703125
0.155,9.259033203125,-21.130615234375,12.181884765625
0.1555,12.782470703125,-20.570068359375,8.378173828125
0.156,16.105712890625,-19.689208984375,4.334228515625
0.1565,19.188720703125,-17.887451171875,-0.510498046875
0.157,20.870361328125,-15.885498046875,-4.154052734375
0.1575,21.070556640625,-13.443115234375,-6.716552734375
0.158,21.190673828125,-10.600341796875,-9.759521484375
0.1585,20.510009765625,-6.115966796875,-13.643310546875
0.159,19.509033203125,-1.951904296875,-16.846435546875
0.1595,17.627197265625,2.212158203125,-19.048583984375
0.16,15.745361328125,5.495361328125,-20.489990234375
0.1605,12.862548828125,8.338134765625,-20.610107421875
0.161,9.058837890625,11.781494140625,-20.329833984375
0.1615,4.534423828125,15.344970703125,-19.408935546875
0.162,-0.710693359375,18.508056640625,-17.607177734375
0.1625,-4.554443359375,20.189697265625,-15.685302734375
0.163,-7.197021484375,20.710205078125,-13.803466796875
0.1635,-10.280029296875,20.990478515625,-11.240966796875
0.164,-14.123779296875,20.149658203125,-6.756591796875
0.1645,-17.206787109375,18.988525390625,-2.672607421875
0.165,-19.729248046875,17.106689453125,1.771728515625
0.1655,-21.130615234375,15.104736328125,5.054931640625
0.166,-21.090576171875,12.382080078125,7.697509765625
0.1665,-21.090576171875,9.098876953125,11.060791015625
0.167,-20.249755859375,4.734619140625,14.664306640625
0.1675,-19.048583984375,0.290283203125,17.907470703125
0.168,-16.966552734375,-3.553466796875,19.669189453125
0.1685,-15.004638671875,-6.396240234375,20.550048828125
0.169,-12.161865234375,-9.399169921875,20.790283203125
0.1695,-7.397216796875,-13.282958984375,19.989501953125
0.17,-2.992919921875,-16.365966796875,18.828369140625
0.1705,1.931884765625,-19.048583984375,16.906494140625
0.171,5.415283203125,-20.489990234375,15.104736328125
0.1715,8.097900390625,-20.610107421875,12.782470703125
0.172,11.100830078125,-20.810302734375,10.219970703125
0.1725,15.024658203125,-19.849365234375,5.495361328125
0.173,18.067626953125,-18.287841796875,1.051025390625
0.1735,19.989501953125,-16.406005859375,-2.712646484375
0.174,20.870361328125,-14.444091796875,-5.555419921875
0.1745,20.790283203125,-11.601318359375,-8.358154296875
0.175,20.429931640625,-7.557373046875,-12.081787109375
0.1755,19.629150390625,-3.713623046875,-15.124755859375
0.176,18.187744140625,0.690673828125,-18.087646484375
0.1765,16.145751953125,4.254150390625,-19.729248046875
0.177,13.703369140625,6.976806640625,-19.889404296875
0.1775,11.020751953125,9.979736328125,-20.409912109375
0.178,5.735595703125,14.103759765625,-19.328857421875
0.1785,1.211181640625,17.106689453125,-17.967529296875
0.179,-2.952880859375,19.188720703125,-16.165771484375
0.1795,-6.075927734375,20.429931640625,-14.524169921875
0.18,-8.918701171875,20.349853515625,-11.881591796875
0.1805,-12.121826171875,20.189697265625,-8.678466796875
0.181,-15.645263671875,19.348876953125,-4.514404296875
