wavelength,x,y,z
0.0,-9.849609375,9.44921875,-1.28125
0.0005,-8.0478515625,8.2880859375,-2.6826171875
0.001,-6.806640625,7.8076171875,-4.2041015625
0.0015,-3.8837890625,6.9267578125,-6.88671875
0.002,-1.681640625,5.685546875,-8.328125
0.0025,0.720703125,5.044921875,-10.5302734375
0.003,2.6826171875,3.4833984375,-11.2509765625
0.0035,3.84375,2.162109375,-11.2509765625
0.004,6.24609375,0.16015625,-11.6513671875
0.0045,8.568359375,-2.2822265625,-11.2509765625
0.005,10.08984375,-4.083984375,-10.41015625
0.0055,11.931640625,-5.28515625,-10.4501953125
0.006,11.9716796875,-6.486328125,-8.6484375
0.0065,12.01171875,-6.966796875,-7.4873046875
0.007,12.01171875,-8.568359375,-4.96484375
0.0075,10.970703125,-9.0087890625,-2.5224609375
0.008,10.41015625,-9.4091796875,-0.6005859375
0.0085,9.529296875,-9.609375,1.521484375
0.009,7.3271484375,-8.3681640625,3.1630859375
0.0095,5.7255859375,-7.7275390625,4.8046875
0.01,2.802734375,-6.7666015625,7.4873046875
0.0105,0.560546875,-5.28515625,8.6884765625
0.011,-1.5615234375,-4.6845703125,10.6103515625
0.0115,-3.5634765625,-2.962890625,11.1708984375
0.012,-4.9248046875,-1.3212890625,11.0107421875
0.0125,-7.4072265625,0.8408203125,11.2109375
0.013,-9.609375,3.123046875,10.650390625
0.0135,-10.7705078125,4.724609375,9.689453125
0.014,-12.251953125,5.60546875,9.7294921875
0.0145,-12.1318359375,6.7666015625,7.6474609375
0.015,-11.8916015625,7.3671875,6.0859375
0.0155,-11.8916015625,8.9287109375,3.4833984375
0.016,-10.5703125,9.12890625,0.9609375
0.0165,-10.08984375,9.2490234375,-0.6806640625
0.017,-9.0888671875,9.208984375,-2.6025390625
0.0175,-6.7265625,7.84765625,-4.3642578125
0.018,-4.9248046875,7.20703125,-6.0859375
0.0185,-2.08203125,6.3662109375,-8.6884765625
0.019,0.2001953125,4.724609375,-9.6494140625
0.0195,1.8818359375,4.2841796875,-11.291015625
0.02,3.9638671875,2.40234375,-11.69140625
0.0205,5.4453125,0.640625,-11.4912109375
0.021,8.1279296875,-1.6416015625,-11.69140625
0.0215,10.1298828125,-3.8837890625,-10.890625
0.022,11.05078125,-5.125,-10.009765625
0.0225,12.33203125,-5.845703125,-9.9697265625
0.023,12.091796875,-7.0869140625,-7.7275390625
0.0235,11.771484375,-7.8076171875,-5.8857421875
0.024,11.8115234375,-9.369140625,-3.283203125
0.0245,10.2099609375,-9.369140625,-0.80078125
0.025,9.8896484375,-9.44921875,0.6005859375
0.0255,8.568359375,-9.12890625,2.5224609375
0.026,6.0458984375,-7.7275390625,4.32421875
0.0265,4.00390625,-7.0869140625,6.326171875
0.027,1.201171875,-6.1259765625,8.7685546875
0.0275,-1.0009765625,-4.4443359375,9.5693359375
0.028,-2.40234375,-4.00390625,11.0107421875
0.0285,-4.564453125,-1.921875,11.2109375
0.029,-6.24609375,0.080078125,10.8505859375
0.0295,-9.0087890625,2.322265625,11.0908203125
0.03,-10.73046875,4.484375,10.08984375
0.0305,-11.4111328125,5.28515625,9.3291015625
0.031,-12.4521484375,6.005859375,9.0888671875
0.0315,-12.0517578125,7.3271484375,6.5263671875
0.032,-11.6513671875,8.16796875,4.484375
0.0325,-11.6513671875,9.6494140625,1.841796875
0.033,-9.9296875,9.2490234375,-0.6005859375
0.0335,-9.689453125,9.12890625,-1.6416015625
0.034,-8.0078125,8.728515625,-3.68359375
0.0345,-5.3251953125,7.3671875,-5.60546875
0.035,-3.123046875,6.6865234375,-7.767578125
0.0355,-0.2802734375,5.60546875,-10.0498046875
0.036,1.6416015625,3.9638671875,-10.5703125
0.0365,2.8427734375,3.5634765625,-11.8115234375
0.037,5.125,1.28125,-11.8916015625
0.0375,7.046875,-0.9609375,-11.4912109375
0.038,9.9697265625,-3.2431640625,-11.5712890625
0.0385,11.3310546875,-5.205078125,-10.3701171875
0.039,11.771484375,-5.6455078125,-9.76953125
0.0395,12.6123046875,-6.4462890625,-9.12890625
0.04,12.091796875,-7.8076171875,-6.4462890625
0.0405,11.53125,-8.8486328125,-4.1240234375
0.041,11.37109375,-10.2099609375,-1.44140625
0.0415,9.5693359375,-9.4892578125,0.720703125
0.042,9.3291015625,-9.12890625,1.5615234375
0.0425,7.1669921875,-8.48828125,3.84375
0.043,4.4443359375,-7.0869140625,5.765625
0.0435,2.0419921875,-6.4462890625,8.1279296875
0.044,-0.80078125,-5.1650390625,10.08984375
0.0445,-2.2822265625,-3.6435546875,10.3701171875
0.045,-3.4833984375,-3.04296875,11.291015625
0.0455,-5.8056640625,-0.640625,11.2109375
0.046,-7.7275390625,1.6015625,10.6904296875
0.0465,-10.5703125,3.8037109375,10.810546875
0.047,-11.4111328125,5.4052734375,9.44921875
0.0475,-11.7314453125,5.6455078125,8.96875
0.048,-12.2919921875,6.646484375,7.84765625
0.0485,-11.69140625,7.8076171875,5.125
0.049,-11.2509765625,8.8486328125,2.72265625
0.0495,-10.890625,9.8896484375,0.2001953125
0.05,-9.1689453125,8.96875,-1.5615234375
0.0505,-8.9287109375,8.6884765625,-2.3623046875
0.051,-6.4462890625,7.8876953125,-4.724609375
0.0515,-3.8837890625,6.6064453125,-6.6064453125
0.052,-1.4814453125,6.0859375,-9.0087890625
0.0525,1.12109375,4.6044921875,-10.5302734375
0.053,2.2421875,3.4033203125,-10.7705078125
0.0535,3.5634765625,2.5224609375,-11.4912109375
0.054,6.005859375,0.1201171875,-11.37109375
0.0545,7.9677734375,-2.1220703125,-10.9306640625
0.055,10.650390625,-4.1640625,-10.970703125
0.0555,11.2109375,-5.4853515625,-9.6494140625
0.056,11.611328125,-5.7255859375,-9.2890625
0.0565,12.01171875,-7.046875,-7.6474609375
0.057,11.37109375,-8.0478515625,-5.1650390625
0.0575,11.0107421875,-9.0888671875,-2.802734375
0.058,10.5302734375,-9.8095703125,-0.400390625
0.0585,8.888671875,-8.7685546875,1.12109375
0.059,8.3681640625,-8.48828125,2.0419921875
0.0595,5.685546875,-7.6474609375,4.6044921875
0.06,3.203125,-6.4462890625,6.4462890625
0.0605,0.640625,-5.845703125,8.96875
0.061,-1.6416015625,-4.404296875,10.08984375
0.0615,-2.5625,-3.283203125,10.2900390625
0.062,-4.2041015625,-2.001953125,10.8505859375
0.0625,-6.646484375,0.48046875,10.6904296875
0.063,-8.6083984375,2.5224609375,10.2099609375
0.0635,-10.970703125,4.3642578125,10.25
0.064,-11.3310546875,5.4853515625,8.8486328125
0.0645,-11.69140625,5.7255859375,8.328125
0.065,-11.8916015625,7.3271484375,6.24609375
0.0655,-11.2509765625,8.1279296875,3.8037109375
0.066,-10.810546875,9.048828125,1.521484375
0.0665,-10.2099609375,9.609375,-0.80078125
0.067,-8.48828125,8.48828125,-2.1220703125
0.0675,-7.7275390625,8.1279296875,-3.36328125
0.068,-4.8447265625,7.3271484375,-6.0859375
0.0685,-2.482421875,6.0859375,-7.7275390625
0.069,0.080078125,5.4052734375,-10.08984375
0.0695,2.1220703125,3.8837890625,-10.970703125
0.07,3.0830078125,2.7626953125,-11.05078125
0.0705,5.205078125,1.0810546875,-11.5712890625
0.071,7.6474609375,-1.44140625,-11.291015625
0.0715,9.4091796875,-3.36328125,-10.6103515625
0.072,11.4912109375,-4.9248046875,-10.650390625
0.0725,11.69140625,-6.1259765625,-9.0087890625
0.073,11.8515625,-6.56640625,-8.2080078125
0.0735,12.01171875,-8.087890625,-5.8857421875
0.074,11.1708984375,-8.6884765625,-3.4833984375
0.0745,10.6103515625,-9.3291015625,-1.3212890625
0.075,9.8896484375,-9.609375,0.8408203125
0.0755,7.927734375,-8.4482421875,2.3623046875
0.076,6.6865234375,-7.9677734375,3.84375
0.0765,3.8037109375,-7.0869140625,6.486328125
0.077,1.521484375,-5.765625,7.927734375
0.0775,-0.8408203125,-5.0849609375,10.0498046875
0.078,-2.8427734375,-3.4833984375,10.73046875
0.0785,-3.9638671875,-2.08203125,10.650390625
0.079,-6.2861328125,-0.16015625,11.0107421875
0.0795,-8.5283203125,2.2421875,10.6103515625
0.08,-9.9697265625,3.9638671875,9.849609375
0.0805,-11.7314453125,5.0849609375,9.849609375
0.081,-11.7314453125,6.2060546875,8.0078125
0.0815,-11.69140625,6.646484375,6.88671875
0.082,-11.7314453125,8.2880859375,4.4443359375
0.0825,-10.7705078125,8.728515625,2.0419921875
0.083,-10.25,9.12890625,0.16015625
0.0835,-9.369140625,9.1689453125,-1.8017578125
0.084,-7.3671875,7.9677734375,-3.283203125
0.0845,-5.8056640625,7.4072265625,-4.96484375
0.085,-3.0830078125,6.56640625,-7.4873046875
0.0855,-0.880859375,5.205078125,-8.728515625
0.086,1.12109375,4.6044921875,-10.6103515625
0.0865,3.0830078125,2.9228515625,-11.130859375
0.087,4.2841796875,1.5615234375,-11.05078125
0.0875,6.88671875,-0.640625,-11.37109375
0.088,8.888671875,-2.8828125,-10.7705078125
0.0885,10.2099609375,-4.4443359375,-10.009765625
0.089,11.611328125,-5.4052734375,-9.9697265625
0.0895,11.53125,-6.4462890625,-8.1279296875
0.09,11.451171875,-6.966796875,-6.7265625
0.0905,11.4912109375,-8.5283203125,-4.2841796875
0.091,10.25,-8.7685546875,-1.9619140625
0.0915,9.9296875,-9.048828125,-0.3203125
0.092,8.7685546875,-8.9287109375,1.6015625
0.0925,6.7666015625,-7.7275390625,3.0830078125
0.093,5.0048828125,-7.1669921875,4.96484375
0.0935,2.322265625,-6.326171875,7.3671875
0.094,0.240234375,-4.9248046875,8.4482421875
0.0945,-1.5615234375,-4.404296875,10.169921875
0.095,-3.5234375,-2.5625,10.41015625
0.0955,-4.8447265625,-1.0009765625,10.330078125
0.096,-7.52734375,1.201171875,10.6103515625
0.0965,-9.3291015625,3.2431640625,9.8896484375
0.097,-10.41015625,4.484375,9.2490234375
0.0975,-11.5712890625,5.2451171875,9.048828125
0.098,-11.37109375,6.40625,7.046875
0.0985,-11.2109375,7.1669921875,5.4052734375
0.099,-11.2509765625,8.6884765625,2.9228515625
0.0995,-9.8896484375,8.6484375,0.6806640625
0.1,-9.7294921875,8.888671875,-0.6806640625
0.1005,-8.2880859375,8.4482421875,-2.6025390625
0.101,-6.166015625,7.3271484375,-4.1640625
0.1015,-4.2041015625,6.8466796875,-6.2861328125
0.102,-1.5615234375,5.845703125,-8.48828125
0.1025,0.4404296875,4.484375,-9.4091796875
0.103,1.921875,3.9638671875,-10.890625
0.1035,3.8837890625,2.0419921875,-11.05078125
0.104,5.60546875,0.240234375,-10.890625
0.1045,8.3681640625,-2.1220703125,-11.1708984375
0.105,9.9296875,-4.1640625,-10.1298828125
0.1055,10.810546875,-4.884765625,-9.76953125
0.106,11.771484375,-5.7255859375,-9.2490234375
0.1065,11.4111328125,-6.806640625,-7.046875
0.107,11.2109375,-7.767578125,-5.0849609375
0.1075,11.1708984375,-9.208984375,-2.5625
0.108,9.5693359375,-8.8486328125,-0.400390625
0.1085,9.44921875,-8.9287109375,0.6806640625
0.109,7.607421875,-8.328125,2.72265625
0.1095,5.28515625,-7.126953125,4.484375
0.11,3.1630859375,-6.6865234375,6.7265625
0.1105,0.48046875,-5.4853515625,8.7685546875
0.111,-1.28125,-4.1240234375,9.4091796875
0.1115,-2.6025390625,-3.603515625,10.6103515625
0.112,-4.724609375,-1.4013671875,10.6103515625
0.1125,-6.56640625,0.6005859375,10.3701171875
0.113,-9.369140625,2.7626953125,10.5703125
0.1135,-10.5302734375,4.5244140625,9.3291015625
0.114,-11.1708984375,5.0048828125,9.0888671875
0.1145,-11.8515625,6.005859375,8.2080078125
0.115,-11.37109375,7.1669921875,5.765625
0.1155,-11.130859375,8.2080078125,3.5634765625
0.116,-10.890625,9.44921875,1.041015625
0.1165,-9.2890625,8.80859375,-0.8408203125
0.117,-9.208984375,8.728515625,-1.8017578125
0.1175,-7.0068359375,7.9677734375,-4.00390625
0.118,-4.564453125,6.806640625,-5.765625
0.1185,-2.2822265625,6.3662109375,-8.2080078125
0.119,0.4404296875,4.96484375,-9.9697265625
0.1195,1.76171875,3.763671875,-10.41015625
0.12,3.123046875,3.04296875,-11.4111328125
0.1205,5.365234375,0.640625,-11.291015625
0.121,7.3671875,-1.5615234375,-10.9306640625
0.1215,10.2099609375,-3.763671875,-11.0908203125
0.122,10.970703125,-5.1650390625,-9.7294921875
0.1225,11.53125,-5.4453125,-9.529296875
0.123,12.01171875,-6.6064453125,-8.16796875
0.1235,11.451171875,-7.7275390625,-5.6455078125
0.124,11.1708984375,-8.8486328125,-3.283203125
0.1245,10.7705078125,-9.849609375,-0.7607421875
0.125,9.0888671875,-8.9287109375,0.880859375
0.1255,8.8486328125,-8.6884765625,1.76171875
0.126,6.24609375,-7.84765625,4.244140625
0.1265,3.68359375,-6.6865234375,6.0859375
0.127,1.2412109375,-6.1259765625,8.6484375
0.1275,-1.3212890625,-4.64453125,10.0498046875
0.128,-2.3623046875,-3.5234375,10.2900390625
0.1285,-3.8837890625,-2.4423828125,11.0107421875
0.129,-6.2861328125,0.0400390625,10.8505859375
0.1295,-8.328125,2.162109375,10.41015625
0.13,-10.9306640625,4.2041015625,10.490234375
0.1305,-11.37109375,5.4453125,9.0888671875
0.131,-11.771484375,5.685546875,8.6884765625
0.1315,-12.1318359375,7.0869140625,6.8466796875
0.132,-11.451171875,8.0478515625,4.32421875
0.1325,-11.1708984375,9.12890625,1.921875
0.133,-10.5703125,9.849609375,-0.5205078125
0.1335,-8.888671875,8.728515625,-1.921875
0.134,-8.328125,8.4482421875,-2.962890625
0.1345,-5.4453125,7.52734375,-5.6455078125
0.135,-2.962890625,6.326171875,-7.4072265625
0.1355,-0.3603515625,5.7255859375,-9.9697265625
0.136,1.921875,4.1240234375,-11.05078125
0.1365,2.802734375,3.04296875,-11.1708984375
0.137,4.6845703125,1.5615234375,-11.7314453125
0.1375,7.1669921875,-1.0009765625,-11.53125
0.138,9.0888671875,-3.0029296875,-10.9306640625
0.1385,11.4912109375,-4.8447265625,-10.9306640625
0.139,11.7314453125,-5.9658203125,-9.369140625
0.1395,12.01171875,-6.2861328125,-8.80859375
0.14,12.2119140625,-7.84765625,-6.56640625
0.1405,11.451171875,-8.6083984375,-4.1240234375
0.141,10.9306640625,-9.44921875,-1.76171875
0.1415,10.2099609375,-9.9296875,0.6005859375
0.142,8.408203125,-8.6884765625,1.9619140625
0.1425,7.447265625,-8.2880859375,3.3232421875
0.143,4.484375,-7.4072265625,6.0458984375
0.1435,2.1220703125,-6.1259765625,7.6474609375
0.144,-0.5205078125,-5.4052734375,9.9697265625
0.1445,-2.5625,-3.84375,10.8505859375
0.145,-3.5234375,-2.6025390625,10.7705078125
0.1455,-5.7255859375,-0.8408203125,11.2109375
0.146,-8.0478515625,1.7216796875,10.8505859375
0.1465,-9.7294921875,3.5634765625,10.2099609375
0.147,-11.771484375,5.0849609375,10.169921875
0.1475,-11.8515625,6.166015625,8.4482421875
0.148,-11.931640625,6.5263671875,7.5673828125
0.1485,-12.01171875,8.1279296875,5.0849609375
0.149,-11.130859375,8.6884765625,2.72265625
0.1495,-10.6103515625,9.3291015625,0.6005859375
0.15,-9.8095703125,9.5693359375,-1.6015625
0.1505,-7.927734375,8.2880859375,-2.9228515625
0.151,-6.6064453125,7.8076171875,-4.484375
0.1515,-3.7236328125,6.88671875,-7.0869140625
0.152,-1.4814453125,5.60546875,-8.48828125
0.1525,0.8408203125,4.9248046875,-10.6103515625
0.153,2.7626953125,3.283203125,-11.2509765625
0.1535,3.84375,1.9619140625,-11.2109375
0.154,6.326171875,0.0,-11.53125
0.1545,8.4482421875,-2.322265625,-11.05078125
0.155,9.9697265625,-4.1240234375,-10.330078125
0.1555,11.69140625,-5.28515625,-10.2900390625
0.156,11.6513671875,-6.3662109375,-8.48828125
0.1565,11.6513671875,-6.7666015625,-7.447265625
0.157,11.6513671875,-8.3681640625,-4.9248046875
0.1575,10.6904296875,-8.728515625,-2.642578125
0.158,10.25,-9.2890625,-0.720703125
0.1585,9.2490234375,-9.1689453125,1.28125
0.159,7.3671875,-7.9677734375,2.6025390625
0.1595,5.7255859375,-7.447265625,4.404296875
0.16,2.962890625,-6.5263671875,6.8466796875
0.1605,0.8408203125,-5.28515625,8.1279296875
0.161,-1.2412109375,-4.724609375,10.0498046875
0.1615,-3.0830078125,-3.0029296875,10.3701171875
0.162,-4.2041015625,-1.6416015625,10.330078125
0.1625,-6.806640625,0.6005859375,10.650390625
0.163,-8.6884765625,2.6826171875,10.0498046875
0.1635,-10.08984375,4.1240234375,9.4892578125
0.164,-11.451171875,5.125,9.2890625
0.1645,-11.2509765625,6.0859375,7.52734375
0.165,-11.2509765625,6.6865234375,6.2060546875
0.1655,-11.2109375,8.2880859375,3.6435546875
0.166,-10.08984375,8.408203125,1.4814453125
0.1665,-9.9296875,8.888671875,-0.16015625
0.167,-8.6484375,8.6083984375,-2.0419921875
0.1675,-6.8466796875,7.447265625,-3.3232421875
0.168,-5.0048828125,7.0068359375,-5.3251953125
0.1685,-2.4423828125,6.0458984375,-7.6474609375
0.169,-0.48046875,4.8046875,-8.728515625
0.1695,1.361328125,4.2841796875,-10.4501953125
0.17,3.1630859375,2.5625,-10.650390625
0.1705,4.5244140625,1.12109375,-10.650390625
0.171,7.287109375,-1.201171875,-10.9306640625
0.1715,8.96875,-3.2431640625,-10.1298828125
0.172,10.2099609375,-4.3642578125,-9.8095703125
0.1725,11.3310546875,-5.28515625,-9.44921875
0.173,11.0908203125,-6.2861328125,-7.5673828125
0.1735,11.05078125,-7.0869140625,-5.9658203125
0.174,11.0107421875,-8.6083984375,-3.4833984375
0.1745,9.7294921875,-8.48828125,-1.4013671875
0.175,9.689453125,-8.888671875,0.0
0.1755,8.0478515625,-8.3681640625,1.921875
0.176,6.1259765625,-7.287109375,3.36328125
0.1765,4.1240234375,-6.9267578125,5.60546875
0.177,1.5615234375,-5.845703125,7.6474609375
0.1775,-0.3603515625,-4.64453125,8.6484375
0.178,-1.9619140625,-4.0439453125,10.169921875
0.1785,-3.84375,-2.08203125,10.2099609375
0.179,-5.4453125,-0.3603515625,10.08984375
0.1795,-8.248046875,1.921875,10.41015625
0.18,-9.609375,3.8037109375,9.3291015625
0.1805,-10.650390625,4.5244140625,9.208984375
0.181,-11.4912109375,5.4453125,8.48828125
0.1815,-11.0908203125,6.5263671875,6.3662109375
0.182,-11.0107421875,7.52734375,4.484375
0.1825,-10.8505859375,8.888671875,1.921875
0.183,-9.4091796875,8.48828125,0.0
0.1835,-9.44921875,8.6884765625,-1.1611328125
0.184,-7.447265625,8.0478515625,-3.203125
0.1845,-5.3251953125,6.88671875,-4.8046875
0.185,-3.203125,6.5263671875,-7.126953125
0.1855,-0.560546875,5.205078125,-9.0087890625
0.186,1.041015625,4.1240234375,-9.76953125
0.1865,2.482421875,3.4833984375,-10.970703125
0.187,4.484375,1.361328125,-10.9306640625
0.1875,6.40625,-0.640625,-10.7705078125
0.188,9.2490234375,-2.8828125,-10.9306640625
0.1885,10.2099609375,-4.6044921875,-9.6494140625
0.189,11.0908203125,-5.0048828125,-9.6494140625
0.1895,11.69140625,-6.0458984375,-8.568359375
0.19,11.2109375,-7.0869140625,-6.2861328125
0.1905,11.0908203125,-8.2880859375,-4.1240234375
0.191,10.6904296875,-9.369140625,-1.5615234375
0.1915,9.1689453125,-8.6884765625,0.240234375
0.192,9.1689453125,-8.728515625,1.1611328125
0.1925,6.7666015625,-7.9677734375,3.4033203125
0.193,4.484375,-6.8466796875,5.0849609375
0.1935,2.162109375,-6.4462890625,7.6875
0.194,-0.5205078125,-4.884765625,9.208984375
0.1945,-1.8017578125,-3.8837890625,9.849609375
0.195,-3.283203125,-2.962890625,10.7705078125
0.1955,-5.4052734375,-0.6806640625,10.5703125
0.196,-7.4873046875,1.4814453125,10.330078125
0.1965,-10.25,3.5634765625,10.4501953125
0.197,-10.810546875,5.0048828125,9.048828125
0.1975,-11.53125,5.1650390625,9.048828125
0.198,-11.8916015625,6.4462890625,7.447265625
0.1985,-11.291015625,7.52734375,5.044921875
0.199,-11.1708984375,8.80859375,2.6025390625
0.1995,-10.5703125,9.609375,0.080078125
0.2,-9.048828125,8.6884765625,-1.361328125
0.2005,-8.8486328125,8.568359375,-2.3623046875
0.201,-6.166015625,7.6474609375,-4.8046875
0.2015,-3.6435546875,6.486328125,-6.6865234375
0.202,-1.2412109375,6.0859375,-9.2890625
0.2025,1.361328125,4.4443359375,-10.5302734375
0.203,2.2822265625,3.4833984375,-10.890625
0.2035,3.9638671875,2.2822265625,-11.611328125
0.204,6.326171875,-0.2001953125,-11.4111328125
0.2045,8.48828125,-2.4423828125,-11.0107421875
0.205,11.0908203125,-4.484375,-11.0107421875
0.2055,11.4111328125,-5.6455078125,-9.529296875
0.206,11.9716796875,-5.8056640625,-9.3291015625
0.2065,12.2119140625,-7.4072265625,-7.2470703125
0.207,11.451171875,-8.2080078125,-4.8046875
0.2075,11.2109375,-9.44921875,-2.2822265625
0.208,10.3701171875,-9.9697265625,0.2001953125
0.2085,8.7685546875,-8.8486328125,1.521484375
0.209,8.16796875,-8.6083984375,2.6826171875
0.2095,5.125,-7.6474609375,5.28515625
0.21,2.642578125,-6.2861328125,7.0869140625
0.2105,0.0400390625,-5.7255859375,9.689453125
0.211,-2.2021484375,-4.00390625,10.5302734375
0.2115,-3.0029296875,-3.0830078125,10.73046875
0.212,-5.0048828125,-1.4814453125,11.2109375
0.2125,-7.3271484375,1.0009765625,10.8505859375
0.213,-9.2890625,3.04296875,10.41015625
0.2135,-11.53125,4.884765625,10.25
0.214,-11.5712890625,5.845703125,8.6884765625
0.2145,-11.9716796875,6.0859375,8.2080078125
0.215,-12.0517578125,7.7275390625,5.765625
0.2155,-11.2109375,8.2880859375,3.443359375
0.216,-10.8505859375,9.4091796875,1.041015625
0.2165,-9.9296875,9.529296875,-1.2412109375
0.217,-8.3681640625,8.328125,-2.40234375
0.2175,-7.3671875,7.9677734375,-3.84375
0.218,-4.4443359375,7.046875,-6.326171875
0.2185,-2.08203125,5.8857421875,-8.0078125
0.219,0.4404296875,5.2451171875,-10.330078125
0.2195,2.3623046875,3.5634765625,-10.890625
0.22,3.123046875,2.642578125,-11.05078125
0.2205,5.4853515625,0.6806640625,-11.4912109375
0.221,7.52734375,-1.6015625,-11.05078125
0.2215,9.4892578125,-3.5634765625,-10.5703125
0.222,11.37109375,-5.0849609375,-10.330078125
0.2225,11.37109375,-5.9658203125,-8.8486328125
0.223,11.69140625,-6.2861328125,-8.2080078125
0.2235,11.6513671875,-7.9677734375,-5.6455078125
