wavelength,x,y,z
0.0,5.255126953125,-0.430419921875,-5.595458984375
0.0005,5.175048828125,-1.511474609375,-4.754638671875
0.001,5.094970703125,-2.792724609375,-3.673583984375
0.0015,4.854736328125,-3.873779296875,-2.592529296875
0.002,4.614501953125,-4.594482421875,-1.791748046875
0.0025,4.134033203125,-5.114990234375,-0.910888671875
0.003,3.253173828125,-5.435302734375,0.290283203125
0.0035,2.252197265625,-5.755615234375,1.571533203125
0.004,1.091064453125,-5.955810546875,2.852783203125
0.0045,0.330322265625,-6.196044921875,3.853759765625
0.005,-0.510498046875,-6.276123046875,4.654541015625
0.0055,-1.431396484375,-5.835693359375,5.295166015625
0.006,-2.632568359375,-4.954833984375,5.735595703125
0.0065,-3.833740234375,-3.833740234375,6.095947265625
0.007,-4.674560546875,-2.792724609375,6.135986328125
0.0075,-5.155029296875,-1.951904296875,6.135986328125
0.008,-5.395263671875,-1.191162109375,5.815673828125
0.0085,-5.395263671875,-0.310302734375,5.175048828125
0.009,-5.395263671875,0.890869140625,4.334228515625
0.0095,-5.315185546875,2.092041015625,3.293212890625
0.01,-5.114990234375,3.093017578125,2.372314453125
0.0105,-4.834716796875,3.813720703125,1.571533203125
0.011,-4.314208984375,4.294189453125,0.690673828125
0.0115,-3.393310546875,4.614501953125,-0.510498046875
0.012,-2.432373046875,5.054931640625,-1.791748046875
0.0125,-1.431396484375,5.215087890625,-2.992919921875
0.013,-0.710693359375,5.495361328125,-3.953857421875
0.0135,0.170166015625,5.455322265625,-4.754638671875
0.014,1.211181640625,4.894775390625,-5.315185546875
0.0145,2.412353515625,4.013916015625,-5.755615234375
0.015,3.493408203125,2.932861328125,-6.075927734375
0.0155,4.294189453125,1.971923828125,-6.156005859375
0.016,4.734619140625,1.251220703125,-6.115966796875
0.0165,4.894775390625,0.450439453125,-5.795654296875
0.017,4.894775390625,-0.630615234375,-5.114990234375
0.0175,4.934814453125,-1.791748046875,-4.314208984375
0.018,4.814697265625,-2.912841796875,-3.233154296875
0.0185,4.654541015625,-3.833740234375,-2.392333984375
0.019,4.374267578125,-4.514404296875,-1.591552734375
0.0195,3.773681640625,-4.914794921875,-0.630615234375
0.02,2.852783203125,-5.315185546875,0.610595703125
0.0205,1.851806640625,-5.675537109375,1.931884765625
0.021,0.970947265625,-5.915771484375,3.012939453125
0.0215,0.290283203125,-6.156005859375,3.933837890625
0.022,-0.670654296875,-5.955810546875,4.654541015625
0.0225,-1.791748046875,-5.315185546875,5.255126953125
0.023,-2.992919921875,-4.434326171875,5.695556640625
0.0235,-4.033935546875,-3.353271484375,5.895751953125
0.024,-4.714599609375,-2.512451171875,6.015869140625
0.0245,-5.074951171875,-1.791748046875,5.895751953125
0.025,-5.195068359375,-0.990966796875,5.495361328125
0.0255,-5.275146484375,0.130126953125,4.774658203125
0.026,-5.275146484375,1.371337890625,3.893798828125
0.0265,-5.155029296875,2.412353515625,2.932861328125
0.027,-4.994873046875,3.293212890625,2.092041015625
0.0275,-4.594482421875,3.853759765625,1.291259765625
0.028,-3.833740234375,4.334228515625,0.250244140625
0.0285,-3.032958984375,4.814697265625,-1.111083984375
0.029,-1.951904296875,5.094970703125,-2.392333984375
0.0295,-1.231201171875,5.375244140625,-3.393310546875
0.03,-0.470458984375,5.535400390625,-4.314208984375
0.0305,0.610595703125,5.215087890625,-4.994873046875
0.031,1.851806640625,4.414306640625,-5.555419921875
0.0315,3.052978515625,3.373291015625,-5.955810546875
0.032,3.973876953125,2.332275390625,-6.115966796875
0.0325,4.534423828125,1.531494140625,-6.156005859375
0.033,4.814697265625,0.770751953125,-5.955810546875
0.0335,4.854736328125,-0.310302734375,-5.395263671875
0.034,4.974853515625,-1.351318359375,-4.594482421875
0.0345,4.934814453125,-2.552490234375,-3.553466796875
0.035,4.774658203125,-3.553466796875,-2.632568359375
0.0355,4.534423828125,-4.354248046875,-1.831787109375
0.036,3.973876953125,-4.834716796875,-0.950927734375
0.0365,3.093017578125,-5.195068359375,0.330322265625
0.037,2.092041015625,-5.635498046875,1.651611328125
0.0375,1.131103515625,-5.915771484375,2.852783203125
0.038,0.410400390625,-6.156005859375,3.853759765625
0.0385,-0.510498046875,-6.115966796875,4.614501953125
0.039,-1.631591796875,-5.475341796875,5.255126953125
0.0395,-2.832763671875,-4.594482421875,5.735595703125
0.04,-3.993896484375,-3.473388671875,5.975830078125
0.0405,-4.754638671875,-2.552490234375,6.055908203125
0.041,-5.155029296875,-1.791748046875,5.975830078125
0.0415,-5.315185546875,-0.990966796875,5.535400390625
0.042,-5.275146484375,0.170166015625,4.814697265625
0.0425,-5.315185546875,1.331298828125,3.893798828125
0.043,-5.195068359375,2.532470703125,2.892822265625
0.0435,-4.994873046875,3.413330078125,2.011962890625
0.044,-4.634521484375,4.013916015625,1.171142578125
0.0445,-3.913818359375,4.454345703125,0.250244140625
0.045,-2.952880859375,4.814697265625,-1.111083984375
0.0455,-1.951904296875,5.135009765625,-2.472412109375
0.046,-1.031005859375,5.375244140625,-3.553466796875
0.0465,-0.350341796875,5.575439453125,-4.434326171875
0.047,0.690673828125,5.295166015625,-5.155029296875
0.0475,1.891845703125,4.494384765625,-5.675537109375
0.048,3.133056640625,3.453369140625,-6.115966796875
0.0485,4.134033203125,2.252197265625,-6.276123046875
0.049,4.774658203125,1.371337890625,-6.276123046875
0.0495,5.014892578125,0.610595703125,-6.115966796875
0.05,5.094970703125,-0.310302734375,-5.515380859375
0.0505,5.054931640625,-1.471435546875,-4.634521484375
0.051,5.054931640625,-2.752685546875,-3.593505859375
0.0515,4.814697265625,-3.873779296875,-2.512451171875
0.052,4.614501953125,-4.634521484375,-1.671630859375
0.0525,4.053955078125,-5.114990234375,-0.790771484375
0.053,3.173095703125,-5.435302734375,0.370361328125
0.0535,2.052001953125,-5.795654296875,1.771728515625
0.054,0.970947265625,-6.035888671875,3.052978515625
0.0545,0.170166015625,-6.236083984375,4.093994140625
0.055,-0.670654296875,-6.236083984375,4.854736328125
0.0555,-1.711669921875,-5.715576171875,5.495361328125
0.056,-2.992919921875,-4.714599609375,5.935791015625
0.0565,-4.194091796875,-3.553466796875,6.256103515625
0.057,-5.034912109375,-2.432373046875,6.256103515625
0.0575,-5.475341796875,-1.631591796875,6.135986328125
0.058,-5.595458984375,-0.790771484375,5.735595703125
0.0585,-5.515380859375,0.290283203125,4.974853515625
0.059,-5.475341796875,1.571533203125,3.973876953125
0.0595,-5.395263671875,2.812744140625,2.852783203125
0.06,-5.114990234375,3.733642578125,1.851806640625
0.0605,-4.794677734375,4.374267578125,1.010986328125
0.061,-4.033935546875,4.734619140625,0.130126953125
0.0615,-2.992919921875,4.974853515625,-1.231201171875
0.062,-1.871826171875,5.375244140625,-2.632568359375
0.0625,-0.830810546875,5.495361328125,-3.833740234375
0.063,0.010009765625,5.735595703125,-4.754638671875
0.0635,0.850830078125,5.495361328125,-5.475341796875
0.064,2.052001953125,4.654541015625,-6.035888671875
0.0645,3.333251953125,3.533447265625,-6.396240234375
0.065,4.494384765625,2.292236328125,-6.596435546875
0.0655,5.135009765625,1.211181640625,-6.556396484375
0.066,5.455322265625,0.490478515625,-6.356201171875
0.0665,5.455322265625,-0.550537109375,-5.755615234375
0.067,5.375244140625,-1.751708984375,-4.754638671875
0.0675,5.295166015625,-3.072998046875,-3.593505859375
0.068,5.054931640625,-4.274169921875,-2.392333984375
0.0685,4.774658203125,-5.114990234375,-1.431396484375
0.069,4.214111328125,-5.635498046875,-0.590576171875
0.0695,3.253173828125,-5.875732421875,0.610595703125
0.07,1.971923828125,-6.115966796875,2.092041015625
0.0705,0.690673828125,-6.356201171875,3.573486328125
0.071,-0.310302734375,-6.436279296875,4.614501953125
0.0715,-1.031005859375,-6.476318359375,5.415283203125
0.072,-2.072021484375,-5.915771484375,6.055908203125
0.0725,-3.473388671875,-4.794677734375,6.456298828125
0.073,-4.714599609375,-3.513427734375,6.736572265625
0.0735,-5.675537109375,-2.272216796875,6.696533203125
0.074,-6.115966796875,-1.231201171875,6.536376953125
0.0745,-6.115966796875,-0.390380859375,6.055908203125
0.075,-6.035888671875,0.770751953125,5.175048828125
0.0755,-5.795654296875,2.092041015625,3.933837890625
0.076,-5.715576171875,3.493408203125,2.652587890625
0.0765,-5.315185546875,4.494384765625,1.491455078125
0.077,-4.834716796875,5.094970703125,0.610595703125
0.0775,-4.033935546875,5.375244140625,-0.430419921875
0.078,-2.832763671875,5.495361328125,-1.711669921875
0.0785,-1.511474609375,5.735595703125,-3.233154296875
0.079,-0.310302734375,5.815673828125,-4.554443359375
0.0795,0.570556640625,5.855712890625,-5.435302734375
0.08,1.331298828125,5.695556640625,-6.115966796875
0.0805,2.532470703125,4.814697265625,-6.596435546875
0.081,3.893798828125,3.493408203125,-6.916748046875
0.0815,5.054931640625,2.092041015625,-7.076904296875
0.082,5.735595703125,0.930908203125,-6.836669921875
0.0825,5.975830078125,0.090087890625,-6.596435546875
0.083,5.895751953125,-0.910888671875,-5.955810546875
0.0835,5.735595703125,-2.112060546875,-4.834716796875
0.084,5.495361328125,-3.393310546875,-3.593505859375
0.0845,5.255126953125,-4.714599609375,-2.272216796875
0.085,4.814697265625,-5.555419921875,-1.231201171875
0.0855,4.254150390625,-6.075927734375,-0.310302734375
0.086,3.333251953125,-6.236083984375,0.770751953125
0.0865,1.971923828125,-6.356201171875,2.212158203125
0.087,0.610595703125,-6.556396484375,3.773681640625
0.0875,-0.630615234375,-6.516357421875,4.854736328125
0.088,-1.271240234375,-6.596435546875,5.655517578125
0.0885,-2.112060546875,-6.196044921875,6.216064453125
0.089,-3.393310546875,-5.114990234375,6.656494140625
0.0895,-4.714599609375,-3.873779296875,6.896728515625
0.09,-5.755615234375,-2.432373046875,6.936767578125
0.0905,-6.276123046875,-1.351318359375,6.696533203125
0.091,-6.396240234375,-0.510498046875,6.336181640625
0.0915,-6.236083984375,0.490478515625,5.575439453125
0.092,-5.995849609375,1.771728515625,4.374267578125
0.0925,-5.795654296875,3.133056640625,3.133056640625
0.093,-5.475341796875,4.294189453125,1.851806640625
0.0935,-5.074951171875,5.014892578125,0.890869140625
0.094,-4.434326171875,5.415283203125,0.010009765625
0.0945,-3.393310546875,5.535400390625,-1.191162109375
0.095,-2.031982421875,5.735595703125,-2.632568359375
0.0955,-0.670654296875,5.895751953125,-4.154052734375
0.096,0.290283203125,5.895751953125,-5.114990234375
0.0965,0.970947265625,5.895751953125,-5.915771484375
0.097,1.971923828125,5.255126953125,-6.436279296875
0.0975,3.293212890625,4.093994140625,-6.836669921875
0.098,4.534423828125,2.852783203125,-7.076904296875
0.0985,5.495361328125,1.531494140625,-7.036865234375
0.099,5.935791015625,0.530517578125,-6.796630859375
0.0995,6.015869140625,-0.390380859375,-6.356201171875
0.1,5.815673828125,-1.431396484375,-5.475341796875
0.1005,5.655517578125,-2.752685546875,-4.234130859375
0.101,5.455322265625,-4.194091796875,-2.872802734375
0.1015,5.094970703125,-5.195068359375,-1.711669921875
0.102,4.614501953125,-5.915771484375,-0.790771484375
0.1025,3.853759765625,-6.156005859375,0.250244140625
0.103,2.612548828125,-6.356201171875,1.531494140625
0.1035,1.251220703125,-6.556396484375,3.133056640625
0.104,-0.150146484375,-6.596435546875,4.494384765625
0.1045,-0.990966796875,-6.716552734375,5.415283203125
0.105,-1.711669921875,-6.516357421875,6.055908203125
0.1055,-2.872802734375,-5.715576171875,6.536376953125
0.106,-4.234130859375,-4.354248046875,6.936767578125
0.1065,-5.435302734375,-2.952880859375,7.056884765625
0.107,-6.156005859375,-1.711669921875,6.896728515625
0.1075,-6.436279296875,-0.790771484375,6.576416015625
0.108,-6.396240234375,0.210205078125,5.935791015625
0.1085,-6.196044921875,1.411376953125,4.854736328125
0.109,-5.955810546875,2.772705078125,3.573486328125
0.1095,-5.755615234375,4.134033203125,2.212158203125
0.11,-5.275146484375,4.974853515625,1.091064453125
0.1105,-4.754638671875,5.495361328125,0.210205078125
0.111,-3.793701171875,5.695556640625,-0.910888671875
0.1115,-2.392333984375,5.815673828125,-2.352294921875
0.112,-1.031005859375,6.055908203125,-3.953857421875
0.1125,0.250244140625,6.015869140625,-5.114990234375
0.113,0.970947265625,6.015869140625,-5.915771484375
0.1135,1.811767578125,5.535400390625,-6.556396484375
0.114,3.173095703125,4.494384765625,-6.956787109375
0.1145,4.494384765625,3.133056640625,-7.197021484375
0.115,5.575439453125,1.731689453125,-7.197021484375
0.1155,6.095947265625,0.570556640625,-6.916748046875
0.116,6.176025390625,-0.390380859375,-6.556396484375
0.1165,6.015869140625,-1.351318359375,-5.755615234375
0.117,5.775634765625,-2.632568359375,-4.514404296875
0.1175,5.575439453125,-4.033935546875,-3.193115234375
0.118,5.175048828125,-5.195068359375,-1.831787109375
0.1185,4.694580078125,-5.915771484375,-0.830810546875
0.119,4.013916015625,-6.276123046875,0.130126953125
0.1195,2.932861328125,-6.396240234375,1.291259765625
0.12,1.531494140625,-6.516357421875,2.772705078125
0.1205,0.130126953125,-6.636474609375,4.214111328125
0.121,-0.910888671875,-6.596435546875,5.215087890625
0.1215,-1.591552734375,-6.556396484375,5.895751953125
0.122,-2.552490234375,-5.915771484375,6.416259765625
0.1225,-3.833740234375,-4.714599609375,6.736572265625
0.123,-4.994873046875,-3.393310546875,6.976806640625
0.1235,-5.875732421875,-2.112060546875,6.856689453125
0.124,-6.276123046875,-1.151123046875,6.576416015625
0.1245,-6.276123046875,-0.310302734375,6.135986328125
0.125,-6.115966796875,0.730712890625,5.295166015625
0.1255,-5.835693359375,1.931884765625,4.134033203125
0.126,-5.675537109375,3.253173828125,2.852783203125
0.1265,-5.315185546875,4.334228515625,1.611572265625
0.127,-4.874755859375,4.934814453125,0.770751953125
0.1275,-4.154052734375,5.255126953125,-0.190185546875
0.128,-3.072998046875,5.415283203125,-1.311279296875
0.1285,-1.871826171875,5.615478515625,-2.752685546875
0.129,-0.630615234375,5.695556640625,-4.114013671875
0.1295,0.290283203125,5.775634765625,-5.074951171875
0.13,0.970947265625,5.775634765625,-5.755615234375
0.1305,1.971923828125,5.135009765625,-6.276123046875
0.131,3.253173828125,3.973876953125,-6.636474609375
0.1315,4.494384765625,2.732666015625,-6.876708984375
0.132,5.255126953125,1.531494140625,-6.756591796875
0.1325,5.655517578125,0.690673828125,-6.596435546875
0.133,5.735595703125,-0.310302734375,-6.156005859375
0.1335,5.575439453125,-1.311279296875,-5.275146484375
0.134,5.455322265625,-2.552490234375,-4.194091796875
0.1345,5.255126953125,-3.873779296875,-2.912841796875
0.135,4.934814453125,-4.834716796875,-1.871826171875
0.1355,4.534423828125,-5.475341796875,-0.990966796875
0.136,3.813720703125,-5.795654296875,0.050048828125
0.1365,2.612548828125,-6.075927734375,1.291259765625
0.137,1.331298828125,-6.356201171875,2.812744140625
0.1375,0.170166015625,-6.396240234375,4.013916015625
0.138,-0.590576171875,-6.476318359375,4.934814453125
0.1385,-1.431396484375,-6.276123046875,5.615478515625
0.139,-2.552490234375,-5.435302734375,6.095947265625
0.1395,-3.833740234375,-4.314208984375,6.456298828125
0.14,-4.954833984375,-3.072998046875,6.576416015625
0.1405,-5.635498046875,-1.951904296875,6.496337890625
0.141,-5.875732421875,-1.151123046875,6.256103515625
0.1415,-5.835693359375,-0.310302734375,5.735595703125
0.142,-5.715576171875,0.890869140625,4.734619140625
0.1425,-5.635498046875,2.172119140625,3.653564453125
0.143,-5.395263671875,3.333251953125,2.452392578125
0.1435,-5.074951171875,4.174072265625,1.491455078125
0.144,-4.554443359375,4.734619140625,0.650634765625
0.1445,-3.753662109375,4.934814453125,-0.430419921875
0.145,-2.632568359375,5.175048828125,-1.711669921875
0.1455,-1.431396484375,5.415283203125,-3.153076171875
0.146,-0.510498046875,5.575439453125,-4.194091796875
0.1465,0.290283203125,5.695556640625,-5.074951171875
0.147,1.171142578125,5.335205078125,-5.635498046875
0.1475,2.332275390625,4.454345703125,-6.115966796875
0.148,3.533447265625,3.373291015625,-6.436279296875
0.1485,4.534423828125,2.132080078125,-6.476318359375
0.149,5.094970703125,1.211181640625,-6.436279296875
0.1495,5.375244140625,0.450439453125,-6.196044921875
0.15,5.295166015625,-0.510498046875,-5.635498046875
0.1505,5.215087890625,-1.631591796875,-4.674560546875
0.151,5.094970703125,-2.912841796875,-3.553466796875
0.1515,4.854736328125,-3.993896484375,-2.472412109375
0.152,4.614501953125,-4.754638671875,-1.631591796875
0.1525,4.093994140625,-5.275146484375,-0.790771484375
0.153,3.173095703125,-5.515380859375,0.370361328125
0.1535,2.092041015625,-5.875732421875,1.651611328125
0.154,0.970947265625,-6.035888671875,3.012939453125
0.1545,0.170166015625,-6.236083984375,4.013916015625
0.155,-0.630615234375,-6.276123046875,4.814697265625
0.1555,-1.551513671875,-5.835693359375,5.415283203125
0.156,-2.752685546875,-4.954833984375,5.895751953125
0.1565,-3.913818359375,-3.833740234375,6.176025390625
0.157,-4.834716796875,-2.712646484375,6.216064453125
0.1575,-5.275146484375,-1.911865234375,6.176025390625
0.158,-5.475341796875,-1.151123046875,5.855712890625
0.1585,-5.435302734375,-0.230224609375,5.175048828125
0.159,-5.435302734375,0.970947265625,4.334228515625
0.1595,-5.355224609375,2.212158203125,3.333251953125
0.16,-5.155029296875,3.173095703125,2.292236328125
0.1605,-4.874755859375,3.893798828125,1.531494140625
0.161,-4.314208984375,4.334228515625,0.610595703125
0.1615,-3.393310546875,4.614501953125,-0.590576171875
0.162,-2.432373046875,5.094970703125,-1.871826171875
0.1625,-1.391357421875,5.255126953125,-3.072998046875
0.163,-0.670654296875,5.575439453125,-4.033935546875
0.1635,0.170166015625,5.535400390625,-4.834716796875
0.164,1.291259765625,4.974853515625,-5.435302734375
0.1645,2.452392578125,4.093994140625,-5.915771484375
0.165,3.573486328125,2.972900390625,-6.156005859375
0.1655,4.414306640625,1.931884765625,-6.236083984375
0.166,4.814697265625,1.251220703125,-6.196044921875
0.1665,4.974853515625,0.450439453125,-5.835693359375
0.167,4.974853515625,-0.630615234375,-5.155029296875
0.1675,5.014892578125,-1.791748046875,-4.314208984375
0.168,4.934814453125,-2.952880859375,-3.233154296875
0.1685,4.734619140625,-3.913818359375,-2.392333984375
0.169,4.414306640625,-4.634521484375,-1.591552734375
0.1695,3.773681640625,-5.074951171875,-0.630615234375
0.17,2.852783203125,-5.395263671875,0.650634765625
0.1705,1.771728515625,-5.755615234375,1.971923828125
0.171,0.890869140625,-5.955810546875,3.133056640625
0.1715,0.250244140625,-6.196044921875,4.013916015625
0.172,-0.750732421875,-6.035888671875,4.774658203125
0.1725,-1.871826171875,-5.315185546875,5.295166015625
0.173,-3.072998046875,-4.434326171875,5.775634765625
0.1735,-4.114013671875,-3.353271484375,5.935791015625
0.174,-4.794677734375,-2.432373046875,6.015869140625
0.1745,-5.155029296875,-1.711669921875,5.895751953125
0.175,-5.235107421875,-0.910888671875,5.495361328125
0.1755,-5.275146484375,0.210205078125,4.774658203125
0.176,-5.275146484375,1.411376953125,3.853759765625
0.1765,-5.195068359375,2.492431640625,2.852783203125
0.177,-4.994873046875,3.333251953125,2.052001953125
0.1775,-4.594482421875,3.893798828125,1.211181640625
0.178,-3.833740234375,4.334228515625,0.210205078125
0.1785,-2.952880859375,4.814697265625,-1.151123046875
0.179,-1.951904296875,5.094970703125,-2.432373046875
0.1795,-1.151123046875,5.415283203125,-3.473388671875
0.18,-0.430419921875,5.535400390625,-4.354248046875
0.1805,0.610595703125,5.255126953125,-5.074951171875
0.181,1.851806640625,4.454345703125,-5.595458984375
0.1815,3.052978515625,3.413330078125,-5.995849609375
0.182,3.973876953125,2.292236328125,-6.115966796875
0.1825,4.574462890625,1.531494140625,-6.196044921875
0.183,4.854736328125,0.770751953125,-5.955810546875
0.1835,4.934814453125,-0.270263671875,-5.395263671875
0.184,4.974853515625,-1.311279296875,-4.634521484375
0.1845,4.934814453125,-2.592529296875,-3.593505859375
0.185,4.774658203125,-3.673583984375,-2.632568359375
0.1855,4.534423828125,-4.434326171875,-1.871826171875
0.186,4.013916015625,-4.834716796875,-0.990966796875
0.1865,3.133056640625,-5.235107421875,0.290283203125
0.187,2.132080078125,-5.635498046875,1.611572265625
0.1875,1.131103515625,-5.875732421875,2.812744140625
0.188,0.450439453125,-6.156005859375,3.813720703125
