wavelength,x,y,z
0.0,-5.034912109375,-2.272216796875,6.135986328125
0.0005,-5.315185546875,-1.711669921875,6.135986328125
0.001,-5.275146484375,-0.990966796875,5.655517578125
0.0015,-5.114990234375,0.170166015625,4.654541015625
0.002,-4.994873046875,1.411376953125,3.573486328125
0.0025,-4.954833984375,2.692626953125,2.532470703125
0.003,-4.834716796875,3.573486328125,1.771728515625
0.0035,-4.514404296875,4.134033203125,1.051025390625
0.004,-3.713623046875,4.454345703125,0.050048828125
0.0045,-2.752685546875,4.814697265625,-1.271240234375
0.005,-1.551513671875,5.094970703125,-2.752685546875
0.0055,-0.830810546875,5.575439453125,-3.873779296875
0.006,-0.190185546875,5.775634765625,-4.754638671875
0.0065,0.850830078125,5.415283203125,-5.435302734375
0.007,2.132080078125,4.334228515625,-5.755615234375
0.0075,3.293212890625,3.173095703125,-6.075927734375
0.008,4.334228515625,2.052001953125,-6.236083984375
0.0085,4.814697265625,1.291259765625,-6.356201171875
0.009,5.014892578125,0.690673828125,-6.156005859375
0.0095,4.854736328125,-0.310302734375,-5.475341796875
0.01,4.774658203125,-1.351318359375,-4.514404296875
0.0105,4.614501953125,-2.712646484375,-3.193115234375
0.011,4.574462890625,-3.873779296875,-2.272216796875
0.0115,4.494384765625,-4.594482421875,-1.591552734375
0.012,3.933837890625,-5.074951171875,-0.790771484375
0.0125,2.892822265625,-5.315185546875,0.490478515625
0.013,1.851806640625,-5.635498046875,1.851806640625
0.0135,0.770751953125,-5.955810546875,3.253173828125
0.014,0.130126953125,-6.396240234375,4.294189453125
0.0145,-0.710693359375,-6.356201171875,5.094970703125
0.015,-1.791748046875,-5.715576171875,5.575439453125
0.0155,-3.032958984375,-4.634521484375,5.935791015625
0.016,-4.234130859375,-3.273193359375,6.055908203125
0.0165,-5.114990234375,-2.312255859375,6.256103515625
0.017,-5.435302734375,-1.711669921875,6.256103515625
0.0175,-5.475341796875,-0.990966796875,5.775634765625
0.018,-5.195068359375,0.170166015625,4.814697265625
0.0185,-5.074951171875,1.291259765625,3.853759765625
0.019,-4.994873046875,2.692626953125,2.532470703125
0.0195,-4.954833984375,3.693603515625,1.731689453125
0.02,-4.634521484375,4.334228515625,0.970947265625
0.0205,-3.913818359375,4.614501953125,0.090087890625
0.021,-2.792724609375,4.894775390625,-1.311279296875
0.0215,-1.631591796875,5.215087890625,-2.752685546875
0.022,-0.750732421875,5.615478515625,-3.993896484375
0.0225,0.010009765625,5.855712890625,-4.954833984375
0.023,0.930908203125,5.575439453125,-5.635498046875
0.0235,2.172119140625,4.534423828125,-6.035888671875
0.024,3.373291015625,3.413330078125,-6.356201171875
0.0245,4.534423828125,1.971923828125,-6.436279296875
0.025,5.175048828125,1.131103515625,-6.476318359375
0.0255,5.295166015625,0.490478515625,-6.356201171875
0.026,5.215087890625,-0.430419921875,-5.715576171875
0.0265,4.974853515625,-1.591552734375,-4.514404296875
0.027,4.774658203125,-2.912841796875,-3.233154296875
0.0275,4.654541015625,-4.194091796875,-2.072021484375
0.028,4.494384765625,-4.994873046875,-1.311279296875
0.0285,3.973876953125,-5.435302734375,-0.510498046875
0.029,2.972900390625,-5.635498046875,0.690673828125
0.0295,1.771728515625,-5.875732421875,2.092041015625
0.03,0.490478515625,-6.115966796875,3.573486328125
0.0305,-0.350341796875,-6.436279296875,4.694580078125
0.031,-0.990966796875,-6.516357421875,5.455322265625
0.0315,-2.072021484375,-5.915771484375,6.015869140625
0.032,-3.353271484375,-4.594482421875,6.256103515625
0.0325,-4.594482421875,-3.353271484375,6.416259765625
0.033,-5.515380859375,-2.072021484375,6.416259765625
0.0335,-5.835693359375,-1.311279296875,6.416259765625
0.034,-5.835693359375,-0.630615234375,5.975830078125
0.0345,-5.595458984375,0.450439453125,5.054931640625
0.035,-5.315185546875,1.691650390625,3.853759765625
0.0355,-5.114990234375,3.133056640625,2.412353515625
0.036,-4.994873046875,4.174072265625,1.411376953125
0.0365,-4.714599609375,4.814697265625,0.690673828125
0.037,-3.993896484375,5.094970703125,-0.310302734375
0.0375,-2.712646484375,5.255126953125,-1.591552734375
0.038,-1.471435546875,5.495361328125,-3.072998046875
0.0385,-0.350341796875,5.735595703125,-4.514404296875
0.039,0.450439453125,5.975830078125,-5.435302734375
0.0395,1.251220703125,5.775634765625,-6.115966796875
0.04,2.492431640625,4.814697265625,-6.596435546875
0.0405,3.813720703125,3.373291015625,-6.796630859375
0.041,5.014892578125,1.931884765625,-6.836669921875
0.0415,5.735595703125,0.890869140625,-6.796630859375
0.042,5.855712890625,0.210205078125,-6.636474609375
0.0425,5.735595703125,-0.790771484375,-5.955810546875
0.043,5.375244140625,-1.951904296875,-4.634521484375
0.0435,5.094970703125,-3.313232421875,-3.273193359375
0.044,4.854736328125,-4.754638671875,-1.871826171875
0.0445,4.614501953125,-5.555419921875,-0.990966796875
0.045,4.134033203125,-6.075927734375,-0.150146484375
0.0455,3.052978515625,-6.236083984375,1.010986328125
0.046,1.571533203125,-6.316162109375,2.532470703125
0.0465,0.170166015625,-6.436279296875,4.134033203125
0.047,-0.830810546875,-6.676513671875,5.295166015625
0.0475,-1.471435546875,-6.716552734375,6.095947265625
0.048,-2.552490234375,-6.115966796875,6.656494140625
0.0485,-3.873779296875,-4.754638671875,6.856689453125
0.049,-5.074951171875,-3.353271484375,6.976806640625
0.0495,-6.115966796875,-1.831787109375,6.896728515625
0.05,-6.476318359375,-0.910888671875,6.696533203125
0.0505,-6.436279296875,-0.190185546875,6.256103515625
0.051,-6.115966796875,0.850830078125,5.295166015625
0.0515,-5.715576171875,2.172119140625,3.813720703125
0.052,-5.355224609375,3.573486328125,2.292236328125
0.0525,-5.114990234375,4.814697265625,1.051025390625
0.053,-4.754638671875,5.415283203125,0.290283203125
0.0535,-3.953857421875,5.655517578125,-0.670654296875
0.054,-2.712646484375,5.735595703125,-1.951904296875
0.0545,-1.271240234375,5.855712890625,-3.473388671875
0.055,0.210205078125,5.935791015625,-4.994873046875
0.0555,0.930908203125,6.095947265625,-5.915771484375
0.056,1.571533203125,5.975830078125,-6.596435546875
0.0565,2.732666015625,5.094970703125,-7.036865234375
0.057,4.134033203125,3.493408203125,-7.156982421875
0.0575,5.255126953125,2.052001953125,-7.156982421875
0.058,6.095947265625,0.690673828125,-7.036865234375
0.0585,6.296142578125,-0.150146484375,-6.796630859375
0.059,6.135986328125,-0.950927734375,-6.236083984375
0.0595,5.735595703125,-2.031982421875,-4.994873046875
0.06,5.295166015625,-3.353271484375,-3.553466796875
0.0605,4.934814453125,-4.834716796875,-1.951904296875
0.061,4.694580078125,-5.795654296875,-0.870849609375
0.0615,4.254150390625,-6.316162109375,0.010009765625
0.062,3.333251953125,-6.436279296875,0.930908203125
0.0625,1.851806640625,-6.476318359375,2.332275390625
0.063,0.370361328125,-6.556396484375,3.893798828125
0.0635,-0.910888671875,-6.676513671875,5.255126953125
0.064,-1.551513671875,-6.796630859375,6.095947265625
0.0645,-2.352294921875,-6.476318359375,6.656494140625
0.065,-3.553466796875,-5.355224609375,7.016845703125
0.0655,-4.834716796875,-3.833740234375,7.056884765625
0.066,-5.955810546875,-2.232177734375,6.976806640625
0.0665,-6.556396484375,-1.151123046875,6.856689453125
0.067,-6.596435546875,-0.510498046875,6.536376953125
0.0675,-6.356201171875,0.490478515625,5.775634765625
0.068,-5.835693359375,1.651611328125,4.414306640625
0.0685,-5.515380859375,3.012939453125,3.012939453125
0.069,-5.235107421875,4.374267578125,1.531494140625
0.0695,-4.954833984375,5.175048828125,0.610595703125
0.07,-4.394287109375,5.615478515625,-0.270263671875
0.0705,-3.353271484375,5.735595703125,-1.271240234375
0.071,-1.911865234375,5.775634765625,-2.752685546875
0.0715,-0.470458984375,5.895751953125,-4.354248046875
0.072,0.570556640625,6.095947265625,-5.515380859375
0.0725,1.171142578125,6.095947265625,-6.276123046875
0.073,2.132080078125,5.575439453125,-6.836669921875
0.0735,3.493408203125,4.214111328125,-7.076904296875
0.074,4.654541015625,2.852783203125,-7.197021484375
0.0745,5.775634765625,1.291259765625,-7.076904296875
0.075,6.216064453125,0.370361328125,-6.956787109375
0.0755,6.216064453125,-0.430419921875,-6.596435546875
0.076,5.895751953125,-1.351318359375,-5.715576171875
0.0765,5.455322265625,-2.632568359375,-4.234130859375
0.077,5.094970703125,-4.114013671875,-2.672607421875
0.0775,4.854736328125,-5.395263671875,-1.391357421875
0.078,4.494384765625,-6.035888671875,-0.590576171875
0.0785,3.853759765625,-6.356201171875,0.370361328125
0.079,2.572509765625,-6.436279296875,1.611572265625
0.0795,1.131103515625,-6.556396484375,3.173095703125
0.08,-0.470458984375,-6.636474609375,4.774658203125
0.0805,-1.191162109375,-6.876708984375,5.735595703125
0.081,-1.871826171875,-6.756591796875,6.496337890625
0.0815,-2.992919921875,-5.915771484375,6.936767578125
0.082,-4.434326171875,-4.354248046875,7.056884765625
0.0825,-5.515380859375,-2.872802734375,7.056884765625
0.083,-6.436279296875,-1.511474609375,6.976806640625
0.0835,-6.636474609375,-0.710693359375,6.736572265625
0.084,-6.476318359375,0.170166015625,6.135986328125
0.0845,-6.115966796875,1.251220703125,4.974853515625
0.085,-5.755615234375,2.572509765625,3.533447265625
0.0855,-5.355224609375,4.013916015625,1.931884765625
0.086,-5.114990234375,5.094970703125,0.810791015625
0.0865,-4.634521484375,5.575439453125,0.050048828125
0.087,-3.793701171875,5.735595703125,-0.990966796875
0.0875,-2.272216796875,5.775634765625,-2.432373046875
0.088,-0.830810546875,5.895751953125,-3.913818359375
0.0885,0.450439453125,5.975830078125,-5.315185546875
0.089,1.091064453125,6.095947265625,-6.156005859375
0.0895,1.891845703125,5.775634765625,-6.756591796875
0.09,3.133056640625,4.734619140625,-7.076904296875
0.0905,4.414306640625,3.213134765625,-7.197021484375
0.091,5.535400390625,1.611572265625,-7.076904296875
0.0915,6.135986328125,0.530517578125,-6.996826171875
0.092,6.216064453125,-0.270263671875,-6.716552734375
0.0925,5.935791015625,-1.071044921875,-5.955810546875
0.093,5.495361328125,-2.272216796875,-4.594482421875
0.0935,5.094970703125,-3.553466796875,-3.193115234375
0.094,4.814697265625,-4.954833984375,-1.711669921875
0.0945,4.534423828125,-5.755615234375,-0.790771484375
0.095,4.053955078125,-6.196044921875,0.050048828125
0.0955,3.052978515625,-6.276123046875,1.051025390625
0.096,1.571533203125,-6.356201171875,2.532470703125
0.0965,0.130126953125,-6.436279296875,4.053955078125
0.097,-0.910888671875,-6.636474609375,5.215087890625
0.0975,-1.471435546875,-6.716552734375,5.975830078125
0.098,-2.352294921875,-6.196044921875,6.456298828125
0.0985,-3.593505859375,-4.954833984375,6.696533203125
0.099,-4.754638671875,-3.633544921875,6.856689453125
0.0995,-5.835693359375,-2.152099609375,6.776611328125
0.1,-6.276123046875,-1.231201171875,6.656494140625
0.1005,-6.276123046875,-0.630615234375,6.376220703125
0.101,-6.035888671875,0.330322265625,5.575439453125
0.1015,-5.635498046875,1.531494140625,4.254150390625
0.102,-5.315185546875,2.852783203125,2.852783203125
0.1025,-5.114990234375,4.134033203125,1.611572265625
0.103,-4.874755859375,4.854736328125,0.810791015625
0.1035,-4.274169921875,5.255126953125,0.010009765625
0.104,-3.193115234375,5.375244140625,-1.151123046875
0.1045,-1.951904296875,5.575439453125,-2.592529296875
0.105,-0.510498046875,5.695556640625,-4.154052734375
0.1055,0.290283203125,5.975830078125,-5.195068359375
0.106,0.970947265625,6.055908203125,-5.955810546875
0.1065,1.971923828125,5.415283203125,-6.476318359375
0.107,3.333251953125,4.013916015625,-6.716552734375
0.1075,4.494384765625,2.692626953125,-6.836669921875
0.108,5.455322265625,1.331298828125,-6.796630859375
0.1085,5.735595703125,0.610595703125,-6.756591796875
0.109,5.735595703125,-0.190185546875,-6.356201171875
0.1095,5.455322265625,-1.151123046875,-5.395263671875
0.11,5.175048828125,-2.392333984375,-4.154052734375
0.1105,4.854736328125,-3.833740234375,-2.592529296875
0.111,4.734619140625,-4.954833984375,-1.551513671875
0.1115,4.454345703125,-5.595458984375,-0.790771484375
0.112,3.693603515625,-5.835693359375,0.130126953125
0.1125,2.452392578125,-5.995849609375,1.371337890625
0.113,1.131103515625,-6.196044921875,2.852783203125
0.1135,-0.190185546875,-6.316162109375,4.294189453125
0.114,-0.790771484375,-6.556396484375,5.175048828125
0.1145,-1.551513671875,-6.436279296875,5.855712890625
0.115,-2.632568359375,-5.555419921875,6.256103515625
0.1155,-3.873779296875,-4.274169921875,6.496337890625
0.116,-5.034912109375,-2.832763671875,6.496337890625
0.1165,-5.755615234375,-1.791748046875,6.496337890625
0.117,-5.915771484375,-1.191162109375,6.376220703125
0.1175,-5.795654296875,-0.470458984375,5.815673828125
0.118,-5.435302734375,0.690673828125,4.734619140625
0.1185,-5.195068359375,1.891845703125,3.573486328125
0.119,-5.034912109375,3.253173828125,2.212158203125
0.1195,-4.874755859375,4.134033203125,1.331298828125
0.12,-4.514404296875,4.694580078125,0.610595703125
0.1205,-3.753662109375,4.894775390625,-0.350341796875
0.121,-2.552490234375,5.094970703125,-1.631591796875
0.1215,-1.311279296875,5.335205078125,-3.072998046875
0.122,-0.390380859375,5.615478515625,-4.314208984375
0.1225,0.290283203125,5.895751953125,-5.155029296875
0.123,1.131103515625,5.575439453125,-5.795654296875
0.1235,2.292236328125,4.574462890625,-6.115966796875
0.124,3.453369140625,3.453369140625,-6.396240234375
0.1245,4.534423828125,2.052001953125,-6.436279296875
0.125,5.135009765625,1.251220703125,-6.516357421875
0.1255,5.375244140625,0.610595703125,-6.396240234375
0.126,5.215087890625,-0.270263671875,-5.795654296875
0.1265,4.934814453125,-1.271240234375,-4.754638671875
0.127,4.734619140625,-2.592529296875,-3.513427734375
0.1275,4.614501953125,-3.873779296875,-2.352294921875
0.128,4.494384765625,-4.634521484375,-1.591552734375
0.1285,4.134033203125,-5.195068359375,-0.870849609375
0.129,3.213134765625,-5.475341796875,0.290283203125
0.1295,2.132080078125,-5.715576171875,1.571533203125
0.13,0.890869140625,-5.915771484375,3.012939453125
0.1305,0.130126953125,-6.316162109375,4.134033203125
0.131,-0.590576171875,-6.476318359375,4.934814453125
0.1315,-1.471435546875,-6.115966796875,5.495361328125
0.132,-2.712646484375,-4.994873046875,5.855712890625
0.1325,-3.873779296875,-3.833740234375,6.095947265625
0.133,-4.834716796875,-2.632568359375,6.216064453125
0.1335,-5.275146484375,-1.951904296875,6.256103515625
0.134,-5.435302734375,-1.311279296875,6.055908203125
0.1345,-5.275146484375,-0.510498046875,5.335205078125
0.135,-5.114990234375,0.650634765625,4.414306640625
0.1355,-4.994873046875,1.971923828125,3.133056640625
0.136,-4.954833984375,3.173095703125,2.172119140625
0.1365,-4.794677734375,3.853759765625,1.531494140625
0.137,-4.314208984375,4.294189453125,0.690673828125
0.1375,-3.353271484375,4.574462890625,-0.470458984375
0.138,-2.392333984375,4.974853515625,-1.751708984375
0.1385,-1.311279296875,5.255126953125,-3.153076171875
0.139,-0.630615234375,5.655517578125,-4.154052734375
0.1395,0.170166015625,5.735595703125,-4.954833984375
0.14,1.171142578125,5.175048828125,-5.515380859375
0.1405,2.372314453125,4.134033203125,-5.875732421875
0.141,3.573486328125,2.892822265625,-6.075927734375
0.1415,4.454345703125,1.931884765625,-6.276123046875
0.142,4.814697265625,1.331298828125,-6.396240234375
0.1425,4.934814453125,0.650634765625,-6.035888671875
0.143,4.774658203125,-0.350341796875,-5.235107421875
0.1435,4.694580078125,-1.471435546875,-4.354248046875
0.144,4.614501953125,-2.832763671875,-3.072998046875
0.1445,4.574462890625,-3.873779296875,-2.272216796875
0.145,4.414306640625,-4.594482421875,-1.591552734375
0.1455,3.853759765625,-4.954833984375,-0.710693359375
0.146,2.852783203125,-5.315185546875,0.610595703125
0.1465,1.691650390625,-5.635498046875,1.931884765625
0.147,0.810791015625,-6.035888671875,3.253173828125
0.1475,0.250244140625,-6.396240234375,4.214111328125
0.148,-0.710693359375,-6.276123046875,4.974853515625
0.1485,-1.871826171875,-5.475341796875,5.415283203125
0.149,-3.032958984375,-4.514404296875,5.775634765625
0.1495,-4.234130859375,-3.193115234375,6.015869140625
0.15,-4.954833984375,-2.392333984375,6.135986328125
0.1505,-5.275146484375,-1.791748046875,6.176025390625
0.151,-5.275146484375,-1.031005859375,5.695556640625
0.1515,-5.074951171875,0.050048828125,4.774658203125
0.152,-4.994873046875,1.291259765625,3.693603515625
0.1525,-4.994873046875,2.572509765625,2.572509765625
0.153,-4.954833984375,3.493408203125,1.931884765625
0.1535,-4.594482421875,4.093994140625,1.131103515625
0.154,-3.793701171875,4.414306640625,0.130126953125
0.1545,-2.832763671875,4.814697265625,-1.231201171875
0.155,-1.631591796875,5.135009765625,-2.712646484375
0.1555,-0.910888671875,5.535400390625,-3.833740234375
0.156,-0.270263671875,5.775634765625,-4.754638671875
0.1565,0.810791015625,5.415283203125,-5.395263671875
0.157,2.052001953125,4.334228515625,-5.755615234375
0.1575,3.253173828125,3.213134765625,-6.075927734375
0.158,4.334228515625,2.052001953125,-6.236083984375
0.1585,4.854736328125,1.371337890625,-6.356201171875
0.159,5.014892578125,0.690673828125,-6.156005859375
0.1595,4.894775390625,-0.270263671875,-5.435302734375
0.16,4.774658203125,-1.351318359375,-4.474365234375
0.1605,4.614501953125,-2.832763671875,-3.193115234375
0.161,4.614501953125,-3.953857421875,-2.232177734375
0.1615,4.454345703125,-4.634521484375,-1.551513671875
0.162,3.893798828125,-5.074951171875,-0.710693359375
0.1625,2.892822265625,-5.355224609375,0.530517578125
0.163,1.811767578125,-5.675537109375,1.931884765625
0.1635,0.730712890625,-5.955810546875,3.293212890625
0.164,0.090087890625,-6.356201171875,4.294189453125
0.1645,-0.790771484375,-6.356201171875,5.094970703125
0.165,-1.831787109375,-5.675537109375,5.575439453125
0.1655,-3.072998046875,-4.514404296875,5.895751953125
0.166,-4.274169921875,-3.193115234375,6.055908203125
0.1665,-5.114990234375,-2.232177734375,6.216064453125
0.167,-5.435302734375,-1.631591796875,6.216064453125
0.1675,-5.435302734375,-0.950927734375,5.735595703125
0.168,-5.155029296875,0.170166015625,4.814697265625
0.1685,-5.074951171875,1.291259765625,3.773681640625
0.169,-4.954833984375,2.692626953125,2.532470703125
0.1695,-4.914794921875,3.653564453125,1.731689453125
0.17,-4.634521484375,4.294189453125,1.010986328125
0.1705,-3.873779296875,4.614501953125,0.130126953125
0.171,-2.872802734375,4.854736328125,-1.231201171875
0.1715,-1.631591796875,5.175048828125,-2.672607421875
0.172,-0.790771484375,5.535400390625,-3.873779296875
0.1725,-0.150146484375,5.775634765625,-4.834716796875
0.173,0.810791015625,5.575439453125,-5.515380859375
0.1735,2.052001953125,4.574462890625,-5.915771484375
0.174,3.253173828125,3.493408203125,-6.236083984375
0.1745,4.454345703125,2.092041015625,-6.396240234375
0.175,5.054931640625,1.251220703125,-6.436279296875
0.1755,5.255126953125,0.650634765625,-6.356201171875
0.176,5.175048828125,-0.270263671875,-5.755615234375
0.1765,4.934814453125,-1.431396484375,-4.634521484375
0.177,4.774658203125,-2.752685546875,-3.353271484375
0.1775,4.654541015625,-3.993896484375,-2.232177734375
0.178,4.534423828125,-4.834716796875,-1.471435546875
0.1785,4.093994140625,-5.315185546875,-0.670654296875
0.179,3.093017578125,-5.515380859375,0.490478515625
0.1795,1.931884765625,-5.795654296875,1.891845703125
0.18,0.650634765625,-6.075927734375,3.373291015625
0.1805,-0.190185546875,-6.396240234375,4.494384765625
0.181,-0.830810546875,-6.476318359375,5.295166015625
0.1815,-1.871826171875,-5.915771484375,5.855712890625
0.182,-3.193115234375,-4.674560546875,6.135986328125
0.1825,-4.434326171875,-3.353271484375,6.336181640625
0.183,-5.395263671875,-2.192138671875,6.416259765625
0.1835,-5.755615234375,-1.471435546875,6.376220703125
0.184,-5.755615234375,-0.710693359375,6.015869140625
0.1845,-5.515380859375,0.290283203125,5.094970703125
0.185,-5.275146484375,1.491455078125,3.893798828125
0.1855,-5.114990234375,2.972900390625,2.532470703125
0.186,-4.994873046875,4.053955078125,1.531494140625
0.1865,-4.754638671875,4.654541015625,0.810791015625
0.187,-3.993896484375,5.014892578125,-0.190185546875
0.1875,-2.752685546875,5.135009765625,-1.471435546875
0.188,-1.591552734375,5.415283203125,-2.912841796875
