wavelength,x,y,z
0.0,0.30029296875,-5.82568359375,3.70361328125
0.0005,-0.74072265625,-5.90576171875,4.58447265625
0.001,-1.50146484375,-5.82568359375,5.46533203125
0.0015,-2.86279296875,-4.50439453125,5.58544921875
0.002,-3.90380859375,-3.06298828125,5.54541015625
0.0025,-4.58447265625,-2.30224609375,5.66552734375
0.003,-4.98486328125,-1.62158203125,5.70556640625
0.0035,-5.38525390625,-0.94091796875,5.66552734375
0.004,-5.38525390625,0.30029296875,4.82470703125
0.0045,-5.18505859375,1.42138671875,3.82373046875
0.005,-4.94482421875,2.54248046875,2.62255859375
0.0055,-4.74462890625,3.34326171875,1.86181640625
0.006,-4.54443359375,4.02392578125,1.14111328125
0.0065,-4.34423828125,4.78466796875,0.38037109375
0.007,-2.90283203125,4.82470703125,-1.14111328125
0.0075,-1.62158203125,4.86474609375,-2.42236328125
0.008,-0.94091796875,5.10498046875,-3.34326171875
0.0085,-0.30029296875,5.34521484375,-4.14404296875
0.009,0.74072265625,5.14501953125,-5.14501953125
0.0095,1.94189453125,4.50439453125,-5.78564453125
0.01,3.10302734375,3.22314453125,-5.90576171875
0.0105,4.06396484375,1.94189453125,-5.78564453125
0.011,4.54443359375,1.22119140625,-5.82568359375
0.0115,4.94482421875,0.50048828125,-5.78564453125
0.012,5.30517578125,-0.34033203125,-5.74560546875
0.0125,5.02490234375,-1.70166015625,-4.34423828125
0.013,4.78466796875,-2.90283203125,-3.14306640625
0.0135,4.54443359375,-3.82373046875,-2.18212890625
0.014,4.34423828125,-4.50439453125,-1.46142578125
0.0145,3.98388671875,-5.14501953125,-0.66064453125
0.015,3.30322265625,-5.62548828125,0.46044921875
0.0155,1.90185546875,-5.62548828125,1.82177734375
0.016,0.66064453125,-5.62548828125,3.02294921875
0.0165,0.06005859375,-5.74560546875,3.98388671875
0.017,-0.74072265625,-5.90576171875,4.62451171875
0.0175,-1.62158203125,-5.86572265625,5.50537109375
0.018,-3.02294921875,-4.46435546875,5.74560546875
0.0185,-4.10400390625,-3.14306640625,5.78564453125
0.019,-4.78466796875,-2.10205078125,5.74560546875
0.0195,-5.14501953125,-1.42138671875,5.70556640625
0.02,-5.42529296875,-0.70068359375,5.50537109375
0.0205,-5.74560546875,0.26025390625,5.26513671875
0.021,-5.34521484375,1.58154296875,3.82373046875
0.0215,-4.98486328125,2.74267578125,2.42236328125
0.022,-4.74462890625,3.54345703125,1.66162109375
0.0225,-4.50439453125,4.14404296875,0.98095703125
0.023,-4.22412109375,4.82470703125,0.26025390625
0.0235,-2.94287109375,5.06494140625,-1.26123046875
0.024,-1.70166015625,5.06494140625,-2.54248046875
0.0245,-0.74072265625,5.14501953125,-3.58349609375
0.025,0.02001953125,5.22509765625,-4.34423828125
0.0255,0.78076171875,5.14501953125,-5.18505859375
0.026,1.78173828125,4.98486328125,-6.02587890625
0.0265,3.18310546875,3.38330078125,-6.10595703125
0.027,4.22412109375,1.94189453125,-5.98583984375
0.0275,4.78466796875,1.10107421875,-5.94580078125
0.028,5.10498046875,0.42041015625,-5.90576171875
0.0285,5.38525390625,-0.50048828125,-5.66552734375
0.029,5.38525390625,-1.74169921875,-4.70458984375
0.0295,5.06494140625,-2.86279296875,-3.30322265625
0.03,4.62451171875,-3.98388671875,-2.18212890625
0.0305,4.38427734375,-4.70458984375,-1.38134765625
0.031,4.02392578125,-5.26513671875,-0.62060546875
0.0315,3.66357421875,-5.90576171875,0.30029296875
0.032,1.98193359375,-5.82568359375,1.94189453125
0.0325,0.66064453125,-5.82568359375,3.18310546875
0.033,-0.22021484375,-5.98583984375,4.10400390625
0.0335,-0.90087890625,-6.02587890625,4.82470703125
0.034,-1.78173828125,-5.74560546875,5.62548828125
0.0345,-3.06298828125,-4.86474609375,6.22607421875
0.035,-4.26416015625,-3.42333984375,6.26611328125
0.0355,-5.10498046875,-2.02197265625,6.02587890625
0.036,-5.62548828125,-1.26123046875,5.90576171875
0.0365,-5.74560546875,-0.50048828125,5.74560546875
0.037,-6.02587890625,0.42041015625,5.50537109375
0.0375,-5.62548828125,1.94189453125,3.74365234375
0.038,-5.26513671875,3.22314453125,2.50244140625
0.0385,-4.98486328125,4.10400390625,1.50146484375
0.039,-4.62451171875,4.66455078125,0.70068359375
0.0395,-4.10400390625,5.18505859375,-0.26025390625
0.04,-3.18310546875,5.62548828125,-1.46142578125
0.0405,-1.58154296875,5.50537109375,-2.94287109375
0.041,-0.30029296875,5.38525390625,-4.18408203125
0.0415,0.46044921875,5.42529296875,-4.98486328125
0.042,1.26123046875,5.34521484375,-5.70556640625
0.0425,2.22216796875,5.02490234375,-6.50634765625
0.043,3.82373046875,3.34326171875,-6.70654296875
0.0435,4.90478515625,1.86181640625,-6.58642578125
0.044,5.38525390625,0.70068359375,-6.30615234375
0.0445,5.70556640625,-0.22021484375,-6.10595703125
0.045,5.82568359375,-1.10107421875,-5.70556640625
0.0455,5.90576171875,-2.30224609375,-5.10498046875
0.046,5.46533203125,-3.70361328125,-3.26318359375
0.0465,4.86474609375,-4.86474609375,-1.74169921875
0.047,4.50439453125,-5.50537109375,-0.90087890625
0.0475,3.98388671875,-5.94580078125,0.02001953125
0.048,3.38330078125,-6.38623046875,0.94091796875
0.0485,1.70166015625,-6.54638671875,2.62255859375
0.049,0.18017578125,-6.34619140625,3.98388671875
0.0495,-0.98095703125,-6.22607421875,4.90478515625
0.05,-1.54150390625,-6.10595703125,5.58544921875
0.0505,-2.46240234375,-5.74560546875,6.22607421875
0.051,-3.50341796875,-5.14501953125,6.90673828125
0.0515,-4.94482421875,-3.26318359375,6.86669921875
0.052,-5.78564453125,-1.54150390625,6.54638671875
0.0525,-6.18603515625,-0.78076171875,6.26611328125
0.053,-6.22607421875,0.06005859375,5.86572265625
0.0535,-6.26611328125,1.14111328125,5.46533203125
0.054,-6.10595703125,2.42236328125,3.98388671875
0.0545,-5.62548828125,3.66357421875,2.54248046875
0.055,-5.06494140625,4.62451171875,1.18115234375
0.0555,-4.62451171875,5.18505859375,0.34033203125
0.056,-4.02392578125,5.58544921875,-0.54052734375
0.0565,-3.42333984375,6.02587890625,-1.50146484375
0.057,-1.54150390625,5.82568359375,-3.22314453125
0.0575,0.06005859375,5.62548828125,-4.62451171875
0.058,0.78076171875,5.62548828125,-5.34521484375
0.0585,1.46142578125,5.46533203125,-5.98583984375
0.059,2.50244140625,5.02490234375,-6.66650390625
0.0595,3.86376953125,3.82373046875,-7.10693359375
0.06,5.02490234375,2.42236328125,-6.98681640625
0.0605,5.74560546875,0.74072265625,-6.58642578125
0.061,5.98583984375,-0.18017578125,-6.34619140625
0.0615,6.14599609375,-0.90087890625,-5.98583984375
0.062,6.14599609375,-1.86181640625,-5.54541015625
0.0625,5.66552734375,-3.54345703125,-3.66357421875
0.063,5.10498046875,-4.74462890625,-2.14208984375
0.0635,4.66455078125,-5.46533203125,-1.10107421875
0.064,4.18408203125,-6.02587890625,-0.30029296875
0.0645,3.54345703125,-6.42626953125,0.70068359375
0.065,2.46240234375,-6.74658203125,1.98193359375
0.0655,0.66064453125,-6.50634765625,3.54345703125
0.066,-0.78076171875,-6.22607421875,4.74462890625
0.0665,-1.38134765625,-6.26611328125,5.42529296875
0.067,-2.10205078125,-5.98583984375,6.06591796875
0.0675,-3.06298828125,-5.62548828125,6.78662109375
0.068,-4.58447265625,-3.86376953125,6.74658203125
0.0685,-5.62548828125,-2.34228515625,6.70654296875
0.069,-6.10595703125,-1.18115234375,6.38623046875
0.0695,-6.38623046875,-0.50048828125,6.06591796875
0.07,-6.34619140625,0.54052734375,5.66552734375
0.0705,-6.38623046875,1.58154296875,4.98486328125
0.071,-5.82568359375,3.14306640625,3.18310546875
0.0715,-5.26513671875,4.34423828125,1.62158203125
0.072,-4.82470703125,4.98486328125,0.74072265625
0.0725,-4.34423828125,5.38525390625,0.02001953125
0.073,-3.82373046875,5.82568359375,-1.02099609375
0.0735,-2.18212890625,5.86572265625,-2.70263671875
0.074,-0.62060546875,5.74560546875,-4.02392578125
0.0745,0.50048828125,5.62548828125,-4.98486328125
0.075,1.14111328125,5.54541015625,-5.70556640625
0.0755,2.02197265625,5.22509765625,-6.38623046875
0.076,3.02294921875,4.78466796875,-7.18701171875
0.0765,4.54443359375,2.86279296875,-7.02685546875
0.077,5.50537109375,1.18115234375,-6.66650390625
0.0775,5.82568359375,0.30029296875,-6.42626953125
0.078,6.02587890625,-0.62060546875,-6.10595703125
0.0785,6.14599609375,-1.54150390625,-5.70556640625
0.079,5.90576171875,-3.02294921875,-4.34423828125
0.0795,5.42529296875,-4.26416015625,-2.86279296875
0.08,4.86474609375,-5.30517578125,-1.42138671875
0.0805,4.42431640625,-5.90576171875,-0.50048828125
0.081,3.86376953125,-6.38623046875,0.38037109375
0.0815,3.18310546875,-6.86669921875,1.30126953125
0.082,1.22119140625,-6.58642578125,3.18310546875
0.0825,-0.46044921875,-6.38623046875,4.50439453125
0.083,-1.22119140625,-6.30615234375,5.30517578125
0.0835,-1.86181640625,-6.18603515625,5.94580078125
0.084,-2.86279296875,-5.70556640625,6.66650390625
0.0845,-4.14404296875,-4.54443359375,7.06689453125
0.085,-5.34521484375,-2.90283203125,6.94677734375
0.0855,-6.10595703125,-1.34130859375,6.54638671875
0.086,-6.38623046875,-0.50048828125,6.26611328125
0.0865,-6.38623046875,0.38037109375,5.82568359375
0.087,-6.54638671875,1.26123046875,5.42529296875
0.0875,-6.06591796875,2.98291015625,3.46337890625
0.088,-5.50537109375,4.14404296875,1.98193359375
0.0885,-5.02490234375,4.90478515625,0.94091796875
0.089,-4.50439453125,5.38525390625,0.14013671875
0.0895,-3.90380859375,5.74560546875,-0.90087890625
0.09,-2.86279296875,6.14599609375,-2.10205078125
0.0905,-1.10107421875,5.90576171875,-3.70361328125
0.091,0.42041015625,5.62548828125,-4.90478515625
0.0915,1.10107421875,5.58544921875,-5.58544921875
0.092,1.82177734375,5.38525390625,-6.22607421875
0.0925,2.78271484375,4.98486328125,-6.98681640625
0.093,4.34423828125,3.18310546875,-7.06689453125
0.0935,5.26513671875,1.66162109375,-6.90673828125
0.094,5.82568359375,0.50048828125,-6.50634765625
0.0945,5.98583984375,-0.38037109375,-6.26611328125
0.095,6.02587890625,-1.22119140625,-5.74560546875
0.0955,6.14599609375,-2.26220703125,-5.22509765625
0.096,5.50537109375,-3.78369140625,-3.34326171875
0.0965,4.90478515625,-5.02490234375,-1.74169921875
0.097,4.46435546875,-5.66552734375,-0.90087890625
0.0975,3.98388671875,-6.10595703125,0.02001953125
0.098,3.46337890625,-6.50634765625,0.90087890625
0.0985,1.90185546875,-6.54638671875,2.46240234375
0.099,0.34033203125,-6.34619140625,3.82373046875
0.0995,-0.86083984375,-6.14599609375,4.82470703125
0.1,-1.46142578125,-6.10595703125,5.46533203125
0.1005,-2.26220703125,-5.86572265625,6.10595703125
0.101,-3.18310546875,-5.50537109375,6.86669921875
0.1015,-4.62451171875,-3.54345703125,6.74658203125
0.102,-5.58544921875,-2.02197265625,6.42626953125
0.1025,-6.02587890625,-1.10107421875,6.22607421875
0.103,-6.10595703125,-0.38037109375,5.94580078125
0.1035,-6.26611328125,0.50048828125,5.58544921875
0.104,-6.10595703125,1.90185546875,4.42431640625
0.1045,-5.62548828125,3.06298828125,2.94287109375
0.105,-5.14501953125,4.14404296875,1.62158203125
0.1055,-4.78466796875,4.78466796875,0.74072265625
0.106,-4.30419921875,5.26513671875,0.02001953125
0.1065,-3.82373046875,5.82568359375,-0.98095703125
0.107,-1.98193359375,5.70556640625,-2.62255859375
0.1075,-0.50048828125,5.50537109375,-3.98388671875
0.108,0.38037109375,5.54541015625,-4.82470703125
0.1085,0.98095703125,5.50537109375,-5.50537109375
0.109,1.94189453125,5.22509765625,-6.26611328125
0.1095,3.18310546875,4.26416015625,-6.70654296875
0.11,4.38427734375,2.70263671875,-6.66650390625
0.1105,5.22509765625,1.18115234375,-6.34619140625
0.111,5.54541015625,0.38037109375,-6.18603515625
0.1115,5.74560546875,-0.46044921875,-5.98583984375
0.112,5.90576171875,-1.22119140625,-5.74560546875
0.1125,5.46533203125,-2.78271484375,-4.02392578125
0.113,5.06494140625,-3.90380859375,-2.70263671875
0.1135,4.58447265625,-4.82470703125,-1.58154296875
0.114,4.26416015625,-5.38525390625,-0.82080078125
0.1145,3.78369140625,-5.82568359375,0.10009765625
0.115,3.02294921875,-6.26611328125,1.18115234375
0.1155,1.34130859375,-6.06591796875,2.62255859375
0.116,0.02001953125,-5.86572265625,3.86376953125
0.1165,-0.70068359375,-5.98583984375,4.58447265625
0.117,-1.38134765625,-5.94580078125,5.26513671875
0.1175,-2.18212890625,-5.82568359375,6.02587890625
0.118,-3.58349609375,-4.34423828125,6.26611328125
0.1185,-4.62451171875,-2.94287109375,6.18603515625
0.119,-5.26513671875,-1.82177734375,5.98583984375
0.1195,-5.58544921875,-1.14111328125,5.82568359375
0.12,-5.74560546875,-0.42041015625,5.66552734375
0.1205,-5.94580078125,0.50048828125,5.34521484375
0.121,-5.50537109375,1.78173828125,3.70361328125
0.1215,-5.10498046875,3.06298828125,2.30224609375
0.122,-4.78466796875,3.82373046875,1.54150390625
0.1225,-4.50439453125,4.42431640625,0.82080078125
0.123,-4.18408203125,5.02490234375,0.06005859375
0.1235,-2.98291015625,5.22509765625,-1.30126953125
0.124,-1.62158203125,5.18505859375,-2.58251953125
0.1245,-0.62060546875,5.18505859375,-3.66357421875
0.125,0.14013671875,5.30517578125,-4.46435546875
0.1255,0.82080078125,5.30517578125,-5.14501953125
0.126,1.74169921875,5.14501953125,-6.06591796875
0.1265,3.14306640625,3.54345703125,-6.10595703125
0.127,4.14404296875,2.10205078125,-6.02587890625
0.1275,4.66455078125,1.22119140625,-6.02587890625
0.128,5.10498046875,0.62060546875,-5.94580078125
0.1285,5.38525390625,-0.30029296875,-5.78564453125
0.129,5.42529296875,-1.26123046875,-4.98486328125
0.1295,5.02490234375,-2.58251953125,-3.78369140625
0.13,4.66455078125,-3.66357421875,-2.50244140625
0.1305,4.46435546875,-4.38427734375,-1.66162109375
0.131,4.14404296875,-5.02490234375,-0.98095703125
0.1315,3.90380859375,-5.70556640625,-0.18017578125
0.132,2.38232421875,-5.70556640625,1.38134765625
0.1325,1.02099609375,-5.66552734375,2.66259765625
0.133,0.30029296875,-5.78564453125,3.58349609375
0.1335,-0.46044921875,-5.90576171875,4.38427734375
0.134,-1.26123046875,-5.86572265625,5.18505859375
0.1345,-2.38232421875,-5.22509765625,5.78564453125
0.135,-3.54345703125,-3.90380859375,5.86572265625
0.1355,-4.42431640625,-2.42236328125,5.74560546875
0.136,-4.98486328125,-1.78173828125,5.74560546875
0.1365,-5.30517578125,-1.18115234375,5.66552734375
0.137,-5.46533203125,-0.50048828125,5.58544921875
0.1375,-5.42529296875,0.90087890625,4.34423828125
0.138,-5.10498046875,2.10205078125,3.18310546875
0.1385,-4.86474609375,3.02294921875,2.22216796875
0.139,-4.62451171875,3.74365234375,1.50146484375
0.1395,-4.42431640625,4.38427734375,0.74072265625
0.14,-3.82373046875,4.94482421875,-0.34033203125
0.1405,-2.50244140625,4.94482421875,-1.62158203125
0.141,-1.26123046875,4.94482421875,-2.86279296875
0.1415,-0.62060546875,5.10498046875,-3.70361328125
0.142,0.18017578125,5.26513671875,-4.50439453125
0.1425,0.98095703125,5.26513671875,-5.42529296875
0.143,2.30224609375,4.06396484375,-5.74560546875
0.1435,3.46337890625,2.94287109375,-5.74560546875
0.144,4.14404296875,1.78173828125,-5.74560546875
0.1445,4.62451171875,1.06103515625,-5.78564453125
0.145,4.82470703125,0.26025390625,-5.70556640625
0.1455,5.26513671875,-0.54052734375,-5.62548828125
0.146,4.98486328125,-1.74169921875,-4.26416015625
0.1465,4.62451171875,-2.94287109375,-2.94287109375
0.147,4.50439453125,-3.78369140625,-2.18212890625
0.1475,4.22412109375,-4.50439453125,-1.46142578125
0.148,4.10400390625,-5.14501953125,-0.74072265625
0.1485,3.02294921875,-5.46533203125,0.62060546875
0.149,1.78173828125,-5.50537109375,1.86181640625
0.1495,0.78076171875,-5.58544921875,2.94287109375
0.15,0.18017578125,-5.82568359375,3.74365234375
0.1505,-0.66064453125,-5.86572265625,4.58447265625
0.151,-1.54150390625,-5.78564453125,5.46533203125
0.1515,-2.82275390625,-4.26416015625,5.66552734375
0.152,-3.94384765625,-3.06298828125,5.58544921875
0.1525,-4.62451171875,-2.26220703125,5.66552734375
0.153,-4.90478515625,-1.50146484375,5.70556640625
0.1535,-5.38525390625,-0.98095703125,5.62548828125
0.154,-5.42529296875,0.30029296875,4.90478515625
0.1545,-5.18505859375,1.42138671875,3.86376953125
0.155,-4.86474609375,2.50244140625,2.62255859375
0.1555,-4.74462890625,3.30322265625,1.90185546875
0.156,-4.54443359375,3.98388671875,1.18115234375
0.1565,-4.34423828125,4.70458984375,0.46044921875
0.157,-2.98291015625,4.82470703125,-1.10107421875
0.1575,-1.74169921875,4.86474609375,-2.34228515625
0.158,-1.02099609375,5.10498046875,-3.26318359375
0.1585,-0.34033203125,5.26513671875,-4.14404296875
0.159,0.62060546875,5.26513671875,-5.02490234375
0.1595,1.78173828125,4.62451171875,-5.86572265625
0.16,2.94287109375,3.42333984375,-5.86572265625
0.1605,3.94384765625,2.06201171875,-5.74560546875
0.161,4.62451171875,1.30126953125,-5.82568359375
0.1615,4.82470703125,0.62060546875,-5.78564453125
0.162,5.26513671875,0.02001953125,-5.78564453125
0.1625,5.06494140625,-1.46142578125,-4.54443359375
0.163,4.78466796875,-2.70263671875,-3.34326171875
0.1635,4.54443359375,-3.62353515625,-2.42236328125
0.164,4.34423828125,-4.34423828125,-1.62158203125
0.1645,4.10400390625,-4.98486328125,-0.90087890625
0.165,3.50341796875,-5.54541015625,0.26025390625
0.1655,2.10205078125,-5.58544921875,1.58154296875
0.166,0.90087890625,-5.62548828125,2.82275390625
0.1665,0.26025390625,-5.82568359375,3.70361328125
0.167,-0.58056640625,-5.90576171875,4.50439453125
0.1675,-1.38134765625,-5.90576171875,5.30517578125
0.168,-2.82275390625,-4.62451171875,5.70556640625
0.1685,-3.90380859375,-3.34326171875,5.74560546875
0.169,-4.74462890625,-2.30224609375,5.74560546875
0.1695,-5.10498046875,-1.58154296875,5.70556640625
0.17,-5.38525390625,-0.86083984375,5.58544921875
0.1705,-5.66552734375,0.06005859375,5.38525390625
0.171,-5.30517578125,1.42138671875,3.98388671875
0.1715,-4.98486328125,2.62255859375,2.62255859375
0.172,-4.82470703125,3.42333984375,1.86181640625
0.1725,-4.54443359375,4.06396484375,1.14111328125
0.173,-4.26416015625,4.74462890625,0.34033203125
0.1735,-3.10302734375,4.98486328125,-1.10107421875
0.174,-1.86181640625,5.06494140625,-2.38232421875
0.1745,-0.86083984375,5.10498046875,-3.46337890625
0.175,-0.18017578125,5.26513671875,-4.26416015625
0.1755,0.70068359375,5.26513671875,-5.14501953125
0.176,1.66162109375,5.06494140625,-5.94580078125
0.1765,3.10302734375,3.46337890625,-6.10595703125
0.177,4.18408203125,2.02197265625,-5.94580078125
0.1775,4.74462890625,1.14111328125,-6.02587890625
0.178,5.06494140625,0.50048828125,-5.90576171875
0.1785,5.38525390625,-0.42041015625,-5.74560546875
0.179,5.42529296875,-1.58154296875,-4.74462890625
0.1795,5.06494140625,-2.86279296875,-3.54345703125
0.18,4.66455078125,-3.98388671875,-2.22216796875
0.1805,4.38427734375,-4.70458984375,-1.42138671875
0.181,4.06396484375,-5.26513671875,-0.66064453125
0.1815,3.66357421875,-5.82568359375,0.30029296875
0.182,2.06201171875,-5.82568359375,1.86181640625
0.1825,0.70068359375,-5.78564453125,3.14306640625
0.183,-0.18017578125,-5.90576171875,4.02392578125
0.1835,-0.82080078125,-5.94580078125,4.82470703125
0.184,-1.70166015625,-5.74560546875,5.58544921875
0.1845,-2.94287109375,-4.94482421875,6.10595703125
0.185,-4.14404296875,-3.54345703125,6.14599609375
0.1855,-5.06494140625,-2.14208984375,5.94580078125
0.186,-5.42529296875,-1.30126953125,5.86572265625
0.1865,-5.62548828125,-0.62060546875,5.62548828125
0.187,-5.74560546875,0.30029296875,5.42529296875
0.1875,-5.58544921875,1.78173828125,3.90380859375
0.188,-5.22509765625,2.94287109375,2.62255859375
0.1885,-4.90478515625,3.82373046875,1.66162109375
0.189,-4.58447265625,4.46435546875,0.90087890625
0.1895,-4.14404296875,4.98486328125,0.06005859375
0.19,-3.34326171875,5.42529296875,-1.14111328125
0.1905,-1.86181640625,5.38525390625,-2.58251953125
0.191,-0.58056640625,5.30517578125,-3.86376953125
0.1915,0.18017578125,5.42529296875,-4.62451171875
0.192,0.94091796875,5.34521484375,-5.38525390625
0.1925,1.94189453125,5.06494140625,-6.26611328125
0.193,3.46337890625,3.50341796875,-6.46630859375
0.1935,4.50439453125,2.10205078125,-6.42626953125
0.194,5.18505859375,0.98095703125,-6.26611328125
0.1945,5.50537109375,0.22021484375,-6.10595703125
0.195,5.74560546875,-0.54052734375,-5.74560546875
0.1955,5.82568359375,-1.70166015625,-5.26513671875
0.196,5.38525390625,-3.22314453125,-3.58349609375
0.1965,4.90478515625,-4.50439453125,-2.06201171875
0.197,4.54443359375,-5.14501953125,-1.22119140625
0.1975,4.14404296875,-5.70556640625,-0.42041015625
0.198,3.58349609375,-6.22607421875,0.58056640625
0.1985,2.02197265625,-6.38623046875,2.26220703125
0.199,0.58056640625,-6.26611328125,3.62353515625
