wavelength,x,y,z
0.0,0.150146484375,4.154052734375,-4.574462890625
0.0005,-0.770751953125,4.794677734375,-4.334228515625
0.001,-1.771728515625,4.834716796875,-3.373291015625
0.0015,-2.612548828125,5.074951171875,-2.812744140625
0.002,-3.853759765625,5.195068359375,-1.651611328125
0.0025,-4.734619140625,5.195068359375,-0.810791015625
0.003,-4.974853515625,4.314208984375,0.270263671875
0.0035,-5.455322265625,4.114013671875,0.990966796875
0.004,-5.295166015625,2.952880859375,1.951904296875
0.0045,-5.455322265625,2.432373046875,2.592529296875
0.005,-5.655517578125,1.351318359375,3.873779296875
0.0055,-5.135009765625,0.590576171875,4.154052734375
0.006,-4.614501953125,-0.610595703125,4.714599609375
0.0065,-3.893798828125,-1.611572265625,4.994873046875
0.007,-3.012939453125,-2.572509765625,4.994873046875
0.0075,-2.292236328125,-3.493408203125,5.114990234375
0.008,-1.291259765625,-4.614501953125,5.275146484375
0.0085,-0.290283203125,-4.774658203125,4.354248046875
0.009,0.550537109375,-5.415283203125,4.154052734375
0.0095,1.631591796875,-5.415283203125,3.072998046875
0.01,2.432373046875,-5.615478515625,2.552490234375
0.0105,3.673583984375,-5.735595703125,1.471435546875
0.011,4.354248046875,-5.575439453125,0.670654296875
0.0115,4.634521484375,-4.734619140625,-0.450439453125
0.012,4.994873046875,-4.454345703125,-1.091064453125
0.0125,4.994873046875,-3.333251953125,-2.092041015625
0.013,5.114990234375,-2.812744140625,-2.732666015625
0.0135,5.275146484375,-1.811767578125,-3.933837890625
0.014,4.594482421875,-0.770751953125,-4.214111328125
0.0145,4.073974609375,0.310302734375,-4.734619140625
0.015,3.233154296875,1.311279296875,-4.894775390625
0.0155,2.432373046875,2.272216796875,-5.054931640625
0.016,1.671630859375,3.193115234375,-5.094970703125
0.0165,0.790771484375,4.114013671875,-5.175048828125
0.017,-0.370361328125,4.194091796875,-4.134033203125
0.0175,-1.010986328125,4.794677734375,-4.093994140625
0.018,-2.292236328125,4.834716796875,-2.812744140625
0.0185,-2.972900390625,4.994873046875,-2.372314453125
0.019,-4.134033203125,5.114990234375,-1.291259765625
0.0195,-4.654541015625,4.754638671875,-0.450439453125
0.02,-4.934814453125,3.993896484375,0.590576171875
0.0205,-5.175048828125,3.593505859375,1.231201171875
0.021,-5.215087890625,2.552490234375,2.232177734375
0.0215,-5.255126953125,2.072021484375,2.792724609375
0.022,-5.455322265625,1.151123046875,3.873779296875
0.0225,-4.614501953125,0.070068359375,4.033935546875
0.023,-4.294189453125,-0.890869140625,4.634521484375
0.0235,-3.333251953125,-1.931884765625,4.674560546875
0.024,-2.732666015625,-2.732666015625,4.874755859375
0.0245,-1.931884765625,-3.653564453125,4.834716796875
0.025,-1.091064453125,-4.414306640625,4.794677734375
0.0255,0.030029296875,-4.534423828125,3.873779296875
0.026,0.630615234375,-5.054931640625,3.793701171875
0.0265,1.951904296875,-5.094970703125,2.592529296875
0.027,2.512451171875,-5.295166015625,2.272216796875
0.0275,3.593505859375,-5.415283203125,1.271240234375
0.028,3.913818359375,-4.854736328125,0.430419921875
0.0285,4.314208984375,-4.374267578125,-0.450439453125
0.029,4.514404296875,-3.813720703125,-1.211181640625
0.0295,4.634521484375,-3.052978515625,-2.052001953125
0.03,4.634521484375,-2.452392578125,-2.652587890625
0.0305,4.834716796875,-1.691650390625,-3.573486328125
0.031,3.873779296875,-0.490478515625,-3.813720703125
0.0315,3.673583984375,0.350341796875,-4.334228515625
0.032,2.592529296875,1.471435546875,-4.414306640625
0.0325,2.272216796875,2.072021484375,-4.734619140625
0.033,1.431396484375,2.952880859375,-4.694580078125
0.0335,0.590576171875,3.513427734375,-4.454345703125
0.034,-0.330322265625,3.793701171875,-3.693603515625
0.0345,-1.010986328125,4.194091796875,-3.453369140625
0.035,-2.212158203125,4.354248046875,-2.412353515625
0.0355,-2.692626953125,4.514404296875,-2.092041015625
0.036,-3.693603515625,4.514404296875,-1.211181640625
0.0365,-3.893798828125,3.873779296875,-0.330322265625
0.037,-4.334228515625,3.633544921875,0.350341796875
0.0375,-4.414306640625,2.912841796875,1.151123046875
0.038,-4.654541015625,2.432373046875,1.791748046875
0.0385,-4.654541015625,1.791748046875,2.472412109375
0.039,-4.734619140625,1.151123046875,3.153076171875
0.0395,-3.853759765625,0.030029296875,3.393310546875
0.04,-3.813720703125,-0.650634765625,3.993896484375
0.0405,-2.852783203125,-1.771728515625,3.993896484375
0.041,-2.692626953125,-2.292236328125,4.354248046875
0.0415,-1.811767578125,-3.173095703125,4.354248046875
0.042,-1.091064453125,-3.493408203125,3.993896484375
0.0425,-0.290283203125,-3.933837890625,3.593505859375
0.043,0.590576171875,-4.334228515625,3.153076171875
0.0435,1.471435546875,-4.534423828125,2.512451171875
0.044,2.112060546875,-4.734619140625,2.072021484375
0.0445,2.912841796875,-4.814697265625,1.351318359375
0.045,3.153076171875,-4.134033203125,0.510498046875
0.0455,3.673583984375,-4.093994140625,-0.050048828125
0.046,3.793701171875,-3.253173828125,-0.970947265625
0.0465,4.114013671875,-3.052978515625,-1.571533203125
0.047,4.154052734375,-2.292236328125,-2.292236328125
0.0475,4.033935546875,-1.651611328125,-2.812744140625
0.048,3.273193359375,-0.570556640625,-3.173095703125
0.0485,3.153076171875,0.150146484375,-3.693603515625
0.049,2.312255859375,1.151123046875,-3.893798828125
0.0495,2.192138671875,1.631591796875,-4.214111328125
0.05,1.391357421875,2.512451171875,-4.174072265625
0.0505,0.590576171875,2.752685546875,-3.653564453125
0.051,-0.090087890625,3.273193359375,-3.533447265625
0.0515,-1.051025390625,3.553466796875,-2.812744140625
0.052,-1.731689453125,3.873779296875,-2.452392578125
0.0525,-2.412353515625,3.913818359375,-1.851806640625
0.053,-2.972900390625,3.913818359375,-1.251220703125
0.0535,-3.213134765625,3.313232421875,-0.450439453125
0.054,-3.693603515625,3.273193359375,0.030029296875
0.0545,-3.813720703125,2.552490234375,0.910888671875
0.055,-4.174072265625,2.432373046875,1.351318359375
0.0555,-4.254150390625,1.711669921875,2.112060546875
0.056,-3.893798828125,1.031005859375,2.432373046875
0.0565,-3.573486328125,0.070068359375,3.032958984375
0.057,-3.213134765625,-0.650634765625,3.313232421875
0.0575,-2.812744140625,-1.451416015625,3.673583984375
0.058,-2.492431640625,-1.971923828125,3.873779296875
0.0585,-1.891845703125,-2.612548828125,3.913818359375
0.059,-1.091064453125,-2.932861328125,3.433349609375
0.0595,-0.490478515625,-3.533447265625,3.433349609375
0.06,0.550537109375,-3.813720703125,2.672607421875
0.0605,1.111083984375,-4.254150390625,2.592529296875
0.061,1.911865234375,-4.294189453125,1.871826171875
0.0615,2.272216796875,-4.174072265625,1.391357421875
0.062,2.712646484375,-3.813720703125,0.630615234375
0.0625,3.113037109375,-3.653564453125,0.070068359375
0.063,3.393310546875,-3.133056640625,-0.770751953125
0.0635,3.713623046875,-2.892822265625,-1.251220703125
0.064,3.833740234375,-2.252197265625,-2.052001953125
0.0645,3.313232421875,-1.411376953125,-2.412353515625
0.065,3.193115234375,-0.650634765625,-3.052978515625
0.0655,2.592529296875,0.270263671875,-3.333251953125
0.066,2.472412109375,0.950927734375,-3.773681640625
0.0665,1.951904296875,1.591552734375,-3.813720703125
0.067,1.351318359375,2.112060546875,-3.773681640625
0.0675,0.550537109375,2.472412109375,-3.293212890625
0.068,-0.130126953125,3.032958984375,-3.213134765625
0.0685,-1.131103515625,3.273193359375,-2.492431640625
0.069,-1.651611328125,3.673583984375,-2.372314453125
0.0695,-2.372314453125,3.673583984375,-1.611572265625
0.07,-2.652587890625,3.393310546875,-1.091064453125
0.0705,-3.133056640625,3.153076171875,-0.410400390625
0.071,-3.373291015625,2.792724609375,0.270263671875
0.0715,-3.773681640625,2.512451171875,0.870849609375
0.072,-3.853759765625,2.072021484375,1.431396484375
0.0725,-3.973876953125,1.511474609375,1.991943359375
0.073,-3.413330078125,0.550537109375,2.352294921875
0.0735,-3.453369140625,-0.050048828125,2.952880859375
0.074,-2.772705078125,-0.970947265625,3.193115234375
0.0745,-2.812744140625,-1.411376953125,3.713623046875
0.075,-2.052001953125,-2.092041015625,3.633544921875
0.0755,-1.571533203125,-2.492431640625,3.513427734375
0.076,-0.810791015625,-2.972900390625,3.193115234375
0.0765,-0.050048828125,-3.493408203125,2.952880859375
0.077,0.790771484375,-3.853759765625,2.472412109375
0.0775,1.351318359375,-4.134033203125,2.232177734375
0.078,2.031982421875,-4.174072265625,1.591552734375
0.0785,2.312255859375,-3.813720703125,0.950927734375
0.079,2.872802734375,-3.773681640625,0.390380859375
0.0795,3.113037109375,-3.173095703125,-0.450439453125
0.08,3.553466796875,-3.093017578125,-0.970947265625
0.0805,3.633544921875,-2.492431640625,-1.691650390625
0.081,3.593505859375,-1.891845703125,-2.252197265625
0.0815,2.992919921875,-0.850830078125,-2.692626953125
0.082,2.952880859375,-0.130126953125,-3.213134765625
0.0825,2.312255859375,0.830810546875,-3.533447265625
0.083,2.232177734375,1.351318359375,-3.853759765625
0.0835,1.431396484375,1.991943359375,-3.773681640625
0.084,0.750732421875,2.392333984375,-3.493408203125
0.0845,0.030029296875,2.872802734375,-3.213134765625
0.085,-0.970947265625,3.273193359375,-2.692626953125
0.0855,-1.691650390625,3.633544921875,-2.252197265625
0.086,-2.252197265625,3.673583984375,-1.731689453125
0.0865,-2.812744140625,3.633544921875,-1.171142578125
0.087,-3.052978515625,3.072998046875,-0.370361328125
0.0875,-3.533447265625,3.032958984375,0.150146484375
0.088,-3.773681640625,2.312255859375,1.031005859375
0.0885,-4.093994140625,2.152099609375,1.471435546875
0.089,-3.973876953125,1.391357421875,2.152099609375
0.0895,-3.773681640625,0.630615234375,2.552490234375
0.09,-3.253173828125,-0.250244140625,2.992919921875
0.0905,-2.972900390625,-0.970947265625,3.393310546875
0.091,-2.412353515625,-1.851806640625,3.713623046875
0.0915,-2.092041015625,-2.252197265625,3.833740234375
0.092,-1.411376953125,-2.892822265625,3.713623046875
0.0925,-0.610595703125,-3.173095703125,3.233154296875
0.093,0.070068359375,-3.773681640625,3.113037109375
0.0935,1.151123046875,-4.013916015625,2.312255859375
0.094,1.791748046875,-4.414306640625,1.991943359375
0.0945,2.392333984375,-4.214111328125,1.311279296875
0.095,2.872802734375,-4.134033203125,0.750732421875
0.0955,3.072998046875,-3.573486328125,0.030029296875
0.096,3.513427734375,-3.333251953125,-0.610595703125
0.0965,3.793701171875,-2.692626953125,-1.571533203125
0.097,3.873779296875,-2.412353515625,-2.052001953125
0.0975,3.833740234375,-1.571533203125,-2.812744140625
0.098,3.233154296875,-0.570556640625,-3.133056640625
0.0985,2.872802734375,0.310302734375,-3.533447265625
0.099,2.272216796875,1.271240234375,-3.853759765625
0.0995,1.791748046875,2.072021484375,-4.214111328125
0.1,1.191162109375,2.472412109375,-3.973876953125
0.1005,0.470458984375,3.153076171875,-3.853759765625
0.101,-0.450439453125,3.273193359375,-3.173095703125
0.1015,-1.211181640625,3.833740234375,-2.892822265625
0.102,-2.412353515625,4.033935546875,-1.971923828125
0.1025,-2.972900390625,4.154052734375,-1.531494140625
0.103,-3.493408203125,3.833740234375,-0.650634765625
0.1035,-3.853759765625,3.553466796875,0.030029296875
0.104,-3.973876953125,2.872802734375,0.790771484375
0.1045,-4.334228515625,2.432373046875,1.431396484375
0.105,-4.574462890625,1.711669921875,2.392333984375
0.1055,-4.334228515625,1.111083984375,2.712646484375
0.106,-4.174072265625,0.310302734375,3.473388671875
0.1065,-3.453369140625,-0.690673828125,3.633544921875
0.107,-3.052978515625,-1.451416015625,3.993896484375
0.1075,-2.252197265625,-2.492431640625,4.194091796875
0.108,-1.731689453125,-3.213134765625,4.394287109375
0.1085,-0.930908203125,-3.573486328125,3.873779296875
0.109,-0.250244140625,-4.134033203125,3.793701171875
0.1095,0.710693359375,-4.214111328125,2.952880859375
0.11,1.471435546875,-4.694580078125,2.632568359375
0.1105,2.712646484375,-4.934814453125,1.631591796875
0.111,3.193115234375,-4.814697265625,1.111083984375
0.1115,3.673583984375,-4.414306640625,0.230224609375
0.112,3.993896484375,-3.973876953125,-0.490478515625
0.1125,4.154052734375,-3.413330078125,-1.291259765625
0.113,4.354248046875,-2.772705078125,-2.132080078125
0.1135,4.674560546875,-2.092041015625,-3.093017578125
0.114,4.073974609375,-1.131103515625,-3.333251953125
0.1145,3.913818359375,-0.250244140625,-4.093994140625
0.115,2.952880859375,0.830810546875,-4.134033203125
0.1155,2.552490234375,1.631591796875,-4.494384765625
0.116,1.591552734375,2.752685546875,-4.694580078125
0.1165,0.990966796875,3.473388671875,-4.734619140625
0.117,-0.090087890625,3.793701171875,-3.973876953125
0.1175,-0.770751953125,4.354248046875,-3.853759765625
0.118,-1.891845703125,4.394287109375,-2.812744140625
0.1185,-2.652587890625,4.674560546875,-2.332275390625
0.119,-3.973876953125,4.914794921875,-1.251220703125
0.1195,-4.294189453125,4.434326171875,-0.490478515625
0.12,-4.734619140625,3.953857421875,0.430419921875
0.1205,-4.894775390625,3.353271484375,1.151123046875
0.121,-4.974853515625,2.552490234375,1.991943359375
0.1215,-5.094970703125,1.791748046875,2.832763671875
0.122,-5.295166015625,1.071044921875,3.833740234375
0.1225,-4.454345703125,-0.050048828125,3.993896484375
0.123,-4.254150390625,-0.930908203125,4.634521484375
0.1235,-3.133056640625,-2.011962890625,4.594482421875
0.124,-2.612548828125,-2.812744140625,4.834716796875
0.1245,-1.611572265625,-3.893798828125,4.954833984375
0.125,-0.770751953125,-4.534423828125,4.674560546875
0.1255,0.190185546875,-4.774658203125,3.913818359375
0.126,0.950927734375,-5.175048828125,3.633544921875
0.1265,2.232177734375,-5.295166015625,2.472412109375
0.127,2.872802734375,-5.415283203125,1.951904296875
0.1275,4.114013671875,-5.615478515625,0.950927734375
0.128,4.354248046875,-4.854736328125,0.030029296875
0.1285,4.714599609375,-4.534423828125,-0.730712890625
0.129,4.874755859375,-3.733642578125,-1.691650390625
0.1295,4.994873046875,-2.932861328125,-2.572509765625
0.13,4.994873046875,-2.092041015625,-3.333251953125
0.1305,5.074951171875,-1.291259765625,-4.214111328125
0.131,4.033935546875,0.030029296875,-4.414306640625
0.1315,3.793701171875,0.830810546875,-4.934814453125
0.132,2.472412109375,2.192138671875,-4.974853515625
0.1325,1.991943359375,2.872802734375,-5.135009765625
0.133,1.031005859375,3.913818359375,-5.175048828125
0.1335,0.030029296875,4.474365234375,-4.734619140625
0.134,-1.010986328125,4.634521484375,-3.933837890625
0.1345,-1.931884765625,5.114990234375,-3.453369140625
0.135,-3.213134765625,5.155029296875,-2.212158203125
0.1355,-3.773681640625,5.114990234375,-1.651611328125
0.136,-4.974853515625,5.195068359375,-0.610595703125
0.1365,-5.014892578125,4.234130859375,0.390380859375
0.137,-5.415283203125,3.873779296875,1.151123046875
0.1375,-5.495361328125,2.832763671875,2.232177734375
0.138,-5.495361328125,2.072021484375,3.032958984375
0.1385,-5.415283203125,1.311279296875,3.753662109375
0.139,-5.375244140625,0.350341796875,4.554443359375
0.1395,-4.174072265625,-0.970947265625,4.634521484375
0.14,-3.973876953125,-1.731689453125,5.114990234375
0.1405,-2.532470703125,-3.133056640625,5.114990234375
0.141,-2.132080078125,-3.653564453125,5.114990234375
0.1415,-1.091064453125,-4.614501953125,5.034912109375
0.142,-0.050048828125,-5.014892578125,4.434326171875
0.1425,0.870849609375,-5.255126953125,3.753662109375
0.143,1.871826171875,-5.575439453125,3.113037109375
0.1435,3.113037109375,-5.615478515625,1.951904296875
0.144,3.593505859375,-5.575439453125,1.431396484375
0.1445,4.554443359375,-5.615478515625,0.470458984375
0.145,4.634521484375,-4.614501953125,-0.610595703125
0.1455,4.994873046875,-4.334228515625,-1.251220703125
0.146,5.114990234375,-3.133056640625,-2.412353515625
0.1465,5.114990234375,-2.532470703125,-3.052978515625
0.147,4.994873046875,-1.651611328125,-3.813720703125
0.1475,4.834716796875,-0.690673828125,-4.494384765625
0.148,3.673583984375,0.630615234375,-4.614501953125
0.1485,3.353271484375,1.431396484375,-5.094970703125
0.149,1.991943359375,2.872802734375,-5.135009765625
0.1495,1.671630859375,3.273193359375,-5.175048828125
0.15,0.590576171875,4.194091796875,-5.014892578125
0.1505,-0.490478515625,4.514404296875,-4.294189453125
0.151,-1.371337890625,4.794677734375,-3.693603515625
0.1515,-2.532470703125,5.114990234375,-2.852783203125
0.152,-3.653564453125,5.195068359375,-1.851806640625
0.1525,-4.134033203125,4.994873046875,-1.251220703125
0.153,-4.974853515625,4.834716796875,-0.290283203125
0.1535,-4.974853515625,3.793701171875,0.790771484375
0.154,-5.295166015625,3.513427734375,1.431396484375
0.1545,-5.415283203125,2.312255859375,2.712646484375
0.155,-5.415283203125,1.831787109375,3.193115234375
0.1555,-5.135009765625,0.830810546875,3.873779296875
0.156,-4.814697265625,-0.130126953125,4.474365234375
0.1565,-3.773681640625,-1.331298828125,4.554443359375
0.157,-3.373291015625,-2.132080078125,4.954833984375
0.1575,-2.172119140625,-3.413330078125,4.994873046875
0.158,-1.771728515625,-3.733642578125,4.874755859375
0.1585,-0.730712890625,-4.574462890625,4.634521484375
0.159,0.310302734375,-4.774658203125,3.873779296875
0.1595,1.071044921875,-5.094970703125,3.393310546875
0.16,2.272216796875,-5.335205078125,2.512451171875
0.1605,3.113037109375,-5.495361328125,1.751708984375
0.161,3.553466796875,-5.215087890625,1.031005859375
0.1615,4.274169921875,-5.054931640625,0.190185546875
0.162,4.314208984375,-4.053955078125,-0.770751953125
0.1625,4.674560546875,-3.813720703125,-1.331298828125
0.163,4.794677734375,-2.692626953125,-2.572509765625
0.1635,4.834716796875,-2.332275390625,-2.892822265625
0.164,4.554443359375,-1.331298828125,-3.693603515625
0.1645,4.033935546875,-0.330322265625,-4.093994140625
0.165,3.193115234375,0.790771484375,-4.334228515625
0.1655,2.712646484375,1.671630859375,-4.734619140625
0.166,1.831787109375,2.792724609375,-4.854736328125
0.1665,1.351318359375,3.072998046875,-4.734619140625
0.167,0.350341796875,3.873779296875,-4.494384765625
0.1675,-0.650634765625,4.033935546875,-3.693603515625
0.168,-1.411376953125,4.514404296875,-3.333251953125
0.1685,-2.612548828125,4.594482421875,-2.292236328125
0.169,-3.293212890625,4.794677734375,-1.851806640625
0.1695,-3.853759765625,4.354248046875,-0.970947265625
0.17,-4.374267578125,4.154052734375,-0.170166015625
0.1705,-4.454345703125,3.273193359375,0.790771484375
0.171,-4.774658203125,2.992919921875,1.391357421875
0.1715,-4.894775390625,1.991943359375,2.472412109375
0.172,-4.854736328125,1.671630859375,2.752685546875
0.1725,-4.654541015625,0.670654296875,3.553466796875
0.173,-3.973876953125,-0.330322265625,3.793701171875
0.1735,-3.453369140625,-1.251220703125,4.154052734375
0.174,-2.772705078125,-2.132080078125,4.354248046875
0.1745,-2.212158203125,-2.932861328125,4.554443359375
0.175,-1.571533203125,-3.253173828125,4.234130859375
0.1755,-0.770751953125,-3.933837890625,4.114013671875
0.176,0.150146484375,-4.093994140625,3.273193359375
0.1765,0.830810546875,-4.614501953125,3.113037109375
0.177,2.031982421875,-4.734619140625,2.072021484375
0.1775,2.472412109375,-4.934814453125,1.831787109375
0.178,3.072998046875,-4.574462890625,0.990966796875
0.1785,3.433349609375,-4.294189453125,0.310302734375
0.179,3.713623046875,-3.693603515625,-0.490478515625
0.1795,3.993896484375,-3.333251953125,-1.171142578125
0.18,4.274169921875,-2.692626953125,-2.052001953125
0.1805,4.154052734375,-2.252197265625,-2.372314453125
0.181,4.073974609375,-1.331298828125,-3.173095703125
0.1815,3.273193359375,-0.290283203125,-3.373291015625
0.182,3.072998046875,0.510498046875,-3.933837890625
0.1825,2.272216796875,1.511474609375,-4.093994140625
0.183,2.072021484375,2.112060546875,-4.494384765625
0.1835,1.191162109375,2.592529296875,-4.093994140625
0.184,0.470458984375,3.193115234375,-3.933837890625
0.1845,-0.490478515625,3.393310546875,-3.213134765625
0.185,-1.251220703125,3.873779296875,-3.012939453125
0.1855,-2.292236328125,4.073974609375,-2.172119140625
0.186,-2.692626953125,4.154052734375,-1.811767578125
0.1865,-3.333251953125,3.913818359375,-0.890869140625
0.187,-3.573486328125,3.473388671875,-0.210205078125
0.1875,-3.933837890625,3.072998046875,0.510498046875
0.188,-4.134033203125,2.512451171875,1.271240234375
