wavelength,x,y,z
0.0,2.6025390625,1.28125,-3.84375
0.0005,1.8017578125,1.841796875,-3.7236328125
0.001,1.2412109375,2.3623046875,-3.5634765625
0.0015,0.4404296875,2.8427734375,-3.3232421875
0.002,-0.240234375,3.3232421875,-3.0830078125
0.0025,-1.041015625,3.5234375,-2.5625
0.003,-1.4814453125,3.68359375,-2.2822265625
0.0035,-2.001953125,3.603515625,-1.7216796875
0.004,-2.40234375,3.4033203125,-1.1611328125
0.0045,-2.962890625,3.2431640625,-0.4404296875
0.005,-3.203125,2.5625,0.4404296875
0.0055,-3.5634765625,2.2421875,1.0810546875
0.006,-3.443359375,1.6015625,1.6015625
0.0065,-3.4833984375,1.12109375,2.162109375
0.007,-3.203125,0.3603515625,2.6025390625
0.0075,-3.0830078125,-0.2802734375,3.1630859375
0.008,-2.4423828125,-1.1611328125,3.443359375
0.0085,-2.08203125,-1.6416015625,3.5634765625
0.009,-1.28125,-2.2822265625,3.4033203125
0.0095,-0.640625,-2.7626953125,3.283203125
0.01,0.0400390625,-3.2431640625,3.123046875
0.0105,0.8408203125,-3.5234375,2.6025390625
0.011,1.521484375,-3.84375,2.2822265625
0.0115,1.841796875,-3.7236328125,1.841796875
0.012,2.40234375,-3.763671875,1.4013671875
0.0125,2.72265625,-3.36328125,0.640625
0.013,3.283203125,-3.203125,0.0
0.0135,3.443359375,-2.40234375,-1.0009765625
0.014,3.763671875,-2.08203125,-1.5615234375
0.0145,3.5234375,-1.3212890625,-2.08203125
0.015,3.5634765625,-0.9208984375,-2.5625
0.0155,3.3232421875,-0.1201171875,-3.0830078125
0.016,3.0029296875,0.560546875,-3.5234375
0.0165,2.5224609375,1.361328125,-3.8037109375
0.017,1.921875,1.76171875,-3.7236328125
0.0175,1.201171875,2.40234375,-3.6435546875
0.018,0.48046875,2.8427734375,-3.3232421875
0.0185,-0.2001953125,3.36328125,-3.203125
0.019,-1.041015625,3.5234375,-2.5224609375
0.0195,-1.6015625,3.8037109375,-2.2822265625
0.02,-2.001953125,3.5234375,-1.681640625
0.0205,-2.4423828125,3.603515625,-1.28125
0.021,-2.8828125,3.1630859375,-0.4404296875
0.0215,-3.283203125,2.8427734375,0.240234375
0.022,-3.5234375,2.1220703125,1.1611328125
0.0225,-3.603515625,1.8017578125,1.6015625
0.023,-3.443359375,1.0810546875,2.2021484375
0.0235,-3.283203125,0.48046875,2.6025390625
0.024,-3.0830078125,-0.2802734375,3.1630859375
0.0245,-2.5625,-1.041015625,3.4833984375
0.025,-2.1220703125,-1.76171875,3.68359375
0.0255,-1.361328125,-2.2021484375,3.443359375
0.026,-0.80078125,-2.8427734375,3.4833984375
0.0265,0.0,-3.203125,3.04296875
0.027,0.640625,-3.603515625,2.8828125
0.0275,1.5615234375,-3.84375,2.2421875
0.028,1.9619140625,-3.8837890625,1.921875
0.0285,2.40234375,-3.68359375,1.28125
0.029,2.802734375,-3.5634765625,0.80078125
0.0295,3.203125,-3.1630859375,0.0
0.03,3.5234375,-2.6025390625,-0.80078125
0.0305,3.8037109375,-2.0419921875,-1.6015625
0.031,3.6435546875,-1.4814453125,-2.08203125
0.0315,3.6435546875,-0.880859375,-2.642578125
0.032,3.3232421875,-0.16015625,-3.04296875
0.0325,3.1630859375,0.48046875,-3.5634765625
0.033,2.5224609375,1.3212890625,-3.84375
0.0335,2.0419921875,1.8818359375,-3.923828125
0.034,1.201171875,2.40234375,-3.5634765625
0.0345,0.6005859375,2.8828125,-3.5634765625
0.035,-0.16015625,3.283203125,-3.123046875
0.0355,-0.880859375,3.5634765625,-2.7626953125
0.036,-1.681640625,3.84375,-2.2021484375
0.0365,-2.001953125,3.68359375,-1.76171875
0.037,-2.5625,3.603515625,-1.201171875
0.0375,-2.8828125,3.283203125,-0.560546875
0.038,-3.3232421875,2.8828125,0.2001953125
0.0385,-3.5234375,2.2421875,1.0810546875
0.039,-3.763671875,1.76171875,1.76171875
0.0395,-3.443359375,1.0810546875,2.162109375
0.04,-3.5234375,0.6005859375,2.72265625
0.0405,-3.0830078125,-0.2001953125,3.123046875
0.041,-2.802734375,-0.9208984375,3.5234375
0.0415,-2.162109375,-1.8017578125,3.763671875
0.042,-1.5615234375,-2.2021484375,3.6435546875
0.0425,-0.80078125,-2.7626953125,3.443359375
0.043,-0.1201171875,-3.203125,3.2431640625
0.0435,0.640625,-3.603515625,2.9228515625
0.044,1.4013671875,-3.8037109375,2.40234375
0.0445,2.08203125,-4.0439453125,1.921875
0.045,2.3623046875,-3.7236328125,1.4013671875
0.0455,2.8828125,-3.7236328125,0.880859375
0.046,3.1630859375,-3.203125,0.1201171875
0.0465,3.5634765625,-2.8828125,-0.6005859375
0.047,3.763671875,-2.08203125,-1.521484375
0.0475,3.84375,-1.6416015625,-2.08203125
0.048,3.5234375,-0.9208984375,-2.5224609375
0.0485,3.5634765625,-0.4404296875,-3.04296875
0.049,3.1630859375,0.3603515625,-3.4833984375
0.0495,2.7626953125,1.041015625,-3.763671875
0.05,2.2021484375,1.841796875,-4.00390625
0.0505,1.44140625,2.2021484375,-3.68359375
0.051,0.7607421875,2.8427734375,-3.603515625
0.0515,0.0,3.1630859375,-3.203125
0.052,-0.640625,3.5234375,-2.9228515625
0.0525,-1.44140625,3.68359375,-2.3623046875
0.053,-1.9619140625,3.8037109375,-1.921875
0.0535,-2.2822265625,3.4833984375,-1.361328125
0.054,-2.7626953125,3.5234375,-0.9208984375
0.0545,-3.0830078125,2.962890625,-0.0400390625
0.055,-3.443359375,2.5625,0.6005859375
0.0555,-3.603515625,1.921875,1.4814453125
0.056,-3.5634765625,1.4814453125,1.841796875
0.0565,-3.4033203125,0.80078125,2.40234375
0.057,-3.2431640625,0.2001953125,2.8427734375
0.0575,-2.8828125,-0.6005859375,3.2431640625
0.058,-2.40234375,-1.28125,3.5234375
0.0585,-1.921875,-1.921875,3.68359375
0.059,-1.1611328125,-2.2822265625,3.3232421875
0.0595,-0.640625,-2.9228515625,3.4833984375
0.06,0.16015625,-3.2431640625,3.0029296875
0.0605,0.80078125,-3.603515625,2.72265625
0.061,1.5615234375,-3.8837890625,2.2421875
0.0615,1.9619140625,-3.84375,1.841796875
0.062,2.40234375,-3.6435546875,1.28125
0.0625,2.8427734375,-3.4833984375,0.720703125
0.063,3.203125,-3.0029296875,-0.1201171875
0.0635,3.5234375,-2.5625,-0.8408203125
0.064,3.8037109375,-2.001953125,-1.6416015625
0.0645,3.5234375,-1.44140625,-2.001953125
0.065,3.6435546875,-0.9609375,-2.642578125
0.0655,3.3232421875,-0.16015625,-3.0830078125
0.066,3.04296875,0.560546875,-3.5234375
0.0665,2.5224609375,1.28125,-3.8037109375
0.067,1.9619140625,1.841796875,-3.8037109375
0.0675,1.201171875,2.2822265625,-3.5234375
0.068,0.6005859375,2.8427734375,-3.5234375
0.0685,-0.2001953125,3.2431640625,-3.04296875
0.069,-0.8408203125,3.5234375,-2.72265625
0.0695,-1.6015625,3.763671875,-2.2421875
0.07,-1.8818359375,3.5234375,-1.76171875
0.0705,-2.4423828125,3.5234375,-1.28125
0.071,-2.8427734375,3.203125,-0.560546875
0.0715,-3.203125,2.7626953125,0.240234375
0.072,-3.4033203125,2.2421875,0.9609375
0.0725,-3.5634765625,1.76171875,1.6015625
0.073,-3.283203125,1.0810546875,1.9619140625
0.0735,-3.4033203125,0.6005859375,2.5625
0.074,-3.0029296875,-0.2001953125,3.0029296875
0.0745,-2.72265625,-0.8408203125,3.36328125
0.075,-2.2021484375,-1.6416015625,3.6435546875
0.0755,-1.4814453125,-2.08203125,3.443359375
0.076,-0.8408203125,-2.6025390625,3.36328125
0.0765,-0.1201171875,-3.1630859375,3.1630859375
0.077,0.6005859375,-3.4833984375,2.802734375
0.0775,1.28125,-3.7236328125,2.40234375
0.078,1.921875,-3.8837890625,1.9619140625
0.0785,2.162109375,-3.603515625,1.44140625
0.079,2.7626953125,-3.68359375,0.9609375
0.0795,3.123046875,-3.1630859375,0.080078125
0.08,3.4833984375,-2.7626953125,-0.640625
0.0805,3.68359375,-2.1220703125,-1.44140625
0.081,3.68359375,-1.6416015625,-1.9619140625
0.0815,3.5234375,-1.0009765625,-2.482421875
0.082,3.5234375,-0.400390625,-3.0029296875
0.0825,3.123046875,0.400390625,-3.443359375
0.083,2.642578125,1.12109375,-3.7236328125
0.0835,2.162109375,1.841796875,-3.8837890625
0.084,1.28125,2.2421875,-3.5234375
0.0845,0.720703125,2.8427734375,-3.5634765625
0.085,-0.080078125,3.1630859375,-3.1630859375
0.0855,-0.7607421875,3.4833984375,-2.7626953125
0.086,-1.44140625,3.68359375,-2.2822265625
0.0865,-1.9619140625,3.68359375,-1.841796875
0.087,-2.2822265625,3.443359375,-1.28125
0.0875,-2.8427734375,3.443359375,-0.7607421875
0.088,-3.0830078125,2.802734375,0.080078125
0.0885,-3.4033203125,2.40234375,0.80078125
0.089,-3.603515625,1.76171875,1.5615234375
0.0895,-3.36328125,1.2412109375,1.921875
0.09,-3.36328125,0.6806640625,2.482421875
0.0905,-3.123046875,0.0,2.9228515625
0.091,-2.7626953125,-0.720703125,3.3232421875
0.0915,-2.2822265625,-1.44140625,3.5234375
0.092,-1.681640625,-2.0419921875,3.603515625
0.0925,-0.9609375,-2.4423828125,3.283203125
0.093,-0.3603515625,-3.0830078125,3.36328125
0.0935,0.48046875,-3.36328125,2.8427734375
0.094,1.12109375,-3.7236328125,2.5625
0.0945,1.76171875,-3.8837890625,2.08203125
0.095,2.1220703125,-3.7236328125,1.5615234375
0.0955,2.5625,-3.603515625,1.0810546875
0.096,3.04296875,-3.36328125,0.3603515625
0.0965,3.36328125,-2.802734375,-0.48046875
0.097,3.6435546875,-2.322265625,-1.2412109375
0.0975,3.8037109375,-1.8017578125,-1.921875
0.098,3.4833984375,-1.12109375,-2.2822265625
0.0985,3.603515625,-0.640625,-2.8828125
0.099,3.1630859375,0.2001953125,-3.283203125
0.0995,2.8427734375,0.880859375,-3.7236328125
0.1,2.2421875,1.6416015625,-3.84375
0.1005,1.5615234375,2.1220703125,-3.7236328125
0.101,0.880859375,2.5625,-3.443359375
0.1015,0.240234375,3.1630859375,-3.36328125
0.102,-0.640625,3.36328125,-2.8427734375
0.1025,-1.2412109375,3.68359375,-2.5224609375
0.103,-1.8818359375,3.8037109375,-2.001953125
0.1035,-2.2021484375,3.4833984375,-1.44140625
0.104,-2.72265625,3.5234375,-0.9609375
0.1045,-3.0830078125,2.962890625,-0.080078125
0.105,-3.36328125,2.482421875,0.640625
0.1055,-3.5634765625,1.921875,1.4013671875
0.106,-3.5634765625,1.44140625,1.921875
0.1065,-3.283203125,0.7607421875,2.322265625
0.107,-3.36328125,0.240234375,2.9228515625
0.1075,-2.802734375,-0.6005859375,3.203125
0.108,-2.4423828125,-1.28125,3.5634765625
0.1085,-1.8017578125,-1.9619140625,3.68359375
0.109,-1.0810546875,-2.4423828125,3.36328125
0.1095,-0.48046875,-2.9228515625,3.3232421875
0.11,0.2802734375,-3.4033203125,3.04296875
0.1105,1.041015625,-3.6435546875,2.5625
0.111,1.6416015625,-3.8837890625,2.2021484375
0.1115,2.2021484375,-3.8837890625,1.7216796875
0.112,2.5224609375,-3.5634765625,1.0810546875
0.1125,3.0830078125,-3.5634765625,0.560546875
0.113,3.3232421875,-2.8828125,-0.3603515625
0.1135,3.68359375,-2.5625,-1.12109375
0.114,3.8037109375,-1.8818359375,-1.921875
0.1145,3.6435546875,-1.28125,-2.2822265625
0.115,3.5234375,-0.640625,-2.7626953125
0.1155,3.36328125,0.0,-3.36328125
0.116,2.8427734375,0.8408203125,-3.603515625
0.1165,2.40234375,1.521484375,-3.8837890625
0.117,1.76171875,2.162109375,-3.923828125
0.1175,0.9208984375,2.5625,-3.5234375
0.118,0.3603515625,3.123046875,-3.5234375
0.1185,-0.6005859375,3.4833984375,-2.9228515625
0.119,-1.2412109375,3.68359375,-2.5625
0.1195,-1.8818359375,3.8037109375,-2.0419921875
0.12,-2.2822265625,3.7236328125,-1.5615234375
0.1205,-2.6025390625,3.4033203125,-0.9208984375
0.121,-3.203125,3.3232421875,-0.3203125
0.1215,-3.36328125,2.482421875,0.6005859375
0.122,-3.68359375,2.1220703125,1.2412109375
0.1225,-3.7236328125,1.521484375,2.001953125
0.123,-3.443359375,0.880859375,2.3623046875
0.1235,-3.36328125,0.2802734375,2.8427734375
0.124,-2.962890625,-0.5205078125,3.3232421875
0.1245,-2.5224609375,-1.28125,3.603515625
0.125,-1.9619140625,-1.9619140625,3.7236328125
0.1255,-1.28125,-2.5224609375,3.6435546875
0.126,-0.48046875,-2.9228515625,3.283203125
0.1265,0.1201171875,-3.5234375,3.3232421875
0.127,1.12109375,-3.7236328125,2.5625
0.1275,1.681640625,-4.00390625,2.322265625
0.128,2.2822265625,-4.00390625,1.7216796875
0.1285,2.6826171875,-3.8037109375,1.1611328125
0.129,3.04296875,-3.5634765625,0.560546875
0.1295,3.5234375,-3.203125,-0.2802734375
0.13,3.68359375,-2.482421875,-1.201171875
0.1305,3.923828125,-1.9619140625,-1.841796875
0.131,3.8837890625,-1.28125,-2.5224609375
0.1315,3.5634765625,-0.560546875,-2.9228515625
0.132,3.5234375,0.0,-3.4833984375
0.1325,2.9228515625,0.9609375,-3.84375
0.133,2.482421875,1.681640625,-4.1240234375
0.1335,1.76171875,2.2822265625,-4.00390625
0.134,1.0009765625,2.8427734375,-3.84375
0.1345,0.2001953125,3.1630859375,-3.443359375
0.135,-0.5205078125,3.763671875,-3.283203125
0.1355,-1.521484375,3.84375,-2.4423828125
0.136,-2.001953125,4.00390625,-2.08203125
0.1365,-2.6025390625,3.8837890625,-1.44140625
0.137,-2.962890625,3.5634765625,-0.80078125
0.1375,-3.36328125,3.3232421875,-0.16015625
0.138,-3.7236328125,2.642578125,0.7607421875
0.1385,-3.8837890625,2.0419921875,1.6416015625
0.139,-3.8837890625,1.4013671875,2.2421875
0.1395,-3.763671875,0.7607421875,2.802734375
0.14,-3.3232421875,0.0,3.123046875
0.1405,-3.203125,-0.640625,3.68359375
0.141,-2.40234375,-1.6416015625,3.84375
0.1415,-1.9619140625,-2.2822265625,4.083984375
0.142,-1.0810546875,-2.8427734375,3.8037109375
0.1425,-0.3603515625,-3.283203125,3.5634765625
0.143,0.3203125,-3.603515625,3.1630859375
0.1435,1.201171875,-4.0439453125,2.802734375
0.144,2.08203125,-4.1240234375,2.0419921875
0.1445,2.5224609375,-4.1240234375,1.6416015625
0.145,3.0029296875,-4.00390625,1.0009765625
0.1455,3.283203125,-3.5634765625,0.2802734375
0.146,3.7236328125,-3.36328125,-0.3203125
0.1465,3.923828125,-2.4423828125,-1.361328125
0.147,4.083984375,-1.9619140625,-2.0419921875
0.1475,3.923828125,-1.2412109375,-2.6025390625
0.148,3.84375,-0.6005859375,-3.0830078125
0.1485,3.4033203125,0.080078125,-3.4033203125
0.149,3.203125,0.80078125,-3.923828125
0.1495,2.40234375,1.76171875,-4.1240234375
0.15,1.9619140625,2.2421875,-4.1640625
0.1505,1.12109375,2.802734375,-3.8837890625
0.151,0.3203125,3.203125,-3.5634765625
0.1515,-0.3203125,3.6435546875,-3.36328125
0.152,-1.2412109375,3.84375,-2.6826171875
0.1525,-1.9619140625,4.0439453125,-2.2021484375
0.153,-2.3623046875,3.84375,-1.6416015625
0.1535,-2.8427734375,3.8037109375,-1.1611328125
0.154,-3.123046875,3.283203125,-0.400390625
0.1545,-3.603515625,3.1630859375,0.2802734375
0.155,-3.7236328125,2.2021484375,1.28125
0.1555,-3.923828125,1.841796875,1.8818359375
0.156,-3.7236328125,1.0810546875,2.40234375
0.1565,-3.5634765625,0.48046875,2.8427734375
0.157,-3.203125,-0.240234375,3.283203125
0.1575,-2.8828125,-1.0009765625,3.68359375
0.158,-2.2421875,-1.841796875,3.923828125
0.1585,-1.6015625,-2.322265625,3.84375
0.159,-0.880859375,-2.9228515625,3.68359375
0.1595,-0.080078125,-3.283203125,3.3232421875
0.16,0.560546875,-3.84375,3.1630859375
0.1605,1.521484375,-3.923828125,2.40234375
0.161,2.08203125,-4.2041015625,2.08203125
0.1615,2.5224609375,-3.923828125,1.4013671875
0.162,2.9228515625,-3.8837890625,0.9208984375
0.1625,3.2431640625,-3.36328125,0.16015625
0.163,3.7236328125,-3.0830078125,-0.6005859375
0.1635,3.84375,-2.2021484375,-1.5615234375
0.164,3.9638671875,-1.8017578125,-2.08203125
0.1645,3.8037109375,-1.0009765625,-2.642578125
0.165,3.5634765625,-0.400390625,-3.0830078125
0.1655,3.36328125,0.2802734375,-3.603515625
0.166,2.802734375,1.12109375,-3.8837890625
0.1665,2.322265625,1.8818359375,-4.1640625
0.167,1.5615234375,2.2822265625,-3.84375
0.1675,0.880859375,2.8828125,-3.8037109375
0.168,0.0400390625,3.2431640625,-3.3232421875
0.1685,-0.6005859375,3.763671875,-3.203125
0.169,-1.5615234375,3.8037109375,-2.3623046875
0.1695,-2.001953125,3.923828125,-2.08203125
0.17,-2.482421875,3.6435546875,-1.361328125
0.1705,-2.8828125,3.5634765625,-0.8408203125
0.171,-3.283203125,3.1630859375,-0.0400390625
0.1715,-3.603515625,2.642578125,0.7607421875
0.172,-3.84375,2.001953125,1.5615234375
0.1725,-3.7236328125,1.44140625,2.0419921875
0.173,-3.68359375,0.80078125,2.642578125
0.1735,-3.283203125,0.080078125,3.0029296875
0.174,-3.1630859375,-0.640625,3.5634765625
0.1745,-2.40234375,-1.521484375,3.763671875
0.175,-1.9619140625,-2.1220703125,3.9638671875
0.1755,-1.0810546875,-2.6025390625,3.5234375
0.176,-0.48046875,-3.1630859375,3.5234375
0.1765,0.3603515625,-3.5634765625,3.123046875
0.177,1.0810546875,-3.923828125,2.802734375
0.1775,1.921875,-4.1240234375,2.08203125
0.178,2.2822265625,-4.0439453125,1.6416015625
0.1785,2.8427734375,-3.8837890625,1.12109375
0.179,3.1630859375,-3.5634765625,0.4404296875
0.1795,3.6435546875,-3.203125,-0.3203125
0.18,3.84375,-2.4423828125,-1.28125
0.1805,4.083984375,-1.9619140625,-2.0419921875
0.181,3.763671875,-1.201171875,-2.482421875
0.1815,3.84375,-0.640625,-3.0830078125
0.182,3.36328125,0.1201171875,-3.4033203125
0.1825,3.1630859375,0.8408203125,-3.923828125
0.183,2.40234375,1.76171875,-4.1640625
0.1835,1.841796875,2.2822265625,-4.1240234375
0.184,0.9208984375,2.8427734375,-3.7236328125
0.1845,0.240234375,3.3232421875,-3.5634765625
0.185,-0.560546875,3.6435546875,-3.203125
0.1855,-1.3212890625,3.84375,-2.642578125
0.186,-2.1220703125,4.0439453125,-2.1220703125
0.1865,-2.4423828125,3.763671875,-1.44140625
0.187,-2.962890625,3.8037109375,-0.9609375
0.1875,-3.203125,3.203125,-0.16015625
0.188,-3.68359375,2.8828125,0.560546875
0.1885,-3.8037109375,2.0419921875,1.5615234375
0.189,-3.923828125,1.5615234375,2.162109375
0.1895,-3.5234375,0.7607421875,2.5224609375
0.19,-3.5234375,0.2802734375,3.04296875
0.1905,-3.04296875,-0.560546875,3.443359375
0.191,-2.642578125,-1.2412109375,3.763671875
0.1915,-1.9619140625,-2.1220703125,3.923828125
0.192,-1.28125,-2.5224609375,3.68359375
0.1925,-0.6005859375,-3.0830078125,3.5234375
0.193,0.1201171875,-3.4833984375,3.1630859375
0.1935,0.8408203125,-3.84375,2.8828125
0.194,1.681640625,-4.00390625,2.2421875
0.1945,2.2421875,-4.1240234375,1.8818359375
0.195,2.5224609375,-3.7236328125,1.201171875
0.1955,3.0029296875,-3.7236328125,0.80078125
0.196,3.3232421875,-3.1630859375,-0.0400390625
0.1965,3.68359375,-2.8427734375,-0.720703125
0.197,3.84375,-2.001953125,-1.681640625
0.1975,3.84375,-1.6015625,-2.1220703125
0.198,3.603515625,-0.8408203125,-2.642578125
0.1985,3.5234375,-0.3603515625,-3.04296875
0.199,3.1630859375,0.4404296875,-3.5634765625
0.1995,2.6826171875,1.12109375,-3.8037109375
0.2,2.2421875,1.841796875,-4.00390625
0.2005,1.44140625,2.2021484375,-3.603515625
0.201,0.880859375,2.802734375,-3.7236328125
0.2015,0.0,3.123046875,-3.203125
0.202,-0.6005859375,3.4833984375,-3.04296875
0.2025,-1.44140625,3.7236328125,-2.3623046875
0.203,-1.841796875,3.763671875,-2.08203125
0.2035,-2.2421875,3.5234375,-1.44140625
0.204,-2.6826171875,3.5234375,-1.0009765625
0.2045,-3.0830078125,3.0029296875,-0.080078125
0.205,-3.4033203125,2.6025390625,0.6005859375
0.2055,-3.6435546875,2.0419921875,1.4013671875
0.206,-3.5234375,1.5615234375,1.76171875
0.2065,-3.5634765625,0.9208984375,2.40234375
0.207,-3.2431640625,0.240234375,2.8427734375
0.2075,-3.04296875,-0.48046875,3.3232421875
0.208,-2.4423828125,-1.28125,3.5634765625
0.2085,-2.001953125,-1.841796875,3.68359375
0.209,-1.1611328125,-2.322265625,3.3232421875
0.2095,-0.640625,-2.9228515625,3.4833984375
0.21,0.2001953125,-3.36328125,3.0029296875
0.2105,0.8408203125,-3.68359375,2.7626953125
0.211,1.6015625,-3.8837890625,2.2421875
0.2115,1.921875,-3.8037109375,1.841796875
0.212,2.482421875,-3.7236328125,1.28125
0.2125,2.8427734375,-3.443359375,0.6005859375
0.213,3.3232421875,-3.04296875,-0.2001953125
0.2135,3.5634765625,-2.482421875,-1.0009765625
0.214,3.8037109375,-2.001953125,-1.7216796875
0.2145,3.5234375,-1.3212890625,-2.08203125
0.215,3.68359375,-0.880859375,-2.72265625
0.2155,3.283203125,0.0,-3.1630859375
0.216,3.04296875,0.6005859375,-3.603515625
0.2165,2.40234375,1.44140625,-3.84375
0.217,1.921875,1.841796875,-3.763671875
0.2175,1.0810546875,2.40234375,-3.5234375
0.218,0.4404296875,2.8828125,-3.443359375
0.2185,-0.3203125,3.3232421875,-3.0029296875
0.219,-1.0009765625,3.5634765625,-2.642578125
0.2195,-1.681640625,3.8037109375,-2.2021484375
0.22,-1.9619140625,3.4833984375,-1.681640625
0.2205,-2.5224609375,3.603515625,-1.2412109375
0.221,-2.8828125,3.123046875,-0.400390625
0.2215,-3.2431640625,2.802734375,0.2802734375
0.222,-3.4833984375,2.1220703125,1.12109375
0.2225,-3.5634765625,1.76171875,1.6015625
0.223,-3.283203125,1.0009765625,2.0419921875
0.2235,-3.4033203125,0.6005859375,2.5625
0.224,-2.962890625,-0.2802734375,3.04296875
0.2245,-2.642578125,-0.9208984375,3.4033203125
0.225,-2.08203125,-1.681640625,3.603515625
0.2255,-1.44140625,-2.08203125,3.36328125
0.226,-0.80078125,-2.72265625,3.4033203125
0.2265,-0.080078125,-3.123046875,3.123046875
0.227,0.6005859375,-3.4833984375,2.8427734375
0.2275,1.28125,-3.763671875,2.40234375
0.228,1.841796875,-3.84375,2.001953125
0.2285,2.162109375,-3.5634765625,1.44140625
0.229,2.6826171875,-3.68359375,1.0009765625
0.2295,3.0830078125,-3.0830078125,0.0400390625
0.23,3.443359375,-2.7626953125,-0.6005859375
