wavelength,x,y,z
0.0,-2.312255859375,-1.351318359375,3.173095703125
0.0005,-2.632568359375,-1.031005859375,3.213134765625
0.001,-2.792724609375,-0.630615234375,2.892822265625
0.0015,-2.832763671875,0.010009765625,2.332275390625
0.002,-2.952880859375,0.690673828125,1.851806640625
0.0025,-3.153076171875,1.451416015625,1.251220703125
0.003,-3.273193359375,2.011962890625,0.850830078125
0.0035,-3.193115234375,2.372314453125,0.410400390625
0.004,-2.912841796875,2.572509765625,-0.070068359375
0.0045,-2.272216796875,2.692626953125,-0.870849609375
0.005,-1.631591796875,2.892822265625,-1.631591796875
0.0055,-1.191162109375,3.173095703125,-2.392333984375
0.006,-0.790771484375,3.253173828125,-2.872802734375
0.0065,-0.350341796875,3.052978515625,-3.072998046875
0.007,0.290283203125,2.612548828125,-3.273193359375
0.0075,1.131103515625,1.931884765625,-3.473388671875
0.008,1.851806640625,1.411376953125,-3.593505859375
0.0085,2.332275390625,0.970947265625,-3.753662109375
0.009,2.612548828125,0.610595703125,-3.713623046875
0.0095,2.692626953125,0.170166015625,-3.393310546875
0.01,2.732666015625,-0.510498046875,-2.712646484375
0.0105,2.852783203125,-1.231201171875,-2.072021484375
0.011,3.052978515625,-1.951904296875,-1.551513671875
0.0115,3.133056640625,-2.432373046875,-1.191162109375
0.012,2.892822265625,-2.632568359375,-0.710693359375
0.0125,2.492431640625,-2.832763671875,-0.190185546875
0.013,1.811767578125,-2.952880859375,0.690673828125
0.0135,1.251220703125,-3.193115234375,1.411376953125
0.014,0.810791015625,-3.353271484375,2.052001953125
0.0145,0.450439453125,-3.393310546875,2.492431640625
0.015,-0.070068359375,-3.113037109375,2.612548828125
0.0155,-0.790771484375,-2.552490234375,2.812744140625
0.016,-1.551513671875,-1.911865234375,2.932861328125
0.0165,-2.232177734375,-1.431396484375,3.133056640625
0.017,-2.592529296875,-1.111083984375,3.173095703125
0.0175,-2.832763671875,-0.750732421875,2.972900390625
0.018,-2.872802734375,-0.190185546875,2.612548828125
0.0185,-2.952880859375,0.610595703125,1.931884765625
0.019,-3.072998046875,1.291259765625,1.331298828125
0.0195,-3.273193359375,1.971923828125,0.890869140625
0.02,-3.273193359375,2.372314453125,0.530517578125
0.0205,-2.952880859375,2.532470703125,0.010009765625
0.021,-2.472412109375,2.692626953125,-0.630615234375
0.0215,-1.791748046875,2.852783203125,-1.511474609375
0.022,-1.271240234375,3.133056640625,-2.232177734375
0.0225,-0.870849609375,3.253173828125,-2.832763671875
0.023,-0.470458984375,3.213134765625,-3.153076171875
0.0235,0.130126953125,2.852783203125,-3.353271484375
0.024,0.970947265625,2.172119140625,-3.473388671875
0.0245,1.691650390625,1.531494140625,-3.593505859375
0.025,2.332275390625,1.010986328125,-3.833740234375
0.0255,2.652587890625,0.690673828125,-3.833740234375
0.026,2.732666015625,0.290283203125,-3.473388671875
0.0265,2.812744140625,-0.310302734375,-2.912841796875
0.027,2.852783203125,-1.151123046875,-2.192138671875
0.0275,3.012939453125,-1.871826171875,-1.631591796875
0.028,3.133056640625,-2.432373046875,-1.231201171875
0.0285,3.052978515625,-2.752685546875,-0.830810546875
0.029,2.652587890625,-2.832763671875,-0.310302734375
0.0295,1.971923828125,-2.952880859375,0.490478515625
0.03,1.291259765625,-3.153076171875,1.291259765625
0.0305,0.850830078125,-3.353271484375,2.011962890625
0.031,0.490478515625,-3.433349609375,2.452392578125
0.0315,0.050048828125,-3.233154296875,2.652587890625
0.032,-0.630615234375,-2.712646484375,2.852783203125
0.0325,-1.431396484375,-2.072021484375,2.892822265625
0.033,-2.112060546875,-1.551513671875,3.052978515625
0.0335,-2.632568359375,-1.151123046875,3.173095703125
0.034,-2.872802734375,-0.790771484375,3.133056640625
0.0345,-2.912841796875,-0.310302734375,2.692626953125
0.035,-2.952880859375,0.330322265625,2.092041015625
0.0355,-3.072998046875,1.131103515625,1.451416015625
0.036,-3.193115234375,1.851806640625,0.970947265625
0.0365,-3.273193359375,2.252197265625,0.570556640625
0.037,-3.113037109375,2.532470703125,0.170166015625
0.0375,-2.632568359375,2.652587890625,-0.430419921875
0.038,-1.951904296875,2.812744140625,-1.231201171875
0.0385,-1.391357421875,3.012939453125,-1.991943359375
0.039,-0.990966796875,3.213134765625,-2.712646484375
0.0395,-0.630615234375,3.253173828125,-3.072998046875
0.04,-0.150146484375,2.932861328125,-3.193115234375
0.0405,0.570556640625,2.412353515625,-3.393310546875
0.041,1.451416015625,1.651611328125,-3.553466796875
0.0415,2.092041015625,1.211181640625,-3.753662109375
0.042,2.532470703125,0.850830078125,-3.793701171875
0.0425,2.772705078125,0.490478515625,-3.673583984375
0.043,2.812744140625,0.010009765625,-3.153076171875
0.0435,2.852783203125,-0.790771484375,-2.512451171875
0.044,3.012939453125,-1.591552734375,-1.871826171875
0.0445,3.173095703125,-2.272216796875,-1.391357421875
0.045,3.133056640625,-2.632568359375,-0.990966796875
0.0455,2.852783203125,-2.832763671875,-0.510498046875
0.046,2.292236328125,-2.952880859375,0.170166015625
0.0465,1.571533203125,-3.113037109375,1.091064453125
0.047,1.051025390625,-3.313232421875,1.771728515625
0.0475,0.610595703125,-3.553466796875,2.412353515625
0.048,0.250244140625,-3.393310546875,2.692626953125
0.0485,-0.310302734375,-2.952880859375,2.772705078125
0.049,-1.151123046875,-2.392333984375,2.932861328125
0.0495,-1.991943359375,-1.671630859375,3.052978515625
0.05,-2.552490234375,-1.231201171875,3.253173828125
0.0505,-2.872802734375,-0.830810546875,3.173095703125
0.051,-2.952880859375,-0.470458984375,2.892822265625
0.0515,-2.952880859375,0.170166015625,2.332275390625
0.052,-3.032958984375,0.970947265625,1.611572265625
0.0525,-3.193115234375,1.651611328125,1.091064453125
0.053,-3.353271484375,2.252197265625,0.610595703125
0.0535,-3.233154296875,2.532470703125,0.290283203125
0.054,-2.792724609375,2.612548828125,-0.310302734375
0.0545,-2.232177734375,2.812744140625,-0.990966796875
0.055,-1.471435546875,2.972900390625,-1.911865234375
0.0555,-1.031005859375,3.173095703125,-2.552490234375
0.056,-0.630615234375,3.253173828125,-3.072998046875
0.0565,-0.270263671875,3.052978515625,-3.273193359375
0.057,0.450439453125,2.532470703125,-3.393310546875
0.0575,1.251220703125,1.851806640625,-3.553466796875
0.058,1.971923828125,1.291259765625,-3.713623046875
0.0585,2.532470703125,0.930908203125,-3.833740234375
0.059,2.732666015625,0.570556640625,-3.713623046875
0.0595,2.852783203125,0.130126953125,-3.353271484375
0.06,2.892822265625,-0.590576171875,-2.752685546875
0.0605,2.932861328125,-1.431396484375,-1.991943359375
0.061,3.133056640625,-2.112060546875,-1.471435546875
0.0615,3.173095703125,-2.632568359375,-1.031005859375
0.062,3.052978515625,-2.872802734375,-0.670654296875
0.0625,2.492431640625,-2.912841796875,0.010009765625
0.063,1.811767578125,-3.072998046875,0.810791015625
0.0635,1.131103515625,-3.273193359375,1.651611328125
0.064,0.730712890625,-3.553466796875,2.292236328125
0.0645,0.290283203125,-3.473388671875,2.652587890625
0.065,-0.190185546875,-3.233154296875,2.852783203125
0.0655,-0.990966796875,-2.592529296875,2.972900390625
0.066,-1.791748046875,-1.831787109375,3.133056640625
0.0665,-2.472412109375,-1.271240234375,3.253173828125
0.067,-2.952880859375,-0.910888671875,3.373291015625
0.0675,-3.072998046875,-0.550537109375,3.133056640625
0.068,-3.072998046875,0.050048828125,2.532470703125
0.0685,-3.153076171875,0.810791015625,1.891845703125
0.069,-3.233154296875,1.651611328125,1.131103515625
0.0695,-3.353271484375,2.252197265625,0.690673828125
0.07,-3.273193359375,2.612548828125,0.290283203125
0.0705,-3.072998046875,2.812744140625,-0.150146484375
0.071,-2.312255859375,2.852783203125,-0.950927734375
0.0715,-1.591552734375,3.012939453125,-1.791748046875
0.072,-0.990966796875,3.173095703125,-2.592529296875
0.0725,-0.630615234375,3.333251953125,-3.153076171875
0.073,-0.190185546875,3.173095703125,-3.393310546875
0.0735,0.370361328125,2.692626953125,-3.553466796875
0.074,1.211181640625,2.052001953125,-3.593505859375
0.0745,2.011962890625,1.291259765625,-3.713623046875
0.075,2.572509765625,0.890869140625,-3.833740234375
0.0755,2.892822265625,0.490478515625,-3.833740234375
0.076,2.972900390625,0.130126953125,-3.513427734375
0.0765,2.892822265625,-0.550537109375,-2.832763671875
0.077,2.972900390625,-1.311279296875,-2.112060546875
0.0775,3.093017578125,-2.112060546875,-1.431396484375
0.078,3.213134765625,-2.632568359375,-1.031005859375
0.0785,3.052978515625,-2.912841796875,-0.630615234375
0.079,2.692626953125,-3.032958984375,-0.150146484375
0.0795,1.931884765625,-3.113037109375,0.690673828125
0.08,1.211181640625,-3.233154296875,1.571533203125
0.0805,0.690673828125,-3.473388671875,2.252197265625
0.081,0.330322265625,-3.593505859375,2.692626953125
0.0815,-0.150146484375,-3.353271484375,2.852783203125
0.082,-0.790771484375,-2.712646484375,2.932861328125
0.0825,-1.631591796875,-2.031982421875,3.133056640625
0.083,-2.432373046875,-1.351318359375,3.213134765625
0.0835,-2.872802734375,-0.990966796875,3.333251953125
0.084,-3.072998046875,-0.590576171875,3.133056640625
0.0845,-3.113037109375,-0.190185546875,2.812744140625
0.085,-3.072998046875,0.570556640625,2.052001953125
0.0855,-3.193115234375,1.331298828125,1.331298828125
0.086,-3.273193359375,2.052001953125,0.810791015625
0.0865,-3.393310546875,2.572509765625,0.450439453125
0.087,-3.153076171875,2.692626953125,0.010009765625
0.0875,-2.592529296875,2.812744140625,-0.630615234375
0.088,-1.951904296875,2.972900390625,-1.471435546875
0.0885,-1.271240234375,3.093017578125,-2.312255859375
0.089,-0.790771484375,3.253173828125,-2.912841796875
0.0895,-0.430419921875,3.253173828125,-3.353271484375
0.09,0.090087890625,3.012939453125,-3.513427734375
0.0905,0.890869140625,2.292236328125,-3.553466796875
0.091,1.651611328125,1.651611328125,-3.713623046875
0.0915,2.412353515625,1.051025390625,-3.833740234375
0.092,2.812744140625,0.690673828125,-3.913818359375
0.0925,2.932861328125,0.290283203125,-3.593505859375
0.093,2.972900390625,-0.230224609375,-3.153076171875
0.0935,3.012939453125,-1.071044921875,-2.392333984375
0.094,3.052978515625,-1.871826171875,-1.671630859375
0.0945,3.173095703125,-2.512451171875,-1.191162109375
0.095,3.213134765625,-2.912841796875,-0.790771484375
0.0955,2.852783203125,-2.992919921875,-0.350341796875
0.096,2.172119140625,-3.072998046875,0.410400390625
0.0965,1.451416015625,-3.233154296875,1.251220703125
0.097,0.850830078125,-3.433349609375,2.052001953125
0.0975,0.450439453125,-3.553466796875,2.532470703125
0.098,0.050048828125,-3.353271484375,2.812744140625
0.0985,-0.510498046875,-2.952880859375,2.932861328125
0.099,-1.391357421875,-2.192138671875,3.012939453125
0.0995,-2.072021484375,-1.591552734375,3.133056640625
0.1,-2.712646484375,-1.031005859375,3.213134765625
0.1005,-2.992919921875,-0.790771484375,3.253173828125
0.101,-3.032958984375,-0.350341796875,2.852783203125
0.1015,-3.032958984375,0.290283203125,2.252197265625
0.102,-3.072998046875,1.010986328125,1.611572265625
0.1025,-3.193115234375,1.771728515625,0.970947265625
0.103,-3.273193359375,2.292236328125,0.610595703125
0.1035,-3.193115234375,2.612548828125,0.210205078125
0.104,-2.872802734375,2.692626953125,-0.310302734375
0.1045,-2.152099609375,2.732666015625,-1.071044921875
0.105,-1.511474609375,2.932861328125,-1.871826171875
0.1055,-1.031005859375,3.173095703125,-2.592529296875
0.106,-0.630615234375,3.333251953125,-3.072998046875
0.1065,-0.190185546875,3.052978515625,-3.273193359375
0.107,0.410400390625,2.652587890625,-3.393310546875
0.1075,1.251220703125,1.931884765625,-3.553466796875
0.108,1.931884765625,1.331298828125,-3.713623046875
0.1085,2.532470703125,0.930908203125,-3.833740234375
0.109,2.812744140625,0.610595703125,-3.793701171875
0.1095,2.852783203125,0.170166015625,-3.433349609375
0.11,2.852783203125,-0.590576171875,-2.712646484375
0.1105,2.972900390625,-1.311279296875,-2.072021484375
0.111,3.173095703125,-2.152099609375,-1.471435546875
0.1115,3.213134765625,-2.632568359375,-1.111083984375
0.112,3.052978515625,-2.872802734375,-0.630615234375
0.1125,2.572509765625,-3.072998046875,-0.110107421875
0.113,1.771728515625,-3.193115234375,0.810791015625
0.1135,1.171142578125,-3.353271484375,1.611572265625
0.114,0.650634765625,-3.553466796875,2.332275390625
0.1145,0.330322265625,-3.553466796875,2.732666015625
0.115,-0.270263671875,-3.153076171875,2.892822265625
0.1155,-0.990966796875,-2.552490234375,3.012939453125
0.116,-1.871826171875,-1.791748046875,3.133056640625
0.1165,-2.552490234375,-1.271240234375,3.293212890625
0.117,-2.912841796875,-0.910888671875,3.293212890625
0.1175,-3.072998046875,-0.510498046875,3.093017578125
0.118,-3.072998046875,0.050048828125,2.572509765625
0.1185,-3.072998046875,0.890869140625,1.771728515625
0.119,-3.193115234375,1.571533203125,1.131103515625
0.1195,-3.313232421875,2.252197265625,0.650634765625
0.12,-3.273193359375,2.572509765625,0.330322265625
0.1205,-2.912841796875,2.612548828125,-0.270263671875
0.121,-2.312255859375,2.772705078125,-0.910888671875
0.1215,-1.591552734375,2.852783203125,-1.791748046875
0.122,-1.071044921875,3.093017578125,-2.432373046875
0.1225,-0.630615234375,3.213134765625,-2.952880859375
0.123,-0.310302734375,3.173095703125,-3.273193359375
0.1235,0.290283203125,2.772705078125,-3.393310546875
0.124,1.010986328125,2.052001953125,-3.473388671875
0.1245,1.771728515625,1.451416015625,-3.593505859375
0.125,2.412353515625,0.970947265625,-3.793701171875
0.1255,2.692626953125,0.690673828125,-3.793701171875
0.126,2.812744140625,0.290283203125,-3.473388671875
0.1265,2.852783203125,-0.310302734375,-2.952880859375
0.127,2.852783203125,-1.111083984375,-2.232177734375
0.1275,3.012939453125,-1.791748046875,-1.671630859375
0.128,3.133056640625,-2.392333984375,-1.231201171875
0.1285,3.133056640625,-2.792724609375,-0.910888671875
0.129,2.692626953125,-2.872802734375,-0.350341796875
0.1295,2.092041015625,-3.032958984375,0.370361328125
0.13,1.411376953125,-3.153076171875,1.251220703125
0.1305,0.930908203125,-3.393310546875,1.931884765625
0.131,0.570556640625,-3.473388671875,2.452392578125
0.1315,0.130126953125,-3.353271484375,2.692626953125
0.132,-0.510498046875,-2.872802734375,2.852783203125
0.1325,-1.351318359375,-2.152099609375,3.012939453125
0.133,-2.072021484375,-1.591552734375,3.173095703125
0.1335,-2.672607421875,-1.151123046875,3.333251953125
0.134,-2.912841796875,-0.830810546875,3.213134765625
0.1345,-2.992919921875,-0.350341796875,2.852783203125
0.135,-3.072998046875,0.330322265625,2.252197265625
0.1355,-3.153076171875,1.211181640625,1.531494140625
0.136,-3.273193359375,1.891845703125,0.970947265625
0.1365,-3.353271484375,2.332275390625,0.570556640625
0.137,-3.193115234375,2.572509765625,0.170166015625
0.1375,-2.672607421875,2.692626953125,-0.510498046875
0.138,-1.951904296875,2.852783203125,-1.311279296875
0.1385,-1.311279296875,3.052978515625,-2.112060546875
0.139,-0.950927734375,3.293212890625,-2.792724609375
0.1395,-0.550537109375,3.253173828125,-3.153076171875
0.14,0.010009765625,2.932861328125,-3.273193359375
0.1405,0.650634765625,2.412353515625,-3.473388671875
0.141,1.531494140625,1.611572265625,-3.553466796875
0.1415,2.172119140625,1.131103515625,-3.713623046875
0.142,2.612548828125,0.770751953125,-3.753662109375
0.1425,2.772705078125,0.490478515625,-3.593505859375
0.143,2.732666015625,-0.070068359375,-3.113037109375
0.1435,2.812744140625,-0.790771484375,-2.432373046875
0.144,2.892822265625,-1.591552734375,-1.791748046875
0.1445,3.093017578125,-2.272216796875,-1.311279296875
0.145,3.052978515625,-2.592529296875,-0.990966796875
0.1455,2.772705078125,-2.832763671875,-0.590576171875
0.146,2.292236328125,-2.872802734375,0.090087890625
0.1465,1.571533203125,-2.992919921875,0.930908203125
0.147,1.091064453125,-3.193115234375,1.611572265625
0.1475,0.690673828125,-3.393310546875,2.212158203125
0.148,0.330322265625,-3.353271484375,2.532470703125
0.1485,-0.190185546875,-3.032958984375,2.692626953125
0.149,-0.910888671875,-2.512451171875,2.852783203125
0.1495,-1.671630859375,-1.791748046875,3.012939453125
0.15,-2.312255859375,-1.391357421875,3.173095703125
0.1505,-2.672607421875,-1.031005859375,3.213134765625
0.151,-2.872802734375,-0.630615234375,3.012939453125
0.1515,-2.912841796875,-0.070068359375,2.532470703125
0.152,-2.952880859375,0.650634765625,1.851806640625
0.1525,-3.153076171875,1.331298828125,1.291259765625
0.153,-3.313232421875,1.971923828125,0.850830078125
0.1535,-3.273193359375,2.332275390625,0.450439453125
0.154,-2.912841796875,2.532470703125,0.010009765625
0.1545,-2.432373046875,2.692626953125,-0.710693359375
0.155,-1.711669921875,2.892822265625,-1.591552734375
0.1555,-1.271240234375,3.133056640625,-2.272216796875
0.156,-0.830810546875,3.253173828125,-2.832763671875
0.1565,-0.470458984375,3.173095703125,-3.113037109375
0.157,0.170166015625,2.692626953125,-3.233154296875
0.1575,0.970947265625,2.052001953125,-3.393310546875
0.158,1.731689453125,1.491455078125,-3.593505859375
0.1585,2.332275390625,1.091064453125,-3.833740234375
0.159,2.572509765625,0.730712890625,-3.713623046875
0.1595,2.692626953125,0.290283203125,-3.393310546875
0.16,2.732666015625,-0.350341796875,-2.832763671875
0.1605,2.852783203125,-1.231201171875,-2.112060546875
0.161,3.012939453125,-1.911865234375,-1.631591796875
0.1615,3.093017578125,-2.432373046875,-1.271240234375
0.162,3.012939453125,-2.632568359375,-0.830810546875
0.1625,2.492431640625,-2.752685546875,-0.270263671875
0.163,1.931884765625,-2.912841796875,0.530517578125
0.1635,1.291259765625,-3.153076171875,1.331298828125
0.164,0.890869140625,-3.353271484375,1.971923828125
0.1645,0.490478515625,-3.353271484375,2.372314453125
0.165,0.050048828125,-3.153076171875,2.612548828125
0.1655,-0.630615234375,-2.632568359375,2.772705078125
0.166,-1.431396484375,-1.991943359375,2.852783203125
0.1665,-2.072021484375,-1.471435546875,3.052978515625
0.167,-2.592529296875,-1.151123046875,3.173095703125
0.1675,-2.752685546875,-0.790771484375,3.052978515625
0.168,-2.832763671875,-0.310302734375,2.612548828125
0.1685,-2.912841796875,0.330322265625,2.052001953125
0.169,-3.032958984375,1.131103515625,1.411376953125
0.1695,-3.193115234375,1.731689453125,0.970947265625
0.17,-3.193115234375,2.212158203125,0.610595703125
0.1705,-3.072998046875,2.492431640625,0.170166015625
0.171,-2.552490234375,2.612548828125,-0.510498046875
0.1715,-1.951904296875,2.772705078125,-1.271240234375
0.172,-1.351318359375,3.012939453125,-2.031982421875
0.1725,-0.990966796875,3.213134765625,-2.632568359375
0.173,-0.630615234375,3.173095703125,-2.952880859375
0.1735,-0.150146484375,2.892822265625,-3.193115234375
0.174,0.650634765625,2.372314453125,-3.353271484375
0.1745,1.451416015625,1.651611328125,-3.553466796875
0.175,2.052001953125,1.251220703125,-3.713623046875
0.1755,2.492431640625,0.850830078125,-3.753662109375
0.176,2.692626953125,0.490478515625,-3.553466796875
0.1765,2.732666015625,-0.150146484375,-3.072998046875
0.177,2.812744140625,-0.910888671875,-2.432373046875
0.1775,2.972900390625,-1.711669921875,-1.831787109375
0.178,3.173095703125,-2.232177734375,-1.391357421875
0.1785,3.093017578125,-2.592529296875,-0.990966796875
0.179,2.772705078125,-2.752685546875,-0.550537109375
0.1795,2.172119140625,-2.912841796875,0.290283203125
0.18,1.491455078125,-3.072998046875,1.131103515625
0.1805,1.010986328125,-3.313232421875,1.851806640625
0.181,0.610595703125,-3.473388671875,2.332275390625
0.1815,0.210205078125,-3.273193359375,2.572509765625
0.182,-0.470458984375,-2.792724609375,2.692626953125
0.1825,-1.231201171875,-2.192138671875,2.892822265625
0.183,-1.991943359375,-1.591552734375,3.052978515625
0.1835,-2.512451171875,-1.231201171875,3.213134765625
0.184,-2.752685546875,-0.830810546875,3.093017578125
0.1845,-2.872802734375,-0.510498046875,2.812744140625
0.185,-2.872802734375,0.170166015625,2.172119140625
0.1855,-2.992919921875,0.930908203125,1.531494140625
0.186,-3.153076171875,1.651611328125,1.051025390625
0.1865,-3.273193359375,2.212158203125,0.650634765625
0.187,-3.113037109375,2.412353515625,0.290283203125
0.1875,-2.672607421875,2.532470703125,-0.310302734375
0.188,-2.112060546875,2.732666015625,-1.031005859375
