wavelength,x,y,z
0.0,0.2452392578125,-21.736206054688,21.265747070312
0.0005,4.4893798828125,-23.778198242188,19.183715820312
0.001,9.0137939453125,-24.659057617188,15.540161132812
0.0015,13.578247070312,-25.299682617188,11.696411132812
0.002,17.181762695312,-23.938354492188,6.8917236328125
0.0025,20.745239257812,-23.578002929688,2.9278564453125
0.003,23.267700195312,-21.175659179688,-1.9569091796875
0.0035,25.309692382812,-18.973510742188,-6.2811279296875
0.004,24.508911132812,-14.489135742188,-10.084838867188
0.0045,25.109497070312,-10.685424804688,-14.529174804688
0.005,23.828247070312,-6.6815185546875,-17.331909179688
0.0055,22.466918945312,-1.4364013671875,-21.295776367188
0.006,20.184692382812,3.0079345703125,-23.257690429688
0.0065,17.101684570312,7.9727783203125,-25.099487304688
0.007,12.577270507812,12.337036132812,-25.019409179688
0.0075,7.9327392578125,16.380981445312,-24.418823242188
0.008,4.1690673828125,19.303833007812,-23.618041992188
0.0085,-1.8768310546875,22.627075195312,-21.095581054688
0.009,-6.1209716796875,24.629028320312,-18.933471679688
0.0095,-11.085815429688,24.869262695312,-14.248901367188
0.01,-15.129760742188,25.469848632812,-10.885620117188
0.0105,-18.693237304688,23.988403320312,-5.8006591796875
0.011,-22.216674804688,23.107543945312,-1.4364013671875
0.0115,-24.098510742188,20.585083007812,3.0079345703125
0.012,-25.980346679688,17.822387695312,7.7325439453125
0.0125,-24.899291992188,12.857543945312,11.656372070312
0.013,-25.219604492188,9.0538330078125,15.860473632812
0.0135,-23.778198242188,4.9298095703125,18.623168945312
0.014,-22.136596679688,-0.6756591796875,22.546997070312
0.0145,-19.574096679688,-4.9598388671875,24.228637695312
0.015,-15.530151367188,-10.285034179688,25.469848632812
0.0155,-11.406127929688,-14.208862304688,25.309692382812
0.016,-6.3612060546875,-18.212768554688,24.228637695312
0.0165,-1.9969482421875,-21.135620117188,22.787231445312
0.017,3.5284423828125,-23.978393554688,20.304809570312
0.0175,8.1329345703125,-25.820190429688,17.582153320312
0.018,13.137817382812,-25.339721679688,12.216918945312
0.0185,16.821411132812,-25.780151367188,9.0538330078125
0.019,20.665161132812,-24.098510742188,3.6085205078125
0.0195,23.828247070312,-22.697143554688,-1.1160888671875
0.02,25.189575195312,-19.934448242188,-5.2000732421875
0.0205,26.711059570312,-16.611206054688,-10.124877929688
0.021,25.309692382812,-11.486206054688,-13.968627929688
0.0215,25.269653320312,-7.6024169921875,-17.852416992188
0.022,23.507934570312,-2.9979248046875,-20.695190429688
0.0225,21.626098632812,2.4473876953125,-24.218627929688
0.023,18.463012695312,6.8516845703125,-25.379760742188
0.0235,13.658325195312,12.337036132812,-26.100463867188
0.024,9.9346923828125,15.860473632812,-25.860229492188
0.0245,4.4893798828125,19.824340820312,-24.418823242188
0.025,-0.3153076171875,22.466918945312,-22.456909179688
0.0255,-5.2000732421875,24.829223632812,-20.014526367188
0.026,-10.244995117188,26.390747070312,-16.531127929688
0.0265,-14.969604492188,25.469848632812,-10.965698242188
0.027,-18.332885742188,25.630004882812,-7.8826904296875
0.0275,-22.096557617188,23.708129882812,-2.2772216796875
0.028,-24.779174804688,21.946411132812,2.3673095703125
0.0285,-25.539916992188,18.863403320312,6.2510986328125
0.029,-26.661010742188,14.859497070312,11.416137695312
0.0295,-25.339721679688,10.054809570312,14.979614257812
0.03,-24.899291992188,5.8907470703125,18.703247070312
0.0305,-22.897338867188,1.2462158203125,21.465942382812
0.031,-21.095581054688,-3.8387451171875,24.588989257812
0.0315,-17.211791992188,-8.4832763671875,25.389770507812
0.032,-12.246948242188,-13.688354492188,25.589965820312
0.0325,-8.8035888671875,-16.891479492188,25.309692382812
0.033,-3.0379638671875,-20.775268554688,23.467895507812
0.0335,1.8067626953125,-23.217651367188,21.185668945312
0.034,6.0909423828125,-25.059448242188,18.903442382812
0.0345,11.576293945312,-26.300659179688,14.739379882812
0.035,15.700317382812,-25.179565429688,9.5743408203125
0.0355,19.223754882812,-25.259643554688,6.1710205078125
0.036,22.707153320312,-23.217651367188,0.7257080078125
0.0365,25.269653320312,-21.335815429688,-3.8787841796875
0.037,25.469848632812,-17.932495117188,-7.5623779296875
0.0375,26.390747070312,-13.728393554688,-12.767456054688
0.038,25.149536132812,-9.2840576171875,-16.010620117188
0.0385,24.348754882812,-4.6795654296875,-19.854370117188
0.039,22.186645507812,0.1251220703125,-22.456909179688
0.0395,20.344848632812,4.8096923828125,-25.259643554688
0.04,15.780395507812,9.8145751953125,-25.700073242188
0.0405,10.855590820312,14.619262695312,-25.619995117188
0.041,7.5323486328125,17.742309570312,-25.379760742188
0.0415,1.4063720703125,21.626098632812,-23.257690429688
0.042,-3.3983154296875,24.028442382812,-20.935424804688
0.0425,-7.6424560546875,25.389770507812,-18.172729492188
0.043,-13.127807617188,26.430786132812,-13.768432617188
0.0435,-16.971557617188,25.069458007812,-8.7235107421875
0.044,-20.615112304688,24.989379882812,-4.9598388671875
0.0445,-23.578002929688,22.667114257812,0.4454345703125
0.045,-25.980346679688,20.545043945312,4.9698486328125
0.0455,-25.660034179688,16.380981445312,8.8936767578125
0.046,-26.420776367188,12.056762695312,14.018676757812
0.0465,-25.139526367188,7.8526611328125,16.981567382812
0.047,-24.098510742188,2.8077392578125,21.105590820312
0.0475,-21.616088867188,-2.0770263671875,23.387817382812
0.048,-19.293823242188,-6.8016357421875,25.790161132812
0.0485,-14.328979492188,-11.886596679688,25.910278320312
0.049,-9.4442138671875,-16.370971679688,25.429809570312
0.0495,-5.9608154296875,-19.373901367188,24.949340820312
0.05,0.5255126953125,-23.057495117188,22.346801757812
0.0505,5.1700439453125,-25.219604492188,19.984497070312
0.051,9.8546142578125,-25.980346679688,16.100708007812
0.0515,14.859497070312,-26.741088867188,11.976684570312
0.052,18.543090820312,-25.179565429688,6.8516845703125
0.0525,22.266723632812,-24.739135742188,2.6075439453125
0.053,24.829223632812,-22.096557617188,-2.6375732421875
0.0535,26.991333007812,-19.654174804688,-7.3221435546875
0.054,26.110473632812,-14.849487304688,-11.326049804688
0.0545,26.590942382812,-10.605346679688,-16.050659179688
0.055,25.069458007812,-6.5213623046875,-18.773315429688
0.0555,23.547973632812,-0.8358154296875,-22.897338867188
0.056,20.905395507812,3.7686767578125,-24.779174804688
0.0565,17.622192382812,8.9337158203125,-26.661010742188
0.057,12.737426757812,13.618286132812,-26.540893554688
0.0575,7.6925048828125,17.822387695312,-25.700073242188
0.058,3.8487548828125,20.785278320312,-24.779174804688
0.0585,-2.4373779296875,24.068481445312,-21.896362304688
0.059,-7.0018310546875,26.190551757812,-19.534057617188
0.0595,-12.086791992188,26.230590820312,-14.529174804688
0.06,-16.411010742188,26.751098632812,-10.885620117188
0.0605,-19.894409179688,24.989379882812,-5.6805419921875
0.061,-23.417846679688,24.028442382812,-1.1561279296875
0.0615,-25.299682617188,21.225708007812,3.5684814453125
0.062,-27.181518554688,18.302856445312,8.4532470703125
0.0625,-25.980346679688,13.097778320312,12.537231445312
0.063,-26.140502929688,8.9737548828125,16.901489257812
0.0635,-24.659057617188,4.9698486328125,19.463989257812
0.064,-22.777221679688,-0.8358154296875,23.347778320312
0.0645,-20.134643554688,-5.2401123046875,25.029418945312
0.065,-15.970581054688,-10.605346679688,26.110473632812
0.0655,-11.646362304688,-14.809448242188,26.030395507812
0.066,-6.4813232421875,-18.573120117188,24.749145507812
0.0665,-2.3172607421875,-21.455932617188,23.467895507812
0.067,3.3282470703125,-24.218627929688,20.745239257812
0.0675,8.0528564453125,-26.180541992188,18.062622070312
0.068,13.057739257812,-25.619995117188,12.617309570312
0.0685,16.901489257812,-26.100463867188,9.3341064453125
0.069,20.304809570312,-24.418823242188,4.2891845703125
0.0695,23.668090820312,-23.097534179688,-0.4754638671875
0.07,25.029418945312,-20.294799804688,-4.6795654296875
0.0705,26.590942382812,-17.011596679688,-9.5643310546875
0.071,25.429809570312,-12.046752929688,-13.448120117188
0.0715,25.229614257812,-7.9627685546875,-17.452026367188
0.072,23.828247070312,-3.9989013671875,-19.974487304688
0.0725,21.826293945312,1.5264892578125,-23.537963867188
0.073,18.943481445312,5.9307861328125,-25.059448242188
0.0735,14.098754882812,11.255981445312,-25.579956054688
0.074,10.615356445312,15.099731445312,-25.860229492188
0.0745,5.3302001953125,18.903442382812,-24.298706054688
0.075,0.8458251953125,21.706176757812,-22.697143554688
0.0755,-4.0389404296875,24.028442382812,-20.254760742188
0.076,-9.2039794921875,25.950317382812,-17.131713867188
0.0765,-13.848510742188,25.029418945312,-11.686401367188
0.077,-17.492065429688,25.469848632812,-8.4832763671875
0.0775,-20.855346679688,23.748168945312,-3.5584716796875
0.078,-23.858276367188,22.226684570312,1.1260986328125
0.0785,-24.859252929688,19.263793945312,5.1300048828125
0.079,-26.100463867188,15.420043945312,10.214965820312
0.0795,-25.179565429688,10.855590820312,14.058715820312
0.08,-24.699096679688,6.5714111328125,17.902465820312
0.0805,-23.097534179688,2.2872314453125,20.464965820312
0.081,-21.215698242188,-2.8377685546875,23.668090820312
0.0815,-17.812377929688,-7.6824951171875,25.069458007812
0.082,-12.767456054688,-12.767456054688,25.149536132812
0.0825,-9.4842529296875,-16.210815429688,25.309692382812
0.083,-3.8787841796875,-19.934448242188,23.467895507812
0.0835,1.0460205078125,-22.617065429688,21.425903320312
0.084,5.2501220703125,-24.538940429688,19.183715820312
0.0845,10.935668945312,-26.140502929688,15.219848632812
0.085,15.059692382812,-24.979370117188,9.9747314453125
0.0855,18.863403320312,-25.219604492188,6.5313720703125
0.086,22.106567382812,-23.337768554688,1.3663330078125
0.0865,24.909301757812,-21.495971679688,-3.3582763671875
0.087,25.349731445312,-18.092651367188,-7.2020263671875
0.0875,26.190551757812,-13.888549804688,-12.367065429688
0.088,25.269653320312,-9.6444091796875,-15.770385742188
0.0885,24.348754882812,-4.9598388671875,-19.574096679688
0.089,22.266723632812,-0.3553466796875,-22.176635742188
0.0895,20.344848632812,4.4093017578125,-24.939331054688
0.09,15.980590820312,9.6544189453125,-25.780151367188
0.0905,10.975708007812,14.379028320312,-25.419799804688
0.091,7.6524658203125,17.662231445312,-25.379760742188
0.0915,1.7667236328125,21.305786132812,-23.257690429688
0.092,-3.1981201171875,23.828247070312,-21.015502929688
0.0925,-7.2420654296875,25.109497070312,-18.212768554688
0.093,-13.007690429688,26.310668945312,-13.808471679688
0.0935,-16.651245117188,24.989379882812,-8.8836669921875
0.094,-20.374877929688,24.829223632812,-5.0399169921875
0.0945,-23.137573242188,22.546997070312,0.0450439453125
0.095,-25.539916992188,20.545043945312,4.5294189453125
0.0955,-25.419799804688,16.421020507812,8.6134033203125
0.096,-25.940307617188,11.976684570312,13.618286132812
0.0965,-24.979370117188,8.1329345703125,16.581176757812
0.097,-23.778198242188,3.0479736328125,20.464965820312
0.0975,-21.495971679688,-1.5965576171875,22.747192382812
0.098,-19.213745117188,-6.0008544921875,24.909301757812
0.0985,-14.569213867188,-11.286010742188,25.549926757812
0.099,-9.6043701171875,-15.530151367188,24.749145507812
0.0995,-6.2811279296875,-18.613159179688,24.548950195312
0.1,-0.2752685546875,-21.936401367188,21.906372070312
0.1005,4.2491455078125,-24.298706054688,19.904418945312
0.101,8.6134033203125,-24.859252929688,16.260864257812
0.1015,13.898559570312,-25.900268554688,12.096801757812
0.102,17.141723632812,-24.498901367188,7.4923095703125
0.1025,21.025512695312,-24.058471679688,3.2081298828125
0.103,23.267700195312,-21.656127929688,-1.4764404296875
0.1035,25.349731445312,-19.534057617188,-5.8006591796875
0.104,24.989379882812,-15.209838867188,-9.8846435546875
0.1045,25.149536132812,-10.805541992188,-14.489135742188
0.105,24.388793945312,-7.4422607421875,-17.171752929688
0.1055,22.667114257812,-1.9969482421875,-20.975463867188
0.106,20.665161132812,2.2471923828125,-23.057495117188
0.1065,17.542114257812,6.8917236328125,-24.538940429688
0.107,13.297973632812,11.896606445312,-25.339721679688
0.1075,8.3731689453125,15.740356445312,-24.218627929688
0.108,4.8497314453125,18.903442382812,-23.898315429688
0.1085,-0.7957763671875,21.746215820312,-21.175659179688
0.109,-4.9998779296875,24.188598632812,-19.494018554688
0.1095,-9.6444091796875,24.188598632812,-14.929565429688
0.11,-14.409057617188,25.029418945312,-11.165893554688
0.1105,-17.452026367188,23.908325195312,-7.0018310546875
0.111,-21.175659179688,23.067504882812,-2.4373779296875
0.1115,-22.937377929688,20.745239257812,1.7667236328125
0.112,-24.699096679688,18.142700195312,6.0909423828125
0.1125,-24.378784179688,13.778442382812,10.255004882812
0.113,-24.218627929688,9.3341064453125,14.539184570312
0.1135,-23.738159179688,6.2510986328125,17.141723632812
0.114,-21.776245117188,0.8057861328125,20.785278320312
0.1145,-20.014526367188,-3.2781982421875,23.027465820312
0.115,-15.970581054688,-8.0828857421875,23.708129882812
0.1155,-12.246948242188,-12.687377929688,24.629028320312
0.116,-7.4422607421875,-16.210815429688,23.347778320312
0.1165,-3.4783935546875,-19.453979492188,22.587036132812
0.117,1.6466064453125,-21.856323242188,20.064575195312
0.1175,6.1309814453125,-24.258666992188,18.062622070312
0.118,10.815551757812,-23.858276367188,13.057739257812
0.1185,15.059692382812,-24.498901367188,9.5743408203125
0.119,18.102661132812,-23.537963867188,5.5704345703125
0.1195,21.706176757812,-22.296752929688,0.7657470703125
0.12,23.227661132812,-19.894409179688,-3.2381591796875
0.1205,24.468872070312,-16.891479492188,-7.6824951171875
0.121,24.308715820312,-12.687377929688,-11.766479492188
0.1215,23.668090820312,-8.2830810546875,-15.690307617188
0.122,23.067504882812,-4.8397216796875,-18.453002929688
0.1225,21.025512695312,0.5655517578125,-21.656127929688
0.123,18.943481445312,4.8096923828125,-23.898315429688
0.1235,14.058715820312,9.7344970703125,-23.898315429688
0.124,10.855590820312,13.898559570312,-24.859252929688
0.1245,5.9307861328125,17.341918945312,-23.377807617188
0.125,1.3663330078125,20.585083007812,-22.096557617188
0.1255,-3.1981201171875,22.546997070312,-19.694213867188
0.126,-8.1229248046875,24.709106445312,-16.971557617188
0.1265,-12.567260742188,23.988403320312,-11.886596679688
0.127,-16.491088867188,24.268676757812,-8.3231201171875
0.1275,-19.534057617188,23.107543945312,-4.1590576171875
0.128,-22.577026367188,21.505981445312,0.6055908203125
0.1285,-23.778198242188,18.863403320312,4.4893798828125
0.129,-24.458862304688,14.899536132812,9.0938720703125
0.1295,-24.418823242188,11.095825195312,12.977661132812
0.13,-23.417846679688,6.5313720703125,16.621215820312
0.1305,-22.416870117188,2.7276611328125,19.423950195312
0.131,-20.334838867188,-2.1170654296875,22.146606445312
0.1315,-17.652221679688,-6.8416748046875,24.148559570312
0.132,-12.447143554688,-11.526245117188,23.628051757812
0.1325,-9.3641357421875,-15.209838867188,24.228637695312
0.133,-4.3592529296875,-18.412963867188,22.426879882812
0.1335,0.5655517578125,-21.495971679688,20.745239257812
0.134,4.4093017578125,-22.977416992188,18.503051757812
0.1345,9.7745361328125,-24.619018554688,14.819458007812
0.135,13.578247070312,-23.858276367188,10.375122070312
0.1355,17.462036132812,-23.778198242188,6.4112548828125
0.136,20.304809570312,-22.496948242188,2.4073486328125
0.1365,22.907348632812,-20.735229492188,-2.1971435546875
0.137,23.828247070312,-17.892456054688,-6.0408935546875
0.1375,23.948364257812,-13.528198242188,-10.565307617188
0.138,24.068481445312,-10.204956054688,-14.088745117188
0.1385,22.747192382812,-5.4803466796875,-17.371948242188
0.139,21.505981445312,-1.4364013671875,-20.294799804688
0.1395,19.504028320312,2.8077392578125,-22.416870117188
0.14,16.020629882812,7.9727783203125,-24.098510742188
0.1405,11.175903320312,12.096801757812,-23.377807617188
0.141,7.9327392578125,15.780395507812,-23.818237304688
0.1415,3.1680908203125,18.703247070312,-22.016479492188
0.142,-1.6365966796875,21.706176757812,-20.254760742188
0.1425,-5.3602294921875,22.787231445312,-17.772338867188
0.143,-10.765502929688,23.988403320312,-13.648315429688
0.1435,-14.128784179688,23.507934570312,-9.8846435546875
0.144,-17.972534179688,23.027465820312,-5.6004638671875
0.1445,-20.454956054688,21.666137695312,-1.7967529296875
0.145,-22.577026367188,19.744262695312,2.3272705078125
0.1455,-23.457885742188,16.541137695312,6.4512939453125
0.146,-23.137573242188,12.016723632812,10.815551757812
0.1465,-23.537963867188,9.0538330078125,14.138793945312
0.147,-22.056518554688,4.3692626953125,17.421997070312
0.1475,-20.735229492188,0.1251220703125,20.344848632812
0.148,-18.573120117188,-3.7186279296875,21.906372070312
0.1485,-14.729370117188,-9.0438232421875,23.467895507812
0.149,-10.285034179688,-12.687377929688,22.707153320312
0.1495,-6.7615966796875,-16.370971679688,22.787231445312
0.15,-2.0770263671875,-19.013549804688,20.785278320312
0.1505,2.3673095703125,-21.776245117188,19.263793945312
0.151,6.4112548828125,-22.577026367188,16.140747070312
0.1515,11.416137695312,-23.337768554688,11.896606445312
0.152,14.579223632812,-23.137573242188,8.6534423828125
0.1525,18.503051757812,-22.416870117188,4.0089111328125
0.153,20.785278320312,-20.895385742188,0.1651611328125
0.1535,22.426879882812,-18.893432617188,-3.5985107421875
0.154,23.307739257812,-15.410034179688,-7.9627685546875
0.1545,22.707153320312,-10.845581054688,-11.966674804688
0.155,22.987426757812,-8.0028076171875,-15.129760742188
0.1555,21.225708007812,-3.1580810546875,-18.292846679688
0.156,20.024536132812,0.9659423828125,-21.135620117188
0.1565,17.101684570312,4.9698486328125,-22.176635742188
0.157,13.177856445312,10.134887695312,-23.457885742188
0.1575,9.1339111328125,13.498168945312,-22.777221679688
0.158,5.0499267578125,17.261840820312,-22.416870117188
0.1585,0.4854736328125,19.624145507812,-20.254760742188
0.159,-3.5985107421875,22.186645507812,-18.933471679688
0.1595,-8.0828857421875,22.707153320312,-15.009643554688
0.16,-12.687377929688,22.987426757812,-10.765502929688
0.1605,-15.690307617188,22.907348632812,-7.8426513671875
0.161,-19.293823242188,21.746215820312,-2.9979248046875
0.1615,-21.335815429688,19.984497070312,0.8057861328125
0.162,-22.456909179688,17.542114257812,4.4493408203125
0.1625,-23.217651367188,13.818481445312,9.0137939453125
0.163,-22.456909179688,9.4141845703125,12.737426757812
0.1635,-22.496948242188,6.3712158203125,15.900512695312
0.164,-20.575073242188,1.5665283203125,18.823364257812
0.1645,-19.453979492188,-2.4373779296875,21.626098632812
0.165,-15.610229492188,-6.7215576171875,21.946411132812
0.1655,-11.806518554688,-11.486206054688,22.907348632812
0.166,-8.0828857421875,-14.569213867188,22.346801757812
0.1665,-3.5184326171875,-18.172729492188,21.345825195312
0.167,0.8858642578125,-20.214721679688,19.183715820312
0.1675,4.8096923828125,-22.376831054688,17.462036132812
0.168,9.4542236328125,-22.777221679688,13.297973632812
0.1685,13.498168945312,-22.617065429688,9.1339111328125
0.169,16.581176757812,-22.657104492188,6.1710205078125
0.1695,19.824340820312,-21.135620117188,1.3262939453125
0.17,21.786254882812,-19.293823242188,-2.4373779296875
0.1705,22.226684570312,-16.290893554688,-5.9207763671875
0.171,23.027465820312,-12.687377929688,-10.445190429688
0.1715,22.066528320312,-8.5633544921875,-13.648315429688
0.172,21.786254882812,-4.9998779296875,-17.011596679688
0.1725,19.824340820312,-0.5155029296875,-19.534057617188
0.173,18.463012695312,3.5284423828125,-22.096557617188
0.1735,14.018676757812,7.9327392578125,-22.096557617188
0.174,10.415161132812,12.216918945312,-22.777221679688
0.1745,7.0518798828125,15.179809570312,-22.296752929688
0.175,2.0069580078125,18.623168945312,-20.775268554688
0.1755,-1.9569091796875,20.585083007812,-18.893432617188
0.176,-6.1209716796875,22.186645507812,-16.411010742188
0.1765,-10.565307617188,22.587036132812,-12.487182617188
0.177,-14.208862304688,22.066528320312,-8.3631591796875
0.1775,-17.331909179688,22.026489257812,-5.2801513671875
0.178,-19.934448242188,20.264770507812,-0.8758544921875
