wavelength,x,y,z
0.0,-0.670654296875,-6.476318359375,4.934814453125
0.0005,-1.351318359375,-6.516357421875,5.735595703125
0.001,-2.432373046875,-5.875732421875,6.296142578125
0.0015,-3.833740234375,-4.634521484375,6.696533203125
0.002,-4.914794921875,-3.473388671875,6.976806640625
0.0025,-5.675537109375,-2.232177734375,6.816650390625
0.003,-6.115966796875,-1.191162109375,6.536376953125
0.0035,-6.236083984375,-0.310302734375,6.055908203125
0.004,-6.115966796875,0.850830078125,5.175048828125
0.0045,-5.915771484375,2.172119140625,3.973876953125
0.005,-5.675537109375,3.413330078125,2.732666015625
0.0055,-5.195068359375,4.334228515625,1.571533203125
0.006,-4.834716796875,5.094970703125,0.610595703125
0.0065,-4.033935546875,5.415283203125,-0.510498046875
0.007,-2.832763671875,5.615478515625,-1.791748046875
0.0075,-1.591552734375,5.895751953125,-3.233154296875
0.008,-0.350341796875,5.815673828125,-4.514404296875
0.0085,0.610595703125,5.775634765625,-5.315185546875
0.009,1.291259765625,5.655517578125,-6.115966796875
0.0095,2.412353515625,4.854736328125,-6.556396484375
0.01,3.813720703125,3.573486328125,-6.916748046875
0.0105,4.854736328125,2.412353515625,-7.076904296875
0.011,5.455322265625,1.171142578125,-6.796630859375
0.0115,5.815673828125,0.290283203125,-6.556396484375
0.012,5.815673828125,-0.750732421875,-5.915771484375
0.0125,5.655517578125,-1.951904296875,-4.874755859375
0.013,5.455322265625,-3.193115234375,-3.713623046875
0.0135,5.175048828125,-4.434326171875,-2.472412109375
0.014,4.774658203125,-5.275146484375,-1.311279296875
0.0145,4.334228515625,-5.995849609375,-0.430419921875
0.015,3.373291015625,-6.236083984375,0.730712890625
0.0155,2.052001953125,-6.436279296875,2.212158203125
0.016,0.850830078125,-6.676513671875,3.653564453125
0.0165,-0.470458984375,-6.556396484375,4.734619140625
0.017,-1.151123046875,-6.596435546875,5.575439453125
0.0175,-2.072021484375,-6.196044921875,6.216064453125
0.018,-3.353271484375,-5.114990234375,6.656494140625
0.0185,-4.674560546875,-3.873779296875,6.976806640625
0.019,-5.595458984375,-2.592529296875,6.976806640625
0.0195,-6.115966796875,-1.431396484375,6.616455078125
0.02,-6.316162109375,-0.590576171875,6.336181640625
0.0205,-6.156005859375,0.570556640625,5.495361328125
0.021,-5.955810546875,1.851806640625,4.294189453125
0.0215,-5.755615234375,3.093017578125,3.133056640625
0.022,-5.395263671875,4.134033203125,1.851806640625
0.0225,-4.914794921875,4.934814453125,0.810791015625
0.023,-4.314208984375,5.415283203125,-0.190185546875
0.0235,-3.233154296875,5.575439453125,-1.311279296875
0.024,-1.951904296875,5.735595703125,-2.792724609375
0.0245,-0.710693359375,5.815673828125,-4.154052734375
0.025,0.410400390625,5.735595703125,-5.074951171875
0.0255,1.051025390625,5.735595703125,-5.795654296875
0.026,2.011962890625,5.135009765625,-6.356201171875
0.0265,3.333251953125,3.973876953125,-6.716552734375
0.027,4.414306640625,2.852783203125,-6.916748046875
0.0275,5.215087890625,1.611572265625,-6.796630859375
0.028,5.615478515625,0.610595703125,-6.516357421875
0.0285,5.735595703125,-0.350341796875,-6.156005859375
0.029,5.615478515625,-1.311279296875,-5.315185546875
0.0295,5.375244140625,-2.552490234375,-4.194091796875
0.03,5.175048828125,-3.753662109375,-3.032958984375
0.0305,4.814697265625,-4.714599609375,-1.871826171875
0.031,4.494384765625,-5.475341796875,-0.910888671875
0.0315,3.773681640625,-5.875732421875,0.130126953125
0.032,2.692626953125,-6.115966796875,1.291259765625
0.0325,1.531494140625,-6.436279296875,2.692626953125
0.033,0.290283203125,-6.436279296875,3.973876953125
0.0335,-0.630615234375,-6.396240234375,4.814697265625
0.034,-1.391357421875,-6.396240234375,5.615478515625
0.0345,-2.472412109375,-5.635498046875,6.135986328125
0.035,-3.793701171875,-4.514404296875,6.536376953125
0.0355,-4.834716796875,-3.393310546875,6.736572265625
0.036,-5.515380859375,-2.192138671875,6.536376953125
0.0365,-5.955810546875,-1.271240234375,6.376220703125
0.037,-5.995849609375,-0.350341796875,5.855712890625
0.0375,-5.875732421875,0.810791015625,4.934814453125
0.038,-5.755615234375,2.052001953125,3.853759765625
0.0385,-5.475341796875,3.213134765625,2.732666015625
0.039,-5.114990234375,4.134033203125,1.571533203125
0.0395,-4.754638671875,4.854736328125,0.650634765625
0.04,-3.873779296875,5.135009765625,-0.430419921875
0.0405,-2.712646484375,5.335205078125,-1.751708984375
0.041,-1.591552734375,5.655517578125,-3.153076171875
0.0415,-0.510498046875,5.615478515625,-4.194091796875
0.042,0.370361328125,5.695556640625,-5.074951171875
0.0425,1.171142578125,5.455322265625,-5.755615234375
0.043,2.292236328125,4.614501953125,-6.156005859375
0.0435,3.533447265625,3.493408203125,-6.516357421875
0.044,4.494384765625,2.372314453125,-6.596435546875
0.0445,5.054931640625,1.291259765625,-6.396240234375
0.045,5.415283203125,0.450439453125,-6.276123046875
0.0455,5.375244140625,-0.550537109375,-5.635498046875
0.046,5.215087890625,-1.631591796875,-4.674560546875
0.0465,5.094970703125,-2.832763671875,-3.673583984375
0.047,4.814697265625,-3.833740234375,-2.592529296875
0.0475,4.494384765625,-4.714599609375,-1.591552734375
0.048,4.134033203125,-5.315185546875,-0.710693359375
0.0485,3.253173828125,-5.675537109375,0.370361328125
0.049,2.252197265625,-5.915771484375,1.651611328125
0.0495,1.131103515625,-6.115966796875,2.932861328125
0.05,0.170166015625,-6.115966796875,3.893798828125
0.0505,-0.630615234375,-6.276123046875,4.814697265625
0.051,-1.511474609375,-5.915771484375,5.415283203125
0.0515,-2.712646484375,-4.994873046875,5.895751953125
0.052,-3.833740234375,-4.033935546875,6.256103515625
0.0525,-4.674560546875,-2.952880859375,6.296142578125
0.053,-5.235107421875,-1.951904296875,6.135986328125
0.0535,-5.515380859375,-1.191162109375,5.935791015625
0.054,-5.515380859375,-0.310302734375,5.335205078125
0.0545,-5.435302734375,0.890869140625,4.454345703125
0.055,-5.355224609375,2.011962890625,3.533447265625
0.0555,-5.114990234375,3.012939453125,2.452392578125
0.056,-4.834716796875,3.853759765625,1.531494140625
0.0565,-4.314208984375,4.374267578125,0.650634765625
0.057,-3.473388671875,4.734619140625,-0.510498046875
0.0575,-2.552490234375,5.094970703125,-1.751708984375
0.058,-1.471435546875,5.255126953125,-2.952880859375
0.0585,-0.630615234375,5.375244140625,-3.873779296875
0.059,0.170166015625,5.495361328125,-4.754638671875
0.0595,1.131103515625,5.094970703125,-5.315185546875
0.06,2.292236328125,4.214111328125,-5.835693359375
0.0605,3.333251953125,3.253173828125,-6.156005859375
0.061,4.134033203125,2.212158203125,-6.156005859375
0.0615,4.694580078125,1.331298828125,-6.115966796875
0.062,4.934814453125,0.530517578125,-5.835693359375
0.0625,4.934814453125,-0.510498046875,-5.235107421875
0.063,4.934814453125,-1.551513671875,-4.434326171875
0.0635,4.854736328125,-2.632568359375,-3.473388671875
0.064,4.614501953125,-3.593505859375,-2.512451171875
0.0645,4.454345703125,-4.514404296875,-1.631591796875
0.065,3.853759765625,-4.994873046875,-0.710693359375
0.0655,2.972900390625,-5.315185546875,0.530517578125
0.066,2.092041015625,-5.755615234375,1.731689453125
0.0665,1.091064453125,-5.875732421875,2.852783203125
0.067,0.330322265625,-6.115966796875,3.813720703125
0.0675,-0.590576171875,-6.075927734375,4.614501953125
0.068,-1.631591796875,-5.515380859375,5.255126953125
0.0685,-2.832763671875,-4.634521484375,5.735595703125
0.069,-3.833740234375,-3.673583984375,6.015869140625
0.0695,-4.554443359375,-2.632568359375,5.935791015625
0.07,-5.074951171875,-1.871826171875,5.935791015625
0.0705,-5.195068359375,-0.990966796875,5.495361328125
0.071,-5.155029296875,0.090087890625,4.814697265625
0.0715,-5.235107421875,1.131103515625,4.053955078125
0.072,-5.114990234375,2.212158203125,3.093017578125
0.0725,-4.914794921875,3.093017578125,2.092041015625
0.073,-4.594482421875,3.813720703125,1.291259765625
0.0735,-3.953857421875,4.294189453125,0.330322265625
0.074,-3.072998046875,4.654541015625,-0.910888671875
0.0745,-2.112060546875,5.054931640625,-2.152099609375
0.075,-1.231201171875,5.135009765625,-3.153076171875
0.0755,-0.510498046875,5.375244140625,-4.073974609375
0.076,0.450439453125,5.175048828125,-4.794677734375
0.0765,1.531494140625,4.494384765625,-5.315185546875
0.077,2.572509765625,3.733642578125,-5.795654296875
0.0775,3.533447265625,2.692626953125,-5.955810546875
0.078,4.174072265625,1.771728515625,-5.955810546875
0.0785,4.614501953125,1.051025390625,-5.915771484375
0.079,4.734619140625,0.210205078125,-5.435302734375
0.0795,4.734619140625,-0.870849609375,-4.794677734375
0.08,4.814697265625,-1.951904296875,-3.953857421875
0.0805,4.614501953125,-2.992919921875,-3.072998046875
0.081,4.494384765625,-3.953857421875,-2.152099609375
0.0815,4.093994140625,-4.514404296875,-1.271240234375
0.082,3.413330078125,-4.994873046875,-0.270263671875
0.0825,2.612548828125,-5.475341796875,1.010986328125
0.083,1.611572265625,-5.755615234375,2.212158203125
0.0835,0.810791015625,-5.915771484375,3.173095703125
0.084,0.050048828125,-6.115966796875,4.093994140625
0.0845,-0.990966796875,-5.755615234375,4.814697265625
0.085,-2.192138671875,-4.994873046875,5.415283203125
0.0855,-3.313232421875,-4.114013671875,5.815673828125
0.086,-4.114013671875,-3.113037109375,5.895751953125
0.0865,-4.794677734375,-2.272216796875,5.895751953125
0.087,-5.074951171875,-1.471435546875,5.695556640625
0.0875,-5.114990234375,-0.510498046875,5.094970703125
0.088,-5.195068359375,0.610595703125,4.414306640625
0.0885,-5.155029296875,1.731689453125,3.493408203125
0.089,-4.994873046875,2.692626953125,2.532470703125
0.0895,-4.794677734375,3.573486328125,1.691650390625
0.09,-4.194091796875,4.093994140625,0.770751953125
0.0905,-3.353271484375,4.494384765625,-0.510498046875
0.091,-2.552490234375,4.974853515625,-1.671630859375
0.0915,-1.591552734375,5.094970703125,-2.792724609375
0.092,-0.790771484375,5.335205078125,-3.793701171875
0.0925,0.090087890625,5.335205078125,-4.594482421875
0.093,1.131103515625,4.814697265625,-5.195068359375
0.0935,2.332275390625,3.973876953125,-5.755615234375
0.094,3.373291015625,2.972900390625,-6.035888671875
0.0945,4.093994140625,1.931884765625,-6.035888671875
0.095,4.614501953125,1.211181640625,-6.035888671875
0.0955,4.774658203125,0.330322265625,-5.595458984375
0.096,4.814697265625,-0.750732421875,-4.874755859375
0.0965,4.814697265625,-1.911865234375,-4.114013671875
0.097,4.734619140625,-2.952880859375,-3.153076171875
0.0975,4.494384765625,-3.873779296875,-2.192138671875
0.098,4.254150390625,-4.634521484375,-1.351318359375
0.0985,3.573486328125,-5.034912109375,-0.350341796875
0.099,2.652587890625,-5.435302734375,0.970947265625
0.0995,1.691650390625,-5.795654296875,2.212158203125
0.1,0.770751953125,-5.915771484375,3.253173828125
0.1005,0.050048828125,-6.156005859375,4.214111328125
0.101,-0.990966796875,-5.915771484375,4.934814453125
0.1015,-2.192138671875,-5.114990234375,5.495361328125
0.102,-3.353271484375,-4.194091796875,5.975830078125
0.1025,-4.314208984375,-3.072998046875,6.095947265625
0.103,-4.954833984375,-2.112060546875,6.015869140625
0.1035,-5.275146484375,-1.351318359375,5.815673828125
0.104,-5.315185546875,-0.470458984375,5.255126953125
0.1045,-5.275146484375,0.770751953125,4.414306640625
0.105,-5.275146484375,1.931884765625,3.493408203125
0.1055,-5.074951171875,2.972900390625,2.452392578125
0.106,-4.834716796875,3.813720703125,1.531494140625
0.1065,-4.274169921875,4.334228515625,0.610595703125
0.107,-3.393310546875,4.694580078125,-0.590576171875
0.1075,-2.432373046875,5.094970703125,-1.871826171875
0.108,-1.391357421875,5.255126953125,-3.072998046875
0.1085,-0.590576171875,5.415283203125,-3.993896484375
0.109,0.250244140625,5.455322265625,-4.834716796875
0.1095,1.291259765625,4.934814453125,-5.475341796875
0.11,2.532470703125,3.973876953125,-5.915771484375
0.1105,3.613525390625,2.972900390625,-6.276123046875
0.111,4.374267578125,1.931884765625,-6.236083984375
0.1115,4.854736328125,1.010986328125,-6.156005859375
0.112,5.054931640625,0.210205078125,-5.755615234375
0.1125,4.974853515625,-0.910888671875,-5.034912109375
0.113,4.974853515625,-2.072021484375,-4.114013671875
0.1135,4.854736328125,-3.193115234375,-3.072998046875
0.114,4.534423828125,-4.114013671875,-2.072021484375
0.1145,4.334228515625,-4.914794921875,-1.271240234375
0.115,3.653564453125,-5.275146484375,-0.310302734375
0.1155,2.612548828125,-5.635498046875,1.051025390625
0.116,1.651611328125,-5.995849609375,2.372314453125
0.1165,0.610595703125,-6.075927734375,3.493408203125
0.117,-0.230224609375,-6.236083984375,4.374267578125
0.1175,-1.071044921875,-6.115966796875,5.135009765625
0.118,-2.272216796875,-5.355224609375,5.735595703125
0.1185,-3.553466796875,-4.314208984375,6.216064453125
0.119,-4.514404296875,-3.193115234375,6.376220703125
0.1195,-5.155029296875,-2.112060546875,6.256103515625
0.12,-5.595458984375,-1.311279296875,6.095947265625
0.1205,-5.635498046875,-0.430419921875,5.495361328125
0.121,-5.515380859375,0.850830078125,4.534423828125
0.1215,-5.515380859375,2.052001953125,3.573486328125
0.122,-5.275146484375,3.213134765625,2.492431640625
0.1225,-4.994873046875,4.093994140625,1.491455078125
0.123,-4.514404296875,4.734619140625,0.570556640625
0.1235,-3.633544921875,4.974853515625,-0.590576171875
0.124,-2.472412109375,5.295166015625,-1.991943359375
0.1245,-1.311279296875,5.615478515625,-3.353271484375
0.125,-0.350341796875,5.615478515625,-4.354248046875
0.1255,0.450439453125,5.735595703125,-5.235107421875
0.126,1.451416015625,5.215087890625,-5.875732421875
0.1265,2.772705078125,4.134033203125,-6.356201171875
0.127,3.973876953125,3.052978515625,-6.716552734375
0.1275,4.854736328125,1.851806640625,-6.676513671875
0.128,5.335205078125,0.850830078125,-6.436279296875
0.1285,5.575439453125,-0.150146484375,-6.156005859375
0.129,5.455322265625,-1.231201171875,-5.315185546875
0.1295,5.295166015625,-2.432373046875,-4.154052734375
0.13,5.175048828125,-3.713623046875,-2.992919921875
0.1305,4.814697265625,-4.674560546875,-1.871826171875
0.131,4.494384765625,-5.475341796875,-0.950927734375
0.1315,3.773681640625,-5.875732421875,0.130126953125
0.132,2.612548828125,-6.115966796875,1.411376953125
0.1325,1.371337890625,-6.396240234375,2.932861328125
0.133,0.170166015625,-6.436279296875,4.174072265625
0.1335,-0.710693359375,-6.436279296875,5.054931640625
0.134,-1.471435546875,-6.316162109375,5.775634765625
0.1345,-2.712646484375,-5.475341796875,6.376220703125
0.135,-4.154052734375,-4.194091796875,6.696533203125
0.1355,-5.155029296875,-3.072998046875,6.896728515625
0.136,-5.795654296875,-1.831787109375,6.656494140625
0.1365,-6.156005859375,-0.910888671875,6.376220703125
0.137,-6.115966796875,0.130126953125,5.735595703125
0.1375,-5.955810546875,1.331298828125,4.654541015625
0.138,-5.755615234375,2.692626953125,3.453369140625
0.1385,-5.515380859375,3.853759765625,2.252197265625
0.139,-5.074951171875,4.654541015625,1.131103515625
0.1395,-4.554443359375,5.295166015625,0.210205078125
0.14,-3.593505859375,5.495361328125,-0.950927734375
0.1405,-2.272216796875,5.655517578125,-2.392333984375
0.141,-1.071044921875,5.895751953125,-3.833740234375
0.1415,0.170166015625,5.775634765625,-4.874755859375
0.142,0.890869140625,5.735595703125,-5.635498046875
0.1425,1.731689453125,5.415283203125,-6.276123046875
0.143,2.932861328125,4.414306640625,-6.676513671875
0.1435,4.254150390625,3.133056640625,-6.996826171875
0.144,5.135009765625,1.931884765625,-6.996826171875
0.1445,5.615478515625,0.730712890625,-6.676513671875
0.145,5.855712890625,-0.190185546875,-6.396240234375
0.1455,5.735595703125,-1.151123046875,-5.635498046875
0.146,5.495361328125,-2.392333984375,-4.474365234375
0.1465,5.335205078125,-3.673583984375,-3.233154296875
0.147,4.974853515625,-4.714599609375,-2.072021484375
0.1475,4.534423828125,-5.515380859375,-0.990966796875
0.148,4.093994140625,-6.075927734375,0.010009765625
0.1485,3.052978515625,-6.236083984375,1.091064453125
0.149,1.691650390625,-6.436279296875,2.532470703125
0.1495,0.490478515625,-6.596435546875,3.933837890625
0.15,-0.630615234375,-6.476318359375,4.894775390625
0.1505,-1.311279296875,-6.476318359375,5.695556640625
0.151,-2.312255859375,-5.955810546875,6.256103515625
0.1515,-3.713623046875,-4.754638671875,6.696533203125
0.152,-4.834716796875,-3.553466796875,6.976806640625
0.1525,-5.715576171875,-2.392333984375,6.856689453125
0.153,-6.115966796875,-1.271240234375,6.536376953125
0.1535,-6.276123046875,-0.390380859375,6.135986328125
0.154,-6.115966796875,0.770751953125,5.255126953125
0.1545,-5.875732421875,2.052001953125,4.053955078125
0.155,-5.715576171875,3.333251953125,2.852783203125
0.1555,-5.275146484375,4.294189453125,1.651611328125
0.156,-4.874755859375,5.054931640625,0.690673828125
0.1565,-4.154052734375,5.415283203125,-0.390380859375
0.157,-2.952880859375,5.615478515625,-1.631591796875
0.1575,-1.671630859375,5.895751953125,-3.193115234375
0.158,-0.470458984375,5.895751953125,-4.434326171875
0.1585,0.530517578125,5.815673828125,-5.275146484375
0.159,1.211181640625,5.735595703125,-6.035888671875
0.1595,2.372314453125,4.974853515625,-6.556396484375
0.16,3.773681640625,3.693603515625,-6.916748046875
0.1605,4.814697265625,2.452392578125,-7.116943359375
0.161,5.455322265625,1.251220703125,-6.876708984375
0.1615,5.815673828125,0.290283203125,-6.596435546875
0.162,5.855712890625,-0.670654296875,-6.035888671875
0.1625,5.695556640625,-1.871826171875,-5.034912109375
0.163,5.495361328125,-3.193115234375,-3.793701171875
0.1635,5.255126953125,-4.434326171875,-2.552490234375
0.164,4.814697265625,-5.315185546875,-1.351318359375
0.1645,4.414306640625,-6.035888671875,-0.470458984375
0.165,3.453369140625,-6.276123046875,0.730712890625
0.1655,2.172119140625,-6.476318359375,2.172119140625
0.166,0.890869140625,-6.716552734375,3.653564453125
0.1665,-0.390380859375,-6.596435546875,4.814697265625
0.167,-1.231201171875,-6.556396484375,5.615478515625
0.1675,-2.031982421875,-6.276123046875,6.256103515625
0.168,-3.353271484375,-5.235107421875,6.776611328125
0.1685,-4.714599609375,-3.913818359375,7.056884765625
0.169,-5.715576171875,-2.672607421875,7.096923828125
0.1695,-6.236083984375,-1.431396484375,6.736572265625
0.17,-6.436279296875,-0.510498046875,6.416259765625
0.1705,-6.276123046875,0.610595703125,5.615478515625
0.171,-6.035888671875,1.931884765625,4.334228515625
0.1715,-5.915771484375,3.213134765625,3.133056640625
0.172,-5.475341796875,4.334228515625,1.851806640625
0.1725,-4.994873046875,5.094970703125,0.770751953125
0.173,-4.354248046875,5.575439453125,-0.310302734375
0.1735,-3.273193359375,5.735595703125,-1.431396484375
0.174,-1.871826171875,5.895751953125,-2.952880859375
0.1745,-0.630615234375,6.015869140625,-4.354248046875
0.175,0.530517578125,5.815673828125,-5.275146484375
0.1755,1.211181640625,5.775634765625,-5.995849609375
0.176,2.132080078125,5.175048828125,-6.476318359375
0.1765,3.453369140625,3.933837890625,-6.836669921875
0.177,4.574462890625,2.732666015625,-7.076904296875
0.1775,5.375244140625,1.571533203125,-6.916748046875
0.178,5.735595703125,0.490478515625,-6.596435546875
0.1785,5.855712890625,-0.470458984375,-6.196044921875
0.179,5.695556640625,-1.431396484375,-5.315185546875
0.1795,5.415283203125,-2.672607421875,-4.154052734375
0.18,5.255126953125,-3.873779296875,-2.952880859375
0.1805,4.814697265625,-4.834716796875,-1.831787109375
0.181,4.454345703125,-5.595458984375,-0.830810546875
0.1815,3.773681640625,-5.955810546875,0.170166015625
0.182,2.692626953125,-6.156005859375,1.291259765625
0.1825,1.531494140625,-6.396240234375,2.692626953125
0.183,0.290283203125,-6.396240234375,3.973876953125
0.1835,-0.670654296875,-6.396240234375,4.814697265625
0.184,-1.391357421875,-6.396240234375,5.615478515625
0.1845,-2.432373046875,-5.755615234375,6.135986328125
0.185,-3.713623046875,-4.594482421875,6.496337890625
0.1855,-4.754638671875,-3.513427734375,6.776611328125
0.186,-5.475341796875,-2.272216796875,6.576416015625
0.1865,-5.915771484375,-1.351318359375,6.376220703125
0.187,-5.995849609375,-0.510498046875,5.935791015625
0.1875,-5.835693359375,0.610595703125,5.094970703125
0.188,-5.755615234375,1.851806640625,4.053955078125
