wavelength,x,y,z
0.0,13.222900390625,8.378173828125,-21.571044921875
0.0005,9.619384765625,12.181884765625,-21.731201171875
0.001,6.896728515625,14.704345703125,-21.410888671875
0.0015,2.052001953125,17.667236328125,-19.529052734375
0.002,-2.192138671875,19.869384765625,-17.647216796875
0.0025,-6.996826171875,21.430908203125,-14.404052734375
0.003,-10.920654296875,22.111572265625,-11.240966796875
0.0035,-14.163818359375,21.510986328125,-7.557373046875
0.004,-16.966552734375,21.270751953125,-4.554443359375
0.0045,-19.368896484375,19.428955078125,-0.390380859375
0.005,-21.490966796875,17.146728515625,4.013916015625
0.0055,-21.531005859375,13.302978515625,7.897705078125
0.006,-22.171630859375,10.219970703125,11.581298828125
0.0065,-21.531005859375,7.056884765625,14.063720703125
0.007,-20.610107421875,3.012939453125,17.066650390625
0.0075,-18.888427734375,-1.151123046875,19.228759765625
0.008,-15.885498046875,-6.156005859375,21.150634765625
0.0085,-12.281982421875,-10.199951171875,21.470947265625
0.009,-8.678466796875,-13.723388671875,21.230712890625
0.0095,-5.835693359375,-16.045654296875,20.790283203125
0.01,-1.031005859375,-18.848388671875,18.788330078125
0.0105,3.373291015625,-21.130615234375,16.786376953125
0.011,8.258056640625,-21.931396484375,12.822509765625
0.0115,11.701416015625,-22.652099609375,10.179931640625
0.012,14.744384765625,-21.971435546875,6.536376953125
0.0125,17.547119140625,-21.290771484375,3.133056640625
0.013,19.509033203125,-19.288818359375,-0.870849609375
0.0135,21.470947265625,-16.566162109375,-5.475341796875
0.014,21.150634765625,-12.642333984375,-9.118896484375
0.0145,21.631103515625,-9.639404296875,-12.522216796875
0.015,21.110595703125,-6.716552734375,-14.804443359375
0.0155,19.709228515625,-2.392333984375,-17.647216796875
0.016,17.947509765625,1.891845703125,-19.809326171875
0.0165,14.223876953125,6.896728515625,-21.130615234375
0.017,11.140869140625,10.500244140625,-21.571044921875
0.0175,7.497314453125,13.743408203125,-21.010498046875
0.018,4.093994140625,16.145751953125,-19.969482421875
0.0185,-0.390380859375,18.628173828125,-18.087646484375
0.019,-5.114990234375,20.950439453125,-15.765380859375
0.0195,-9.479248046875,21.070556640625,-11.601318359375
0.02,-12.642333984375,21.671142578125,-9.118896484375
0.0205,-15.565185546875,20.990478515625,-5.635498046875
0.021,-18.207763671875,19.869384765625,-1.911865234375
0.0215,-19.969482421875,17.787353515625,1.971923828125
0.022,-21.571044921875,14.744384765625,6.536376953125
0.0225,-21.290771484375,11.060791015625,9.859619140625
0.023,-21.370849609375,7.977783203125,12.942626953125
0.0235,-20.770263671875,4.934814453125,15.344970703125
0.024,-19.368896484375,0.530517578125,17.987548828125
0.0245,-17.006591796875,-4.033935546875,20.149658203125
0.025,-13.122802734375,-8.718505859375,20.870361328125
0.0255,-10.400146484375,-11.881591796875,21.270751953125
0.026,-6.756591796875,-14.844482421875,20.550048828125
0.0265,-2.912841796875,-17.326904296875,19.188720703125
0.027,1.171142578125,-19.569091796875,17.507080078125
0.0275,6.256103515625,-21.771240234375,14.584228515625
0.028,10.139892578125,-21.571044921875,10.580322265625
0.0285,13.222900390625,-22.051513671875,8.057861328125
0.029,16.065673828125,-21.290771484375,4.574462890625
0.0295,18.548095703125,-19.929443359375,0.810791015625
0.03,20.109619140625,-17.487060546875,-3.193115234375
0.0305,21.190673828125,-14.043701171875,-7.717529296875
0.031,21.110595703125,-10.840576171875,-10.840576171875
0.0315,20.830322265625,-7.597412109375,-13.723388671875
0.032,19.989501953125,-4.274169921875,-16.045654296875
0.0325,18.588134765625,-0.230224609375,-18.648193359375
0.033,15.665283203125,4.814697265625,-20.570068359375
0.0335,11.781494140625,9.058837890625,-20.810302734375
0.034,9.178955078125,12.101806640625,-21.130615234375
0.0345,5.295166015625,15.024658203125,-20.129638671875
0.035,1.171142578125,17.587158203125,-18.528076171875
0.0355,-2.752685546875,19.468994140625,-16.646240234375
0.036,-7.877685546875,21.190673828125,-13.322998046875
0.0365,-11.200927734375,20.790283203125,-9.759521484375
0.037,-14.323974609375,21.070556640625,-6.916748046875
0.0375,-16.926513671875,19.989501953125,-3.353271484375
0.038,-19.248779296875,18.508056640625,0.490478515625
0.0385,-20.489990234375,15.745361328125,4.454345703125
0.039,-21.010498046875,12.141845703125,8.538330078125
0.0395,-21.210693359375,9.419189453125,11.421142578125
0.04,-20.650146484375,5.775634765625,14.343994140625
0.0405,-19.489013671875,2.252197265625,16.626220703125
0.041,-18.007568359375,-1.751708984375,18.948486328125
0.0415,-14.604248046875,-6.876708984375,20.550048828125
0.042,-10.840576171875,-10.440185546875,20.349853515625
0.0425,-8.318115234375,-13.403076171875,20.670166015625
0.043,-4.354248046875,-16.045654296875,19.348876953125
0.0435,-0.310302734375,-18.568115234375,17.787353515625
0.044,3.733642578125,-20.209716796875,15.545166015625
0.0445,8.658447265625,-21.571044921875,12.021728515625
0.045,11.581298828125,-21.370849609375,8.978759765625
0.0455,14.864501953125,-21.290771484375,5.735595703125
0.046,17.026611328125,-20.049560546875,2.412353515625
0.0465,19.228759765625,-18.407958984375,-1.431396484375
0.047,20.309814453125,-15.324951171875,-5.635498046875
0.0475,20.349853515625,-11.521240234375,-9.359130859375
0.048,20.790283203125,-9.239013671875,-12.161865234375
0.0485,19.869384765625,-5.475341796875,-14.884521484375
0.049,18.708251953125,-1.751708984375,-17.326904296875
0.0495,16.786376953125,2.372314453125,-19.248779296875
0.05,13.423095703125,7.377197265625,-20.810302734375
0.0505,9.739501953125,10.580322265625,-20.209716796875
0.051,6.936767578125,13.663330078125,-20.449951171875
0.0515,2.812744140625,16.065673828125,-18.728271484375
0.052,-1.191162109375,18.668212890625,-17.447021484375
0.0525,-5.555419921875,19.909423828125,-14.364013671875
0.053,-9.839599609375,20.710205078125,-10.960693359375
0.0535,-12.642333984375,20.750244140625,-8.278076171875
0.054,-15.965576171875,20.189697265625,-4.514404296875
0.0545,-18.087646484375,18.828369140625,-1.031005859375
0.055,-19.849365234375,16.906494140625,2.692626953125
0.0555,-20.850341796875,13.623291015625,6.896728515625
0.056,-20.489990234375,9.819580078125,10.300048828125
0.0565,-20.970458984375,7.537353515625,12.942626953125
0.057,-19.649169921875,3.373291015625,15.705322265625
0.0575,-18.608154296875,-0.510498046875,18.387939453125
0.058,-15.645263671875,-4.794677734375,19.589111328125
0.0585,-12.442138671875,-9.359130859375,20.870361328125
0.059,-8.998779296875,-12.322021484375,20.309814453125
0.0595,-5.675537109375,-15.525146484375,20.029541015625
0.06,-1.551513671875,-17.687255859375,18.187744140625
0.0605,2.572509765625,-20.209716796875,16.706298828125
0.061,7.177001953125,-21.170654296875,13.142822265625
0.0615,10.980712890625,-21.490966796875,9.659423828125
0.062,13.743408203125,-21.731201171875,7.297119140625
0.0625,16.866455078125,-20.570068359375,3.133056640625
0.063,18.948486328125,-18.968505859375,-0.630615234375
0.0635,20.229736328125,-16.365966796875,-4.474365234375
0.064,21.070556640625,-13.122802734375,-8.558349609375
0.0645,20.550048828125,-9.439208984375,-11.681396484375
0.065,20.790283203125,-6.836669921875,-14.444091796875
0.0655,19.148681640625,-2.512451171875,-16.966552734375
0.066,17.947509765625,1.571533203125,-19.689208984375
0.0665,14.223876953125,6.135986328125,-20.369873046875
0.067,10.940673828125,10.219970703125,-21.130615234375
0.0675,7.857666015625,13.022705078125,-20.770263671875
0.068,3.573486328125,16.265869140625,-19.649169921875
0.0685,-0.510498046875,18.307861328125,-17.767333984375
0.069,-4.834716796875,20.590087890625,-15.725341796875
0.0695,-9.158935546875,21.190673828125,-12.081787109375
0.07,-12.562255859375,20.910400390625,-8.478271484375
0.0705,-15.364990234375,21.110595703125,-6.035888671875
0.071,-18.167724609375,19.509033203125,-1.671630859375
0.0715,-20.329833984375,17.747314453125,2.332275390625
0.072,-21.010498046875,14.544189453125,6.135986328125
0.0725,-21.651123046875,11.341064453125,9.939697265625
0.073,-21.010498046875,7.817626953125,12.742431640625
0.0735,-20.770263671875,4.534423828125,15.705322265625
0.074,-19.048583984375,0.410400390625,18.027587890625
0.0745,-17.246826171875,-4.234130859375,20.630126953125
0.075,-13.202880859375,-8.518310546875,20.870361328125
0.0755,-9.799560546875,-12.241943359375,21.030517578125
0.076,-7.076904296875,-14.764404296875,20.750244140625
0.0765,-2.312255859375,-17.887451171875,19.108642578125
0.077,1.771728515625,-20.009521484375,17.306884765625
0.0775,6.456298828125,-21.731201171875,14.384033203125
0.078,10.380126953125,-22.251708984375,11.060791015625
0.0785,13.583251953125,-21.731201171875,7.377197265625
0.079,16.466064453125,-21.611083984375,4.534423828125
0.0795,18.868408203125,-19.889404296875,0.450439453125
0.08,20.990478515625,-17.647216796875,-3.993896484375
0.0805,21.110595703125,-13.923583984375,-7.797607421875
0.081,21.631103515625,-10.760498046875,-11.481201171875
0.0815,20.950439453125,-7.557373046875,-13.843505859375
0.082,20.189697265625,-3.673583984375,-16.926513671875
0.0825,18.508056640625,0.490478515625,-19.168701171875
0.083,15.785400390625,5.415283203125,-21.210693359375
0.0835,12.061767578125,9.339111328125,-21.410888671875
0.084,8.378173828125,12.862548828125,-21.130615234375
0.0845,5.535400390625,15.385009765625,-20.690185546875
0.085,0.570556640625,18.307861328125,-18.688232421875
0.0855,-3.713623046875,20.469970703125,-16.726318359375
0.086,-8.478271484375,21.430908203125,-12.962646484375
0.0865,-11.841552734375,21.871337890625,-10.159912109375
0.087,-15.044677734375,21.190673828125,-6.356201171875
0.0875,-17.887451171875,20.630126953125,-3.032958984375
0.088,-20.049560546875,18.668212890625,1.131103515625
0.0885,-21.971435546875,15.985595703125,5.655517578125
0.089,-21.531005859375,12.101806640625,9.058837890625
0.0895,-22.011474609375,9.018798828125,12.542236328125
0.09,-21.290771484375,5.855712890625,14.984619140625
0.0905,-20.049560546875,1.411376953125,18.067626953125
0.091,-18.167724609375,-2.832763671875,20.189697265625
0.0915,-14.564208984375,-7.997802734375,21.671142578125
0.092,-11.240966796875,-11.481201171875,21.711181640625
0.0925,-7.517333984375,-14.724365234375,21.150634765625
0.093,-4.154052734375,-17.206787109375,20.229736328125
0.0935,0.690673828125,-19.969482421875,18.267822265625
0.094,5.375244140625,-22.211669921875,15.945556640625
0.0945,9.979736328125,-22.491943359375,11.661376953125
0.095,13.062744140625,-22.812255859375,9.018798828125
0.0955,16.225830078125,-22.011474609375,5.135009765625
0.096,18.908447265625,-20.970458984375,1.411376953125
0.0965,20.830322265625,-18.848388671875,-2.672607421875
0.097,22.391845703125,-15.565185546875,-7.477294921875
0.0975,21.911376953125,-11.561279296875,-10.840576171875
0.098,21.911376953125,-8.398193359375,-13.963623046875
0.0985,21.110595703125,-5.114990234375,-16.365966796875
0.099,19.549072265625,-0.430419921875,-19.448974609375
0.0995,17.266845703125,4.134033203125,-21.490966796875
0.1,13.182861328125,9.259033203125,-22.371826171875
0.1005,9.939697265625,12.302001953125,-22.131591796875
0.101,6.015869140625,15.505126953125,-21.290771484375
0.1015,1.931884765625,18.067626953125,-19.729248046875
0.102,-2.472412109375,20.510009765625,-17.967529296875
0.1025,-7.717529296875,22.552001953125,-14.804443359375
0.103,-11.681396484375,22.191650390625,-10.560302734375
0.1035,-14.724365234375,22.431884765625,-7.837646484375
0.104,-17.807373046875,21.230712890625,-3.753662109375
0.1045,-20.449951171875,19.749267578125,0.450439453125
0.105,-21.891357421875,17.306884765625,4.214111328125
0.1055,-23.092529296875,13.663330078125,9.098876953125
0.106,-22.451904296875,9.939697265625,12.141845703125
0.1065,-22.131591796875,6.536376953125,15.104736328125
0.107,-20.890380859375,2.812744140625,17.547119140625
0.1075,-19.448974609375,-1.791748046875,20.429931640625
0.108,-16.165771484375,-6.716552734375,22.031494140625
0.1085,-12.081787109375,-11.240966796875,22.351806640625
0.109,-9.158935546875,-14.123779296875,22.151611328125
0.1095,-4.834716796875,-17.246826171875,20.950439453125
0.11,-0.510498046875,-19.729248046875,19.148681640625
0.1105,3.653564453125,-21.811279296875,17.226806640625
0.111,9.138916015625,-23.572998046875,13.503173828125
0.1115,12.622314453125,-22.892333984375,9.459228515625
0.112,15.745361328125,-23.052490234375,6.536376953125
0.1125,18.548095703125,-21.611083984375,2.372314453125
0.113,21.070556640625,-19.969482421875,-1.791748046875
0.1135,22.111572265625,-16.966552734375,-5.755615234375
0.114,22.832275390625,-13.002685546875,-10.320068359375
0.1145,22.351806640625,-9.679443359375,-13.122802734375
0.115,21.751220703125,-5.915771484375,-16.285888671875
0.1155,20.189697265625,-1.951904296875,-18.528076171875
0.116,18.588134765625,2.452392578125,-21.130615234375
0.1165,14.864501953125,7.697509765625,-22.572021484375
0.117,10.660400390625,11.741455078125,-22.291748046875
0.1175,7.857666015625,14.544189453125,-22.171630859375
0.118,3.012939453125,17.627197265625,-20.409912109375
0.1185,-1.351318359375,20.149658203125,-18.648193359375
0.119,-5.475341796875,21.791259765625,-16.205810546875
0.1195,-10.680419921875,23.072509765625,-12.402099609375
0.12,-13.803466796875,22.151611328125,-8.558349609375
0.1205,-17.166748046875,22.111572265625,-5.235107421875
0.121,-19.609130859375,20.309814453125,-1.071044921875
0.1215,-22.051513671875,18.548095703125,3.173095703125
0.122,-22.772216796875,15.224853515625,7.257080078125
0.1225,-23.052490234375,11.140869140625,11.501220703125
0.123,-22.652099609375,8.177978515625,14.063720703125
0.1235,-21.611083984375,3.773681640625,17.306884765625
0.124,-20.009521484375,-0.350341796875,19.589111328125
0.1245,-17.807373046875,-4.874755859375,21.831298828125
0.125,-13.963623046875,-9.959716796875,22.912353515625
0.1255,-9.639404296875,-13.603271484375,22.111572265625
0.126,-6.796630859375,-16.365966796875,22.071533203125
0.1265,-1.751708984375,-19.208740234375,19.869384765625
0.127,2.732666015625,-21.931396484375,18.227783203125
0.1275,7.217041015625,-23.052490234375,14.864501953125
0.128,12.021728515625,-24.053466796875,11.140869140625
0.1285,14.864501953125,-23.212646484375,7.577392578125
0.129,18.387939453125,-22.692138671875,3.573486328125
0.1295,20.510009765625,-20.650146484375,-0.510498046875
0.13,22.752197265625,-18.407958984375,-4.994873046875
0.1305,23.072509765625,-14.604248046875,-9.078857421875
0.131,22.992431640625,-10.440185546875,-13.082763671875
0.1315,22.632080078125,-7.677490234375,-15.405029296875
0.132,21.070556640625,-2.752685546875,-18.608154296875
0.1325,19.468994140625,1.531494140625,-21.130615234375
0.133,16.305908203125,6.376220703125,-22.612060546875
0.1335,12.622314453125,11.020751953125,-23.572998046875
0.134,8.218017578125,14.424072265625,-22.451904296875
0.1345,4.814697265625,17.346923828125,-21.931396484375
0.135,-0.390380859375,19.909423828125,-19.368896484375
0.1355,-4.954833984375,22.712158203125,-17.647216796875
0.136,-9.639404296875,22.992431640625,-13.363037109375
0.1365,-13.723388671875,23.512939453125,-9.959716796875
0.137,-16.486083984375,22.712158203125,-6.516357421875
0.1375,-19.849365234375,21.591064453125,-1.991943359375
0.138,-21.931396484375,19.348876953125,2.292236328125
0.1385,-23.693115234375,16.626220703125,6.736572265625
0.139,-23.693115234375,12.662353515625,10.660400390625
0.1395,-23.332763671875,8.578369140625,14.263916015625
0.14,-22.772216796875,5.735595703125,16.626220703125
0.1405,-20.770263671875,0.530517578125,19.589111328125
0.141,-19.088623046875,-3.953857421875,22.151611328125
0.1415,-14.884521484375,-8.958740234375,22.872314453125
0.142,-11.521240234375,-13.082763671875,23.512939453125
0.1425,-7.397216796875,-16.005615234375,22.311767578125
0.143,-3.393310546875,-18.968505859375,21.230712890625
0.1435,1.571533203125,-21.290771484375,18.708251953125
0.144,6.456298828125,-23.973388671875,16.506103515625
0.1445,10.980712890625,-23.893310546875,11.981689453125
0.145,14.584228515625,-24.053466796875,8.618408203125
0.1455,17.266845703125,-23.252685546875,5.375244140625
0.146,20.349853515625,-21.651123046875,0.690673828125
0.1465,22.351806640625,-19.288818359375,-3.713623046875
0.147,23.512939453125,-15.845458984375,-8.238037109375
0.1475,23.472900390625,-12.121826171875,-11.881591796875
0.148,22.752197265625,-8.157958984375,-15.084716796875
0.1485,22.151611328125,-5.034912109375,-17.487060546875
0.149,19.949462890625,0.170166015625,-20.249755859375
0.1495,17.947509765625,4.934814453125,-22.892333984375
0.15,13.383056640625,9.659423828125,-23.012451171875
0.1505,10.059814453125,13.343017578125,-23.212646484375
0.151,6.256103515625,16.065673828125,-22.051513671875
0.1515,1.571533203125,19.108642578125,-20.409912109375
0.152,-2.992919921875,21.270751953125,-18.167724609375
0.1525,-8.318115234375,23.432861328125,-15.124755859375
0.153,-12.161865234375,23.112548828125,-11.080810546875
0.1535,-15.605224609375,22.992431640625,-7.557373046875
0.154,-18.167724609375,22.191650390625,-4.314208984375
0.1545,-21.090576171875,20.309814453125,0.570556640625
0.155,-22.972412109375,17.747314453125,4.974853515625
0.1555,-23.532958984375,13.863525390625,9.299072265625
0.156,-23.572998046875,10.460205078125,12.702392578125
0.1565,-22.612060546875,6.656494140625,15.505126953125
0.157,-21.691162109375,2.892822265625,18.227783203125
0.1575,-19.689208984375,-1.951904296875,20.830322265625
0.158,-16.726318359375,-7.317138671875,23.152587890625
0.1585,-12.322021484375,-11.521240234375,22.832275390625
0.159,-9.158935546875,-14.884521484375,22.912353515625
0.1595,-5.435302734375,-17.366943359375,21.711181640625
0.16,-0.470458984375,-20.489990234375,19.789306640625
0.1605,4.134033203125,-22.572021484375,17.427001953125
0.161,9.659423828125,-24.333740234375,13.703369140625
0.1615,13.102783203125,-23.973388671875,10.099853515625
0.162,16.385986328125,-23.572998046875,6.456298828125
0.1625,18.908447265625,-22.371826171875,2.852783203125
0.163,21.551025390625,-20.449951171875,-1.791748046875
0.1635,23.392822265625,-17.326904296875,-6.676513671875
0.164,23.352783203125,-13.082763671875,-10.800537109375
0.1645,23.512939453125,-10.079833984375,-13.923583984375
0.165,22.391845703125,-6.156005859375,-16.606201171875
0.1655,20.990478515625,-1.951904296875,-19.368896484375
0.166,18.868408203125,2.812744140625,-21.771240234375
0.1665,15.224853515625,8.538330078125,-23.733154296875
0.167,10.980712890625,12.261962890625,-23.092529296875
0.1675,7.737548828125,15.465087890625,-22.932373046875
0.168,3.493408203125,17.907470703125,-21.130615234375
0.1685,-1.551513671875,20.870361328125,-19.248779296875
0.169,-6.276123046875,22.792236328125,-16.526123046875
0.1695,-11.521240234375,23.793212890625,-12.322021484375
0.17,-14.404052734375,23.392822265625,-9.118896484375
0.1705,-17.767333984375,22.712158203125,-5.195068359375
0.171,-20.209716796875,21.070556640625,-1.151123046875
0.1715,-22.531982421875,18.948486328125,3.293212890625
0.172,-24.133544921875,15.505126953125,8.298095703125
0.1725,-23.532958984375,11.100830078125,12.021728515625
0.173,-23.613037109375,8.298095703125,14.824462890625
0.1735,-22.131591796875,4.093994140625,17.547119140625
0.174,-20.650146484375,-0.430419921875,20.349853515625
0.1745,-18.007568359375,-5.195068359375,22.351806640625
0.175,-14.043701171875,-10.720458984375,23.713134765625
0.1755,-10.079833984375,-13.843505859375,22.872314453125
0.176,-6.676513671875,-17.006591796875,22.471923828125
0.1765,-2.232177734375,-19.288818359375,20.309814453125
0.177,2.572509765625,-22.171630859375,18.548095703125
0.1775,7.657470703125,-23.733154296875,15.184814453125
0.178,12.342041015625,-24.093505859375,10.900634765625
0.1785,15.104736328125,-23.933349609375,8.097900390625
0.179,18.387939453125,-22.812255859375,3.853759765625
0.1795,20.630126953125,-21.090576171875,-0.270263671875
0.18,22.471923828125,-18.568115234375,-4.514404296875
0.1805,23.833251953125,-14.804443359375,-9.559326171875
