wavelength,x,y,z
0.0,-19.423950195312,-2.4473876953125,21.536010742188
0.0005,-16.501098632812,-7.3721923828125,23.537963867188
0.001,-12.377075195312,-12.337036132812,24.378784179688
0.0015,-9.6143798828125,-15.339965820312,24.538940429688
0.002,-4.6495361328125,-18.262817382812,22.577026367188
0.0025,-0.1651611328125,-20.224731445312,20.134643554688
0.003,4.3592529296875,-22.306762695312,17.852416992188
0.0035,9.9647216796875,-24.308715820312,14.328979492188
0.004,13.768432617188,-23.788208007812,10.084838867188
0.0045,16.971557617188,-24.268676757812,7.3621826171875
0.005,19.333862304688,-21.826293945312,2.5975341796875
0.0055,21.816284179688,-19.704223632812,-2.1270751953125
0.006,23.017456054688,-15.380004882812,-6.3712158203125
0.0065,24.378784179688,-12.937622070312,-10.255004882812
0.007,23.818237304688,-9.3741455078125,-14.619262695312
0.0075,23.137573242188,-5.4102783203125,-16.661254882812
0.008,20.695190429688,-1.1661376953125,-19.784301757812
0.0085,18.693237304688,3.7987060546875,-22.707153320312
0.009,15.169799804688,10.244995117188,-24.388793945312
0.0095,10.925659179688,13.448120117188,-24.629028320312
0.01,8.3231201171875,16.290893554688,-24.789184570312
0.0105,2.9178466796875,19.133666992188,-22.226684570312
0.011,-1.7266845703125,21.215698242188,-19.824340820312
0.0115,-6.2911376953125,23.097534179688,-17.261840820312
0.012,-11.696411132812,24.819213867188,-13.618286132812
0.0125,-15.219848632812,23.978393554688,-9.3341064453125
0.013,-18.302856445312,23.938354492188,-6.2911376953125
0.0135,-20.464965820312,21.175659179688,-1.3663330078125
0.014,-21.786254882812,19.013549804688,3.5184326171875
0.0145,-23.708129882812,15.329956054688,7.9627685546875
0.015,-24.829223632812,11.566284179688,12.847534179688
0.0155,-24.188598632812,8.1629638671875,15.650268554688
0.016,-22.787231445312,3.5584716796875,18.893432617188
0.0165,-20.184692382812,-1.0460205078125,20.855346679688
0.017,-18.022583007812,-6.0909423828125,23.698120117188
0.0175,-14.178833007812,-11.255981445312,24.979370117188
0.018,-9.8145751953125,-15.219848632812,24.619018554688
0.0185,-6.9718017578125,-17.742309570312,24.378784179688
0.019,-1.0460205078125,-19.223754882812,21.255737304688
0.0195,3.6785888671875,-22.667114257812,18.893432617188
0.02,8.6033935546875,-24.068481445312,15.410034179688
0.0205,13.408081054688,-25.469848632812,12.126831054688
0.021,16.731323242188,-23.067504882812,7.7225341796875
0.0215,19.694213867188,-23.668090820312,4.0789794921875
0.022,23.057495117188,-20.625122070312,-1.0860595703125
0.0225,25.619995117188,-18.382934570312,-5.9708251953125
0.023,24.378784179688,-13.978637695312,-10.455200195312
0.0235,25.139526367188,-10.335083007812,-14.939575195312
0.024,24.258666992188,-7.0919189453125,-17.381958007812
0.0245,22.256713867188,-1.8468017578125,-20.625122070312
0.025,19.494018554688,2.8377685546875,-22.587036132812
0.0255,17.932495117188,8.2030029296875,-25.069458007812
0.026,12.767456054688,12.927612304688,-25.870239257812
0.0265,8.2830810546875,17.932495117188,-25.069458007812
0.027,5.0799560546875,18.933471679688,-24.228637695312
0.0275,-0.9259033203125,21.576049804688,-20.945434570312
0.028,-5.6905517578125,23.938354492188,-18.663208007812
0.0285,-10.855590820312,24.619018554688,-14.258911132812
0.029,-15.019653320312,25.700073242188,-11.255981445312
0.0295,-18.102661132812,25.619995117188,-6.9718017578125
0.03,-20.905395507812,22.897338867188,-2.6475830078125
0.0305,-22.667114257812,19.814331054688,2.3172607421875
0.031,-25.069458007812,17.131713867188,7.4822998046875
0.0315,-24.709106445312,12.607299804688,11.686401367188
0.032,-25.069458007812,8.9237060546875,15.810424804688
0.0325,-23.908325195312,5.6004638671875,19.213745117188
0.033,-21.465942382812,0.0350341796875,21.095581054688
0.0335,-18.943481445312,-4.6495361328125,23.137573242188
0.034,-15.420043945312,-10.014770507812,24.979370117188
0.0345,-11.896606445312,-12.817504882812,26.901245117188
0.035,-7.3321533203125,-17.462036132812,24.418823242188
0.0355,-3.5684814453125,-19.584106445312,22.857299804688
0.036,1.9969482421875,-21.826293945312,19.654174804688
0.0365,7.0418701171875,-24.428833007812,17.331909179688
0.037,11.806518554688,-24.388793945312,12.607299804688
0.0375,15.650268554688,-25.269653320312,9.7244873046875
0.038,18.252807617188,-23.788208007812,5.7205810546875
0.0385,21.015502929688,-21.906372070312,0.9559326171875
0.039,22.657104492188,-19.023559570312,-3.5684814453125
0.0395,24.699096679688,-15.900512695312,-8.8536376953125
0.04,24.458862304688,-11.816528320312,-12.777465820312
0.0405,25.619995117188,-8.0928955078125,-16.501098632812
0.041,23.017456054688,-4.8096923828125,-18.463012695312
0.0415,20.454956054688,0.6756591796875,-21.425903320312
0.042,18.012573242188,5.6004638671875,-23.748168945312
0.0425,13.848510742188,10.805541992188,-24.749145507812
0.043,10.925659179688,14.369018554688,-25.509887695312
0.0435,6.3612060546875,17.452026367188,-23.988403320312
0.044,2.1571044921875,19.774291992188,-22.106567382812
0.0445,-2.7677001953125,23.057495117188,-19.343872070312
0.045,-8.3331298828125,24.458862304688,-15.380004882812
0.0455,-12.577270507812,24.178588867188,-12.136840820312
0.046,-16.380981445312,24.819213867188,-9.0137939453125
0.0465,-18.623168945312,23.097534179688,-3.8487548828125
0.047,-21.425903320312,20.975463867188,-0.1651611328125
0.0475,-23.027465820312,18.212768554688,4.3192138671875
0.048,-24.508911132812,14.449096679688,9.6043701171875
0.0485,-24.548950195312,10.845581054688,13.287963867188
0.049,-23.948364257812,6.7215576171875,16.771362304688
0.0495,-22.306762695312,3.1580810546875,18.813354492188
0.05,-19.904418945312,-2.1671142578125,21.696166992188
0.0505,-17.181762695312,-7.4522705078125,25.619995117188
0.051,-12.657348632812,-12.256958007812,24.538940429688
0.0515,-9.9747314453125,-15.660278320312,25.299682617188
0.052,-5.0098876953125,-18.463012695312,23.137573242188
0.0525,-0.2452392578125,-20.865356445312,20.855346679688
0.053,4.3192138671875,-22.667114257812,18.252807617188
0.0535,10.204956054688,-25.029418945312,14.809448242188
0.054,13.968627929688,-24.428833007812,10.525268554688
0.0545,17.612182617188,-24.749145507812,7.2821044921875
0.055,19.774291992188,-22.587036132812,2.9979248046875
0.0555,22.536987304688,-20.304809570312,-2.2071533203125
0.056,23.978393554688,-17.261840820312,-6.7315673828125
0.0565,24.939331054688,-13.137817382812,-11.936645507812
0.057,24.939331054688,-9.8946533203125,-15.259887695312
0.0575,23.658081054688,-5.2901611328125,-18.663208007812
0.058,21.495971679688,-1.0460205078125,-20.665161132812
0.0585,19.173706054688,3.9989013671875,-23.347778320312
0.059,15.810424804688,9.6444091796875,-24.348754882812
0.0595,11.045776367188,14.048706054688,-25.229614257812
0.06,8.3231201171875,17.291870117188,-25.750122070312
0.0605,2.8778076171875,19.854370117188,-22.947387695312
0.061,-2.1270751953125,22.376831054688,-20.585083007812
0.0615,-6.6114501953125,23.858276367188,-17.662231445312
0.062,-12.457153320312,25.780151367188,-13.858520507812
0.0625,-15.900512695312,24.899291992188,-9.6143798828125
0.063,-19.383911132812,24.619018554688,-5.8507080078125
0.0635,-21.305786132812,21.936401367188,-0.0050048828125
0.064,-23.948364257812,19.494018554688,3.8787841796875
0.0645,-24.789184570312,15.810424804688,8.5233154296875
0.065,-25.349731445312,11.446166992188,13.408081054688
0.0655,-25.229614257812,8.3631591796875,16.451049804688
0.066,-23.267700195312,3.2381591796875,19.694213867188
0.0665,-20.865356445312,-0.0050048828125,23.057495117188
0.067,-18.342895507812,-6.2110595703125,24.178588867188
0.0675,-14.659301757812,-11.696411132812,26.060424804688
0.068,-9.8946533203125,-15.540161132812,25.019409179688
0.0685,-6.8516845703125,-18.583129882812,25.019409179688
0.069,-1.1260986328125,-20.865356445312,21.736206054688
0.0695,3.7987060546875,-23.347778320312,19.453979492188
0.07,8.4432373046875,-23.067504882812,15.850463867188
0.0705,13.688354492188,-25.790161132812,12.166870117188
0.071,16.811401367188,-24.829223632812,8.1629638671875
0.0715,20.054565429688,-23.868286132812,3.9588623046875
0.072,21.816284179688,-21.025512695312,-0.6856689453125
0.0725,24.298706054688,-18.743286132812,-5.5704345703125
0.073,24.779174804688,-14.619262695312,-8.9737548828125
0.0735,24.899291992188,-10.415161132812,-14.699340820312
0.074,24.699096679688,-7.5723876953125,-17.341918945312
0.0745,22.216674804688,-2.1270751953125,-20.264770507812
0.075,19.974487304688,2.3172607421875,-22.466918945312
0.0755,16.931518554688,7.3621826171875,-24.428833007812
0.076,13.368041992188,12.487182617188,-26.030395507812
0.0765,8.8035888671875,15.890502929688,-24.829223632812
0.077,5.4002685546875,18.733276367188,-24.308715820312
0.0775,1.2762451171875,20.815307617188,-21.025512695312
0.078,-4.8096923828125,23.497924804688,-19.103637695312
0.0785,-9.6944580078125,24.138549804688,-14.899536132812
0.079,-14.338989257812,25.219604492188,-11.416137695312
0.0795,-17.141723632812,24.458862304688,-8.0128173828125
0.08,-20.184692382812,22.777221679688,-3.2081298828125
0.0805,-21.906372070312,20.014526367188,2.5574951171875
0.081,-24.108520507812,17.452026367188,6.1209716796875
0.0815,-24.588989257812,13.408081054688,10.725463867188
0.082,-23.067504882812,9.2440185546875,14.729370117188
0.0825,-24.068481445312,6.4412841796875,17.291870117188
0.083,-21.265747070312,0.9158935546875,20.054565429688
0.0835,-19.383911132812,-3.5684814453125,22.657104492188
0.084,-15.740356445312,-8.6934814453125,24.058471679688
0.0845,-12.457153320312,-13.338012695312,25.419799804688
0.085,-8.1729736328125,-16.421020507812,24.258666992188
0.0855,-4.0489501953125,-19.183715820312,22.897338867188
0.086,1.1961669921875,-21.105590820312,19.774291992188
0.0865,6.0809326171875,-23.988403320312,17.812377929688
0.087,10.845581054688,-24.108520507812,13.287963867188
0.0875,15.049682617188,-24.789184570312,9.8045654296875
0.088,17.572143554688,-24.108520507812,6.6815185546875
0.0885,20.615112304688,-21.986450195312,1.4764404296875
0.089,22.456909179688,-19.383911132812,-3.0880126953125
0.0895,24.258666992188,-16.220825195312,-8.1729736328125
0.09,24.779174804688,-12.457153320312,-12.417114257812
0.0905,24.138549804688,-8.2530517578125,-16.020629882812
0.091,23.337768554688,-5.0499267578125,-18.463012695312
0.0915,20.575073242188,0.4754638671875,-21.185668945312
0.092,18.533081054688,5.4002685546875,-24.108520507812
0.0925,14.048706054688,10.525268554688,-24.669067382812
0.093,11.045776367188,14.529174804688,-25.710083007812
0.0935,6.7615966796875,17.411987304688,-23.067504882812
0.094,2.0369873046875,20.174682617188,-22.466918945312
0.0945,-2.9278564453125,22.016479492188,-19.504028320312
0.095,-8.4132080078125,24.819213867188,-16.861450195312
0.0955,-12.697387695312,24.619018554688,-12.497192382812
0.096,-15.380004882812,24.819213867188,-8.7735595703125
0.0965,-18.903442382812,23.618041992188,-5.4503173828125
0.097,-20.505004882812,21.095581054688,0.0350341796875
0.0975,-23.708129882812,18.372924804688,4.7596435546875
0.098,-24.669067382812,14.369018554688,9.8446044921875
0.0985,-25.189575195312,11.125854492188,13.688354492188
0.099,-24.068481445312,6.6815185546875,17.011596679688
0.0995,-22.707153320312,3.0379638671875,19.373901367188
0.1,-19.904418945312,-2.4073486328125,21.936401367188
0.1005,-17.582153320312,-7.7325439453125,24.979370117188
0.101,-12.697387695312,-12.457153320312,24.739135742188
0.1015,-9.7745361328125,-16.020629882812,25.419799804688
0.102,-5.4102783203125,-18.422973632812,23.457885742188
0.1025,-0.1651611328125,-21.145629882812,21.055541992188
0.103,4.4793701171875,-22.787231445312,18.252807617188
0.1035,10.204956054688,-25.029418945312,14.809448242188
0.104,13.808471679688,-24.709106445312,10.925659179688
0.1045,17.612182617188,-24.468872070312,7.0018310546875
0.105,19.494018554688,-22.907348632812,3.4783935546875
0.1055,22.136596679688,-20.344848632812,-1.8468017578125
0.106,24.018432617188,-17.462036132812,-6.6114501953125
0.1065,24.298706054688,-12.977661132812,-11.376098632812
0.107,24.859252929688,-10.214965820312,-14.779418945312
0.1075,23.257690429688,-5.7706298828125,-17.662231445312
0.108,21.495971679688,-1.6065673828125,-20.104614257812
0.1085,18.933471679688,3.1981201171875,-22.306762695312
0.109,16.050659179688,8.9237060546875,-25.109497070312
0.1095,11.446166992188,12.847534179688,-24.508911132812
0.11,8.4432373046875,16.330932617188,-24.869262695312
0.1105,4.3192138671875,18.252807617188,-22.787231445312
0.111,-1.0059814453125,21.055541992188,-20.384887695312
0.1115,-5.4102783203125,22.737182617188,-17.782348632812
0.112,-10.975708007812,24.298706054688,-13.858520507812
0.1125,-14.218872070312,24.218627929688,-10.655395507812
0.113,-17.582153320312,23.417846679688,-6.4913330078125
0.1135,-19.463989257812,21.696166992188,-2.9278564453125
0.114,-20.505004882812,19.253784179688,1.9969482421875
0.1145,-23.708129882812,16.210815429688,7.0418701171875
0.115,-23.467895507812,11.806518554688,11.286010742188
0.1155,-24.188598632812,9.2440185546875,14.569213867188
0.116,-22.346801757812,4.9598388671875,17.051635742188
0.1165,-20.545043945312,0.4754638671875,19.854370117188
0.117,-18.222778320312,-4.1290283203125,21.936401367188
0.1175,-14.979614257812,-9.7344970703125,24.378784179688
0.118,-10.895629882812,-13.137817382812,23.738159179688
0.1185,-7.4923095703125,-16.501098632812,23.658081054688
0.119,-3.3682861328125,-18.262817382812,21.335815429688
0.1195,1.6365966796875,-20.985473632812,19.173706054688
0.12,6.5213623046875,-22.747192382812,16.170776367188
0.1205,11.446166992188,-23.708129882812,12.246948242188
0.121,14.529174804688,-23.908325195312,9.4842529296875
0.1215,17.532104492188,-22.587036132812,5.0799560546875
0.122,19.534057617188,-20.665161132812,1.2362060546875
0.1225,21.656127929688,-18.422973632812,-3.2081298828125
0.123,23.417846679688,-15.059692382812,-8.4532470703125
0.1235,22.977416992188,-10.855590820312,-12.256958007812
0.124,23.417846679688,-8.2130126953125,-14.098754882812
0.1245,21.255737304688,-3.8887939453125,-17.542114257812
0.125,19.614135742188,0.6756591796875,-19.223754882812
0.1255,16.891479492188,5.3201904296875,-22.386840820312
0.126,13.368041992188,10.685424804688,-24.188598632812
0.1265,9.8846435546875,13.688354492188,-23.748168945312
0.127,5.8807373046875,16.811401367188,-22.907348632812
0.1275,1.7567138671875,18.533081054688,-19.223754882812
0.128,-2.8878173828125,21.135620117188,-18.703247070312
0.1285,-8.0528564453125,22.777221679688,-15.259887695312
0.129,-12.337036132812,23.097534179688,-11.376098632812
0.1295,-15.259887695312,23.497924804688,-7.6925048828125
0.13,-16.661254882812,21.576049804688,-4.2491455078125
0.1305,-20.024536132812,19.614135742188,-0.1651611328125
0.131,-21.746215820312,17.131713867188,4.0789794921875
0.1315,-23.267700195312,13.648315429688,9.2039794921875
0.132,-22.707153320312,9.7244873046875,12.607299804688
0.1325,-22.747192382812,6.7215576171875,15.650268554688
0.133,-20.424926757812,2.4774169921875,17.652221679688
0.1335,-18.943481445312,-2.1671142578125,20.775268554688
0.134,-15.820434570312,-6.9317626953125,22.416870117188
0.1345,-12.216918945312,-11.696411132812,23.537963867188
0.135,-9.2940673828125,-14.379028320312,23.337768554688
0.1355,-4.5694580078125,-17.301879882812,21.536010742188
0.136,-0.4854736328125,-19.063598632812,19.253784179688
0.1365,4.0789794921875,-21.505981445312,17.331909179688
0.137,9.1639404296875,-22.947387695312,13.728393554688
0.1375,12.887573242188,-22.747192382812,9.8045654296875
0.138,15.650268554688,-23.027465820312,7.4822998046875
0.1385,18.052612304688,-20.665161132812,2.7576904296875
0.139,20.414916992188,-18.943481445312,-1.4464111328125
0.1395,21.576049804688,-15.940551757812,-5.6505126953125
0.14,22.977416992188,-12.577270507812,-10.455200195312
0.1405,22.376831054688,-9.0538330078125,-13.458129882812
0.141,23.057495117188,-5.4903564453125,-16.421020507812
0.1415,19.534057617188,-1.4063720703125,-18.382934570312
0.142,18.052612304688,3.3182373046875,-21.505981445312
0.1425,14.409057617188,8.1229248046875,-22.747192382812
0.143,10.805541992188,12.286987304688,-23.227661132812
0.1435,8.2830810546875,14.849487304688,-23.267700195312
0.144,3.1981201171875,17.532104492188,-20.945434570312
0.1445,-0.9659423828125,19.494018554688,-18.943481445312
0.145,-5.5704345703125,21.616088867188,-16.501098632812
0.1455,-10.375122070312,23.017456054688,-13.217895507812
0.146,-13.818481445312,22.456909179688,-9.2540283203125
0.1465,-16.421020507812,22.296752929688,-6.4913330078125
0.147,-18.623168945312,19.854370117188,-1.8868408203125
0.1475,-21.185668945312,18.132690429688,3.8387451171875
0.148,-20.505004882812,14.449096679688,6.8016357421875
0.1485,-22.987426757812,11.286010742188,11.326049804688
0.149,-22.386840820312,8.0428466796875,13.968627929688
0.1495,-21.145629882812,5.1199951171875,16.931518554688
0.15,-18.983520507812,-0.3253173828125,18.933471679688
0.1505,-17.141723632812,-5.1700439453125,21.976440429688
0.151,-13.458129882812,-9.7745361328125,22.937377929688
0.1515,-9.6544189453125,-13.538208007812,22.897338867188
0.152,-7.0118408203125,-15.780395507812,22.416870117188
0.1525,-1.5665283203125,-18.463012695312,19.694213867188
0.153,2.5975341796875,-20.665161132812,17.892456054688
0.1535,7.6024169921875,-22.106567382812,14.409057617188
0.154,11.646362304688,-23.347778320312,11.726440429688
0.1545,14.769409179688,-22.466918945312,7.8026123046875
0.155,17.411987304688,-21.746215820312,4.4393310546875
0.1555,19.494018554688,-17.942504882812,-0.2052001953125
0.156,22.056518554688,-17.341918945312,-4.7296142578125
0.1565,22.056518554688,-13.177856445312,-7.6925048828125
0.157,22.977416992188,-10.094848632812,-13.017700195312
0.1575,22.216674804688,-7.0919189453125,-15.299926757812
0.158,20.374877929688,-2.2872314453125,-18.302856445312
0.1585,18.292846679688,1.9569091796875,-20.384887695312
0.159,15.570190429688,7.1219482421875,-22.867309570312
0.1595,12.206909179688,11.205932617188,-23.628051757812
0.16,8.2830810546875,14.689331054688,-23.107543945312
0.1605,5.2401123046875,17.932495117188,-22.186645507812
0.161,1.2762451171875,20.494995117188,-19.423950195312
0.1615,-4.5694580078125,21.696166992188,-17.622192382812
0.162,-9.4542236328125,22.416870117188,-13.418090820312
0.1625,-13.137817382812,23.497924804688,-10.895629882812
0.163,-15.900512695312,22.416870117188,-7.0919189453125
0.1635,-18.543090820312,21.015502929688,-3.0880126953125
0.164,-20.424926757812,18.533081054688,1.3963623046875
0.1645,-22.747192382812,16.050659179688,6.2410888671875
0.165,-22.546997070312,12.006713867188,10.084838867188
0.1655,-22.947387695312,8.7235107421875,13.888549804688
0.166,-21.906372070312,5.7205810546875,15.930541992188
0.1665,-19.784301757812,0.5955810546875,18.893432617188
0.167,-17.782348632812,-2.5675048828125,21.255737304688
0.1675,-14.338989257812,-7.6925048828125,22.977416992188
0.168,-11.416137695312,-12.537231445312,23.618041992188
0.1685,-7.2120361328125,-15.700317382812,22.536987304688
0.169,-3.5684814453125,-17.702270507812,20.935424804688
0.1695,1.3563232421875,-19.984497070312,18.412963867188
0.17,6.3211669921875,-22.546997070312,16.170776367188
0.1705,10.645385742188,-22.506958007812,11.886596679688
0.171,15.369995117188,-23.347778320312,9.2840576171875
0.1715,16.491088867188,-22.066528320312,5.7205810546875
0.172,19.173706054688,-20.184692382812,1.1561279296875
0.1725,20.935424804688,-17.862426757812,-3.0880126953125
0.173,22.697143554688,-14.739379882812,-8.0128173828125
0.1735,22.617065429688,-11.175903320312,-10.255004882812
0.174,22.456909179688,-6.4112548828125,-14.979614257812
0.1745,21.175659179688,-4.5294189453125,-16.821411132812
0.175,19.053588867188,0.4754638671875,-19.664184570312
0.1755,16.771362304688,5.3201904296875,-22.266723632812
0.176,12.767456054688,10.084838867188,-22.987426757812
0.1765,10.365112304688,13.127807617188,-23.788208007812
0.177,6.0809326171875,15.970581054688,-22.266723632812
0.1775,1.9168701171875,18.092651367188,-20.384887695312
0.178,-2.4073486328125,20.214721679688,-18.222778320312
