wavelength,x,y,z
0.0,-6.916748046875,-18.367919921875,24.834228515625
0.0005,-2.792724609375,-21.651123046875,24.033447265625
0.001,2.732666015625,-24.293701171875,21.350830078125
0.0015,7.857666015625,-26.736083984375,18.828369140625
0.002,12.542236328125,-25.655029296875,13.102783203125
0.0025,17.146728515625,-26.255615234375,9.218994140625
0.003,20.830322265625,-25.294677734375,4.614501953125
0.0035,24.393798828125,-23.893310546875,-0.390380859375
0.004,26.195556640625,-21.210693359375,-4.914794921875
0.0045,27.516845703125,-17.567138671875,-9.919677734375
0.005,26.595947265625,-12.562255859375,-14.083740234375
0.0055,25.995361328125,-7.557373046875,-18.568115234375
0.006,25.194580078125,-3.913818359375,-21.450927734375
0.0065,22.792236328125,1.931884765625,-24.814208984375
0.007,19.829345703125,6.656494140625,-26.535888671875
0.0075,14.704345703125,11.501220703125,-26.215576171875
0.008,10.700439453125,15.705322265625,-26.455810546875
0.0085,5.215087890625,19.709228515625,-25.014404296875
0.009,0.650634765625,22.752197265625,-23.572998046875
0.0095,-4.354248046875,25.074462890625,-20.970458984375
0.01,-9.839599609375,27.076416015625,-17.607177734375
0.0105,-14.323974609375,25.675048828125,-11.841552734375
0.011,-18.728271484375,26.155517578125,-7.957763671875
0.0115,-22.091552734375,24.834228515625,-3.353271484375
0.012,-25.374755859375,23.112548828125,1.771728515625
0.0125,-26.736083984375,19.909423828125,6.376220703125
0.013,-27.296630859375,15.545166015625,11.341064453125
0.0135,-26.615966796875,11.020751953125,15.304931640625
0.014,-25.815185546875,5.935791015625,19.589111328125
0.0145,-24.573974609375,2.092041015625,22.271728515625
0.015,-22.091552734375,-3.473388671875,25.234619140625
0.0155,-18.568115234375,-8.398193359375,26.716064453125
0.016,-12.922607421875,-13.242919921875,25.715087890625
0.0165,-9.319091796875,-17.086669921875,25.995361328125
0.017,-3.873779296875,-20.810302734375,24.273681640625
0.0175,1.010986328125,-23.693115234375,22.471923828125
0.018,5.615478515625,-25.454833984375,19.709228515625
0.0185,11.501220703125,-26.936279296875,15.465087890625
0.019,15.505126953125,-25.614990234375,10.179931640625
0.0195,19.989501953125,-25.935302734375,6.055908203125
0.02,22.912353515625,-24.293701171875,1.571533203125
0.0205,26.075439453125,-22.451904296875,-3.513427734375
0.021,26.876220703125,-18.848388671875,-7.997802734375
0.0215,26.876220703125,-13.963623046875,-12.962646484375
0.022,26.435791015625,-9.919677734375,-16.646240234375
0.0225,25.314697265625,-4.754638671875,-20.770263671875
0.023,23.633056640625,-0.430419921875,-23.372802734375
0.0235,21.110595703125,4.454345703125,-25.614990234375
0.024,17.106689453125,9.779541015625,-26.936279296875
0.0245,11.260986328125,14.223876953125,-25.494873046875
0.025,7.777587890625,18.107666015625,-25.975341796875
0.0255,2.252197265625,21.470947265625,-23.853271484375
0.026,-2.672607421875,24.473876953125,-22.091552734375
0.0265,-7.076904296875,25.554931640625,-18.848388671875
0.027,-12.882568359375,26.635986328125,-14.163818359375
0.0275,-16.606201171875,25.474853515625,-9.439208984375
0.028,-21.090576171875,25.434814453125,-4.914794921875
0.0285,-23.572998046875,23.552978515625,-0.590576171875
0.029,-26.415771484375,21.510986328125,4.454345703125
0.0295,-26.696044921875,17.306884765625,8.978759765625
0.03,-26.415771484375,12.181884765625,13.903564453125
0.0305,-26.295654296875,8.618408203125,17.427001953125
0.031,-24.854248046875,3.213134765625,21.430908203125
0.0315,-22.932373046875,-1.351318359375,24.033447265625
0.032,-20.009521484375,-5.835693359375,25.474853515625
0.0325,-15.765380859375,-11.401123046875,26.756103515625
0.033,-9.959716796875,-15.525146484375,24.994384765625
0.0335,-6.396240234375,-19.408935546875,25.394775390625
0.034,-0.790771484375,-22.371826171875,22.872314453125
0.0345,4.134033203125,-25.374755859375,21.150634765625
0.035,8.778564453125,-25.775146484375,16.946533203125
0.0355,14.384033203125,-26.615966796875,12.221923828125
0.036,18.067626953125,-25.735107421875,7.817626953125
0.0365,22.511962890625,-25.214599609375,2.892822265625
0.037,24.834228515625,-23.052490234375,-1.671630859375
0.0375,27.196533203125,-20.690185546875,-6.436279296875
0.038,27.076416015625,-16.005615234375,-11.080810546875
0.0385,26.435791015625,-10.600341796875,-15.965576171875
0.039,26.395751953125,-7.277099609375,-19.288818359375
0.0395,24.353759765625,-1.391357421875,-23.092529296875
0.04,22.231689453125,3.253173828125,-25.614990234375
0.0405,18.427978515625,7.777587890625,-26.255615234375
0.041,13.943603515625,13.262939453125,-27.216552734375
0.0415,8.218017578125,17.226806640625,-25.494873046875
0.042,4.174072265625,21.110595703125,-25.334716796875
0.0425,-1.431396484375,23.753173828125,-22.531982421875
0.043,-6.316162109375,26.595947265625,-20.570068359375
0.0435,-11.160888671875,26.115478515625,-15.364990234375
0.044,-16.325927734375,26.595947265625,-10.800537109375
0.0445,-19.849365234375,25.875244140625,-6.596435546875
0.045,-23.853271484375,24.593994140625,-1.311279296875
0.0455,-25.935302734375,22.111572265625,3.333251953125
0.046,-27.536865234375,18.948486328125,8.137939453125
0.0465,-27.136474609375,14.103759765625,12.702392578125
0.047,-26.255615234375,8.698486328125,17.266845703125
0.0475,-26.095458984375,5.455322265625,20.389892578125
0.048,-23.572998046875,-0.510498046875,23.753173828125
0.0485,-21.250732421875,-5.155029296875,26.075439453125
0.049,-16.646240234375,-9.679443359375,25.955322265625
0.0495,-12.201904296875,-14.724365234375,26.555908203125
0.05,-7.036865234375,-18.327880859375,24.994384765625
0.0505,-2.512451171875,-21.851318359375,24.033447265625
0.051,2.612548828125,-24.093505859375,21.270751953125
0.0515,7.697509765625,-26.535888671875,18.748291015625
0.052,12.422119140625,-25.655029296875,13.262939453125
0.0525,17.106689453125,-25.895263671875,8.858642578125
0.053,20.469970703125,-25.334716796875,5.094970703125
0.0535,23.993408203125,-23.653076171875,-0.230224609375
0.054,25.915283203125,-21.210693359375,-4.634521484375
0.0545,26.635986328125,-17.447021484375,-9.118896484375
0.055,26.555908203125,-12.962646484375,-13.643310546875
0.0555,25.314697265625,-7.757568359375,-17.687255859375
0.056,24.994384765625,-4.394287109375,-20.810302734375
0.0565,22.431884765625,1.051025390625,-23.693115234375
0.057,20.029541015625,5.655517578125,-25.815185546875
0.0575,14.904541015625,10.219970703125,-25.174560546875
0.058,10.780517578125,14.864501953125,-25.695068359375
0.0585,6.176025390625,18.307861328125,-24.533935546875
0.059,1.331298828125,21.751220703125,-23.132568359375
0.0595,-3.193115234375,23.753173828125,-20.810302734375
0.06,-8.318115234375,25.594970703125,-17.607177734375
0.0605,-12.802490234375,24.954345703125,-12.522216796875
0.061,-17.246826171875,24.914306640625,-8.157958984375
0.0615,-20.329833984375,24.473876953125,-4.754638671875
0.062,-23.572998046875,22.592041015625,0.450439453125
0.0625,-25.414794921875,20.029541015625,4.934814453125
0.063,-25.374755859375,15.625244140625,9.339111328125
0.0635,-25.815185546875,11.661376953125,13.783447265625
0.064,-24.654052734375,6.776611328125,17.627197265625
0.0645,-24.053466796875,3.133056640625,20.670166015625
0.065,-21.611083984375,-1.951904296875,23.192626953125
0.0655,-18.928466796875,-6.716552734375,25.274658203125
0.066,-13.483154296875,-11.160888671875,24.273681640625
0.0665,-9.599365234375,-15.565185546875,24.794189453125
0.067,-5.315185546875,-18.728271484375,23.673095703125
0.0675,-0.150146484375,-22.051513671875,21.911376953125
0.068,4.214111328125,-23.853271484375,19.509033203125
0.0685,9.739501953125,-25.214599609375,15.425048828125
0.069,13.823486328125,-24.814208984375,11.060791015625
0.0695,18.387939453125,-24.694091796875,6.416259765625
0.07,21.190673828125,-23.893310546875,2.892822265625
0.0705,24.273681640625,-21.971435546875,-2.152099609375
0.071,25.835205078125,-19.008544921875,-6.796630859375
0.0715,25.274658203125,-13.963623046875,-11.281005859375
0.072,25.755126953125,-10.440185546875,-15.525146484375
0.0725,24.433837890625,-5.515380859375,-19.168701171875
0.073,23.192626953125,-1.151123046875,-22.291748046875
0.0735,20.630126953125,3.533447265625,-24.213623046875
0.074,17.146728515625,8.858642578125,-26.095458984375
0.0745,11.581298828125,13.022705078125,-24.654052734375
0.075,7.697509765625,17.386962890625,-25.094482421875
0.0755,3.173095703125,20.189697265625,-23.412841796875
0.076,-2.072021484375,23.512939453125,-21.651123046875
0.0765,-6.516357421875,24.794189453125,-18.568115234375
0.077,-12.081787109375,25.474853515625,-13.803466796875
0.0775,-15.805419921875,25.114501953125,-9.799560546875
0.078,-20.249755859375,24.593994140625,-4.914794921875
0.0785,-22.732177734375,23.152587890625,-0.990966796875
0.079,-25.334716796875,21.070556640625,3.813720703125
0.0795,-26.295654296875,17.226806640625,8.698486328125
0.08,-25.294677734375,11.821533203125,13.102783203125
0.0805,-25.775146484375,8.498291015625,16.946533203125
0.081,-24.093505859375,3.533447265625,20.309814453125
0.0815,-22.531982421875,-1.151123046875,23.352783203125
0.082,-19.368896484375,-5.435302734375,24.473876953125
0.0825,-15.324951171875,-10.880615234375,25.875244140625
0.083,-10.079833984375,-14.644287109375,24.353759765625
0.0835,-5.995849609375,-18.808349609375,24.433837890625
0.084,-1.391357421875,-21.130615234375,22.271728515625
0.0845,3.493408203125,-24.173583984375,20.550048828125
0.085,8.298095703125,-24.974365234375,16.586181640625
0.0855,13.423095703125,-25.014404296875,11.621337890625
0.086,16.946533203125,-25.014404296875,8.177978515625
0.0865,21.030517578125,-24.013427734375,3.173095703125
0.087,23.352783203125,-22.371826171875,-0.990966796875
0.0875,25.154541015625,-19.969482421875,-5.114990234375
0.088,25.915283203125,-15.885498046875,-10.079833984375
0.0885,24.634033203125,-10.600341796875,-14.203857421875
0.089,25.034423828125,-7.357177734375,-17.887451171875
0.0895,23.032470703125,-2.472412109375,-20.730224609375
0.09,21.470947265625,2.052001953125,-23.653076171875
0.0905,17.907470703125,6.216064453125,-24.173583984375
0.091,13.503173828125,11.461181640625,-25.014404296875
0.0915,9.098876953125,14.904541015625,-24.093505859375
0.092,4.614501953125,18.908447265625,-23.572998046875
0.0925,0.410400390625,21.070556640625,-21.531005859375
0.093,-4.033935546875,23.633056640625,-19.849365234375
0.0935,-9.038818359375,24.233642578125,-15.525146484375
0.094,-13.603271484375,23.833251953125,-10.680419921875
0.0945,-17.166748046875,24.353759765625,-7.757568359375
0.095,-20.489990234375,22.792236328125,-2.872802734375
0.0955,-23.012451171875,21.310791015625,1.251220703125
0.096,-24.013427734375,18.387939453125,5.054931640625
0.0965,-24.814208984375,14.343994140625,10.099853515625
0.097,-23.693115234375,9.539306640625,13.783447265625
0.0975,-24.133544921875,6.256103515625,17.627197265625
0.098,-22.171630859375,1.931884765625,19.989501953125
0.0985,-20.610107421875,-2.592529296875,22.872314453125
0.099,-16.726318359375,-6.836669921875,23.232666015625
0.0995,-12.161865234375,-11.761474609375,23.552978515625
0.1,-8.678466796875,-15.124755859375,23.512939453125
0.1005,-3.713623046875,-18.768310546875,22.151611328125
0.101,0.290283203125,-21.010498046875,20.469970703125
0.1015,4.734619140625,-23.092529296875,18.227783203125
0.102,9.819580078125,-23.773193359375,13.943603515625
0.1025,14.063720703125,-23.212646484375,9.218994140625
0.103,17.787353515625,-24.053466796875,6.376220703125
0.1035,20.790283203125,-22.291748046875,1.611572265625
0.104,23.432861328125,-20.810302734375,-2.592529296875
0.1045,23.713134765625,-17.286865234375,-6.476318359375
0.105,24.553955078125,-13.162841796875,-11.481201171875
0.1055,23.633056640625,-8.718505859375,-15.004638671875
0.106,23.512939453125,-4.794677734375,-18.848388671875
0.1065,21.430908203125,-0.510498046875,-21.130615234375
0.107,19.468994140625,4.053955078125,-23.572998046875
0.1075,15.024658203125,8.578369140625,-23.693115234375
0.108,10.340087890625,13.182861328125,-23.572998046875
0.1085,7.096923828125,16.586181640625,-23.733154296875
0.109,1.771728515625,19.989501953125,-21.851318359375
0.1095,-2.352294921875,22.271728515625,-20.129638671875
0.11,-6.916748046875,23.552978515625,-16.926513671875
0.1105,-11.801513671875,24.073486328125,-12.762451171875
0.111,-15.845458984375,23.312744140625,-7.997802734375
0.1115,-19.368896484375,23.552978515625,-4.754638671875
0.112,-21.971435546875,21.470947265625,0.010009765625
0.1125,-24.413818359375,19.509033203125,4.494384765625
0.113,-23.853271484375,15.064697265625,8.298095703125
0.1135,-24.533935546875,11.100830078125,13.102783203125
0.114,-23.693115234375,7.096923828125,16.305908203125
0.1145,-22.892333984375,2.732666015625,19.909423828125
0.115,-20.570068359375,-1.671630859375,21.911376953125
0.1155,-18.007568359375,-6.075927734375,23.713134765625
0.116,-13.322998046875,-10.560302734375,23.552978515625
0.1165,-8.638427734375,-14.764404296875,23.032470703125
0.117,-5.515380859375,-17.767333984375,22.952392578125
0.1175,-0.190185546875,-20.770263671875,20.710205078125
0.118,3.973876953125,-22.932373046875,18.828369140625
0.1185,8.658447265625,-23.252685546875,14.544189453125
0.119,12.982666015625,-23.893310546875,10.940673828125
0.1195,16.906494140625,-23.092529296875,6.376220703125
0.12,20.069580078125,-22.772216796875,2.852783203125
0.1205,22.351806640625,-20.810302734375,-1.551513671875
0.121,24.313720703125,-18.447998046875,-5.875732421875
0.1215,23.392822265625,-13.723388671875,-9.679443359375
0.122,23.833251953125,-9.719482421875,-14.203857421875
0.1225,23.232666015625,-6.356201171875,-17.046630859375
0.123,21.831298828125,-1.591552734375,-20.409912109375
0.1235,19.669189453125,2.412353515625,-22.131591796875
0.124,16.345947265625,6.856689453125,-23.252685546875
0.1245,12.141845703125,11.060791015625,-23.252685546875
0.125,7.537353515625,15.104736328125,-22.692138671875
0.1255,4.334228515625,17.907470703125,-22.291748046875
0.126,-0.510498046875,20.630126953125,-20.289794921875
0.1265,-4.754638671875,22.712158203125,-18.247802734375
0.127,-9.279052734375,22.431884765625,-13.443115234375
0.1275,-13.443115234375,23.192626953125,-10.239990234375
0.128,-17.006591796875,22.471923828125,-6.196044921875
0.1285,-20.009521484375,21.831298828125,-2.312255859375
0.129,-22.051513671875,19.869384765625,1.691650390625
0.1295,-23.452880859375,16.946533203125,6.095947265625
0.13,-22.892333984375,12.542236328125,9.939697265625
0.1305,-23.052490234375,8.538330078125,14.223876953125
0.131,-22.772216796875,5.615478515625,16.906494140625
0.1315,-21.130615234375,0.810791015625,20.069580078125
0.132,-18.888427734375,-3.193115234375,21.791259765625
0.1325,-14.884521484375,-7.757568359375,22.271728515625
0.133,-11.240966796875,-11.801513671875,22.672119140625
0.1335,-6.796630859375,-15.565185546875,22.031494140625
0.134,-3.113037109375,-18.327880859375,21.110595703125
0.1345,1.171142578125,-20.770263671875,19.348876953125
0.135,6.055908203125,-22.772216796875,16.626220703125
0.1355,10.219970703125,-22.131591796875,11.821533203125
0.136,14.544189453125,-23.012451171875,8.578369140625
0.1365,17.747314453125,-22.451904296875,4.814697265625
0.137,20.830322265625,-21.330810546875,0.610595703125
0.1375,22.391845703125,-19.168701171875,-3.193115234375
0.138,23.352783203125,-15.525146484375,-7.797607421875
0.1385,23.032470703125,-11.481201171875,-11.641357421875
0.139,22.832275390625,-7.277099609375,-15.725341796875
0.1395,22.111572265625,-3.913818359375,-18.327880859375
0.14,20.389892578125,0.690673828125,-21.130615234375
0.1405,17.627197265625,5.014892578125,-22.732177734375
0.141,12.942626953125,9.459228515625,-22.451904296875
0.1415,9.699462890625,13.302978515625,-23.052490234375
0.142,5.054931640625,16.946533203125,-22.051513671875
0.1425,0.970947265625,19.709228515625,-20.810302734375
0.143,-2.952880859375,21.591064453125,-18.848388671875
0.1435,-8.197998046875,23.192626953125,-15.324951171875
0.144,-12.161865234375,22.271728515625,-10.680419921875
0.1445,-16.325927734375,23.032470703125,-7.197021484375
0.145,-19.088623046875,21.911376953125,-3.393310546875
0.1455,-22.051513671875,20.630126953125,0.970947265625
0.146,-23.012451171875,17.747314453125,4.814697265625
0.1465,-23.332763671875,13.583251953125,9.379150390625
0.147,-23.252685546875,9.939697265625,13.022705078125
0.1475,-22.732177734375,5.535400390625,16.946533203125
0.148,-21.571044921875,1.971923828125,19.348876953125
0.1485,-19.569091796875,-2.312255859375,21.591064453125
0.149,-16.365966796875,-6.996826171875,22.992431640625
0.1495,-11.281005859375,-11.120849609375,22.031494140625
0.15,-8.318115234375,-14.884521484375,22.792236328125
0.1505,-3.593505859375,-17.967529296875,21.190673828125
0.151,0.650634765625,-20.770263671875,19.869384765625
0.1515,4.494384765625,-21.971435546875,17.306884765625
0.152,9.779541015625,-23.172607421875,13.262939453125
0.1525,13.302978515625,-22.491943359375,9.178955078125
0.153,17.547119140625,-22.932373046875,5.415283203125
0.1535,19.869384765625,-21.490966796875,1.771728515625
0.154,22.552001953125,-20.049560546875,-2.432373046875
0.1545,23.112548828125,-16.686279296875,-6.436279296875
0.155,22.992431640625,-12.201904296875,-10.880615234375
0.1555,23.232666015625,-9.038818359375,-14.323974609375
0.156,22.151611328125,-4.434326171875,-17.927490234375
0.1565,20.950439453125,-0.670654296875,-20.409912109375
0.157,18.548095703125,3.253173828125,-21.931396484375
0.1575,14.984619140625,8.177978515625,-23.252685546875
0.158,10.059814453125,12.021728515625,-22.131591796875
0.1585,6.896728515625,15.905517578125,-22.812255859375
0.159,2.332275390625,18.548095703125,-20.970458984375
0.1595,-1.831787109375,21.430908203125,-19.809326171875
0.16,-5.875732421875,22.071533203125,-16.406005859375
0.1605,-10.880615234375,22.872314453125,-12.402099609375
0.161,-14.364013671875,22.552001953125,-8.758544921875
0.1615,-18.447998046875,22.431884765625,-4.514404296875
0.162,-20.650146484375,20.990478515625,-0.870849609375
0.1625,-22.852294921875,19.148681640625,3.213134765625
0.163,-23.212646484375,15.344970703125,7.537353515625
0.1635,-22.892333984375,10.740478515625,11.821533203125
0.164,-23.412841796875,7.817626953125,15.304931640625
0.1645,-21.931396484375,3.093017578125,18.548095703125
0.165,-20.610107421875,-0.990966796875,21.270751953125
0.1655,-17.647216796875,-4.794677734375,22.071533203125
0.166,-13.803466796875,-9.839599609375,23.232666015625
0.1665,-9.038818359375,-13.443115234375,22.151611328125
0.167,-5.435302734375,-17.366943359375,22.431884765625
0.1675,-0.830810546875,-19.809326171875,20.349853515625
0.168,3.533447265625,-22.732177734375,18.828369140625
0.1685,7.977783203125,-22.772216796875,14.704345703125
0.169,12.742431640625,-23.332763671875,10.580322265625
0.1695,16.345947265625,-23.332763671875,7.056884765625
0.17,20.149658203125,-22.491943359375,2.412353515625
0.1705,22.431884765625,-20.810302734375,-1.631591796875
0.171,23.913330078125,-18.247802734375,-5.635498046875
0.1715,24.153564453125,-14.123779296875,-10.039794921875
0.172,23.432861328125,-9.279052734375,-14.243896484375
0.1725,23.753173828125,-6.196044921875,-17.727294921875
0.173,21.711181640625,-0.990966796875,-20.850341796875
0.1735,19.989501953125,3.333251953125,-23.372802734375
0.174,15.985595703125,7.417236328125,-23.452880859375
0.1745,11.981689453125,12.181884765625,-24.213623046875
0.175,7.377197265625,15.865478515625,-23.252685546875
0.1755,2.932861328125,19.629150390625,-22.652099609375
0.176,-1.631591796875,21.991455078125,-20.289794921875
0.1765,-6.276123046875,24.233642578125,-18.327880859375
0.177,-10.760498046875,23.673095703125,-13.403076171875
0.1775,-15.324951171875,23.953369140625,-9.118896484375
0.178,-18.848388671875,23.793212890625,-5.475341796875
0.1785,-22.251708984375,22.271728515625,-0.630615234375
0.179,-24.293701171875,20.069580078125,3.813720703125
0.1795,-24.894287109375,16.546142578125,7.937744140625
0.18,-25.014404296875,12.382080078125,12.302001953125
0.1805,-24.053466796875,7.417236328125,16.345947265625
