wavelength,x,y,z
0.0,19.924438476562,0.9459228515625,-20.875366210938
0.0005,18.162719726562,5.8306884765625,-24.038452148438
0.001,13.998657226562,11.035766601562,-25.079467773438
0.0015,11.836547851562,14.359008789062,-26.280639648438
0.002,5.4703369140625,17.562133789062,-23.117553710938
0.0025,1.4664306640625,19.363891601562,-21.035522460938
0.003,-4.3392333984375,22.246704101562,-18.272827148438
0.0035,-9.6243896484375,25.609985351562,-16.431030273438
0.004,-13.508178710938,25.409790039062,-12.387084960938
0.0045,-17.031616210938,25.569946289062,-8.9437255859375
0.005,-18.873413085938,23.007446289062,-4.5794677734375
0.0055,-21.956420898438,20.765258789062,0.8658447265625
0.006,-24.318725585938,18.563110351562,5.4302978515625
0.0065,-26.160522460938,15.199829101562,10.635375976562
0.007,-26.120483398438,12.357055664062,13.398071289062
0.0075,-24.278686523438,6.7515869140625,17.161743164062
0.008,-22.076538085938,3.3482666015625,18.242797851562
0.0085,-19.393920898438,-2.7777099609375,21.806274414062
0.009,-17.231811523438,-7.7425537109375,24.649047851562
0.0095,-13.027709960938,-12.347045898438,25.049438476562
0.01,-10.305053710938,-15.510131835938,25.609985351562
0.0105,-4.2191162109375,-18.032592773438,22.086547851562
0.011,0.6256103515625,-20.354858398438,19.684204101562
0.0115,5.6705322265625,-23.117553710938,17.562133789062
0.012,11.235961914062,-25.920288085938,14.799438476562
0.0125,14.238891601562,-25.559936523438,11.516235351562
0.013,18.002563476562,-24.679077148438,6.8316650390625
0.0135,19.524047851562,-22.356811523438,2.9478759765625
0.014,23.047485351562,-20.194702148438,-2.8177490234375
0.0145,25.049438476562,-17.832397460938,-7.2220458984375
0.015,26.370727539062,-14.068725585938,-12.347045898438
0.0155,26.170532226562,-11.145874023438,-15.029663085938
0.016,23.688110351562,-5.6204833984375,-18.232788085938
0.0165,21.245727539062,-1.7767333984375,-19.594116210938
0.017,19.083618164062,3.9888916015625,-23.077514648438
0.0175,16.000610351562,9.4742431640625,-25.479858398438
0.018,12.116821289062,13.438110351562,-25.599975585938
0.0185,8.1929931640625,16.721313476562,-25.039428710938
0.019,2.7476806640625,18.843383789062,-21.756225585938
0.0195,-2.8177490234375,21.766235351562,-19.313842773438
0.02,-7.3822021484375,24.368774414062,-17.351928710938
0.0205,-12.987670898438,26.570922851562,-14.068725585938
0.021,-15.750366210938,25.770141601562,-10.545288085938
0.0215,-18.993530273438,24.288696289062,-5.7406005859375
0.022,-20.795288085938,21.646118164062,-1.2962646484375
0.0225,-24.398803710938,19.764282226562,4.3492431640625
0.023,-25.800170898438,16.641235351562,8.8336181640625
0.0235,-26.881225585938,13.117797851562,13.398071289062
0.024,-25.840209960938,9.1939697265625,16.320922851562
0.0245,-23.157592773438,3.8687744140625,18.923461914062
0.025,-20.354858398438,-1.0560302734375,21.005493164062
0.0255,-18.553100585938,-6.1810302734375,24.368774414062
0.026,-14.869506835938,-11.546264648438,26.130493164062
0.0265,-10.905639648438,-15.069702148438,25.770141601562
0.027,-6.4212646484375,-17.952514648438,24.168579101562
0.0275,-0.7757568359375,-20.034545898438,20.725219726562
0.028,4.9097900390625,-23.237670898438,18.402954101562
0.0285,9.5142822265625,-25.239624023438,15.880493164062
0.029,14.399047851562,-27.161499023438,12.917602539062
0.0295,17.361938476562,-25.399780273438,8.1929931640625
0.03,20.124633789062,-23.878295898438,3.9488525390625
0.0305,22.286743164062,-20.875366210938,-1.3763427734375
0.031,25.810180664062,-19.273803710938,-6.5013427734375
0.0315,26.250610351562,-15.309936523438,-11.025756835938
0.032,27.051391601562,-12.106811523438,-14.909545898438
0.0325,25.169555664062,-7.7025146484375,-17.512084960938
0.033,22.366821289062,-2.4974365234375,-19.914428710938
0.0335,19.564086914062,2.8677978515625,-22.436889648438
0.034,17.361938476562,7.8326416015625,-25.199584960938
0.0345,13.798461914062,12.877563476562,-26.761108398438
0.035,8.9937744140625,16.360961914062,-25.479858398438
0.0355,4.7496337890625,18.563110351562,-23.437866210938
0.036,-1.2161865234375,21.005493164062,-20.034545898438
0.0365,-6.5013427734375,24.408813476562,-18.352905273438
0.037,-11.225952148438,25.489868164062,-14.709350585938
0.0375,-15.069702148438,27.211547851562,-12.587280273438
0.038,-18.112670898438,24.649047851562,-7.0218505859375
0.0385,-20.474975585938,23.047485351562,-2.9779052734375
0.039,-22.877319335938,20.084594726562,2.4273681640625
0.0395,-26.120483398438,18.362915039062,7.4322509765625
0.04,-26.200561523438,14.158813476562,11.676391601562
0.0405,-26.360717773438,10.475219726562,15.520141601562
0.041,-24.238647460938,6.4312744140625,17.442016601562
0.0415,-21.235717773438,0.7857666015625,20.044555664062
0.042,-19.033569335938,-4.2591552734375,22.967407226562
0.0425,-15.990600585938,-9.1839599609375,24.849243164062
0.043,-13.428100585938,-13.307983398438,26.410766601562
0.0435,-7.4622802734375,-16.711303710938,24.008422851562
0.044,-3.6185302734375,-18.553100585938,22.046508789062
0.0445,2.3873291015625,-21.155639648438,18.763305664062
0.045,7.4722900390625,-24.919311523438,17.522094726562
0.0455,12.156860351562,-25.159545898438,13.197875976562
0.046,15.640258789062,-26.440795898438,10.955688476562
0.0465,18.042602539062,-23.758178710938,5.9107666015625
0.047,20.685180664062,-21.916381835938,1.3062744140625
0.0475,23.247680664062,-19.473999023438,-3.8187255859375
0.048,25.930297851562,-17.111694335938,-8.7835693359375
0.0485,26.130493164062,-13.748413085938,-12.427124023438
0.049,25.249633789062,-9.0238037109375,-16.350952148438
0.0495,23.247680664062,-5.7406005859375,-17.592163085938
0.05,20.244750976562,0.3052978515625,-20.515014648438
0.0505,18.523071289062,5.2701416015625,-23.838256835938
0.051,14.399047851562,10.315063476562,-24.759155273438
0.0515,12.236938476562,13.958618164062,-26.280639648438
0.052,6.0709228515625,17.041625976562,-23.197631835938
0.0525,2.0269775390625,19.043579101562,-21.195678710938
0.053,-3.6585693359375,21.726196289062,-18.392944335938
0.0535,-8.9036865234375,25.289672851562,-16.791381835938
0.054,-12.867553710938,25.169555664062,-12.787475585938
0.0545,-16.511108398438,25.409790039062,-9.3040771484375
0.055,-18.152709960938,23.047485351562,-5.3802490234375
0.0555,-21.275756835938,20.845336914062,0.0650634765625
0.056,-23.878295898438,18.803344726562,4.7496337890625
0.0565,-25.640014648438,15.560180664062,9.7545166015625
0.057,-26.080444335938,12.837524414062,12.917602539062
0.0575,-24.078491210938,7.1920166015625,16.601196289062
0.058,-22.116577148438,4.0689697265625,17.762329101562
0.0585,-19.393920898438,-2.0169677734375,21.085571289062
0.059,-17.632202148438,-7.0618896484375,24.408813476562
0.0595,-13.388061523438,-11.586303710938,24.649047851562
0.06,-10.785522460938,-14.989624023438,25.569946289062
0.0605,-4.8997802734375,-17.351928710938,22.086547851562
0.061,-0.0950927734375,-19.794311523438,19.804321289062
0.0615,4.9498291015625,-22.476928710938,17.642211914062
0.062,10.635375976562,-25.599975585938,15.119750976562
0.0625,13.718383789062,-25.439819335938,11.876586914062
0.063,17.562133789062,-24.478881835938,7.1119384765625
0.0635,18.883422851562,-22.436889648438,3.7086181640625
0.064,22.446899414062,-20.154663085938,-2.2171630859375
0.0645,24.769165039062,-18.192749023438,-6.6614990234375
0.065,25.930297851562,-14.308959960938,-11.706420898438
0.0655,26.170532226562,-11.786499023438,-14.549194335938
0.066,23.407836914062,-5.9007568359375,-17.552124023438
0.0665,21.285766601562,-2.2572021484375,-19.073608398438
0.067,19.083618164062,3.4283447265625,-22.476928710938
0.0675,16.481079101562,8.8736572265625,-25.359741210938
0.068,12.357055664062,12.877563476562,-25.279663085938
0.0685,8.5933837890625,16.320922851562,-24.999389648438
0.069,3.2681884765625,18.242797851562,-21.636108398438
0.0695,-2.3372802734375,21.365844726562,-19.313842773438
0.07,-6.7816162109375,23.928344726562,-17.472045898438
0.0705,-12.507202148438,26.250610351562,-14.148803710938
0.071,-15.229858398438,25.650024414062,-10.865600585938
0.0715,-18.633178710938,24.008422851562,-5.7806396484375
0.072,-20.194702148438,21.646118164062,-1.9368896484375
0.0725,-23.758178710938,19.604125976562,3.7486572265625
0.073,-25.399780273438,16.961547851562,8.1529541015625
0.0735,-26.120483398438,13.117797851562,12.637329101562
0.074,-25.680053710938,9.7144775390625,15.680297851562
0.0745,-22.637084960938,4.2291259765625,18.082641601562
0.075,-20.234741210938,-0.2952880859375,20.244750976562
0.0755,-18.432983398438,-5.3001708984375,23.407836914062
0.076,-15.189819335938,-10.745483398438,25.609985351562
0.0765,-11.185913085938,-14.108764648438,25.009399414062
0.077,-6.7015380859375,-17.151733398438,23.648071289062
0.0775,-1.5364990234375,-18.913452148438,20.364868164062
0.078,4.0689697265625,-22.276733398438,18.322875976562
0.0785,8.3531494140625,-24.318725585938,16.040649414062
0.079,13.398071289062,-26.160522460938,12.997680664062
0.0795,16.200805664062,-24.919311523438,8.8736572265625
0.08,18.963500976562,-23.117553710938,4.3092041015625
0.0805,21.005493164062,-20.675170898438,-0.2952880859375
0.081,24.488891601562,-19.153686523438,-5.3001708984375
0.0815,25.369750976562,-15.710327148438,-9.7845458984375
0.082,25.770141601562,-12.266967773438,-13.428100585938
0.0825,24.649047851562,-8.3431396484375,-16.310913085938
0.083,21.646118164062,-3.2581787109375,-18.392944335938
0.0835,19.524047851562,1.5865478515625,-21.075561523438
0.084,17.361938476562,6.3511962890625,-23.678100585938
0.0845,14.078735351562,11.516235351562,-25.640014648438
0.085,9.6343994140625,14.759399414062,-24.398803710938
0.0855,5.2701416015625,17.241821289062,-22.597045898438
0.086,0.0650634765625,19.243774414062,-19.514038085938
0.0865,-5.0599365234375,22.807250976562,-18.192749023438
0.087,-9.5843505859375,24.208618164062,-15.069702148438
0.0875,-13.628295898438,25.810180664062,-12.667358398438
0.088,-16.471069335938,23.888305664062,-7.9027099609375
0.0885,-18.873413085938,22.046508789062,-3.6986083984375
0.089,-21.275756835938,19.724243164062,1.2261962890625
0.0895,-24.438842773438,18.242797851562,5.7906494140625
0.09,-25.119506835938,14.599243164062,10.234985351562
0.0905,-24.999389648438,10.875610351562,13.798461914062
0.091,-23.397827148438,7.0718994140625,16.000610351562
0.0915,-20.394897460938,1.9068603515625,18.242797851562
0.092,-18.873413085938,-3.0179443359375,21.526000976562
0.0925,-16.110717773438,-7.5423583984375,23.367797851562
0.093,-13.548217773438,-11.946655273438,25.209594726562
0.0935,-8.2630615234375,-15.069702148438,23.087524414062
0.094,-4.1390380859375,-17.231811523438,21.165649414062
0.0945,1.3463134765625,-19.554077148438,18.202758789062
0.095,6.1109619140625,-23.397827148438,17.401977539062
0.0955,10.675415039062,-24.038452148438,13.438110351562
0.096,14.198852539062,-25.119506835938,11.075805664062
0.0965,16.601196289062,-23.077514648438,6.5914306640625
0.097,19.163696289062,-21.115600585938,1.9869384765625
0.0975,21.926391601562,-19.153686523438,-2.8577880859375
0.098,24.408813476562,-17.031616210938,-7.3822021484375
0.0985,25.209594726562,-13.948608398438,-11.265991210938
0.099,24.048461914062,-9.3040771484375,-14.749389648438
0.0995,22.446899414062,-6.0609130859375,-16.471069335938
0.1,19.524047851562,-0.5755615234375,-19.033569335938
0.1005,18.442993164062,4.2291259765625,-22.757202148438
0.101,14.559204101562,8.9937744140625,-23.557983398438
0.1015,12.437133789062,12.797485351562,-25.239624023438
0.102,6.7115478515625,15.600219726562,-22.396850585938
0.1025,2.5074462890625,17.882446289062,-20.474975585938
0.103,-2.8978271484375,20.565063476562,-17.952514648438
0.1035,-7.7425537109375,24.168579101562,-16.791381835938
0.104,-11.786499023438,24.408813476562,-13.107788085938
0.1045,-15.349975585938,24.368774414062,-9.5042724609375
0.105,-17.071655273438,22.567016601562,-5.9808349609375
0.1055,-20.114624023438,20.324829101562,-0.6556396484375
0.106,-23.037475585938,18.643188476562,4.0689697265625
0.1065,-24.478881835938,15.520141601562,8.6334228515625
0.107,-25.479858398438,13.197875976562,11.956665039062
0.1075,-23.237670898438,7.5523681640625,15.400024414062
0.108,-21.636108398438,4.3492431640625,17.001586914062
0.1085,-18.913452148438,-1.3763427734375,19.924438476562
0.109,-17.672241210938,-6.3011474609375,23.688110351562
0.1095,-13.428100585938,-10.585327148438,23.728149414062
0.11,-10.745483398438,-14.228881835938,24.689086914062
0.1105,-5.4603271484375,-16.270874023438,21.485961914062
0.111,-0.4954833984375,-18.913452148438,19.283813476562
0.1115,4.4293212890625,-21.636108398438,17.281860351562
0.112,9.6343994140625,-24.598999023438,15.039672851562
0.1125,12.757446289062,-24.879272460938,12.236938476562
0.113,16.561157226562,-23.557983398438,7.0718994140625
0.1135,17.882446289062,-22.036499023438,4.1490478515625
0.114,21.165649414062,-19.674194335938,-1.4564208984375
0.1145,24.048461914062,-18.032592773438,-6.0609130859375
0.115,24.568969726562,-14.068725585938,-10.545288085938
0.1155,25.409790039062,-11.906616210938,-13.508178710938
0.116,22.446899414062,-6.2611083984375,-16.190795898438
0.1165,20.685180664062,-2.6175537109375,-18.112670898438
0.117,18.442993164062,2.6676025390625,-21.115600585938
0.1175,16.401000976562,7.9927978515625,-24.438842773438
0.118,12.517211914062,11.676391601562,-24.198608398438
0.1185,8.5133056640625,15.319946289062,-23.878295898438
0.119,4.1490478515625,16.721313476562,-21.075561523438
0.1195,-1.5364990234375,19.924438476562,-18.753295898438
0.12,-5.7806396484375,22.647094726562,-17.231811523438
0.1205,-11.185913085938,24.649047851562,-13.908569335938
0.121,-13.788452148438,24.849243164062,-11.586303710938
0.1215,-17.151733398438,22.647094726562,-6.0208740234375
0.122,-18.553100585938,21.085571289062,-2.8577880859375
0.1225,-21.796264648438,19.083618164062,2.4273681640625
0.123,-24.358764648438,16.961547851562,7.1119384765625
0.1235,-24.358764648438,13.037719726562,10.995727539062
0.124,-24.679077148438,10.114868164062,14.238891601562
0.1245,-21.636108398438,5.1900634765625,16.160766601562
0.125,-19.674194335938,0.6656494140625,18.763305664062
0.1255,-17.952514648438,-3.9388427734375,21.606079101562
0.126,-15.149780273438,-9.3040771484375,24.168579101562
0.1265,-11.826538085938,-12.266967773438,23.848266601562
0.127,-6.8616943359375,-15.710327148438,22.366821289062
0.1275,-2.9378662109375,-17.031616210938,19.884399414062
0.128,2.7076416015625,-20.555053710938,17.802368164062
0.1285,6.9918212890625,-23.037475585938,16.120727539062
0.129,11.796508789062,-24.358764648438,12.717407226562
0.1295,14.479125976562,-24.278686523438,9.8345947265625
0.13,17.201782226562,-21.876342773438,4.8297119140625
0.1305,19.283813476562,-20.114624023438,0.9459228515625
0.131,22.326782226562,-18.633178710938,-3.6585693359375
0.1315,24.448852539062,-15.950561523438,-8.5433349609375
0.132,24.128540039062,-12.427124023438,-11.706420898438
0.1325,23.648071289062,-8.7034912109375,-14.989624023438
0.133,20.805297851562,-4.3392333984375,-16.511108398438
0.1335,19.003540039062,0.7056884765625,-19.714233398438
0.134,17.241821289062,4.9498291015625,-22.156616210938
0.1345,14.038696289062,10.234985351562,-24.318725585938
0.135,10.435180664062,13.117797851562,-23.678100585938
0.1355,5.3502197265625,16.080688476562,-21.515991210938
0.136,1.1461181640625,17.762329101562,-19.113647460938
0.1365,-4.0989990234375,21.325805664062,-17.632202148438
0.137,-8.5032958984375,23.367797851562,-15.309936523438
0.1375,-12.427124023438,24.288696289062,-12.387084960938
0.138,-15.269897460938,23.367797851562,-8.5833740234375
0.1385,-17.512084960938,21.125610351562,-3.9788818359375
0.139,-20.154663085938,19.283813476562,0.5054931640625
0.1395,-22.797241210938,17.882446289062,4.5494384765625
0.14,-24.438842773438,14.759399414062,9.3541259765625
0.1405,-23.758178710938,11.115844726562,12.397094726562
0.141,-22.557006835938,7.0718994140625,15.239868164062
0.1415,-19.874389648438,2.6275634765625,16.921508789062
0.142,-18.513061523438,-2.4173583984375,20.605102539062
0.1425,-16.030639648438,-6.5814208984375,22.366821289062
0.143,-13.227905273438,-11.105834960938,24.048461914062
0.1435,-8.9036865234375,-14.068725585938,22.687133789062
0.144,-4.0189208984375,-16.511108398438,20.324829101562
0.1445,0.6656494140625,-18.633178710938,17.882446289062
0.145,5.3101806640625,-22.156616210938,16.921508789062
0.1455,9.8746337890625,-23.678100585938,13.798461914062
0.146,13.237915039062,-23.958374023438,10.835571289062
0.1465,15.960571289062,-22.677124023438,6.9517822265625
0.147,18.202758789062,-20.394897460938,2.2672119140625
0.1475,21.205688476562,-18.873413085938,-2.3372802734375
0.148,23.087524414062,-16.791381835938,-6.2611083984375
0.1485,24.649047851562,-13.988647460938,-10.665405273438
0.149,23.367797851562,-9.6644287109375,-13.748413085938
0.1495,21.846313476562,-5.9007568359375,-15.990600585938
0.15,19.163696289062,-1.2161865234375,-17.952514648438
0.1505,18.242797851562,3.6685791015625,-21.916381835938
0.151,14.759399414062,8.1529541015625,-22.877319335938
0.1515,12.116821289062,12.156860351562,-24.278686523438
0.152,7.3521728515625,14.879516601562,-22.236694335938
0.1525,2.5074462890625,17.161743164062,-19.874389648438
0.153,-2.4173583984375,19.764282226562,-17.712280273438
0.1535,-6.9017333984375,23.007446289062,-16.511108398438
0.154,-11.225952148438,24.208618164062,-13.428100585938
0.1545,-14.589233398438,23.608032226562,-9.4642333984375
0.155,-16.671264648438,22.326782226562,-6.1409912109375
0.1555,-19.273803710938,19.804321289062,-0.9759521484375
0.156,-22.557006835938,18.563110351562,3.7086181640625
0.1565,-23.557983398438,15.440063476562,7.7525634765625
0.157,-24.999389648438,13.197875976562,11.516235351562
0.1575,-22.837280273438,7.9927978515625,14.599243164062
0.158,-21.235717773438,4.1490478515625,16.761352539062
0.1585,-18.553100585938,-1.0960693359375,19.283813476562
0.159,-17.592163085938,-5.8206787109375,23.127563476562
0.1595,-13.708374023438,-10.104858398438,23.487915039062
0.16,-10.545288085938,-13.788452148438,24.088500976562
0.1605,-5.9007568359375,-15.870483398438,21.566040039062
0.161,-0.5755615234375,-18.593139648438,19.003540039062
0.1615,4.3492431640625,-21.515991210938,17.121704101562
0.162,9.2740478515625,-23.958374023438,14.839477539062
0.1625,12.637329101562,-24.999389648438,12.597290039062
0.163,16.240844726562,-23.157592773438,7.0718994140625
0.1635,17.922485351562,-21.956420898438,4.1490478515625
0.164,20.925415039062,-19.353881835938,-1.4964599609375
0.1645,24.288696289062,-18.112670898438,-6.1409912109375
0.165,24.328735351562,-14.028686523438,-10.385131835938
0.1655,25.489868164062,-11.826538085938,-13.708374023438
0.166,22.607055664062,-6.5413818359375,-16.110717773438
0.1665,20.685180664062,-2.2572021484375,-18.513061523438
0.167,18.242797851562,2.9078369140625,-21.115600585938
0.1675,16.360961914062,8.0728759765625,-24.478881835938
0.168,12.797485351562,11.796508789062,-24.598999023438
0.1685,8.1929931640625,15.600219726562,-23.838256835938
0.169,4.2291259765625,17.041625976562,-21.475952148438
0.1695,-1.8568115234375,20.204711914062,-18.713256835938
0.17,-6.4212646484375,23.247680664062,-17.231811523438
0.1705,-11.466186523438,24.689086914062,-13.668334960938
0.171,-14.188842773438,25.609985351562,-11.866577148438
0.1715,-17.472045898438,22.807250976562,-5.7806396484375
0.172,-19.233764648438,21.325805664062,-2.4974365234375
0.1725,-22.196655273438,19.003540039062,2.8677978515625
0.173,-25.279663085938,17.161743164062,7.7926025390625
0.1735,-24.759155273438,12.997680664062,11.476196289062
0.174,-25.119506835938,9.9146728515625,14.919555664062
0.1745,-22.116577148438,5.2701416015625,16.601196289062
0.175,-19.914428710938,0.1451416015625,19.524047851562
0.1755,-17.992553710938,-4.6595458984375,22.286743164062
0.176,-15.069702148438,-9.9046630859375,24.649047851562
0.1765,-12.146850585938,-12.867553710938,24.729125976562
0.177,-6.5013427734375,-16.471069335938,22.647094726562
0.1775,-2.8177490234375,-17.752319335938,20.284790039062
0.178,3.1881103515625,-20.995483398438,17.802368164062
