wavelength,x,y,z
0.0,20.785278320312,-5.7606201171875,-14.248901367188
0.0005,19.824340820312,-1.5965576171875,-17.371948242188
0.001,17.702270507812,2.5274658203125,-19.413940429688
0.0015,15.780395507812,5.5704345703125,-20.615112304688
0.002,13.097778320312,8.7735595703125,-21.135620117188
0.0025,8.6534423828125,12.497192382812,-20.655151367188
0.003,4.3292236328125,15.740356445312,-19.654174804688
0.0035,-0.5155029296875,18.382934570312,-17.692260742188
0.004,-4.4393310546875,20.184692382812,-15.850463867188
0.0045,-7.1619873046875,20.464965820312,-13.648315429688
0.005,-10.405151367188,20.785278320312,-10.965698242188
0.0055,-14.369018554688,20.104614257812,-6.4813232421875
0.006,-17.371948242188,18.583129882812,-2.1170654296875
0.0065,-19.494018554688,16.661254882812,1.9669189453125
0.007,-20.895385742188,14.739379882812,5.1700439453125
0.0075,-21.135620117188,11.976684570312,8.2530517578125
0.008,-21.095581054688,8.2530517578125,11.856567382812
0.0085,-20.414916992188,4.3292236328125,15.179809570312
0.009,-18.973510742188,0.0450439453125,18.022583007812
0.0095,-17.211791992188,-3.8387451171875,19.984497070312
0.01,-14.769409179688,-6.5614013671875,20.505004882812
0.0105,-12.166870117188,-9.6444091796875,20.985473632812
0.011,-7.2020263671875,-13.648315429688,20.224731445312
0.0115,-2.6375732421875,-16.611206054688,18.783325195312
0.012,1.7266845703125,-18.653198242188,16.781372070312
0.0125,5.1300048828125,-20.254760742188,15.179809570312
0.013,8.0528564453125,-20.374877929688,12.657348632812
0.0135,11.255981445312,-20.254760742188,9.4542236328125
0.014,14.859497070312,-19.894409179688,5.2901611328125
0.0145,17.782348632812,-17.852416992188,0.9259033203125
0.015,19.664184570312,-16.010620117188,-2.8778076171875
0.0155,20.424926757812,-13.888549804688,-5.6805419921875
0.016,20.745239257812,-11.245971679688,-8.6834716796875
0.0165,20.384887695312,-7.0018310546875,-12.647338867188
0.017,19.584106445312,-3.2781982421875,-15.570190429688
0.0175,17.942504882812,0.6456298828125,-17.812377929688
0.018,16.340942382812,4.2091064453125,-19.774291992188
0.0185,13.578247070312,7.0518798828125,-19.934448242188
0.019,10.695434570312,10.134887695312,-20.214721679688
0.0195,6.0108642578125,13.938598632812,-19.494018554688
0.02,1.2462158203125,16.821411132812,-17.812377929688
0.0205,-2.5574951171875,18.543090820312,-15.970581054688
0.021,-5.5203857421875,19.704223632812,-14.409057617188
0.0215,-8.5233154296875,19.944458007812,-11.886596679688
0.022,-12.126831054688,19.504028320312,-7.8826904296875
0.0225,-15.249877929688,18.703247070312,-4.2391357421875
0.023,-17.812377929688,16.901489257812,0.0450439453125
0.0235,-19.574096679688,15.139770507812,3.5284423828125
0.024,-20.014526367188,12.777465820312,6.2510986328125
0.0245,-20.374877929688,10.094848632812,9.3341064453125
0.025,-19.934448242188,5.7305908203125,13.297973632812
0.0255,-18.933471679688,1.8468017578125,16.220825195312
0.026,-17.251831054688,-1.7567138671875,18.102661132812
0.0265,-15.730346679688,-4.8397216796875,19.784301757812
0.027,-12.967651367188,-7.7625732421875,19.904418945312
0.0275,-9.0438232421875,-11.245971679688,19.704223632812
0.028,-4.9197998046875,-14.529174804688,18.943481445312
0.0285,0.0050048828125,-17.211791992188,17.021606445312
0.029,3.4083251953125,-18.813354492188,15.420043945312
0.0295,6.1710205078125,-19.494018554688,13.458129882812
0.03,9.0938720703125,-19.894409179688,11.135864257812
0.0305,13.137817382812,-19.173706054688,6.6114501953125
0.031,15.980590820312,-17.972534179688,2.7276611328125
0.0315,18.102661132812,-16.370971679688,-1.0360107421875
0.032,19.704223632812,-14.609252929688,-4.1590576171875
0.0325,19.824340820312,-12.006713867188,-7.0819091796875
0.033,19.984497070312,-8.8035888671875,-10.445190429688
0.0335,19.544067382812,-4.9197998046875,-13.928588867188
0.034,18.222778320312,-0.7156982421875,-16.731323242188
0.0345,16.421020507812,2.8077392578125,-18.453002929688
0.035,14.579223632812,5.6104736328125,-19.494018554688
0.0355,12.016723632812,8.5733642578125,-19.934448242188
0.036,7.1319580078125,12.617309570312,-19.213745117188
0.0365,3.1680908203125,15.380004882812,-18.212768554688
0.037,-1.1561279296875,17.622192382812,-16.370971679688
0.0375,-4.5594482421875,19.223754882812,-14.809448242188
0.038,-7.3621826171875,19.343872070312,-12.327026367188
0.0385,-10.365112304688,19.584106445312,-9.7645263671875
0.039,-14.248901367188,18.863403320312,-5.4002685546875
0.0395,-17.011596679688,17.141723632812,-0.9959716796875
0.04,-18.773315429688,15.500122070312,2.4073486328125
0.0405,-19.934448242188,13.618286132812,5.4102783203125
0.041,-20.094604492188,10.855590820312,8.2530517578125
0.0415,-19.934448242188,6.8516845703125,12.136840820312
0.042,-19.293823242188,3.3282470703125,15.099731445312
0.0425,-17.772338867188,-0.7557373046875,17.622192382812
0.043,-16.010620117188,-4.1590576171875,19.263793945312
0.0435,-13.528198242188,-6.8817138671875,19.584106445312
0.044,-10.885620117188,-9.8446044921875,20.024536132812
0.0445,-5.7205810546875,-13.888549804688,19.023559570312
0.045,-1.2362060546875,-16.531127929688,17.381958007812
0.0455,2.4073486328125,-18.252807617188,15.740356445312
0.046,5.5704345703125,-19.574096679688,14.138793945312
0.0465,8.4532470703125,-19.534057617188,11.416137695312
0.047,11.816528320312,-19.253784179688,7.9327392578125
0.0475,15.099731445312,-18.533081054688,4.0889892578125
0.048,17.622192382812,-16.651245117188,-0.3153076171875
0.0485,19.103637695312,-14.969604492188,-3.3582763671875
0.049,19.704223632812,-12.687377929688,-6.1209716796875
0.0495,19.904418945312,-10.204956054688,-9.0037841796875
0.05,19.504028320312,-5.7205810546875,-13.007690429688
0.0505,18.463012695312,-2.0369873046875,-15.690307617188
0.051,16.941528320312,1.5264892578125,-17.692260742188
0.0515,15.299926757812,4.7296142578125,-19.293823242188
0.052,12.377075195312,7.5323486328125,-19.253784179688
0.0525,9.0137939453125,10.855590820312,-19.293823242188
0.053,4.6094970703125,14.379028320312,-18.533081054688
0.0535,-0.1551513671875,16.781372070312,-16.491088867188
0.054,-3.2381591796875,18.182739257812,-15.009643554688
0.0545,-6.1209716796875,19.103637695312,-13.287963867188
0.055,-8.9237060546875,19.223754882812,-10.805541992188
0.0555,-12.727416992188,18.543090820312,-6.4412841796875
0.056,-15.570190429688,17.502075195312,-2.7176513671875
0.0565,-17.612182617188,15.820434570312,1.0059814453125
0.057,-18.973510742188,14.098754882812,3.9688720703125
0.0575,-19.213745117188,11.536254882812,6.8917236328125
0.058,-19.494018554688,8.7735595703125,9.8546142578125
0.0585,-19.093627929688,4.6895751953125,13.538208007812
0.059,-17.732299804688,0.7257080078125,16.140747070312
0.0595,-16.170776367188,-2.4373779296875,17.782348632812
0.06,-14.609252929688,-5.3602294921875,19.103637695312
0.0605,-11.806518554688,-8.1229248046875,19.183715820312
0.061,-7.4422607421875,-11.846557617188,18.623168945312
0.0615,-3.3582763671875,-14.889526367188,17.782348632812
0.062,1.0059814453125,-17.131713867188,15.940551757812
0.0625,3.9688720703125,-18.412963867188,14.459106445312
0.063,6.8116455078125,-18.893432617188,12.296997070312
0.0635,9.7344970703125,-19.093627929688,9.7745361328125
0.064,13.578247070312,-18.412963867188,5.4102783203125
0.0645,16.180786132812,-16.891479492188,1.4063720703125
0.065,17.982543945312,-15.410034179688,-1.8768310546875
0.0655,18.903442382812,-13.808471679688,-4.7596435546875
0.066,19.223754882812,-10.885620117188,-7.6024169921875
0.0665,19.183715820312,-7.3621826171875,-11.205932617188
0.067,18.743286132812,-3.6785888671875,-14.369018554688
0.0675,17.301879882812,0.4454345703125,-16.851440429688
0.068,15.580200195312,3.4884033203125,-18.332885742188
0.0685,13.418090820312,6.3311767578125,-19.093627929688
0.069,10.615356445312,9.3341064453125,-19.373901367188
0.0695,5.6505126953125,13.257934570312,-18.453002929688
0.07,1.4464111328125,15.940551757812,-17.131713867188
0.0705,-2.2772216796875,17.822387695312,-15.530151367188
0.071,-5.2401123046875,18.943481445312,-13.968627929688
0.0715,-8.2430419921875,19.063598632812,-11.245971679688
0.072,-11.526245117188,18.943481445312,-8.0428466796875
0.0725,-15.009643554688,18.062622070312,-3.8787841796875
0.073,-17.492065429688,16.220825195312,0.4854736328125
0.0735,-18.933471679688,14.579223632812,3.3282470703125
0.074,-19.694213867188,12.497192382812,6.2510986328125
0.0745,-19.854370117188,9.6544189453125,9.2139892578125
0.075,-19.373901367188,5.4102783203125,13.057739257812
0.0755,-18.453002929688,1.7667236328125,15.900512695312
0.076,-16.891479492188,-1.9969482421875,18.062622070312
0.0765,-15.089721679688,-5.0399169921875,19.263793945312
0.077,-12.327026367188,-7.9627685546875,19.504028320312
0.0775,-9.0037841796875,-11.245971679688,19.624145507812
0.078,-4.1190185546875,-14.849487304688,18.503051757812
0.0785,0.5655517578125,-17.291870117188,16.501098632812
0.079,3.6885986328125,-18.733276367188,15.059692382812
0.0795,6.6514892578125,-19.574096679688,13.177856445312
0.08,9.6544189453125,-19.534057617188,10.255004882812
0.0805,13.257934570312,-19.013549804688,6.3311767578125
0.081,16.300903320312,-17.892456054688,2.3272705078125
0.0815,18.543090820312,-15.970581054688,-1.9168701171875
0.082,19.544067382812,-14.128784179688,-4.5994873046875
0.0825,19.984497070312,-11.486206054688,-7.6424560546875
0.083,19.984497070312,-8.3631591796875,-10.805541992188
0.0835,19.343872070312,-4.1990966796875,-14.409057617188
0.084,17.742309570312,-0.1951904296875,-16.811401367188
0.0845,16.300903320312,3.1680908203125,-18.693237304688
0.085,14.218872070312,6.2510986328125,-19.774291992188
0.0855,11.055786132812,9.1739501953125,-19.574096679688
0.086,7.0518798828125,12.697387695312,-19.253784179688
0.0865,2.5274658203125,15.900512695312,-18.092651367188
0.087,-2.0369873046875,17.982543945312,-15.930541992188
0.0875,-4.8397216796875,19.063598632812,-14.369018554688
0.088,-7.8426513671875,19.544067382812,-12.166870117188
0.0885,-10.925659179688,19.383911132812,-9.0438232421875
0.089,-14.529174804688,18.543090820312,-4.7996826171875
0.0895,-17.291870117188,16.981567382812,-0.6756591796875
0.09,-19.093627929688,15.219848632812,3.0079345703125
0.0905,-19.854370117188,13.217895507812,5.7305908203125
0.091,-20.054565429688,10.295043945312,8.8135986328125
0.0915,-19.854370117188,6.6915283203125,12.216918945312
0.092,-19.213745117188,2.8477783203125,15.420043945312
0.0925,-17.371948242188,-1.3162841796875,17.782348632812
0.093,-15.770385742188,-4.1990966796875,19.223754882812
0.0935,-13.568237304688,-7.2020263671875,19.984497070312
0.094,-10.204956054688,-10.365112304688,19.784301757812
0.0945,-5.5604248046875,-13.888549804688,18.903442382812
0.095,-1.1561279296875,-16.771362304688,17.462036132812
0.0955,3.0479736328125,-18.653198242188,15.580200195312
0.096,5.7305908203125,-19.413940429688,13.818481445312
0.0965,8.8135986328125,-19.814331054688,11.336059570312
0.097,12.256958007812,-19.494018554688,7.7325439453125
0.0975,15.540161132812,-18.533081054688,3.6085205078125
0.098,17.982543945312,-16.651245117188,-0.6356201171875
0.0985,19.544067382812,-14.969604492188,-3.7987060546875
0.099,20.104614257812,-12.687377929688,-6.6414794921875
0.0995,20.144653320312,-9.4842529296875,-9.9246826171875
0.1,19.704223632812,-5.5203857421875,-13.408081054688
0.1005,18.783325195312,-1.6365966796875,-16.370971679688
0.101,16.941528320312,2.4073486328125,-18.533081054688
0.1015,15.019653320312,5.2501220703125,-19.534057617188
0.102,12.457153320312,8.2530517578125,-20.134643554688
0.1025,8.4532470703125,11.896606445312,-19.814331054688
0.103,3.8887939453125,15.179809570312,-18.733276367188
0.1035,-0.6356201171875,17.582153320312,-16.811401367188
0.104,-4.1590576171875,19.263793945312,-15.209838867188
0.1045,-6.9617919921875,19.704223632812,-13.087768554688
0.105,-10.044799804688,19.824340820312,-10.285034179688
0.1055,-13.808471679688,19.223754882812,-6.2811279296875
0.106,-16.811401367188,17.942504882812,-1.9569091796875
0.1065,-18.973510742188,15.980590820312,2.1270751953125
0.107,-20.134643554688,14.138793945312,5.0899658203125
0.1075,-20.535034179688,11.496215820312,8.1329345703125
0.108,-20.454956054688,7.8526611328125,11.656372070312
0.1085,-19.734252929688,3.8887939453125,14.979614257812
0.109,-18.332885742188,-0.1551513671875,17.622192382812
0.1095,-16.611206054688,-3.8787841796875,19.584106445312
0.11,-14.288940429688,-6.6815185546875,20.104614257812
0.1105,-11.526245117188,-9.6444091796875,20.424926757812
0.111,-6.9217529296875,-13.488159179688,19.864379882812
0.1115,-2.1971435546875,-16.651245117188,18.422973632812
0.112,2.1270751953125,-18.613159179688,16.340942382812
0.1125,5.3702392578125,-20.014526367188,14.779418945312
0.113,8.3331298828125,-20.334838867188,12.296997070312
0.1135,11.656372070312,-20.134643554688,8.8936767578125
0.114,15.139770507812,-19.373901367188,4.8897705078125
0.1145,18.062622070312,-17.652221679688,0.4454345703125
0.115,19.904418945312,-15.730346679688,-3.3983154296875
0.1155,20.545043945312,-13.528198242188,-6.2010498046875
0.116,20.905395507812,-10.765502929688,-9.3240966796875
0.1165,20.505004882812,-6.5213623046875,-13.167846679688
0.117,19.704223632812,-2.6375732421875,-16.290893554688
0.1175,17.862426757812,1.4063720703125,-18.412963867188
0.118,16.140747070312,4.8497314453125,-20.214721679688
0.1185,13.378051757812,7.8126220703125,-20.454956054688
0.119,9.9747314453125,11.015747070312,-20.414916992188
0.1195,5.4903564453125,14.739379882812,-19.614135742188
0.12,0.4854736328125,17.622192382812,-17.892456054688
0.1205,-3.5584716796875,19.343872070312,-15.890502929688
0.121,-6.4012451171875,20.184692382812,-14.088745117188
0.1215,-9.5643310546875,20.464965820312,-11.526245117188
0.122,-13.328002929688,19.864379882812,-7.2420654296875
0.1225,-16.370971679688,18.903442382812,-3.3582763671875
0.123,-18.893432617188,16.981567382812,1.0059814453125
0.1235,-20.575073242188,15.059692382812,4.5694580078125
0.124,-20.815307617188,12.497192382812,7.3721923828125
0.1245,-21.015502929688,9.4542236328125,10.615356445312
0.125,-20.454956054688,5.1700439453125,14.379028320312
0.1255,-19.253784179688,1.0059814453125,17.341918945312
0.126,-17.291870117188,-2.8377685546875,19.183715820312
0.1265,-15.530151367188,-5.8406982421875,20.505004882812
0.127,-12.647338867188,-8.9237060546875,20.745239257812
0.1275,-8.3231201171875,-12.447143554688,20.344848632812
0.128,-4.0389404296875,-15.690307617188,19.223754882812
0.1285,0.8858642578125,-18.453002929688,17.261840820312
0.129,4.5294189453125,-19.934448242188,15.380004882812
0.1295,7.3321533203125,-20.334838867188,13.177856445312
0.13,10.375122070312,-20.575073242188,10.695434570312
0.1305,14.379028320312,-19.814331054688,6.0509033203125
0.131,17.301879882812,-18.332885742188,1.7667236328125
0.1315,19.343872070312,-16.451049804688,-2.0770263671875
0.132,20.745239257812,-14.609252929688,-5.2801513671875
0.1325,20.825317382812,-11.726440429688,-8.2830810546875
0.133,20.825317382812,-8.0828857421875,-11.886596679688
0.1335,20.184692382812,-4.1990966796875,-15.129760742188
0.134,18.703247070312,0.1251220703125,-17.972534179688
0.1345,16.661254882812,3.8087158203125,-19.734252929688
0.135,14.379028320312,6.6915283203125,-20.374877929688
0.1355,11.776489257812,9.7344970703125,-20.855346679688
0.136,6.5313720703125,13.898559570312,-19.934448242188
0.1365,2.2471923828125,16.581176757812,-18.733276367188
0.137,-2.0770263671875,18.783325195312,-16.651245117188
0.1375,-5.6004638671875,20.304809570312,-14.929565429688
0.138,-8.4832763671875,20.304809570312,-12.206909179688
0.1385,-11.686401367188,20.304809570312,-9.2440185546875
0.139,-15.570190429688,19.544067382812,-4.8397216796875
0.1395,-18.412963867188,17.622192382812,-0.1551513671875
0.14,-20.134643554688,15.740356445312,3.4483642578125
0.1405,-21.055541992188,13.578247070312,6.4913330078125
0.141,-21.215698242188,10.735473632812,9.5343017578125
0.1415,-20.855346679688,6.3311767578125,13.578247070312
0.142,-20.014526367188,2.5675048828125,16.501098632812
0.1425,-18.332885742188,-1.5965576171875,18.983520507812
0.143,-16.411010742188,-5.1600341796875,20.705200195312
0.1435,-13.528198242188,-8.0828857421875,20.785278320312
0.144,-10.605346679688,-11.245971679688,21.145629882812
0.1445,-5.2801513671875,-15.410034179688,20.024536132812
0.145,-0.3153076171875,-18.212768554688,18.142700195312
0.1455,3.4884033203125,-19.734252929688,16.300903320312
0.146,6.7716064453125,-21.095581054688,14.419067382812
0.1465,9.9747314453125,-20.975463867188,11.416137695312
0.147,13.658325195312,-20.695190429688,7.2921142578125
0.1475,16.981567382812,-19.534057617188,3.3282470703125
0.148,19.664184570312,-17.452026367188,-1.3563232421875
0.1485,21.065551757812,-15.450073242188,-4.7596435546875
0.149,21.465942382812,-12.767456054688,-7.8426513671875
0.1495,21.666137695312,-9.8846435546875,-10.885620117188
0.15,20.945434570312,-5.0399169921875,-15.089721679688
0.1505,19.664184570312,-0.9158935546875,-17.972534179688
0.151,17.782348632812,2.9678955078125,-19.934448242188
0.1515,15.860473632812,6.4512939453125,-21.495971679688
0.152,12.296997070312,9.5743408203125,-21.215698242188
0.1525,8.4932861328125,13.137817382812,-21.135620117188
0.153,3.6885986328125,16.741333007812,-20.094604492188
0.1535,-1.5965576171875,19.423950195312,-17.732299804688
0.154,-5.0799560546875,20.745239257812,-15.810424804688
0.1545,-8.3231201171875,21.465942382812,-13.568237304688
0.155,-11.526245117188,21.425903320312,-10.565307617188
0.1555,-15.650268554688,20.464965820312,-5.6004638671875
0.156,-18.613159179688,19.063598632812,-1.1160888671875
0.1565,-20.815307617188,16.901489257812,3.0079345703125
0.157,-22.056518554688,14.739379882812,6.3311767578125
0.1575,-22.056518554688,11.456176757812,9.6143798828125
0.158,-22.056518554688,8.1729736328125,12.937622070312
0.1585,-21.215698242188,3.5284423828125,16.781372070312
0.159,-19.373901367188,-1.1561279296875,19.544067382812
0.1595,-17.291870117188,-4.7196044921875,21.065551757812
0.16,-15.089721679688,-8.0828857421875,22.066528320312
0.1605,-11.526245117188,-11.245971679688,21.946411132812
0.161,-6.4412841796875,-15.249877929688,21.105590820312
0.1615,-1.8768310546875,-18.292846679688,19.784301757812
0.162,3.1680908203125,-20.615112304688,17.341918945312
0.1625,6.5313720703125,-21.656127929688,15.299926757812
0.163,9.9346923828125,-21.856323242188,12.417114257812
0.1635,13.177856445312,-21.776245117188,9.2139892578125
0.164,17.221801757812,-20.575073242188,4.1290283203125
0.1645,20.064575195312,-18.493041992188,-0.7156982421875
0.165,21.706176757812,-16.411010742188,-4.3992919921875
0.1655,22.546997070312,-14.048706054688,-7.6424560546875
0.166,22.386840820312,-10.485229492188,-10.965698242188
0.1665,21.906372070312,-6.3612060546875,-14.769409179688
0.167,20.985473632812,-2.1170654296875,-17.972534179688
0.1675,18.903442382812,2.5675048828125,-20.535034179688
0.168,16.661254882812,6.0909423828125,-21.776245117188
0.1685,13.778442382812,9.2540283203125,-22.296752929688
0.169,10.054809570312,12.737426757812,-22.176635742188
0.1695,4.4893798828125,16.701293945312,-20.815307617188
0.17,-0.3553466796875,19.423950195312,-18.933471679688
0.1705,-4.5194091796875,21.265747070312,-16.851440429688
0.171,-7.8026123046875,22.066528320312,-14.609252929688
0.1715,-11.245971679688,21.866333007812,-11.205932617188
0.172,-14.769409179688,21.425903320312,-7.4422607421875
0.1725,-18.332885742188,20.104614257812,-2.7176513671875
0.173,-20.935424804688,17.622192382812,2.2471923828125
0.1735,-22.136596679688,15.540161132812,5.5704345703125
0.174,-22.737182617188,12.817504882812,8.8936767578125
0.1745,-22.456909179688,9.2540283203125,12.216918945312
0.175,-21.736206054688,4.6094970703125,16.140747070312
0.1755,-20.374877929688,0.4454345703125,19.023559570312
0.176,-18.332885742188,-3.8387451171875,21.385864257812
0.1765,-15.970581054688,-7.1619873046875,22.186645507812
0.177,-12.647338867188,-10.485229492188,22.266723632812
0.1775,-8.7635498046875,-13.968627929688,22.026489257812
0.178,-3.2381591796875,-17.692260742188,20.464965820312
