wavelength,x,y,z
0.0,18.347900390625,-26.736083984375,8.057861328125
0.0005,21.110595703125,-25.895263671875,4.494384765625
0.001,23.993408203125,-22.652099609375,-1.631591796875
0.0015,26.475830078125,-19.809326171875,-7.036865234375
0.002,27.196533203125,-15.364990234375,-12.041748046875
0.0025,28.637939453125,-12.161865234375,-16.566162109375
0.003,26.756103515625,-6.996826171875,-19.809326171875
0.0035,25.234619140625,-2.672607421875,-22.491943359375
0.004,21.470947265625,3.213134765625,-24.493896484375
0.0045,18.868408203125,8.778564453125,-27.456787109375
0.005,13.903564453125,14.023681640625,-27.737060546875
0.0055,10.179931640625,17.987548828125,-28.057373046875
0.006,5.495361328125,20.429931640625,-25.935302734375
0.0065,-0.670654296875,23.352783203125,-22.812255859375
0.007,-5.955810546875,25.114501953125,-19.368896484375
0.0075,-11.801513671875,26.796142578125,-15.405029296875
0.008,-16.285888671875,27.677001953125,-11.881591796875
0.0085,-19.929443359375,25.995361328125,-6.556396484375
0.009,-22.171630859375,24.634033203125,-3.032958984375
0.0095,-24.974365234375,21.190673828125,3.173095703125
0.01,-27.336669921875,18.227783203125,8.538330078125
0.0105,-27.416748046875,13.302978515625,13.463134765625
0.011,-28.497802734375,10.540283203125,17.226806640625
0.0115,-26.215576171875,5.375244140625,20.029541015625
0.012,-24.093505859375,0.490478515625,22.752197265625
0.0125,-20.570068359375,-5.074951171875,24.674072265625
0.013,-17.406982421875,-10.800537109375,27.236572265625
0.0135,-13.002685546875,-15.204833984375,27.316650390625
0.014,-8.678466796875,-18.928466796875,26.716064453125
0.0145,-4.714599609375,-20.650146484375,24.634033203125
0.015,1.851806640625,-23.653076171875,21.270751953125
0.0155,6.936767578125,-25.494873046875,18.107666015625
0.016,12.942626953125,-26.696044921875,13.423095703125
0.0165,16.385986328125,-27.536865234375,10.780517578125
0.017,19.989501953125,-25.655029296875,5.415283203125
0.0175,22.111572265625,-23.773193359375,1.331298828125
0.018,24.674072265625,-20.570068359375,-4.314208984375
0.0185,26.916259765625,-17.246826171875,-9.879638671875
0.019,26.876220703125,-12.522216796875,-14.444091796875
0.0195,27.356689453125,-9.359130859375,-18.007568359375
0.02,25.154541015625,-5.034912109375,-20.049560546875
0.0205,22.752197265625,0.290283203125,-22.892333984375
0.021,19.509033203125,5.535400390625,-24.854248046875
0.0215,15.705322265625,11.541259765625,-27.056396484375
0.022,12.181884765625,15.104736328125,-27.136474609375
0.0225,7.016845703125,18.868408203125,-25.815185546875
0.023,3.173095703125,20.229736328125,-23.492919921875
0.0235,-3.072998046875,23.232666015625,-20.449951171875
0.024,-8.358154296875,25.074462890625,-17.006591796875
0.0245,-13.803466796875,25.835205078125,-12.482177734375
0.025,-17.006591796875,26.155517578125,-9.639404296875
0.0255,-20.049560546875,24.273681640625,-4.834716796875
0.026,-22.291748046875,22.031494140625,-0.190185546875
0.0265,-24.694091796875,19.028564453125,5.094970703125
0.027,-26.816162109375,15.344970703125,10.860595703125
0.0275,-26.535888671875,11.381103515625,14.504150390625
0.028,-26.495849609375,7.657470703125,18.147705078125
0.0285,-24.053466796875,3.373291015625,19.869384765625
0.029,-21.691162109375,-2.112060546875,22.912353515625
0.0295,-18.287841796875,-7.397216796875,24.834228515625
0.03,-14.283935546875,-13.162841796875,26.555908203125
0.0305,-11.120849609375,-16.085693359375,26.395751953125
0.031,-5.915771484375,-19.408935546875,24.593994140625
0.0315,-1.591552734375,-20.890380859375,21.831298828125
0.032,4.174072265625,-23.733154296875,19.068603515625
0.0325,10.059814453125,-25.574951171875,15.104736328125
0.033,14.544189453125,-26.015380859375,11.140869140625
0.0335,17.667236328125,-25.895263671875,7.817626953125
0.034,20.429931640625,-23.693115234375,3.052978515625
0.0345,22.792236328125,-21.290771484375,-1.791748046875
0.035,24.794189453125,-18.247802734375,-6.716552734375
0.0355,26.595947265625,-14.123779296875,-12.602294921875
0.036,26.115478515625,-10.520263671875,-15.685302734375
0.0365,25.514892578125,-6.676513671875,-18.848388671875
0.037,22.752197265625,-2.072021484375,-20.610107421875
0.0375,20.590087890625,3.173095703125,-23.613037109375
0.038,16.746337890625,8.618408203125,-25.174560546875
0.0385,12.822509765625,13.823486328125,-26.495849609375
0.039,9.259033203125,16.666259765625,-25.855224609375
0.0395,4.334228515625,19.468994140625,-23.773193359375
0.04,-0.590576171875,21.190673828125,-20.810302734375
0.0405,-5.635498046875,23.673095703125,-18.367919921875
0.041,-11.601318359375,25.274658203125,-14.043701171875
0.0415,-15.244873046875,25.114501953125,-10.400146484375
0.042,-18.327880859375,24.834228515625,-6.956787109375
0.0425,-20.970458984375,22.151611328125,-1.751708984375
0.043,-23.412841796875,19.789306640625,3.133056640625
0.0435,-24.854248046875,16.506103515625,7.737548828125
0.044,-26.615966796875,12.742431640625,13.262939453125
0.0445,-25.775146484375,8.818603515625,16.265869140625
0.045,-24.814208984375,4.974853515625,19.068603515625
0.0455,-21.771240234375,0.010009765625,20.990478515625
0.046,-19.809326171875,-5.114990234375,23.993408203125
0.0465,-15.525146484375,-10.520263671875,25.154541015625
0.047,-12.201904296875,-14.724365234375,25.995361328125
0.0475,-8.157958984375,-17.647216796875,24.994384765625
0.048,-2.992919921875,-20.209716796875,22.552001953125
0.0485,2.172119140625,-22.291748046875,19.509033203125
0.049,7.297119140625,-24.413818359375,16.666259765625
0.0495,12.942626953125,-26.095458984375,12.662353515625
0.05,16.385986328125,-25.294677734375,8.578369140625
0.0505,19.188720703125,-24.734130859375,5.295166015625
0.051,21.791259765625,-21.851318359375,-0.190185546875
0.0515,24.473876953125,-19.368896484375,-5.355224609375
0.052,25.274658203125,-15.324951171875,-10.159912109375
0.0525,26.876220703125,-12.281982421875,-14.724365234375
0.053,25.594970703125,-7.717529296875,-17.887451171875
0.0535,24.233642578125,-3.593505859375,-20.530029296875
0.054,20.950439453125,1.731689453125,-22.572021484375
0.0545,18.588134765625,7.056884765625,-25.574951171875
0.055,14.063720703125,12.422119140625,-26.295654296875
0.0555,10.340087890625,16.345947265625,-26.575927734375
0.056,6.336181640625,18.828369140625,-25.134521484375
0.0565,0.450439453125,21.591064453125,-22.131591796875
0.057,-4.754638671875,23.552978515625,-19.128662109375
0.0575,-10.360107421875,25.234619140625,-15.324951171875
0.058,-14.924560546875,26.555908203125,-12.041748046875
0.0585,-18.568115234375,25.114501953125,-6.996826171875
0.059,-21.010498046875,23.993408203125,-3.473388671875
0.0595,-23.693115234375,20.790283203125,2.372314453125
0.06,-26.295654296875,17.987548828125,7.737548828125
0.0605,-26.575927734375,13.222900390625,12.702392578125
0.061,-27.737060546875,10.500244140625,16.546142578125
0.0615,-25.815185546875,5.695556640625,19.348876953125
0.062,-23.773193359375,0.770751953125,22.151611328125
0.0625,-20.369873046875,-4.754638671875,24.153564453125
0.063,-17.246826171875,-10.560302734375,26.876220703125
0.0635,-12.882568359375,-15.044677734375,27.076416015625
0.064,-8.478271484375,-18.848388671875,26.515869140625
0.0645,-4.594482421875,-20.730224609375,24.634033203125
0.065,1.931884765625,-23.733154296875,21.190673828125
0.0655,7.217041015625,-25.695068359375,17.907470703125
0.066,13.302978515625,-26.856201171875,13.182861328125
0.0665,16.826416015625,-27.616943359375,10.500244140625
0.067,20.510009765625,-25.815185546875,5.094970703125
0.0675,22.872314453125,-23.853271484375,0.770751953125
0.068,25.274658203125,-20.570068359375,-4.914794921875
0.0685,27.556884765625,-17.046630859375,-10.640380859375
0.069,27.396728515625,-12.121826171875,-15.405029296875
0.0695,27.837158203125,-8.958740234375,-18.848388671875
0.07,25.514892578125,-4.354248046875,-21.130615234375
0.0705,22.992431640625,1.091064453125,-23.853271484375
0.071,19.428955078125,6.536376953125,-25.735107421875
0.0715,15.425048828125,12.742431640625,-27.937255859375
0.072,11.581298828125,16.225830078125,-27.697021484375
0.0725,6.376220703125,19.909423828125,-26.295654296875
0.073,2.212158203125,21.470947265625,-23.813232421875
0.0735,-3.993896484375,24.353759765625,-20.650146484375
0.074,-9.559326171875,26.075439453125,-16.806396484375
0.0745,-15.084716796875,26.756103515625,-12.121826171875
0.075,-18.167724609375,26.836181640625,-9.118896484375
0.0755,-21.410888671875,24.834228515625,-3.953857421875
0.076,-23.653076171875,22.311767578125,0.810791015625
0.0765,-25.775146484375,19.188720703125,6.055908203125
0.077,-27.697021484375,15.224853515625,11.901611328125
0.0775,-27.296630859375,10.940673828125,15.625244140625
0.078,-27.136474609375,7.096923828125,19.228759765625
0.0785,-24.573974609375,2.532470703125,21.190673828125
0.079,-22.051513671875,-2.912841796875,24.033447265625
0.0795,-18.367919921875,-8.238037109375,25.675048828125
0.08,-14.243896484375,-14.083740234375,27.396728515625
0.0805,-10.640380859375,-17.126708984375,26.916259765625
0.081,-5.475341796875,-20.489990234375,25.194580078125
0.0815,-0.910888671875,-22.091552734375,22.271728515625
0.082,4.774658203125,-24.694091796875,19.468994140625
0.0825,10.740478515625,-26.255615234375,15.184814453125
0.083,15.385009765625,-26.736083984375,11.020751953125
0.0835,18.628173828125,-26.415771484375,7.537353515625
0.084,21.551025390625,-24.293701171875,2.532470703125
0.0845,23.833251953125,-21.691162109375,-2.432373046875
0.085,25.675048828125,-18.528076171875,-7.357177734375
0.0855,27.436767578125,-14.243896484375,-13.322998046875
0.086,26.836181640625,-10.239990234375,-16.606201171875
0.0865,26.235595703125,-6.356201171875,-19.849365234375
0.087,23.352783203125,-1.431396484375,-21.811279296875
0.0875,21.110595703125,3.773681640625,-24.654052734375
0.088,16.946533203125,9.259033203125,-25.975341796875
0.0885,12.942626953125,14.584228515625,-27.496826171875
0.089,8.898681640625,17.627197265625,-26.535888671875
0.0895,3.813720703125,20.630126953125,-24.533935546875
0.09,-1.351318359375,22.431884765625,-21.250732421875
0.0905,-6.396240234375,24.834228515625,-18.768310546875
0.091,-12.482177734375,26.195556640625,-14.123779296875
0.0915,-16.365966796875,26.115478515625,-10.239990234375
0.092,-19.609130859375,25.594970703125,-6.476318359375
0.0925,-22.491943359375,22.912353515625,-0.950927734375
0.093,-24.854248046875,20.229736328125,4.134033203125
0.0935,-26.175537109375,16.666259765625,8.938720703125
0.094,-27.817138671875,12.782470703125,14.384033203125
0.0945,-26.736083984375,8.298095703125,17.707275390625
0.095,-25.735107421875,4.334228515625,20.630126953125
0.0955,-22.451904296875,-1.231201171875,22.752197265625
0.096,-20.249755859375,-6.316162109375,25.635009765625
0.0965,-15.525146484375,-11.801513671875,26.355712890625
0.097,-12.121826171875,-16.245849609375,27.476806640625
0.0975,-7.517333984375,-19.288818359375,25.955322265625
0.098,-2.031982421875,-22.131591796875,23.512939453125
0.0985,3.533447265625,-24.053466796875,19.989501953125
0.099,8.818603515625,-26.215576171875,16.986572265625
0.0995,14.424072265625,-27.296630859375,12.542236328125
0.1,18.267822265625,-26.575927734375,7.977783203125
0.1005,21.030517578125,-25.775146484375,4.494384765625
0.101,23.913330078125,-22.772216796875,-1.431396484375
0.1015,26.395751953125,-19.729248046875,-6.836669921875
0.102,27.036376953125,-15.244873046875,-11.921630859375
0.1025,28.397705078125,-12.201904296875,-16.285888671875
0.103,26.635986328125,-6.956787109375,-19.649169921875
0.1035,25.154541015625,-2.712646484375,-22.371826171875
0.104,21.631103515625,3.052978515625,-24.453857421875
0.1045,18.948486328125,8.498291015625,-27.296630859375
0.105,13.743408203125,13.863525390625,-27.456787109375
0.1055,9.979736328125,17.907470703125,-27.857177734375
0.106,5.455322265625,20.429931640625,-25.895263671875
0.1065,-0.630615234375,23.312744140625,-22.852294921875
0.107,-6.035888671875,25.074462890625,-19.368896484375
0.1075,-11.721435546875,26.716064453125,-15.364990234375
0.108,-16.085693359375,27.436767578125,-11.801513671875
0.1085,-19.969482421875,25.875244140625,-6.396240234375
0.109,-22.171630859375,24.473876953125,-2.832763671875
0.1095,-24.934326171875,21.270751953125,3.133056640625
0.11,-27.216552734375,18.067626953125,8.578369140625
0.1105,-27.296630859375,13.062744140625,13.583251953125
0.111,-28.217529296875,10.300048828125,17.186767578125
0.1115,-26.015380859375,5.175048828125,19.989501953125
0.112,-23.933349609375,0.450439453125,22.712158203125
0.1125,-20.489990234375,-5.114990234375,24.634033203125
0.113,-17.286865234375,-10.760498046875,27.036376953125
0.1135,-12.762451171875,-15.124755859375,26.876220703125
0.114,-8.358154296875,-18.768310546875,26.315673828125
0.1145,-4.514404296875,-20.489990234375,24.313720703125
0.115,1.771728515625,-23.372802734375,21.070556640625
0.1155,6.936767578125,-25.254638671875,17.827392578125
0.116,12.702392578125,-26.295654296875,13.222900390625
0.1165,16.105712890625,-26.936279296875,10.540283203125
0.117,19.709228515625,-25.214599609375,5.255126953125
0.1175,21.791259765625,-23.372802734375,1.291259765625
0.118,24.193603515625,-20.369873046875,-4.033935546875
0.1185,26.315673828125,-17.006591796875,-9.519287109375
0.119,26.235595703125,-12.281982421875,-14.003662109375
0.1195,26.676025390625,-9.239013671875,-17.487060546875
0.12,24.634033203125,-5.114990234375,-19.529052734375
0.1205,22.271728515625,0.010009765625,-22.171630859375
0.121,19.228759765625,5.014892578125,-24.093505859375
0.1215,15.385009765625,10.780517578125,-26.095458984375
0.122,12.021728515625,14.263916015625,-26.135498046875
0.1225,6.976806640625,17.947509765625,-24.854248046875
0.123,3.373291015625,19.388916015625,-22.812255859375
0.1235,-2.392333984375,22.151611328125,-19.969482421875
0.124,-7.637451171875,24.073486328125,-16.726318359375
0.1245,-12.762451171875,24.674072265625,-12.362060546875
0.125,-15.965576171875,25.114501953125,-9.559326171875
0.1255,-18.848388671875,23.352783203125,-5.034912109375
0.126,-21.090576171875,21.310791015625,-0.750732421875
0.1265,-23.332763671875,18.628173828125,4.134033203125
0.127,-25.334716796875,15.104736328125,9.619384765625
0.1275,-25.174560546875,11.421142578125,13.102783203125
0.128,-25.094482421875,7.657470703125,16.706298828125
0.1285,-23.132568359375,3.893798828125,18.468017578125
0.129,-20.970458984375,-1.271240234375,21.310791015625
0.1295,-17.967529296875,-6.276123046875,23.232666015625
0.13,-14.123779296875,-11.561279296875,24.834228515625
0.1305,-11.200927734375,-14.604248046875,24.994384765625
0.131,-6.316162109375,-17.767333984375,23.272705078125
0.1315,-2.272216796875,-19.368896484375,21.030517578125
0.132,2.852783203125,-21.971435546875,18.628173828125
0.1325,8.618408203125,-24.053466796875,15.024658203125
0.133,12.822509765625,-24.453857421875,11.260986328125
0.1335,16.185791015625,-24.533935546875,8.017822265625
0.134,18.828369140625,-22.732177734375,3.613525390625
0.1345,21.390869140625,-20.650146484375,-0.990966796875
0.135,23.312744140625,-17.967529296875,-5.555419921875
0.1355,25.234619140625,-14.123779296875,-11.240966796875
0.136,24.994384765625,-10.760498046875,-14.323974609375
0.1365,24.473876953125,-6.916748046875,-17.647216796875
0.137,22.151611328125,-2.712646484375,-19.529052734375
0.1375,20.189697265625,2.332275390625,-22.531982421875
0.138,16.666259765625,7.737548828125,-24.293701171875
0.1385,12.862548828125,12.782470703125,-25.534912109375
0.139,9.339111328125,15.825439453125,-25.134521484375
0.1395,4.334228515625,18.748291015625,-23.132568359375
0.14,-0.510498046875,20.750244140625,-20.449951171875
0.1405,-5.155029296875,23.112548828125,-18.247802734375
0.141,-11.240966796875,24.834228515625,-13.963623046875
0.1415,-14.884521484375,24.674072265625,-10.239990234375
0.142,-18.207763671875,24.473876953125,-6.716552734375
0.1425,-21.050537109375,21.831298828125,-1.351318359375
0.143,-23.613037109375,19.589111328125,3.493408203125
0.1435,-24.934326171875,16.345947265625,8.017822265625
0.144,-26.656005859375,12.662353515625,13.383056640625
0.1445,-25.695068359375,8.338134765625,16.626220703125
0.145,-24.734130859375,4.294189453125,19.629150390625
0.1455,-21.731201171875,-0.950927734375,21.711181640625
0.146,-19.689208984375,-5.915771484375,24.714111328125
0.1465,-15.324951171875,-11.240966796875,25.594970703125
0.147,-11.801513671875,-15.485107421875,26.435791015625
0.1475,-7.437255859375,-18.528076171875,25.234619140625
0.148,-1.871826171875,-21.490966796875,22.712158203125
0.1485,3.453369140625,-23.452880859375,19.509033203125
0.149,8.578369140625,-25.574951171875,16.546142578125
0.1495,14.143798828125,-26.776123046875,12.342041015625
0.15,17.867431640625,-25.815185546875,7.697509765625
0.1505,20.630126953125,-25.174560546875,4.294189453125
0.151,23.472900390625,-22.091552734375,-1.671630859375
0.1515,26.035400390625,-19.328857421875,-6.916748046875
0.152,26.515869140625,-14.844482421875,-11.801513671875
0.1525,27.837158203125,-11.841552734375,-16.045654296875
0.153,26.075439453125,-6.716552734375,-19.368896484375
0.1535,24.513916015625,-2.392333984375,-22.171630859375
0.154,21.030517578125,3.293212890625,-24.173583984375
0.1545,18.508056640625,8.698486328125,-26.976318359375
0.155,13.423095703125,13.903564453125,-27.176513671875
0.1555,9.619384765625,17.747314453125,-27.296630859375
0.156,5.175048828125,20.189697265625,-25.454833984375
0.1565,-0.990966796875,23.112548828125,-22.291748046875
0.157,-6.115966796875,24.914306640625,-19.048583984375
0.1575,-11.801513671875,26.395751953125,-15.004638671875
0.158,-16.045654296875,27.236572265625,-11.641357421875
0.1585,-19.849365234375,25.474853515625,-6.115966796875
0.159,-22.171630859375,24.193603515625,-2.552490234375
0.1595,-24.854248046875,20.870361328125,3.493408203125
0.16,-27.256591796875,17.907470703125,8.818603515625
0.1605,-27.216552734375,12.862548828125,13.703369140625
0.161,-28.137451171875,10.059814453125,17.306884765625
0.1615,-25.935302734375,4.934814453125,20.109619140625
0.162,-23.733154296875,0.010009765625,22.912353515625
0.1625,-20.329833984375,-5.435302734375,24.834228515625
0.163,-17.086669921875,-11.120849609375,27.276611328125
0.1635,-12.642333984375,-15.405029296875,27.156494140625
0.164,-8.037841796875,-19.088623046875,26.275634765625
0.1645,-4.154052734375,-20.890380859375,24.353759765625
0.165,2.372314453125,-23.893310546875,20.990478515625
0.1655,7.497314453125,-25.735107421875,17.827392578125
0.166,13.343017578125,-26.736083984375,13.062744140625
0.1665,16.666259765625,-27.296630859375,10.300048828125
0.167,20.309814453125,-25.414794921875,4.854736328125
0.1675,22.552001953125,-23.532958984375,0.690673828125
0.168,25.034423828125,-20.369873046875,-4.874755859375
0.1685,27.196533203125,-16.966552734375,-10.440185546875
0.169,26.916259765625,-12.201904296875,-14.884521484375
0.1695,27.196533203125,-8.918701171875,-18.407958984375
0.17,24.994384765625,-4.474365234375,-20.489990234375
0.1705,22.552001953125,0.970947265625,-23.372802734375
0.171,19.388916015625,6.135986328125,-25.294677734375
0.1715,15.385009765625,12.061767578125,-27.296630859375
0.172,11.701416015625,15.465087890625,-27.096435546875
0.1725,6.456298828125,19.188720703125,-25.655029296875
0.173,2.492431640625,20.790283203125,-23.332763671875
0.1735,-3.593505859375,23.673095703125,-20.329833984375
0.174,-8.998779296875,25.474853515625,-16.806396484375
0.1745,-14.283935546875,26.115478515625,-12.241943359375
0.175,-17.447021484375,26.115478515625,-9.158935546875
0.1755,-20.489990234375,24.193603515625,-4.154052734375
0.176,-22.932373046875,21.911376953125,0.490478515625
0.1765,-25.134521484375,18.948486328125,5.615478515625
0.177,-27.096435546875,15.104736328125,11.381103515625
0.1775,-26.736083984375,11.020751953125,14.864501953125
0.178,-26.455810546875,7.177001953125,18.548095703125
0.1785,-24.053466796875,2.732666015625,20.469970703125
0.179,-21.651123046875,-2.712646484375,23.512939453125
0.1795,-18.247802734375,-7.957763671875,25.314697265625
0.18,-14.163818359375,-13.643310546875,26.916259765625
