wavelength,x,y,z
0.0,-4.154052734375,-3.993896484375,6.536376953125
0.0005,-5.155029296875,-2.912841796875,6.696533203125
0.001,-5.755615234375,-1.911865234375,6.576416015625
0.0015,-6.035888671875,-1.151123046875,6.376220703125
0.002,-5.875732421875,0.010009765625,5.575439453125
0.0025,-5.635498046875,1.211181640625,4.454345703125
0.003,-5.635498046875,2.452392578125,3.413330078125
0.0035,-5.435302734375,3.573486328125,2.332275390625
0.004,-5.114990234375,4.454345703125,1.331298828125
0.0045,-4.554443359375,4.934814453125,0.490478515625
0.005,-3.553466796875,5.094970703125,-0.710693359375
0.0055,-2.432373046875,5.415283203125,-1.991943359375
0.006,-1.271240234375,5.655517578125,-3.473388671875
0.0065,-0.390380859375,5.775634765625,-4.474365234375
0.007,0.410400390625,5.895751953125,-5.275146484375
0.0075,1.331298828125,5.255126953125,-5.755615234375
0.008,2.692626953125,4.134033203125,-6.115966796875
0.0085,3.853759765625,3.052978515625,-6.516357421875
0.009,4.694580078125,2.011962890625,-6.596435546875
0.0095,5.215087890625,1.051025390625,-6.556396484375
0.01,5.415283203125,0.290283203125,-6.196044921875
0.0105,5.255126953125,-0.790771484375,-5.395263671875
0.011,5.094970703125,-1.951904296875,-4.354248046875
0.0115,5.094970703125,-3.193115234375,-3.313232421875
0.012,4.934814453125,-4.154052734375,-2.352294921875
0.0125,4.654541015625,-4.994873046875,-1.431396484375
0.013,3.973876953125,-5.395263671875,-0.550537109375
0.0135,2.932861328125,-5.635498046875,0.730712890625
0.014,1.931884765625,-5.955810546875,2.011962890625
0.0145,0.850830078125,-6.156005859375,3.293212890625
0.015,0.050048828125,-6.356201171875,4.294189453125
0.0155,-0.750732421875,-6.356201171875,5.054931640625
0.016,-1.791748046875,-5.635498046875,5.455322265625
0.0165,-3.072998046875,-4.634521484375,5.855712890625
0.017,-4.154052734375,-3.673583984375,6.256103515625
0.0175,-4.954833984375,-2.712646484375,6.296142578125
0.018,-5.435302734375,-1.791748046875,6.296142578125
0.0185,-5.515380859375,-0.990966796875,5.815673828125
0.019,-5.395263671875,0.130126953125,4.974853515625
0.0195,-5.355224609375,1.211181640625,4.134033203125
0.02,-5.355224609375,2.412353515625,3.133056640625
0.0205,-5.155029296875,3.413330078125,2.212158203125
0.021,-4.874755859375,4.174072265625,1.371337890625
0.0215,-4.154052734375,4.494384765625,0.410400390625
0.022,-3.193115234375,4.814697265625,-0.910888671875
0.0225,-2.272216796875,5.255126953125,-2.192138671875
0.023,-1.311279296875,5.455322265625,-3.353271484375
0.0235,-0.590576171875,5.735595703125,-4.314208984375
0.024,0.330322265625,5.535400390625,-4.994873046875
0.0245,1.491455078125,4.654541015625,-5.435302734375
0.025,2.692626953125,3.773681640625,-5.915771484375
0.0255,3.773681640625,2.732666015625,-6.276123046875
0.026,4.494384765625,1.891845703125,-6.316162109375
0.0265,4.934814453125,1.131103515625,-6.276123046875
0.027,4.974853515625,0.250244140625,-5.715576171875
0.0275,4.854736328125,-0.910888671875,-4.834716796875
0.028,4.934814453125,-2.072021484375,-4.033935546875
0.0285,4.894775390625,-3.153076171875,-3.113037109375
0.029,4.774658203125,-4.114013671875,-2.232177734375
0.0295,4.414306640625,-4.794677734375,-1.391357421875
0.03,3.573486328125,-5.074951171875,-0.350341796875
0.0305,2.612548828125,-5.475341796875,0.970947265625
0.031,1.651611328125,-5.835693359375,2.252197265625
0.0315,0.850830078125,-6.115966796875,3.333251953125
0.032,0.130126953125,-6.316162109375,4.214111328125
0.0325,-0.870849609375,-5.995849609375,4.814697265625
0.033,-2.072021484375,-5.114990234375,5.255126953125
0.0335,-3.193115234375,-4.314208984375,5.735595703125
0.034,-4.154052734375,-3.273193359375,6.015869140625
0.0345,-4.874755859375,-2.432373046875,6.095947265625
0.035,-5.155029296875,-1.631591796875,5.935791015625
0.0355,-5.155029296875,-0.750732421875,5.295166015625
0.036,-5.155029296875,0.370361328125,4.494384765625
0.0365,-5.235107421875,1.571533203125,3.693603515625
0.037,-5.195068359375,2.612548828125,2.852783203125
0.0375,-5.074951171875,3.533447265625,1.971923828125
0.038,-4.514404296875,4.053955078125,1.131103515625
0.0385,-3.673583984375,4.414306640625,0.010009765625
0.039,-2.872802734375,4.894775390625,-1.311279296875
0.0395,-1.871826171875,5.255126953125,-2.592529296875
0.04,-1.151123046875,5.535400390625,-3.593505859375
0.0405,-0.390380859375,5.615478515625,-4.474365234375
0.041,0.770751953125,5.054931640625,-5.034912109375
0.0415,1.971923828125,4.134033203125,-5.595458984375
0.042,3.173095703125,3.253173828125,-6.035888671875
0.0425,4.053955078125,2.292236328125,-6.196044921875
0.043,4.654541015625,1.531494140625,-6.276123046875
0.0435,4.854736328125,0.690673828125,-5.915771484375
0.044,4.814697265625,-0.430419921875,-5.114990234375
0.0445,4.894775390625,-1.471435546875,-4.394287109375
0.045,4.934814453125,-2.712646484375,-3.513427734375
0.0455,4.814697265625,-3.713623046875,-2.592529296875
0.046,4.614501953125,-4.514404296875,-1.751708984375
0.0465,3.893798828125,-4.954833984375,-0.790771484375
0.047,2.932861328125,-5.275146484375,0.570556640625
0.0475,2.052001953125,-5.755615234375,1.851806640625
0.048,1.091064453125,-6.035888671875,3.052978515625
0.0485,0.330322265625,-6.356201171875,4.013916015625
0.049,-0.590576171875,-6.156005859375,4.734619140625
0.0495,-1.751708984375,-5.395263671875,5.175048828125
0.05,-2.952880859375,-4.434326171875,5.735595703125
0.0505,-4.073974609375,-3.433349609375,6.055908203125
0.051,-4.834716796875,-2.512451171875,6.135986328125
0.0515,-5.235107421875,-1.751708984375,6.055908203125
0.052,-5.275146484375,-0.830810546875,5.455322265625
0.0525,-5.155029296875,0.330322265625,4.574462890625
0.053,-5.275146484375,1.531494140625,3.773681640625
0.0535,-5.235107421875,2.612548828125,2.852783203125
0.054,-5.074951171875,3.573486328125,1.931884765625
0.0545,-4.674560546875,4.174072265625,1.131103515625
0.055,-3.793701171875,4.494384765625,0.050048828125
0.0555,-2.872802734375,4.854736328125,-1.271240234375
0.056,-1.871826171875,5.295166015625,-2.632568359375
0.0565,-1.031005859375,5.495361328125,-3.713623046875
0.057,-0.310302734375,5.695556640625,-4.594482421875
0.0575,0.690673828125,5.215087890625,-5.195068359375
0.058,2.052001953125,4.214111328125,-5.635498046875
0.0585,3.253173828125,3.293212890625,-6.115966796875
0.059,4.214111328125,2.292236328125,-6.356201171875
0.0595,4.814697265625,1.411376953125,-6.356201171875
0.06,5.094970703125,0.610595703125,-6.115966796875
0.0605,4.974853515625,-0.470458984375,-5.315185546875
0.061,4.934814453125,-1.591552734375,-4.394287109375
0.0615,4.974853515625,-2.872802734375,-3.393310546875
0.062,4.854736328125,-3.873779296875,-2.512451171875
0.0625,4.654541015625,-4.754638671875,-1.631591796875
0.063,4.053955078125,-5.155029296875,-0.710693359375
0.0635,2.972900390625,-5.435302734375,0.610595703125
0.064,1.971923828125,-5.835693359375,1.931884765625
0.0645,0.970947265625,-6.115966796875,3.173095703125
0.065,0.170166015625,-6.396240234375,4.174072265625
0.0655,-0.670654296875,-6.356201171875,4.894775390625
0.066,-1.751708984375,-5.595458984375,5.415283203125
0.0665,-3.113037109375,-4.514404296875,5.815673828125
0.067,-4.234130859375,-3.473388671875,6.216064453125
0.0675,-4.994873046875,-2.512451171875,6.336181640625
0.068,-5.475341796875,-1.631591796875,6.256103515625
0.0685,-5.515380859375,-0.790771484375,5.735595703125
0.069,-5.395263671875,0.370361328125,4.774658203125
0.0695,-5.355224609375,1.571533203125,3.853759765625
0.07,-5.315185546875,2.772705078125,2.852783203125
0.0705,-5.155029296875,3.773681640625,1.931884765625
0.071,-4.834716796875,4.454345703125,1.051025390625
0.0715,-3.993896484375,4.734619140625,0.090087890625
0.072,-2.872802734375,4.974853515625,-1.311279296875
0.0725,-1.871826171875,5.375244140625,-2.712646484375
0.073,-0.950927734375,5.535400390625,-3.833740234375
0.0735,-0.230224609375,5.735595703125,-4.794677734375
0.074,0.730712890625,5.535400390625,-5.395263671875
0.0745,1.971923828125,4.494384765625,-5.795654296875
0.075,3.333251953125,3.453369140625,-6.276123046875
0.0755,4.374267578125,2.372314453125,-6.516357421875
0.076,5.054931640625,1.411376953125,-6.516357421875
0.0765,5.375244140625,0.610595703125,-6.396240234375
0.077,5.295166015625,-0.470458984375,-5.635498046875
0.0775,5.135009765625,-1.671630859375,-4.514404296875
0.078,5.175048828125,-2.952880859375,-3.553466796875
0.0785,5.054931640625,-4.114013671875,-2.512451171875
0.079,4.814697265625,-4.994873046875,-1.551513671875
0.0795,4.294189453125,-5.555419921875,-0.670654296875
0.08,3.213134765625,-5.755615234375,0.570556640625
0.0805,1.971923828125,-6.115966796875,2.011962890625
0.081,0.850830078125,-6.396240234375,3.453369140625
0.0815,0.010009765625,-6.556396484375,4.494384765625
0.082,-0.830810546875,-6.556396484375,5.335205078125
0.0825,-1.871826171875,-5.915771484375,5.815673828125
0.083,-3.273193359375,-4.634521484375,6.216064453125
0.0835,-4.554443359375,-3.553466796875,6.576416015625
0.084,-5.435302734375,-2.392333984375,6.696533203125
0.0845,-5.955810546875,-1.431396484375,6.536376953125
0.085,-6.075927734375,-0.590576171875,6.095947265625
0.0855,-5.835693359375,0.610595703125,5.094970703125
0.086,-5.675537109375,2.011962890625,3.853759765625
0.0865,-5.635498046875,3.333251953125,2.692626953125
0.087,-5.355224609375,4.334228515625,1.611572265625
0.0875,-4.994873046875,5.094970703125,0.730712890625
0.088,-4.154052734375,5.335205078125,-0.350341796875
0.0885,-2.832763671875,5.415283203125,-1.751708984375
0.089,-1.591552734375,5.735595703125,-3.233154296875
0.0895,-0.470458984375,5.895751953125,-4.554443359375
0.09,0.450439453125,6.015869140625,-5.435302734375
0.0905,1.211181640625,5.775634765625,-6.075927734375
0.091,2.452392578125,4.734619140625,-6.436279296875
0.0915,3.933837890625,3.333251953125,-6.796630859375
0.092,5.054931640625,2.132080078125,-7.036865234375
0.0925,5.695556640625,1.010986328125,-6.916748046875
0.093,6.015869140625,0.130126953125,-6.676513671875
0.0935,5.855712890625,-0.910888671875,-5.915771484375
0.094,5.575439453125,-2.152099609375,-4.634521484375
0.0945,5.415283203125,-3.553466796875,-3.353271484375
0.095,5.215087890625,-4.754638671875,-2.192138671875
0.0955,4.854736328125,-5.635498046875,-1.151123046875
0.096,4.374267578125,-6.156005859375,-0.310302734375
0.0965,3.253173828125,-6.316162109375,0.890869140625
0.097,1.771728515625,-6.396240234375,2.412353515625
0.0975,0.570556640625,-6.716552734375,3.853759765625
0.098,-0.590576171875,-6.636474609375,4.974853515625
0.0985,-1.271240234375,-6.676513671875,5.735595703125
0.099,-2.072021484375,-6.156005859375,6.256103515625
0.0995,-3.473388671875,-4.874755859375,6.536376953125
0.1,-4.794677734375,-3.593505859375,6.856689453125
0.1005,-5.755615234375,-2.392333984375,6.936767578125
0.101,-6.276123046875,-1.311279296875,6.736572265625
0.1015,-6.396240234375,-0.510498046875,6.416259765625
0.102,-6.115966796875,0.610595703125,5.455322265625
0.1025,-5.835693359375,1.931884765625,4.093994140625
0.103,-5.755615234375,3.173095703125,2.972900390625
0.1035,-5.475341796875,4.334228515625,1.811767578125
0.104,-5.155029296875,5.135009765625,0.810791015625
0.1045,-4.474365234375,5.495361328125,-0.190185546875
0.105,-3.233154296875,5.575439453125,-1.351318359375
0.1055,-1.951904296875,5.735595703125,-2.872802734375
0.106,-0.670654296875,6.015869140625,-4.314208984375
0.1065,0.330322265625,6.055908203125,-5.275146484375
0.107,0.970947265625,6.055908203125,-6.035888671875
0.1075,2.052001953125,5.255126953125,-6.436279296875
0.108,3.493408203125,3.853759765625,-6.756591796875
0.1085,4.694580078125,2.692626953125,-7.076904296875
0.109,5.535400390625,1.491455078125,-7.076904296875
0.1095,6.015869140625,0.530517578125,-6.876708984375
0.11,6.015869140625,-0.470458984375,-6.356201171875
0.1105,5.735595703125,-1.591552734375,-5.275146484375
0.111,5.495361328125,-2.912841796875,-3.953857421875
0.1115,5.415283203125,-4.234130859375,-2.752685546875
0.112,5.094970703125,-5.235107421875,-1.671630859375
0.1125,4.694580078125,-6.035888671875,-0.710693359375
0.113,3.853759765625,-6.276123046875,0.330322265625
0.1135,2.452392578125,-6.396240234375,1.691650390625
0.114,1.211181640625,-6.556396484375,3.253173828125
0.1145,-0.190185546875,-6.716552734375,4.614501953125
0.115,-0.950927734375,-6.716552734375,5.495361328125
0.1155,-1.671630859375,-6.516357421875,6.135986328125
0.116,-2.872802734375,-5.515380859375,6.456298828125
0.1165,-4.354248046875,-4.114013671875,6.776611328125
0.117,-5.435302734375,-2.912841796875,7.016845703125
0.1175,-6.115966796875,-1.751708984375,6.896728515625
0.118,-6.436279296875,-0.830810546875,6.696533203125
0.1185,-6.356201171875,0.210205078125,5.935791015625
0.119,-5.995849609375,1.411376953125,4.654541015625
0.1195,-5.835693359375,2.772705078125,3.453369140625
0.12,-5.675537109375,4.093994140625,2.212158203125
0.1205,-5.315185546875,4.974853515625,1.131103515625
0.121,-4.834716796875,5.495361328125,0.210205078125
0.1215,-3.793701171875,5.655517578125,-0.990966796875
0.122,-2.312255859375,5.815673828125,-2.472412109375
0.1225,-1.031005859375,6.095947265625,-3.993896484375
0.123,0.130126953125,6.135986328125,-5.114990234375
0.1235,0.890869140625,6.135986328125,-5.995849609375
0.124,1.731689453125,5.695556640625,-6.476318359375
0.1245,3.173095703125,4.334228515625,-6.796630859375
0.125,4.494384765625,3.012939453125,-7.116943359375
0.1255,5.535400390625,1.771728515625,-7.197021484375
0.126,6.055908203125,0.650634765625,-7.036865234375
0.1265,6.216064453125,-0.310302734375,-6.716552734375
0.127,5.975830078125,-1.351318359375,-5.715576171875
0.1275,5.695556640625,-2.752685546875,-4.274169921875
0.128,5.495361328125,-4.154052734375,-2.992919921875
0.1285,5.255126953125,-5.275146484375,-1.871826171875
0.129,4.814697265625,-6.115966796875,-0.790771484375
0.1295,4.093994140625,-6.476318359375,0.170166015625
0.13,2.852783203125,-6.436279296875,1.451416015625
0.1305,1.411376953125,-6.636474609375,3.012939453125
0.131,0.090087890625,-6.756591796875,4.494384765625
0.1315,-0.910888671875,-6.756591796875,5.415283203125
0.132,-1.591552734375,-6.676513671875,6.135986328125
0.1325,-2.592529296875,-5.875732421875,6.496337890625
0.133,-4.033935546875,-4.434326171875,6.736572265625
0.1335,-5.235107421875,-3.193115234375,7.016845703125
0.134,-6.035888671875,-1.991943359375,6.976806640625
0.1345,-6.436279296875,-0.990966796875,6.696533203125
0.135,-6.396240234375,-0.190185546875,6.135986328125
0.1355,-6.075927734375,0.970947265625,5.054931640625
0.136,-5.795654296875,2.292236328125,3.773681640625
0.1365,-5.635498046875,3.573486328125,2.572509765625
0.137,-5.355224609375,4.534423828125,1.491455078125
0.1375,-4.994873046875,5.255126953125,0.530517578125
0.138,-4.114013671875,5.495361328125,-0.470458984375
0.1385,-2.832763671875,5.575439453125,-1.711669921875
0.139,-1.591552734375,5.815673828125,-3.193115234375
0.1395,-0.430419921875,5.935791015625,-4.474365234375
0.14,0.490478515625,5.975830078125,-5.435302734375
0.1405,1.131103515625,5.815673828125,-6.035888671875
0.141,2.252197265625,4.934814453125,-6.356201171875
0.1415,3.653564453125,3.613525390625,-6.676513671875
0.142,4.734619140625,2.492431640625,-6.916748046875
0.1425,5.415283203125,1.411376953125,-6.836669921875
0.143,5.815673828125,0.490478515625,-6.676513671875
0.1435,5.735595703125,-0.510498046875,-6.075927734375
0.144,5.495361328125,-1.591552734375,-4.994873046875
0.1445,5.375244140625,-2.872802734375,-3.873779296875
0.145,5.255126953125,-4.154052734375,-2.752685546875
0.1455,4.934814453125,-5.114990234375,-1.711669921875
0.146,4.574462890625,-5.755615234375,-0.790771484375
0.1465,3.613525390625,-5.955810546875,0.330322265625
0.147,2.372314453125,-6.115966796875,1.651611328125
0.1475,1.251220703125,-6.436279296875,3.133056640625
0.148,0.130126953125,-6.556396484375,4.294189453125
0.1485,-0.750732421875,-6.676513671875,5.215087890625
0.149,-1.511474609375,-6.356201171875,5.775634765625
0.1495,-2.752685546875,-5.275146484375,6.095947265625
0.15,-4.033935546875,-4.114013671875,6.496337890625
0.1505,-5.114990234375,-2.952880859375,6.696533203125
0.151,-5.755615234375,-1.911865234375,6.656494140625
0.1515,-6.075927734375,-1.111083984375,6.416259765625
0.152,-5.915771484375,0.010009765625,5.615478515625
0.1525,-5.715576171875,1.171142578125,4.494384765625
0.153,-5.635498046875,2.412353515625,3.413330078125
0.1535,-5.475341796875,3.533447265625,2.292236328125
0.154,-5.195068359375,4.494384765625,1.331298828125
0.1545,-4.634521484375,5.014892578125,0.450439453125
0.155,-3.593505859375,5.175048828125,-0.710693359375
0.1555,-2.392333984375,5.415283203125,-2.112060546875
0.156,-1.271240234375,5.695556640625,-3.553466796875
0.1565,-0.350341796875,5.775634765625,-4.514404296875
0.157,0.450439453125,5.895751953125,-5.395263671875
0.1575,1.411376953125,5.295166015625,-5.835693359375
0.158,2.732666015625,4.093994140625,-6.196044921875
0.1585,3.893798828125,3.052978515625,-6.556396484375
0.159,4.814697265625,1.931884765625,-6.676513671875
0.1595,5.335205078125,1.010986328125,-6.556396484375
0.16,5.495361328125,0.210205078125,-6.236083984375
0.1605,5.295166015625,-0.910888671875,-5.315185546875
0.161,5.135009765625,-2.072021484375,-4.274169921875
0.1615,5.094970703125,-3.353271484375,-3.233154296875
0.162,4.934814453125,-4.314208984375,-2.272216796875
0.1625,4.614501953125,-5.155029296875,-1.351318359375
0.163,3.973876953125,-5.475341796875,-0.470458984375
0.1635,2.852783203125,-5.715576171875,0.810791015625
0.164,1.891845703125,-6.035888671875,2.132080078125
0.1645,0.730712890625,-6.196044921875,3.413330078125
0.165,-0.150146484375,-6.356201171875,4.414306640625
0.1655,-0.870849609375,-6.356201171875,5.094970703125
0.166,-1.871826171875,-5.635498046875,5.535400390625
0.1665,-3.113037109375,-4.554443359375,5.895751953125
0.167,-4.194091796875,-3.553466796875,6.256103515625
0.1675,-4.994873046875,-2.592529296875,6.336181640625
0.168,-5.515380859375,-1.751708984375,6.336181640625
0.1685,-5.595458984375,-0.990966796875,5.815673828125
0.169,-5.395263671875,0.170166015625,4.934814453125
0.1695,-5.395263671875,1.211181640625,4.093994140625
0.17,-5.355224609375,2.492431640625,3.093017578125
0.1705,-5.155029296875,3.493408203125,2.212158203125
0.171,-4.914794921875,4.214111328125,1.291259765625
0.1715,-4.194091796875,4.614501953125,0.370361328125
0.172,-3.193115234375,4.854736328125,-0.950927734375
0.1725,-2.272216796875,5.295166015625,-2.232177734375
0.173,-1.271240234375,5.535400390625,-3.353271484375
0.1735,-0.510498046875,5.735595703125,-4.394287109375
0.174,0.410400390625,5.575439453125,-5.074951171875
0.1745,1.531494140625,4.774658203125,-5.475341796875
0.175,2.732666015625,3.813720703125,-5.995849609375
0.1755,3.853759765625,2.812744140625,-6.276123046875
0.176,4.534423828125,1.851806640625,-6.396240234375
0.1765,5.054931640625,1.010986328125,-6.356201171875
0.177,5.054931640625,0.170166015625,-5.755615234375
0.1775,4.934814453125,-1.031005859375,-4.874755859375
0.178,4.974853515625,-2.112060546875,-3.993896484375
0.1785,4.934814453125,-3.233154296875,-3.072998046875
0.179,4.774658203125,-4.234130859375,-2.112060546875
0.1795,4.414306640625,-4.874755859375,-1.311279296875
0.18,3.533447265625,-5.195068359375,-0.270263671875
0.1805,2.572509765625,-5.515380859375,1.051025390625
0.181,1.571533203125,-5.875732421875,2.372314453125
0.1815,0.730712890625,-6.115966796875,3.453369140625
0.182,0.010009765625,-6.356201171875,4.414306640625
0.1825,-0.990966796875,-5.955810546875,4.974853515625
0.183,-2.192138671875,-5.034912109375,5.375244140625
0.1835,-3.313232421875,-4.154052734375,5.855712890625
0.184,-4.314208984375,-3.193115234375,6.095947265625
0.1845,-4.994873046875,-2.312255859375,6.135986328125
0.185,-5.275146484375,-1.551513671875,5.935791015625
0.1855,-5.195068359375,-0.670654296875,5.215087890625
0.186,-5.155029296875,0.490478515625,4.494384765625
0.1865,-5.235107421875,1.651611328125,3.573486328125
0.187,-5.155029296875,2.732666015625,2.692626953125
0.1875,-4.994873046875,3.653564453125,1.851806640625
0.188,-4.514404296875,4.174072265625,0.970947265625
