wavelength,x,y,z
0.0,-19.383911132812,-3.4884033203125,22.617065429688
0.0005,-15.259887695312,-8.5733642578125,23.537963867188
0.001,-11.376098632812,-13.418090820312,24.498901367188
0.0015,-7.1719970703125,-16.621215820312,23.457885742188
0.002,-3.4483642578125,-19.183715820312,22.376831054688
0.0025,1.8768310546875,-21.305786132812,19.373901367188
0.003,6.6414794921875,-23.868286132812,17.291870117188
0.0035,11.846557617188,-23.708129882812,11.926635742188
0.004,16.170776367188,-24.468872070312,8.5233154296875
0.0045,18.733276367188,-23.668090820312,5.1600341796875
0.005,21.736206054688,-21.786254882812,0.3153076171875
0.0055,23.377807617188,-19.303833007812,-3.9288330078125
0.006,25.019409179688,-15.940551757812,-8.9737548828125
0.0065,24.739135742188,-11.656372070312,-13.097778320312
0.007,24.378784179688,-7.6925048828125,-16.781372070312
0.0075,23.578002929688,-4.7296142578125,-18.903442382812
0.008,20.895385742188,0.7957763671875,-21.706176757812
0.0085,18.453002929688,5.5604248046875,-24.028442382812
0.009,13.207885742188,10.885620117188,-24.148559570312
0.0095,10.004760742188,15.009643554688,-25.109497070312
0.01,5.6405029296875,18.012573242188,-23.668090820312
0.0105,1.0760498046875,20.575073242188,-21.746215820312
0.011,-3.7686767578125,22.496948242188,-18.943481445312
0.0115,-9.0137939453125,24.739135742188,-16.060668945312
0.012,-13.978637695312,24.218627929688,-10.615356445312
0.0125,-17.662231445312,24.498901367188,-7.3721923828125
0.013,-20.024536132812,23.257690429688,-3.8087158203125
0.0135,-22.747192382812,21.015502929688,1.3162841796875
0.014,-24.188598632812,18.252807617188,5.5604248046875
0.0145,-25.029418945312,13.888549804688,10.845581054688
0.015,-24.989379882812,10.244995117188,14.449096679688
0.0155,-24.228637695312,6.1610107421875,17.892456054688
0.016,-22.707153320312,2.7977294921875,19.734252929688
0.0165,-20.144653320312,-2.4073486328125,22.256713867188
0.017,-17.141723632812,-7.6124267578125,24.418823242188
0.0175,-11.536254882812,-12.737426757812,23.978393554688
0.018,-8.7335205078125,-16.180786132812,24.659057617188
0.0185,-4.2491455078125,-18.743286132812,22.777221679688
0.019,0.7957763671875,-21.265747070312,20.334838867188
0.0195,4.9998779296875,-22.787231445312,17.852416992188
0.02,10.805541992188,-24.629028320312,13.968627929688
0.0205,15.089721679688,-24.068481445312,9.1639404296875
0.021,18.533081054688,-24.068481445312,5.8006591796875
0.0215,20.655151367188,-22.426879882812,2.0369873046875
0.022,23.097534179688,-20.144653320312,-2.8077392578125
0.0225,24.378784179688,-17.141723632812,-7.0919189453125
0.023,24.538940429688,-12.417114257812,-12.096801757812
0.0235,24.699096679688,-9.5343017578125,-15.219848632812
0.024,23.457885742188,-5.2100830078125,-18.302856445312
0.0245,21.616088867188,-1.4063720703125,-20.344848632812
0.025,19.213745117188,3.2781982421875,-22.546997070312
0.0255,15.530151367188,8.8436279296875,-24.468872070312
0.026,10.325073242188,13.368041992188,-23.748168945312
0.0265,7.5623779296875,16.611206054688,-24.188598632812
0.027,3.1180419921875,18.893432617188,-22.026489257812
0.0275,-1.9669189453125,21.495971679688,-19.744262695312
0.028,-6.0108642578125,22.737182617188,-17.021606445312
0.0285,-11.896606445312,24.098510742188,-12.537231445312
0.029,-15.420043945312,23.778198242188,-8.8135986328125
0.0295,-18.663208007812,23.297729492188,-5.0899658203125
0.03,-20.545043945312,21.415893554688,-1.3262939453125
0.0305,-22.747192382812,19.173706054688,3.1981201171875
0.031,-23.988403320312,15.770385742188,7.8826904296875
0.0315,-23.708129882812,10.965698242188,12.447143554688
0.032,-24.188598632812,8.5633544921875,15.410034179688
0.0325,-22.546997070312,4.2391357421875,18.092651367188
0.033,-20.705200195312,0.0350341796875,20.454956054688
0.0335,-18.062622070312,-4.4093017578125,22.136596679688
0.034,-14.058715820312,-10.054809570312,23.858276367188
0.0345,-9.5743408203125,-13.938598632812,23.257690429688
0.035,-6.3712158203125,-17.141723632812,23.217651367188
0.0355,-1.9268798828125,-18.983520507812,20.735229492188
0.036,2.9979248046875,-21.746215820312,18.733276367188
0.0365,7.3221435546875,-22.667114257812,15.410034179688
0.037,13.127807617188,-23.668090820312,10.725463867188
0.0375,16.050659179688,-23.668090820312,7.8826904296875
0.038,19.373901367188,-22.587036132812,3.4783935546875
0.0385,21.295776367188,-20.585083007812,-0.4854736328125
0.039,23.177612304688,-18.262817382812,-4.7696533203125
0.0395,24.218627929688,-14.619262695312,-9.5743408203125
0.04,23.658081054688,-9.9747314453125,-13.698364257812
0.0405,24.058471679688,-7.5323486328125,-16.621215820312
0.041,21.816284179688,-2.8878173828125,-19.063598632812
0.0415,19.974487304688,1.7567138671875,-21.826293945312
0.042,16.571166992188,6.2010498046875,-22.787231445312
0.0425,12.407104492188,11.886596679688,-24.348754882812
0.043,8.4832763671875,15.209838867188,-23.668090820312
0.0435,4.3592529296875,18.493041992188,-22.907348632812
0.044,-0.2852783203125,20.214721679688,-20.104614257812
0.0445,-4.9698486328125,22.937377929688,-18.222778320312
0.045,-9.7344970703125,23.457885742188,-14.058715820312
0.0455,-14.899536132812,23.978393554688,-9.4542236328125
0.046,-17.462036132812,23.898315429688,-6.9317626953125
0.0465,-20.625122070312,22.096557617188,-1.9268798828125
0.047,-22.587036132812,19.814331054688,2.3572998046875
0.0475,-23.868286132812,16.811401367188,6.7215576171875
0.048,-24.709106445312,12.887573242188,11.566284179688
0.0485,-23.948364257812,8.4832763671875,15.129760742188
0.049,-23.828247070312,5.6405029296875,18.012573242188
0.0495,-21.145629882812,0.7156982421875,20.174682617188
0.05,-19.263793945312,-4.1690673828125,23.217651367188
0.0505,-14.819458007812,-8.8135986328125,23.377807617188
0.051,-10.815551757812,-14.058715820312,24.538940429688
0.0515,-7.0919189453125,-16.821411132812,23.698120117188
0.052,-2.3272705078125,-19.864379882812,22.016479492188
0.0525,2.3973388671875,-21.586059570312,19.173706054688
0.053,7.2020263671875,-23.988403320312,16.811401367188
0.0535,12.206909179688,-24.148559570312,12.046752929688
0.054,16.651245117188,-24.228637695312,7.8026123046875
0.0545,19.173706054688,-23.828247070312,4.9598388671875
0.055,21.936401367188,-21.505981445312,-0.2852783203125
0.0555,24.098510742188,-19.143676757812,-4.8096923828125
0.056,24.538940429688,-15.219848632812,-9.2540283203125
0.0565,25.219604492188,-11.656372070312,-13.618286132812
0.057,24.138549804688,-7.4122314453125,-16.821411132812
0.0575,23.337768554688,-3.9288330078125,-19.544067382812
0.058,20.494995117188,1.1561279296875,-21.626098632812
0.0585,18.252807617188,6.2410888671875,-24.468872070312
0.059,12.967651367188,11.045776367188,-24.028442382812
0.0595,9.3641357421875,15.530151367188,-24.909301757812
0.06,5.7606201171875,18.012573242188,-23.828247070312
0.0605,0.3153076171875,20.975463867188,-21.385864257812
0.061,-4.1690673828125,22.697143554688,-18.703247070312
0.0615,-9.3341064453125,24.458862304688,-15.420043945312
0.062,-14.058715820312,24.538940429688,-10.935668945312
0.0625,-17.742309570312,24.178588867188,-6.8917236328125
0.063,-20.064575195312,23.337768554688,-3.7686767578125
0.0635,-22.506958007812,20.775268554688,1.3162841796875
0.064,-24.709106445312,18.212768554688,6.1209716796875
0.0645,-24.388793945312,13.368041992188,10.725463867188
0.065,-25.229614257812,10.285034179688,14.609252929688
0.0655,-24.028442382812,6.2410888671875,17.532104492188
0.066,-22.506958007812,2.2371826171875,20.134643554688
0.0665,-19.784301757812,-2.5274658203125,22.096557617188
0.067,-16.901489257812,-7.9727783203125,24.619018554688
0.0675,-11.656372070312,-12.577270507812,24.018432617188
0.068,-8.2130126953125,-16.501098632812,24.418823242188
0.0685,-4.5694580078125,-18.543090820312,22.937377929688
0.069,1.1160888671875,-21.425903320312,20.214721679688
0.0695,5.4002685546875,-23.187622070312,17.772338867188
0.07,11.045776367188,-24.308715820312,13.328002929688
0.0705,15.129760742188,-24.629028320312,9.6844482421875
0.071,18.573120117188,-23.868286132812,5.5203857421875
0.0715,20.975463867188,-22.426879882812,1.7967529296875
0.072,23.057495117188,-20.064575195312,-2.8077392578125
0.0725,25.259643554688,-17.301879882812,-7.8526611328125
0.073,24.378784179688,-12.176879882812,-12.176879882812
0.0735,25.139526367188,-9.4542236328125,-15.860473632812
0.074,23.658081054688,-5.3302001953125,-18.422973632812
0.0745,21.736206054688,-0.6856689453125,-21.145629882812
0.075,19.093627929688,3.8787841796875,-23.027465820312
0.0755,15.249877929688,9.6844482421875,-24.989379882812
0.076,10.605346679688,13.768432617188,-24.428833007812
0.0765,6.8817138671875,17.452026367188,-24.348754882812
0.077,2.7576904296875,19.494018554688,-22.306762695312
0.0775,-2.6475830078125,22.256713867188,-19.824340820312
0.078,-7.2120361328125,24.018432617188,-17.061645507812
0.0785,-12.937622070312,24.418823242188,-11.856567382812
0.079,-16.380981445312,24.859252929688,-8.9337158203125
0.0795,-19.664184570312,23.618041992188,-4.4893798828125
0.08,-21.866333007812,21.736206054688,-0.3253173828125
0.0805,-23.668090820312,19.253784179688,3.9989013671875
0.081,-25.469848632812,15.690307617188,9.3641357421875
0.0815,-24.348754882812,10.605346679688,13.368041992188
0.082,-24.989379882812,7.9627685546875,16.851440429688
0.0825,-22.987426757812,3.7987060546875,19.053588867188
0.083,-20.985473632812,-1.2061767578125,21.976440429688
0.0835,-17.902465820312,-5.8106689453125,23.457885742188
0.084,-13.418090820312,-11.656372070312,24.779174804688
0.0845,-9.4542236328125,-15.059692382812,24.338745117188
0.085,-5.3702392578125,-18.543090820312,23.658081054688
0.0855,-0.8458251953125,-20.344848632812,21.055541992188
0.086,3.9989013671875,-22.867309570312,18.853393554688
0.0865,9.1239013671875,-24.388793945312,15.369995117188
0.087,14.489135742188,-24.308715820312,9.9246826171875
0.0875,17.452026367188,-24.709106445312,7.5623779296875
0.088,20.655151367188,-22.947387695312,2.5975341796875
0.0885,22.897338867188,-20.945434570312,-1.8067626953125
0.089,24.098510742188,-18.222778320312,-5.7706298828125
0.0895,25.499877929688,-14.338989257812,-11.215942382812
0.09,24.298706054688,-9.6544189453125,-14.619262695312
0.0905,24.619018554688,-6.6915283203125,-18.022583007812
0.091,22.096557617188,-2.3272705078125,-19.864379882812
0.0915,20.214721679688,2.5975341796875,-22.827270507812
0.092,16.491088867188,7.4022216796875,-23.908325195312
0.0925,11.646362304688,13.087768554688,-24.749145507812
0.093,8.6033935546875,15.970581054688,-24.588989257812
0.0935,3.6785888671875,19.253784179688,-22.987426757812
0.094,-1.0059814453125,21.135620117188,-20.264770507812
0.0945,-5.2901611328125,23.217651367188,-18.222778320312
0.095,-10.895629882812,24.659057617188,-14.098754882812
0.0955,-15.500122070312,24.018432617188,-8.9737548828125
0.096,-18.222778320312,24.458862304688,-6.7716064453125
0.0965,-20.985473632812,22.056518554688,-1.6065673828125
0.097,-23.307739257812,20.094604492188,2.7977294921875
0.0975,-24.028442382812,16.731323242188,6.8817138671875
0.098,-25.189575195312,12.687377929688,12.246948242188
0.0985,-24.188598632812,8.7235107421875,15.209838867188
0.099,-23.948364257812,5.2000732421875,18.533081054688
0.0995,-21.265747070312,0.9158935546875,20.214721679688
0.1,-19.383911132812,-4.0489501953125,23.217651367188
0.1005,-15.059692382812,-9.0938720703125,23.938354492188
0.101,-10.295043945312,-14.138793945312,24.178588867188
0.1015,-7.6925048828125,-16.701293945312,24.098510742188
0.102,-2.2071533203125,-19.744262695312,21.776245117188
0.1025,2.4373779296875,-21.786254882812,19.253784179688
0.103,6.7215576171875,-23.347778320312,16.651245117188
0.1035,12.527221679688,-24.709106445312,12.327026367188
0.104,16.330932617188,-23.828247070312,7.7225341796875
0.1045,19.253784179688,-24.028442382812,4.9598388671875
0.105,21.656127929688,-21.385864257812,-0.1251220703125
0.1055,24.138549804688,-19.383911132812,-4.6495361328125
0.106,24.258666992188,-15.380004882812,-8.8135986328125
0.1065,25.179565429688,-11.456176757812,-13.738403320312
0.107,24.258666992188,-7.9327392578125,-16.421020507812
0.1075,23.217651367188,-3.6885986328125,-19.624145507812
0.108,20.494995117188,0.9959716796875,-21.505981445312
0.1085,18.172729492188,5.8006591796875,-23.988403320312
0.109,13.408081054688,11.005737304688,-24.428833007812
0.1095,8.9637451171875,15.410034179688,-24.308715820312
0.11,6.2410888671875,17.812377929688,-24.068481445312
0.1105,0.3953857421875,20.655151367188,-21.105590820312
0.111,-4.3292236328125,22.897338867188,-18.863403320312
0.1115,-8.8936767578125,23.778198242188,-15.179809570312
0.112,-14.218872070312,24.979370117188,-11.215942382812
0.1125,-17.421997070312,23.778198242188,-6.8917236328125
0.113,-20.224731445312,23.297729492188,-3.5684814453125
0.1135,-22.386840820312,20.494995117188,1.4364013671875
0.114,-24.709106445312,18.252807617188,6.1209716796875
0.1145,-24.308715820312,13.488159179688,10.525268554688
0.115,-24.989379882812,9.8846435546875,14.809448242188
0.1155,-24.188598632812,6.7215576171875,17.291870117188
0.116,-22.346801757812,1.9969482421875,20.174682617188
0.1165,-19.664184570312,-2.7276611328125,22.176635742188
0.117,-16.501098632812,-7.7325439453125,23.978393554688
0.1175,-12.096801757812,-12.697387695312,24.498901367188
0.118,-7.6524658203125,-16.421020507812,23.778198242188
0.1185,-4.6094970703125,-18.583129882812,22.977416992188
0.119,1.1561279296875,-21.105590820312,19.854370117188
0.1195,5.7606201171875,-23.427856445312,17.772338867188
0.12,10.845581054688,-23.668090820312,12.967651367188
0.1205,15.410034179688,-24.829223632812,9.6043701171875
0.121,18.252807617188,-23.628051757812,5.6004638671875
0.1215,20.975463867188,-22.386840820312,1.5965576171875
0.122,22.817260742188,-19.704223632812,-2.9678955078125
0.1225,24.859252929688,-16.941528320312,-7.8126220703125
0.123,24.298706054688,-12.296997070312,-11.976684570312
0.1235,24.498901367188,-8.7735595703125,-15.740356445312
0.124,23.578002929688,-5.8106689453125,-17.862426757812
0.1245,21.295776367188,-0.6456298828125,-20.745239257812
0.125,18.853393554688,4.0389404296875,-22.947387695312
0.1255,14.569213867188,9.2840576171875,-23.828247070312
0.126,10.965698242188,13.608276367188,-24.629028320312
0.1265,6.5614013671875,16.851440429688,-23.427856445312
0.127,2.9178466796875,19.093627929688,-22.026489257812
0.1275,-2.2872314453125,21.375854492188,-19.223754882812
0.128,-7.1319580078125,23.698120117188,-16.901489257812
0.1285,-12.176879882812,23.377807617188,-11.576293945312
0.129,-15.940551757812,24.218627929688,-8.8135986328125
0.1295,-18.422973632812,22.977416992188,-5.1300048828125
0.13,-21.025512695312,21.215698242188,-0.7257080078125
0.1305,-22.747192382812,18.733276367188,3.5584716796875
0.131,-24.188598632812,15.169799804688,8.6834716796875
0.1315,-23.868286132812,11.125854492188,12.527221679688
0.132,-23.708129882812,7.5623779296875,15.970581054688
0.1325,-22.587036132812,4.6395263671875,17.772338867188
0.133,-20.264770507812,-0.5255126953125,20.535034179688
0.1335,-17.742309570312,-5.3302001953125,22.817260742188
0.134,-12.777465820312,-10.495239257812,23.057495117188
0.1345,-10.094848632812,-14.178833007812,24.018432617188
0.135,-5.7305908203125,-16.981567382812,22.496948242188
0.1355,-1.5264892578125,-19.223754882812,20.615112304688
0.136,2.9578857421875,-21.305786132812,18.292846679688
0.1365,8.3231201171875,-23.547973632812,15.249877929688
0.137,12.967651367188,-23.107543945312,10.204956054688
0.1375,16.411010742188,-23.828247070312,7.5223388671875
0.138,18.813354492188,-22.346801757812,3.7586669921875
0.1385,21.455932617188,-20.384887695312,-0.8858642578125
0.139,23.057495117188,-17.902465820312,-5.0499267578125
0.1395,23.938354492188,-13.778442382812,-10.134887695312
0.14,24.018432617188,-10.535278320312,-13.498168945312
0.1405,23.377807617188,-6.5714111328125,-16.821411132812
0.141,21.776245117188,-3.1680908203125,-18.703247070312
0.1415,19.614135742188,1.7567138671875,-21.425903320312
0.142,16.531127929688,7.0018310546875,-23.547973632812
0.1425,11.326049804688,11.926635742188,-23.307739257812
0.143,9.0037841796875,15.249877929688,-24.268676757812
0.1435,4.1990966796875,17.932495117188,-22.146606445312
0.144,-0.5255126953125,20.334838867188,-19.984497070312
0.1445,-4.6094970703125,22.096557617188,-17.742309570312
0.145,-10.415161132812,23.938354492188,-13.818481445312
0.1455,-14.499145507812,23.337768554688,-9.3341064453125
0.146,-17.782348632812,23.618041992188,-6.3712158203125
0.1465,-19.864379882812,21.656127929688,-2.2471923828125
0.147,-22.346801757812,19.654174804688,2.3172607421875
0.1475,-23.668090820312,16.531127929688,6.7615966796875
0.148,-23.988403320312,11.886596679688,11.806518554688
0.1485,-24.188598632812,9.2840576171875,14.729370117188
0.149,-22.907348632812,4.8397216796875,17.852416992188
0.1495,-20.945434570312,1.0360107421875,19.734252929688
0.15,-18.743286132812,-3.6885986328125,22.176635742188
0.1505,-14.899536132812,-9.2540283203125,23.938354492188
0.151,-9.8145751953125,-13.578247070312,23.177612304688
0.1515,-7.4122314453125,-16.581176757812,23.738159179688
0.152,-2.3272705078125,-18.903442382812,21.015502929688
0.1525,2.3973388671875,-21.465942382812,18.933471679688
0.153,6.4813232421875,-22.667114257812,16.170776367188
0.1535,12.487182617188,-24.068481445312,11.606323242188
0.154,15.650268554688,-23.427856445312,8.0428466796875
0.1545,18.973510742188,-23.027465820312,4.3192138671875
0.155,20.815307617188,-20.745239257812,0.1551513671875
0.1555,23.097534179688,-18.783325195312,-4.1290283203125
0.156,23.978393554688,-15.099731445312,-8.7735595703125
0.1565,23.698120117188,-10.535278320312,-13.177856445312
0.157,24.058471679688,-8.3331298828125,-15.740356445312
0.1575,22.016479492188,-3.5684814453125,-18.543090820312
0.158,20.054565429688,0.6356201171875,-20.785278320312
0.1585,17.411987304688,4.9998779296875,-22.426879882812
0.159,13.207885742188,10.725463867188,-23.988403320312
0.1595,8.8436279296875,14.248901367188,-23.147583007812
0.16,5.8807373046875,17.211791992188,-23.107543945312
0.1605,0.9959716796875,19.173706054688,-20.184692382812
0.161,-3.5284423828125,21.736206054688,-18.503051757812
0.1615,-7.9327392578125,22.496948242188,-14.979614257812
0.162,-13.378051757812,23.457885742188,-10.455200195312
0.1625,-15.860473632812,23.217651367188,-7.8526611328125
0.163,-18.983520507812,22.056518554688,-3.5284423828125
0.1635,-20.745239257812,19.854370117188,0.4754638671875
0.164,-22.587036132812,17.652221679688,4.5594482421875
0.1645,-23.507934570312,13.768432617188,9.4442138671875
0.165,-22.987426757812,9.4842529296875,13.247924804688
0.1655,-23.387817382812,7.4022216796875,15.770385742188
0.166,-20.985473632812,2.7176513671875,18.052612304688
0.1665,-19.343872070312,-1.5665283203125,20.735229492188
0.167,-15.980590820312,-6.0509033203125,21.816284179688
0.1675,-12.056762695312,-11.496215820312,23.337768554688
0.168,-8.3731689453125,-14.419067382812,22.577026367188
0.1685,-4.7296142578125,-17.381958007812,21.816284179688
0.169,-0.1251220703125,-19.143676757812,19.053588867188
0.1695,4.1590576171875,-21.706176757812,17.452026367188
0.17,9.1639404296875,-22.386840820312,13.247924804688
0.1705,13.968627929688,-22.907348632812,9.1239013671875
0.171,16.290893554688,-22.987426757812,6.9217529296875
0.1715,19.253784179688,-21.145629882812,2.1170654296875
0.172,21.295776367188,-19.183715820312,-1.9669189453125
0.1725,22.577026367188,-16.461059570312,-6.0509033203125
0.173,23.618041992188,-12.777465820312,-10.815551757812
0.1735,22.777221679688,-8.6534423828125,-14.138793945312
0.174,22.817260742188,-6.0909423828125,-16.781372070312
0.1745,20.214721679688,-1.2862548828125,-18.983520507812
0.175,18.653198242188,3.1981201171875,-21.906372070312
0.1755,14.288940429688,7.9627685546875,-22.266723632812
0.176,10.685424804688,12.807495117188,-23.547973632812
0.1765,7.3621826171875,15.410034179688,-22.787231445312
0.177,2.7576904296875,18.332885742188,-21.145629882812
0.1775,-1.8468017578125,20.214721679688,-18.663208007812
0.178,-6.3311767578125,22.416870117188,-16.380981445312
