wavelength,x,y,z
0.0,-3.833740234375,5.575439453125,-0.750732421875
0.0005,-2.472412109375,5.735595703125,-2.192138671875
0.001,-1.151123046875,5.975830078125,-3.833740234375
0.0015,0.010009765625,6.015869140625,-4.994873046875
0.002,0.730712890625,6.135986328125,-5.795654296875
0.0025,1.611572265625,5.695556640625,-6.356201171875
0.003,3.012939453125,4.454345703125,-6.716552734375
0.0035,4.414306640625,3.133056640625,-7.036865234375
0.004,5.455322265625,1.771728515625,-7.116943359375
0.0045,6.055908203125,0.610595703125,-6.956787109375
0.005,6.176025390625,-0.270263671875,-6.596435546875
0.0055,5.975830078125,-1.271240234375,-5.755615234375
0.006,5.695556640625,-2.552490234375,-4.474365234375
0.0065,5.575439453125,-4.033935546875,-3.153076171875
0.007,5.295166015625,-5.195068359375,-1.871826171875
0.0075,4.894775390625,-5.915771484375,-0.990966796875
0.008,4.174072265625,-6.316162109375,0.050048828125
0.0085,2.972900390625,-6.436279296875,1.251220703125
0.009,1.571533203125,-6.676513671875,2.812744140625
0.0095,0.130126953125,-6.796630859375,4.334228515625
0.01,-0.830810546875,-6.796630859375,5.375244140625
0.0105,-1.551513671875,-6.756591796875,6.095947265625
0.011,-2.552490234375,-5.915771484375,6.496337890625
0.0115,-3.993896484375,-4.554443359375,6.776611328125
0.012,-5.315185546875,-3.153076171875,7.056884765625
0.0125,-6.196044921875,-1.831787109375,6.936767578125
0.013,-6.556396484375,-0.910888671875,6.696533203125
0.0135,-6.476318359375,0.050048828125,6.176025390625
0.014,-6.196044921875,1.131103515625,5.054931640625
0.0145,-5.955810546875,2.452392578125,3.813720703125
0.015,-5.755615234375,3.853759765625,2.452392578125
0.0155,-5.435302734375,4.814697265625,1.331298828125
0.016,-4.954833984375,5.415283203125,0.490478515625
0.0165,-4.114013671875,5.615478515625,-0.510498046875
0.017,-2.792724609375,5.655517578125,-1.831787109375
0.0175,-1.471435546875,5.895751953125,-3.393310546875
0.018,-0.270263671875,6.015869140625,-4.714599609375
0.0185,0.610595703125,6.095947265625,-5.595458984375
0.019,1.331298828125,5.895751953125,-6.236083984375
0.0195,2.492431640625,4.894775390625,-6.556396484375
0.02,3.853759765625,3.573486328125,-6.876708984375
0.0205,5.094970703125,2.212158203125,-7.076904296875
0.021,5.775634765625,0.970947265625,-6.916748046875
0.0215,6.095947265625,0.210205078125,-6.716552734375
0.022,5.895751953125,-0.710693359375,-6.075927734375
0.0225,5.655517578125,-1.871826171875,-4.954833984375
0.023,5.455322265625,-3.193115234375,-3.753662109375
0.0235,5.295166015625,-4.514404296875,-2.472412109375
0.024,4.934814453125,-5.395263671875,-1.471435546875
0.0245,4.494384765625,-5.915771484375,-0.630615234375
0.025,3.533447265625,-6.115966796875,0.410400390625
0.0255,2.292236328125,-6.276123046875,1.691650390625
0.026,0.970947265625,-6.436279296875,3.253173828125
0.0265,-0.190185546875,-6.516357421875,4.454345703125
0.027,-0.910888671875,-6.676513671875,5.335205078125
0.0275,-1.711669921875,-6.356201171875,5.895751953125
0.028,-2.912841796875,-5.275146484375,6.216064453125
0.0285,-4.194091796875,-4.073974609375,6.536376953125
0.029,-5.315185546875,-2.752685546875,6.696533203125
0.0295,-5.955810546875,-1.711669921875,6.616455078125
0.03,-6.156005859375,-0.950927734375,6.416259765625
0.0305,-5.995849609375,0.010009765625,5.695556640625
0.031,-5.795654296875,1.131103515625,4.654541015625
0.0315,-5.755615234375,2.532470703125,3.493408203125
0.032,-5.515380859375,3.733642578125,2.292236328125
0.0325,-5.195068359375,4.494384765625,1.371337890625
0.033,-4.674560546875,4.974853515625,0.570556640625
0.0335,-3.713623046875,5.135009765625,-0.630615234375
0.034,-2.552490234375,5.495361328125,-1.951904296875
0.0345,-1.271240234375,5.735595703125,-3.473388671875
0.035,-0.350341796875,5.855712890625,-4.514404296875
0.0355,0.410400390625,6.015869140625,-5.395263671875
0.036,1.331298828125,5.455322265625,-5.915771484375
0.0365,2.692626953125,4.334228515625,-6.276123046875
0.037,4.013916015625,3.133056640625,-6.676513671875
0.0375,4.974853515625,1.891845703125,-6.716552734375
0.038,5.495361328125,0.970947265625,-6.636474609375
0.0385,5.615478515625,0.210205078125,-6.316162109375
0.039,5.455322265625,-0.870849609375,-5.475341796875
0.0395,5.335205078125,-2.031982421875,-4.474365234375
0.04,5.255126953125,-3.393310546875,-3.273193359375
0.0405,5.014892578125,-4.514404296875,-2.192138671875
0.041,4.734619140625,-5.235107421875,-1.351318359375
0.0415,4.013916015625,-5.635498046875,-0.510498046875
0.042,3.012939453125,-5.755615234375,0.690673828125
0.0425,1.851806640625,-6.115966796875,2.132080078125
0.043,0.650634765625,-6.276123046875,3.493408203125
0.0435,-0.190185546875,-6.436279296875,4.454345703125
0.044,-0.910888671875,-6.436279296875,5.215087890625
0.0445,-1.911865234375,-5.715576171875,5.615478515625
0.045,-3.193115234375,-4.634521484375,6.015869140625
0.0455,-4.434326171875,-3.473388671875,6.336181640625
0.046,-5.195068359375,-2.312255859375,6.336181640625
0.0465,-5.635498046875,-1.591552734375,6.296142578125
0.047,-5.675537109375,-0.830810546875,5.855712890625
0.0475,-5.475341796875,0.210205078125,5.014892578125
0.048,-5.475341796875,1.371337890625,4.134033203125
0.0485,-5.395263671875,2.652587890625,2.972900390625
0.049,-5.195068359375,3.613525390625,2.052001953125
0.0495,-4.954833984375,4.254150390625,1.291259765625
0.05,-4.234130859375,4.614501953125,0.450439453125
0.0505,-3.233154296875,4.934814453125,-0.830810546875
0.051,-2.192138671875,5.295166015625,-2.232177734375
0.0515,-1.151123046875,5.495361328125,-3.433349609375
0.052,-0.510498046875,5.775634765625,-4.434326171875
0.0525,0.450439453125,5.655517578125,-5.114990234375
0.053,1.531494140625,4.854736328125,-5.555419921875
0.0535,2.812744140625,3.893798828125,-6.035888671875
0.054,3.973876953125,2.732666015625,-6.316162109375
0.0545,4.734619140625,1.731689453125,-6.396240234375
0.055,5.135009765625,1.010986328125,-6.356201171875
0.0555,5.135009765625,0.250244140625,-5.835693359375
0.056,5.094970703125,-0.870849609375,-5.114990234375
0.0565,5.094970703125,-2.152099609375,-4.154052734375
0.057,5.014892578125,-3.353271484375,-3.072998046875
0.0575,4.814697265625,-4.314208984375,-2.272216796875
0.058,4.494384765625,-4.834716796875,-1.431396484375
0.0585,3.733642578125,-5.155029296875,-0.510498046875
0.059,2.812744140625,-5.555419921875,0.810791015625
0.0595,1.651611328125,-5.915771484375,2.212158203125
0.06,0.770751953125,-6.156005859375,3.373291015625
0.0605,0.090087890625,-6.396240234375,4.294189453125
0.061,-0.910888671875,-6.075927734375,4.894775390625
0.0615,-2.031982421875,-5.235107421875,5.375244140625
0.062,-3.273193359375,-4.234130859375,5.815673828125
0.0625,-4.354248046875,-3.153076171875,6.015869140625
0.063,-4.994873046875,-2.272216796875,6.135986328125
0.0635,-5.275146484375,-1.591552734375,6.015869140625
0.064,-5.275146484375,-0.750732421875,5.415283203125
0.0645,-5.275146484375,0.290283203125,4.694580078125
0.065,-5.315185546875,1.571533203125,3.733642578125
0.0655,-5.275146484375,2.692626953125,2.732666015625
0.066,-5.074951171875,3.533447265625,1.971923828125
0.0665,-4.634521484375,4.053955078125,1.211181640625
0.067,-3.833740234375,4.414306640625,0.170166015625
0.0675,-2.952880859375,4.934814453125,-1.191162109375
0.068,-1.951904296875,5.215087890625,-2.472412109375
0.0685,-1.151123046875,5.575439453125,-3.553466796875
0.069,-0.390380859375,5.695556640625,-4.434326171875
0.0695,0.650634765625,5.215087890625,-4.994873046875
0.07,1.891845703125,4.414306640625,-5.515380859375
0.0705,3.173095703125,3.333251953125,-5.955810546875
0.071,4.093994140625,2.252197265625,-6.115966796875
0.0715,4.694580078125,1.571533203125,-6.276123046875
0.072,4.854736328125,0.810791015625,-6.035888671875
0.0725,4.854736328125,-0.270263671875,-5.395263671875
0.073,4.974853515625,-1.351318359375,-4.634521484375
0.0735,4.974853515625,-2.592529296875,-3.673583984375
0.074,4.854736328125,-3.593505859375,-2.712646484375
0.0745,4.734619140625,-4.434326171875,-1.951904296875
0.075,4.134033203125,-4.834716796875,-1.071044921875
0.0755,3.253173828125,-5.195068359375,0.130126953125
0.076,2.252197265625,-5.675537109375,1.491455078125
0.0765,1.291259765625,-5.955810546875,2.732666015625
0.077,0.610595703125,-6.276123046875,3.773681640625
0.0775,-0.350341796875,-6.276123046875,4.534423828125
0.078,-1.431396484375,-5.515380859375,5.054931640625
0.0785,-2.712646484375,-4.674560546875,5.575439453125
0.079,-3.873779296875,-3.553466796875,5.895751953125
0.0795,-4.714599609375,-2.592529296875,6.055908203125
0.08,-5.155029296875,-1.951904296875,6.055908203125
0.0805,-5.195068359375,-1.151123046875,5.615478515625
0.081,-5.195068359375,-0.270263671875,4.934814453125
0.0815,-5.355224609375,1.091064453125,4.053955078125
0.082,-5.275146484375,2.372314453125,3.052978515625
0.0825,-5.155029296875,3.253173828125,2.252197265625
0.083,-4.834716796875,3.933837890625,1.451416015625
0.0835,-4.114013671875,4.334228515625,0.490478515625
0.084,-3.233154296875,4.774658203125,-0.790771484375
0.0845,-2.232177734375,5.135009765625,-2.152099609375
0.085,-1.351318359375,5.455322265625,-3.313232421875
0.0855,-0.670654296875,5.735595703125,-4.234130859375
0.086,0.370361328125,5.415283203125,-4.914794921875
0.0865,1.571533203125,4.574462890625,-5.435302734375
0.087,2.892822265625,3.573486328125,-5.915771484375
0.0875,3.973876953125,2.452392578125,-6.115966796875
0.088,4.614501953125,1.571533203125,-6.276123046875
0.0885,4.974853515625,0.850830078125,-6.115966796875
0.089,4.934814453125,0.010009765625,-5.515380859375
0.0895,4.934814453125,-1.191162109375,-4.754638671875
0.09,5.014892578125,-2.432373046875,-3.793701171875
0.0905,4.894775390625,-3.553466796875,-2.752685546875
0.091,4.774658203125,-4.354248046875,-1.991943359375
0.0915,4.214111328125,-4.874755859375,-1.151123046875
0.092,3.333251953125,-5.195068359375,0.010009765625
0.0925,2.412353515625,-5.635498046875,1.291259765625
0.093,1.331298828125,-5.915771484375,2.652587890625
0.0935,0.570556640625,-6.236083984375,3.693603515625
0.094,-0.310302734375,-6.356201171875,4.534423828125
0.0945,-1.271240234375,-5.755615234375,5.094970703125
0.095,-2.552490234375,-4.834716796875,5.575439453125
0.0955,-3.833740234375,-3.713623046875,5.935791015625
0.096,-4.754638671875,-2.632568359375,6.095947265625
0.0965,-5.275146484375,-1.951904296875,6.135986328125
0.097,-5.395263671875,-1.231201171875,5.775634765625
0.0975,-5.315185546875,-0.270263671875,5.014892578125
0.098,-5.395263671875,1.010986328125,4.214111328125
0.0985,-5.315185546875,2.372314453125,3.173095703125
0.099,-5.195068359375,3.333251953125,2.252197265625
0.0995,-4.954833984375,4.093994140625,1.451416015625
0.1,-4.314208984375,4.454345703125,0.610595703125
0.1005,-3.353271484375,4.814697265625,-0.670654296875
0.101,-2.272216796875,5.255126953125,-2.112060546875
0.1015,-1.311279296875,5.495361328125,-3.353271484375
0.102,-0.630615234375,5.775634765625,-4.354248046875
0.1025,0.370361328125,5.615478515625,-5.114990234375
0.103,1.571533203125,4.814697265625,-5.595458984375
0.1035,2.892822265625,3.773681640625,-6.115966796875
0.104,4.134033203125,2.532470703125,-6.356201171875
0.1045,4.854736328125,1.491455078125,-6.436279296875
0.105,5.255126953125,0.730712890625,-6.356201171875
0.1055,5.175048828125,-0.230224609375,-5.755615234375
0.106,5.094970703125,-1.271240234375,-4.834716796875
0.1065,5.175048828125,-2.632568359375,-3.833740234375
0.107,5.094970703125,-3.873779296875,-2.712646484375
0.1075,4.854736328125,-4.714599609375,-1.791748046875
0.108,4.374267578125,-5.275146484375,-0.990966796875
0.1085,3.413330078125,-5.475341796875,0.170166015625
0.109,2.372314453125,-5.795654296875,1.491455078125
0.1095,1.131103515625,-6.115966796875,2.972900390625
0.11,0.290283203125,-6.356201171875,4.093994140625
0.1105,-0.590576171875,-6.476318359375,4.934814453125
0.111,-1.511474609375,-5.955810546875,5.495361328125
0.1115,-2.832763671875,-4.874755859375,5.895751953125
0.112,-4.154052734375,-3.713623046875,6.296142578125
0.1125,-5.155029296875,-2.512451171875,6.376220703125
0.113,-5.715576171875,-1.671630859375,6.376220703125
0.1135,-5.835693359375,-0.910888671875,6.015869140625
0.114,-5.635498046875,0.250244140625,5.135009765625
0.1145,-5.555419921875,1.411376953125,4.134033203125
0.115,-5.555419921875,2.852783203125,3.012939453125
0.1155,-5.315185546875,3.893798828125,1.931884765625
0.116,-4.994873046875,4.614501953125,1.131103515625
0.1165,-4.354248046875,4.974853515625,0.250244140625
0.117,-3.233154296875,5.135009765625,-1.031005859375
0.1175,-2.072021484375,5.535400390625,-2.552490234375
0.118,-0.910888671875,5.735595703125,-3.873779296875
0.1185,0.010009765625,5.935791015625,-4.874755859375
0.119,0.730712890625,5.855712890625,-5.635498046875
0.1195,1.931884765625,4.974853515625,-6.115966796875
0.12,3.333251953125,3.773681640625,-6.476318359375
0.1205,4.614501953125,2.372314453125,-6.796630859375
0.121,5.375244140625,1.251220703125,-6.716552734375
0.1215,5.735595703125,0.370361328125,-6.636474609375
0.122,5.735595703125,-0.550537109375,-6.035888671875
0.1225,5.495361328125,-1.711669921875,-4.914794921875
0.123,5.415283203125,-3.072998046875,-3.753662109375
0.1235,5.255126953125,-4.434326171875,-2.512451171875
0.124,4.974853515625,-5.315185546875,-1.471435546875
0.1245,4.494384765625,-5.835693359375,-0.630615234375
0.125,3.533447265625,-6.035888671875,0.490478515625
0.1255,2.212158203125,-6.236083984375,1.891845703125
0.126,0.850830078125,-6.516357421875,3.533447265625
0.1265,-0.310302734375,-6.596435546875,4.614501953125
0.127,-0.990966796875,-6.676513671875,5.495361328125
0.1275,-1.911865234375,-6.236083984375,6.095947265625
0.128,-3.233154296875,-4.994873046875,6.416259765625
0.1285,-4.594482421875,-3.793701171875,6.696533203125
0.129,-5.715576171875,-2.432373046875,6.856689453125
0.1295,-6.276123046875,-1.351318359375,6.656494140625
0.13,-6.396240234375,-0.510498046875,6.336181640625
0.1305,-6.156005859375,0.570556640625,5.455322265625
0.131,-5.915771484375,1.851806640625,4.214111328125
0.1315,-5.795654296875,3.253173828125,2.972900390625
0.132,-5.515380859375,4.454345703125,1.731689453125
0.1325,-5.155029296875,5.135009765625,0.810791015625
0.133,-4.474365234375,5.495361328125,0.010009765625
0.1335,-3.273193359375,5.575439453125,-1.271240234375
0.134,-1.951904296875,5.775634765625,-2.832763671875
0.1345,-0.630615234375,6.015869140625,-4.314208984375
0.135,0.370361328125,6.055908203125,-5.315185546875
0.1355,1.051025390625,6.055908203125,-6.115966796875
0.136,2.092041015625,5.295166015625,-6.556396484375
0.1365,3.533447265625,3.893798828125,-6.836669921875
0.137,4.854736328125,2.532470703125,-7.116943359375
0.1375,5.735595703125,1.171142578125,-7.076904296875
0.138,6.176025390625,0.290283203125,-6.876708984375
0.1385,6.176025390625,-0.630615234375,-6.356201171875
0.139,5.895751953125,-1.751708984375,-5.275146484375
0.1395,5.615478515625,-3.072998046875,-3.993896484375
0.14,5.495361328125,-4.514404296875,-2.632568359375
0.1405,5.094970703125,-5.515380859375,-1.471435546875
0.141,4.654541015625,-6.115966796875,-0.630615234375
0.1415,3.773681640625,-6.356201171875,0.450439453125
0.142,2.412353515625,-6.436279296875,1.771728515625
0.1425,1.051025390625,-6.676513671875,3.333251953125
0.143,-0.310302734375,-6.716552734375,4.694580078125
0.1435,-1.111083984375,-6.756591796875,5.615478515625
0.144,-1.831787109375,-6.556396484375,6.256103515625
0.1445,-3.032958984375,-5.515380859375,6.536376953125
0.145,-4.394287109375,-4.194091796875,6.816650390625
0.1455,-5.635498046875,-2.832763671875,7.016845703125
0.146,-6.316162109375,-1.511474609375,6.816650390625
0.1465,-6.556396484375,-0.670654296875,6.616455078125
0.147,-6.396240234375,0.290283203125,5.895751953125
0.1475,-6.115966796875,1.451416015625,4.734619140625
0.148,-5.915771484375,2.812744140625,3.453369140625
0.1485,-5.675537109375,4.134033203125,2.132080078125
0.149,-5.275146484375,4.974853515625,1.091064453125
0.1495,-4.794677734375,5.495361328125,0.290283203125
0.15,-3.793701171875,5.615478515625,-0.830810546875
0.1505,-2.472412109375,5.735595703125,-2.232177734375
0.151,-1.151123046875,6.015869140625,-3.793701171875
0.1515,0.090087890625,6.055908203125,-4.954833984375
0.152,0.770751953125,6.135986328125,-5.835693359375
0.1525,1.651611328125,5.695556640625,-6.396240234375
0.153,2.972900390625,4.494384765625,-6.716552734375
0.1535,4.294189453125,3.173095703125,-7.076904296875
0.154,5.415283203125,1.811767578125,-7.116943359375
0.1545,6.055908203125,0.690673828125,-6.916748046875
0.155,6.216064453125,-0.190185546875,-6.676513671875
0.1555,5.975830078125,-1.151123046875,-5.795654296875
0.156,5.735595703125,-2.392333984375,-4.594482421875
0.1565,5.575439453125,-3.833740234375,-3.273193359375
0.157,5.295166015625,-5.074951171875,-1.991943359375
0.1575,4.934814453125,-5.835693359375,-1.071044921875
0.158,4.254150390625,-6.276123046875,-0.190185546875
0.1585,3.133056640625,-6.356201171875,1.010986328125
0.159,1.771728515625,-6.556396484375,2.532470703125
0.1595,0.330322265625,-6.716552734375,4.093994140625
0.16,-0.710693359375,-6.756591796875,5.175048828125
0.1605,-1.351318359375,-6.756591796875,5.935791015625
0.161,-2.392333984375,-6.115966796875,6.416259765625
0.1615,-3.833740234375,-4.794677734375,6.696533203125
0.162,-5.114990234375,-3.353271484375,6.976806640625
0.1625,-6.075927734375,-2.031982421875,6.976806640625
0.163,-6.476318359375,-1.071044921875,6.736572265625
0.1635,-6.516357421875,-0.230224609375,6.296142578125
0.164,-6.236083984375,0.930908203125,5.255126953125
0.1645,-6.035888671875,2.212158203125,3.973876953125
0.165,-5.835693359375,3.653564453125,2.652587890625
0.1655,-5.475341796875,4.734619140625,1.491455078125
0.166,-5.074951171875,5.375244140625,0.610595703125
0.1665,-4.234130859375,5.615478515625,-0.390380859375
0.167,-2.912841796875,5.695556640625,-1.711669921875
0.1675,-1.631591796875,5.975830078125,-3.233154296875
0.168,-0.350341796875,6.055908203125,-4.634521484375
0.1685,0.570556640625,6.095947265625,-5.555419921875
0.169,1.291259765625,5.935791015625,-6.276123046875
0.1695,2.412353515625,4.894775390625,-6.596435546875
0.17,3.853759765625,3.653564453125,-6.916748046875
0.1705,5.094970703125,2.212158203125,-7.076904296875
0.171,5.815673828125,0.970947265625,-6.916748046875
0.1715,6.135986328125,0.130126953125,-6.756591796875
0.172,6.015869140625,-0.830810546875,-6.115966796875
0.1725,5.735595703125,-1.951904296875,-4.954833984375
0.173,5.535400390625,-3.273193359375,-3.713623046875
0.1735,5.335205078125,-4.594482421875,-2.432373046875
0.174,4.934814453125,-5.475341796875,-1.351318359375
0.1745,4.494384765625,-6.035888671875,-0.550537109375
0.175,3.493408203125,-6.156005859375,0.530517578125
0.1755,2.252197265625,-6.316162109375,1.851806640625
0.176,0.890869140625,-6.516357421875,3.413330078125
0.1765,-0.310302734375,-6.556396484375,4.574462890625
0.177,-0.990966796875,-6.676513671875,5.415283203125
0.1775,-1.871826171875,-6.356201171875,6.015869140625
0.178,-3.032958984375,-5.195068359375,6.296142578125
0.1785,-4.314208984375,-3.993896484375,6.656494140625
0.179,-5.435302734375,-2.672607421875,6.696533203125
0.1795,-6.075927734375,-1.591552734375,6.656494140625
0.18,-6.276123046875,-0.790771484375,6.376220703125
0.1805,-6.075927734375,0.130126953125,5.695556640625
0.181,-5.835693359375,1.251220703125,4.614501953125
0.1815,-5.755615234375,2.572509765625,3.453369140625
0.182,-5.515380859375,3.813720703125,2.252197265625
0.1825,-5.195068359375,4.614501953125,1.291259765625
0.183,-4.714599609375,5.094970703125,0.490478515625
0.1835,-3.713623046875,5.295166015625,-0.630615234375
0.184,-2.552490234375,5.535400390625,-1.951904296875
0.1845,-1.271240234375,5.735595703125,-3.473388671875
0.185,-0.310302734375,5.895751953125,-4.594482421875
0.1855,0.450439453125,5.975830078125,-5.435302734375
0.186,1.411376953125,5.495361328125,-5.955810546875
0.1865,2.692626953125,4.414306640625,-6.356201171875
0.187,3.973876953125,3.173095703125,-6.676513671875
0.1875,5.014892578125,1.931884765625,-6.716552734375
0.188,5.575439453125,0.970947265625,-6.716552734375
