wavelength,x,y,z
0.0,-3.193115234375,4.894775390625,-0.990966796875
0.0005,-2.112060546875,5.215087890625,-2.352294921875
0.001,-1.151123046875,5.455322265625,-3.513427734375
0.0015,-0.510498046875,5.775634765625,-4.594482421875
0.002,0.570556640625,5.615478515625,-5.275146484375
0.0025,1.771728515625,4.654541015625,-5.715576171875
0.003,3.012939453125,3.653564453125,-6.115966796875
0.0035,4.053955078125,2.412353515625,-6.276123046875
0.004,4.814697265625,1.451416015625,-6.316162109375
0.0045,5.135009765625,0.770751953125,-6.276123046875
0.005,5.094970703125,0.010009765625,-5.635498046875
0.0055,4.974853515625,-1.151123046875,-4.794677734375
0.006,4.974853515625,-2.472412109375,-3.713623046875
0.0065,4.774658203125,-3.633544921875,-2.592529296875
0.007,4.734619140625,-4.634521484375,-1.711669921875
0.0075,4.294189453125,-5.155029296875,-0.950927734375
0.008,3.413330078125,-5.435302734375,0.210205078125
0.0085,2.412353515625,-5.835693359375,1.451416015625
0.009,1.251220703125,-6.115966796875,2.852783203125
0.0095,0.370361328125,-6.396240234375,3.893798828125
0.01,-0.470458984375,-6.556396484375,4.934814453125
0.0105,-1.471435546875,-5.995849609375,5.495361328125
0.011,-2.752685546875,-4.954833984375,5.895751953125
0.0115,-3.993896484375,-3.793701171875,6.216064453125
0.012,-4.914794921875,-2.552490234375,6.256103515625
0.0125,-5.595458984375,-1.751708984375,6.336181640625
0.013,-5.715576171875,-0.990966796875,6.015869140625
0.0135,-5.515380859375,0.050048828125,5.215087890625
0.014,-5.435302734375,1.171142578125,4.214111328125
0.0145,-5.355224609375,2.532470703125,3.052978515625
0.015,-5.114990234375,3.653564453125,1.931884765625
0.0155,-4.994873046875,4.494384765625,1.131103515625
0.016,-4.314208984375,4.854736328125,0.250244140625
0.0165,-3.233154296875,5.054931640625,-1.071044921875
0.017,-2.112060546875,5.455322265625,-2.512451171875
0.0175,-0.990966796875,5.575439453125,-3.833740234375
0.018,-0.270263671875,5.895751953125,-4.834716796875
0.0185,0.690673828125,5.855712890625,-5.635498046875
0.019,1.891845703125,4.974853515625,-6.115966796875
0.0195,3.213134765625,3.773681640625,-6.436279296875
0.02,4.414306640625,2.452392578125,-6.596435546875
0.0205,5.175048828125,1.291259765625,-6.556396484375
0.021,5.615478515625,0.530517578125,-6.556396484375
0.0215,5.535400390625,-0.430419921875,-5.915771484375
0.022,5.295166015625,-1.551513671875,-4.874755859375
0.0225,5.255126953125,-2.872802734375,-3.713623046875
0.023,4.974853515625,-4.154052734375,-2.432373046875
0.0235,4.814697265625,-5.155029296875,-1.391357421875
0.024,4.454345703125,-5.755615234375,-0.590576171875
0.0245,3.493408203125,-6.075927734375,0.570556640625
0.025,2.212158203125,-6.236083984375,1.931884765625
0.0255,0.930908203125,-6.476318359375,3.373291015625
0.026,-0.230224609375,-6.556396484375,4.614501953125
0.0265,-0.950927734375,-6.756591796875,5.615478515625
0.027,-1.951904296875,-6.236083984375,6.176025390625
0.0275,-3.353271484375,-4.954833984375,6.496337890625
0.028,-4.634521484375,-3.633544921875,6.776611328125
0.0285,-5.635498046875,-2.272216796875,6.696533203125
0.029,-6.156005859375,-1.271240234375,6.616455078125
0.0295,-6.356201171875,-0.470458984375,6.336181640625
0.03,-6.115966796875,0.610595703125,5.375244140625
0.0305,-5.795654296875,1.891845703125,4.134033203125
0.031,-5.635498046875,3.253173828125,2.812744140625
0.0315,-5.275146484375,4.414306640625,1.491455078125
0.032,-4.994873046875,5.255126953125,0.610595703125
0.0325,-4.234130859375,5.535400390625,-0.430419921875
0.033,-3.072998046875,5.655517578125,-1.631591796875
0.0335,-1.711669921875,5.815673828125,-3.193115234375
0.034,-0.470458984375,5.935791015625,-4.514404296875
0.0345,0.530517578125,6.055908203125,-5.475341796875
0.035,1.291259765625,6.055908203125,-6.356201171875
0.0355,2.412353515625,5.094970703125,-6.756591796875
0.036,3.853759765625,3.693603515625,-6.996826171875
0.0365,5.014892578125,2.332275390625,-7.116943359375
0.037,5.775634765625,0.970947265625,-6.916748046875
0.0375,6.176025390625,0.130126953125,-6.796630859375
0.038,6.095947265625,-0.790771484375,-6.196044921875
0.0385,5.735595703125,-1.911865234375,-5.074951171875
0.039,5.415283203125,-3.193115234375,-3.713623046875
0.0395,5.175048828125,-4.554443359375,-2.312255859375
0.04,4.814697265625,-5.555419921875,-1.151123046875
0.0405,4.494384765625,-6.276123046875,-0.310302734375
0.041,3.533447265625,-6.436279296875,0.770751953125
0.0415,2.212158203125,-6.556396484375,2.052001953125
0.042,0.850830078125,-6.676513671875,3.613525390625
0.0425,-0.510498046875,-6.676513671875,4.814697265625
0.043,-1.231201171875,-6.796630859375,5.775634765625
0.0435,-2.031982421875,-6.516357421875,6.456298828125
0.044,-3.313232421875,-5.395263671875,6.776611328125
0.0445,-4.634521484375,-3.953857421875,7.016845703125
0.045,-5.755615234375,-2.552490234375,7.016845703125
0.0455,-6.396240234375,-1.311279296875,6.736572265625
0.046,-6.636474609375,-0.550537109375,6.616455078125
0.0465,-6.396240234375,0.450439453125,5.815673828125
0.047,-6.075927734375,1.571533203125,4.534423828125
0.0475,-5.795654296875,2.972900390625,3.253173828125
0.048,-5.475341796875,4.214111328125,1.851806640625
0.0485,-5.114990234375,5.135009765625,0.770751953125
0.049,-4.594482421875,5.655517578125,-0.150146484375
0.0495,-3.553466796875,5.775634765625,-1.271240234375
0.05,-2.192138671875,5.895751953125,-2.712646484375
0.0505,-0.830810546875,6.095947265625,-4.194091796875
0.051,0.330322265625,6.055908203125,-5.275146484375
0.0515,1.010986328125,6.256103515625,-6.236083984375
0.052,1.971923828125,5.615478515625,-6.716552734375
0.0525,3.333251953125,4.294189453125,-6.956787109375
0.053,4.614501953125,2.932861328125,-7.156982421875
0.0535,5.575439453125,1.531494140625,-7.076904296875
0.054,6.095947265625,0.450439453125,-6.876708984375
0.0545,6.256103515625,-0.510498046875,-6.556396484375
0.055,5.895751953125,-1.431396484375,-5.595458984375
0.0555,5.615478515625,-2.672607421875,-4.314208984375
0.056,5.375244140625,-4.073974609375,-2.872802734375
0.0565,4.974853515625,-5.275146484375,-1.591552734375
0.057,4.734619140625,-6.115966796875,-0.630615234375
0.0575,4.013916015625,-6.436279296875,0.290283203125
0.058,2.812744140625,-6.556396484375,1.531494140625
0.0585,1.411376953125,-6.716552734375,3.052978515625
0.059,0.050048828125,-6.676513671875,4.494384765625
0.0595,-0.950927734375,-6.756591796875,5.455322265625
0.06,-1.631591796875,-6.796630859375,6.296142578125
0.0605,-2.752685546875,-5.915771484375,6.696533203125
0.061,-4.154052734375,-4.514404296875,6.936767578125
0.0615,-5.395263671875,-3.113037109375,7.056884765625
0.062,-6.156005859375,-1.711669921875,6.856689453125
0.0625,-6.596435546875,-0.830810546875,6.736572265625
0.063,-6.556396484375,0.130126953125,6.176025390625
0.0635,-6.196044921875,1.171142578125,5.054931640625
0.064,-5.915771484375,2.492431640625,3.773681640625
0.0645,-5.635498046875,3.853759765625,2.292236328125
0.065,-5.235107421875,4.894775390625,1.091064453125
0.0655,-4.914794921875,5.615478515625,0.170166015625
0.066,-3.993896484375,5.855712890625,-0.870849609375
0.0665,-2.672607421875,5.935791015625,-2.232177734375
0.067,-1.271240234375,6.135986328125,-3.793701171875
0.0675,0.050048828125,6.095947265625,-4.994873046875
0.068,0.810791015625,6.256103515625,-5.955810546875
0.0685,1.651611328125,5.975830078125,-6.676513671875
0.069,2.932861328125,4.814697265625,-6.956787109375
0.0695,4.294189453125,3.373291015625,-7.197021484375
0.07,5.375244140625,1.931884765625,-7.156982421875
0.0705,6.015869140625,0.690673828125,-6.916748046875
0.071,6.296142578125,-0.230224609375,-6.756591796875
0.0715,6.055908203125,-1.111083984375,-5.955810546875
0.072,5.735595703125,-2.312255859375,-4.714599609375
0.0725,5.495361328125,-3.753662109375,-3.353271484375
0.073,5.094970703125,-4.954833984375,-1.951904296875
0.0735,4.814697265625,-5.915771484375,-0.950927734375
0.074,4.334228515625,-6.396240234375,0.050048828125
0.0745,3.213134765625,-6.476318359375,1.091064453125
0.075,1.891845703125,-6.596435546875,2.532470703125
0.0755,0.450439453125,-6.716552734375,4.013916015625
0.076,-0.670654296875,-6.676513671875,5.094970703125
0.0765,-1.351318359375,-6.836669921875,6.015869140625
0.077,-2.312255859375,-6.276123046875,6.536376953125
0.0775,-3.633544921875,-4.954833984375,6.736572265625
0.078,-4.874755859375,-3.633544921875,6.976806640625
0.0785,-5.795654296875,-2.232177734375,6.816650390625
0.079,-6.356201171875,-1.191162109375,6.696533203125
0.0795,-6.476318359375,-0.430419921875,6.416259765625
0.08,-6.196044921875,0.610595703125,5.495361328125
0.0805,-5.835693359375,1.731689453125,4.294189453125
0.081,-5.635498046875,3.093017578125,3.012939453125
0.0815,-5.275146484375,4.174072265625,1.571533203125
0.082,-5.074951171875,5.094970703125,0.730712890625
0.0825,-4.354248046875,5.495361328125,-0.190185546875
0.083,-3.273193359375,5.615478515625,-1.311279296875
0.0835,-2.031982421875,5.855712890625,-2.752685546875
0.084,-0.670654296875,5.855712890625,-4.114013671875
0.0845,0.290283203125,5.975830078125,-5.155029296875
0.085,0.970947265625,6.095947265625,-6.035888671875
0.0855,1.971923828125,5.375244140625,-6.436279296875
0.086,3.333251953125,4.093994140625,-6.716552734375
0.0865,4.494384765625,2.772705078125,-6.916748046875
0.087,5.335205078125,1.451416015625,-6.756591796875
0.0875,5.895751953125,0.610595703125,-6.756591796875
0.088,5.895751953125,-0.270263671875,-6.356201171875
0.0885,5.615478515625,-1.311279296875,-5.435302734375
0.089,5.415283203125,-2.552490234375,-4.234130859375
0.0895,5.135009765625,-3.913818359375,-2.912841796875
0.09,4.854736328125,-4.954833984375,-1.671630859375
0.0905,4.654541015625,-5.755615234375,-0.830810546875
0.091,3.893798828125,-6.115966796875,0.170166015625
0.0915,2.692626953125,-6.236083984375,1.411376953125
0.092,1.451416015625,-6.476318359375,2.852783203125
0.0925,0.210205078125,-6.436279296875,4.134033203125
0.093,-0.670654296875,-6.716552734375,5.175048828125
0.0935,-1.431396484375,-6.596435546875,5.935791015625
0.094,-2.592529296875,-5.635498046875,6.296142578125
0.0945,-3.873779296875,-4.394287109375,6.576416015625
0.095,-5.074951171875,-3.032958984375,6.696533203125
0.0955,-5.755615234375,-1.871826171875,6.536376953125
0.096,-6.156005859375,-1.111083984375,6.496337890625
0.0965,-6.035888671875,-0.310302734375,5.855712890625
0.097,-5.755615234375,0.890869140625,4.814697265625
0.0975,-5.635498046875,2.092041015625,3.613525390625
0.098,-5.315185546875,3.453369140625,2.332275390625
0.0985,-5.114990234375,4.454345703125,1.291259765625
0.099,-4.714599609375,5.054931640625,0.490478515625
0.0995,-3.833740234375,5.255126953125,-0.550537109375
0.1,-2.672607421875,5.455322265625,-1.871826171875
0.1005,-1.431396484375,5.695556640625,-3.273193359375
0.101,-0.390380859375,5.735595703125,-4.394287109375
0.1015,0.330322265625,6.015869140625,-5.395263671875
0.102,1.251220703125,5.615478515625,-5.915771484375
0.1025,2.492431640625,4.494384765625,-6.276123046875
0.103,3.693603515625,3.373291015625,-6.556396484375
0.1035,4.654541015625,2.052001953125,-6.556396484375
0.104,5.295166015625,1.091064453125,-6.516357421875
0.1045,5.535400390625,0.330322265625,-6.356201171875
0.105,5.415283203125,-0.630615234375,-5.675537109375
0.1055,5.175048828125,-1.711669921875,-4.714599609375
0.106,5.054931640625,-2.912841796875,-3.553466796875
0.1065,4.774658203125,-3.993896484375,-2.312255859375
0.107,4.694580078125,-4.994873046875,-1.471435546875
0.1075,4.214111328125,-5.475341796875,-0.670654296875
0.108,3.333251953125,-5.715576171875,0.450439453125
0.1085,2.252197265625,-5.995849609375,1.651611328125
0.109,0.970947265625,-6.115966796875,3.052978515625
0.1095,0.170166015625,-6.356201171875,4.134033203125
0.11,-0.630615234375,-6.556396484375,5.094970703125
0.1105,-1.591552734375,-6.075927734375,5.615478515625
0.111,-2.792724609375,-4.994873046875,5.935791015625
0.1115,-3.993896484375,-3.873779296875,6.256103515625
0.112,-4.874755859375,-2.672607421875,6.256103515625
0.1125,-5.515380859375,-1.951904296875,6.376220703125
0.113,-5.635498046875,-1.231201171875,6.095947265625
0.1135,-5.595458984375,-0.390380859375,5.375244140625
0.114,-5.435302734375,0.850830078125,4.494384765625
0.1145,-5.315185546875,2.132080078125,3.333251953125
0.115,-5.114990234375,3.213134765625,2.252197265625
0.1155,-4.994873046875,4.134033203125,1.451416015625
0.116,-4.474365234375,4.574462890625,0.610595703125
0.1165,-3.553466796875,4.854736328125,-0.590576171875
0.117,-2.552490234375,5.255126953125,-1.911865234375
0.1175,-1.431396484375,5.415283203125,-3.113037109375
0.118,-0.670654296875,5.735595703125,-4.194091796875
0.1185,0.210205078125,5.815673828125,-5.074951171875
0.119,1.251220703125,5.135009765625,-5.555419921875
0.1195,2.492431640625,4.134033203125,-5.995849609375
0.12,3.653564453125,3.012939453125,-6.196044921875
0.1205,4.494384765625,1.931884765625,-6.276123046875
0.121,4.974853515625,1.171142578125,-6.396240234375
0.1215,5.014892578125,0.450439453125,-5.995849609375
0.122,4.974853515625,-0.510498046875,-5.235107421875
0.1225,4.934814453125,-1.671630859375,-4.354248046875
0.123,4.774658203125,-2.912841796875,-3.193115234375
0.1235,4.694580078125,-3.953857421875,-2.272216796875
0.124,4.534423828125,-4.754638671875,-1.511474609375
0.1245,3.893798828125,-5.114990234375,-0.630615234375
0.125,2.972900390625,-5.475341796875,0.610595703125
0.1255,1.931884765625,-5.795654296875,1.931884765625
0.126,0.970947265625,-6.035888671875,3.133056640625
0.1265,0.290283203125,-6.436279296875,4.174072265625
0.127,-0.670654296875,-6.276123046875,4.894775390625
0.1275,-1.791748046875,-5.435302734375,5.375244140625
0.128,-3.032958984375,-4.514404296875,5.815673828125
0.1285,-4.114013671875,-3.393310546875,5.935791015625
0.129,-4.874755859375,-2.472412109375,6.055908203125
0.1295,-5.315185546875,-1.791748046875,6.135986328125
0.13,-5.275146484375,-0.990966796875,5.615478515625
0.1305,-5.235107421875,0.050048828125,4.894775390625
0.131,-5.275146484375,1.291259765625,3.973876953125
0.1315,-5.074951171875,2.452392578125,2.852783203125
0.132,-5.074951171875,3.493408203125,2.011962890625
0.1325,-4.714599609375,4.093994140625,1.211181640625
0.133,-3.993896484375,4.494384765625,0.250244140625
0.1335,-3.153076171875,4.934814453125,-1.071044921875
0.134,-2.031982421875,5.215087890625,-2.392333984375
0.1345,-1.231201171875,5.495361328125,-3.513427734375
0.135,-0.510498046875,5.815673828125,-4.514404296875
0.1355,0.570556640625,5.415283203125,-5.155029296875
0.136,1.771728515625,4.534423828125,-5.595458984375
0.1365,3.012939453125,3.493408203125,-6.035888671875
0.137,4.013916015625,2.292236328125,-6.115966796875
0.1375,4.614501953125,1.531494140625,-6.356201171875
0.138,4.974853515625,0.850830078125,-6.115966796875
0.1385,4.934814453125,0.010009765625,-5.475341796875
0.139,4.934814453125,-1.191162109375,-4.674560546875
0.1395,4.854736328125,-2.432373046875,-3.633544921875
0.14,4.734619140625,-3.553466796875,-2.592529296875
0.1405,4.734619140625,-4.474365234375,-1.871826171875
0.141,4.174072265625,-4.954833984375,-0.990966796875
0.1415,3.293212890625,-5.275146484375,0.170166015625
0.142,2.332275390625,-5.755615234375,1.451416015625
0.1425,1.291259765625,-5.915771484375,2.732666015625
0.143,0.570556640625,-6.356201171875,3.853759765625
0.1435,-0.350341796875,-6.396240234375,4.734619140625
0.144,-1.431396484375,-5.755615234375,5.255126953125
0.1445,-2.712646484375,-4.794677734375,5.695556640625
0.145,-3.873779296875,-3.673583984375,5.975830078125
0.1455,-4.794677734375,-2.592529296875,6.055908203125
0.146,-5.275146484375,-1.871826171875,6.176025390625
0.1465,-5.395263671875,-1.151123046875,5.775634765625
0.147,-5.275146484375,-0.190185546875,5.014892578125
0.1475,-5.275146484375,1.131103515625,4.134033203125
0.148,-5.155029296875,2.332275390625,3.012939453125
0.1485,-5.074951171875,3.373291015625,2.052001953125
0.149,-4.834716796875,4.134033203125,1.291259765625
0.1495,-4.154052734375,4.494384765625,0.370361328125
0.15,-3.193115234375,4.854736328125,-0.910888671875
0.1505,-2.152099609375,5.175048828125,-2.272216796875
0.151,-1.231201171875,5.415283203125,-3.433349609375
0.1515,-0.510498046875,5.815673828125,-4.514404296875
0.152,0.490478515625,5.575439453125,-5.195068359375
0.1525,1.691650390625,4.614501953125,-5.635498046875
0.153,2.932861328125,3.613525390625,-6.115966796875
0.1535,3.933837890625,2.372314453125,-6.196044921875
0.154,4.774658203125,1.531494140625,-6.316162109375
0.1545,5.094970703125,0.810791015625,-6.276123046875
0.155,5.054931640625,0.010009765625,-5.675537109375
0.1555,4.974853515625,-1.151123046875,-4.794677734375
0.156,4.974853515625,-2.432373046875,-3.753662109375
0.1565,4.734619140625,-3.593505859375,-2.552490234375
0.157,4.734619140625,-4.594482421875,-1.751708984375
0.1575,4.254150390625,-5.155029296875,-0.950927734375
0.158,3.413330078125,-5.435302734375,0.250244140625
0.1585,2.372314453125,-5.795654296875,1.531494140625
0.159,1.211181640625,-6.035888671875,2.852783203125
0.1595,0.370361328125,-6.316162109375,3.973876953125
0.16,-0.510498046875,-6.516357421875,4.934814453125
0.1605,-1.471435546875,-5.995849609375,5.495361328125
0.161,-2.792724609375,-4.954833984375,5.895751953125
0.1615,-4.073974609375,-3.793701171875,6.256103515625
0.162,-4.954833984375,-2.552490234375,6.256103515625
0.1625,-5.555419921875,-1.751708984375,6.376220703125
0.163,-5.675537109375,-0.990966796875,6.015869140625
0.1635,-5.515380859375,0.050048828125,5.175048828125
0.164,-5.435302734375,1.251220703125,4.174072265625
0.1645,-5.315185546875,2.532470703125,3.012939453125
0.165,-5.074951171875,3.653564453125,1.891845703125
0.1655,-4.954833984375,4.494384765625,1.091064453125
0.166,-4.194091796875,4.814697265625,0.170166015625
0.1665,-3.193115234375,5.054931640625,-1.111083984375
0.167,-2.072021484375,5.455322265625,-2.552490234375
0.1675,-0.990966796875,5.615478515625,-3.793701171875
0.168,-0.230224609375,5.895751953125,-4.834716796875
0.1685,0.690673828125,5.735595703125,-5.635498046875
0.169,1.931884765625,4.814697265625,-6.035888671875
0.1695,3.173095703125,3.613525390625,-6.396240234375
0.17,4.374267578125,2.412353515625,-6.556396484375
0.1705,5.094970703125,1.291259765625,-6.476318359375
0.171,5.535400390625,0.610595703125,-6.476318359375
0.1715,5.415283203125,-0.350341796875,-5.875732421875
0.172,5.215087890625,-1.431396484375,-4.834716796875
0.1725,5.135009765625,-2.752685546875,-3.713623046875
0.173,4.894775390625,-3.993896484375,-2.472412109375
0.1735,4.734619140625,-4.994873046875,-1.471435546875
0.174,4.374267578125,-5.635498046875,-0.670654296875
0.1745,3.493408203125,-5.835693359375,0.450439453125
0.175,2.252197265625,-6.115966796875,1.771728515625
0.1755,1.010986328125,-6.316162109375,3.253173828125
0.176,0.050048828125,-6.436279296875,4.374267578125
0.1765,-0.790771484375,-6.756591796875,5.375244140625
0.177,-1.751708984375,-6.276123046875,5.975830078125
0.1775,-3.153076171875,-5.034912109375,6.336181640625
0.178,-4.434326171875,-3.793701171875,6.616455078125
0.1785,-5.395263671875,-2.432373046875,6.656494140625
0.179,-6.035888671875,-1.431396484375,6.536376953125
0.1795,-6.156005859375,-0.670654296875,6.336181640625
0.18,-5.955810546875,0.370361328125,5.415283203125
0.1805,-5.755615234375,1.571533203125,4.214111328125
0.181,-5.635498046875,3.012939453125,2.972900390625
0.1815,-5.275146484375,4.134033203125,1.651611328125
0.182,-5.074951171875,5.014892578125,0.810791015625
0.1825,-4.354248046875,5.415283203125,-0.190185546875
0.183,-3.193115234375,5.535400390625,-1.431396484375
0.1835,-1.911865234375,5.815673828125,-2.912841796875
0.184,-0.630615234375,5.895751953125,-4.314208984375
0.1845,0.330322265625,5.975830078125,-5.315185546875
0.185,1.051025390625,6.015869140625,-6.156005859375
0.1855,2.252197265625,5.135009765625,-6.556396484375
0.186,3.653564453125,3.733642578125,-6.876708984375
0.1865,4.854736328125,2.372314453125,-7.036865234375
0.187,5.615478515625,1.091064453125,-6.836669921875
0.1875,6.095947265625,0.210205078125,-6.756591796875
0.188,5.975830078125,-0.710693359375,-6.115966796875
