wavelength,x,y,z
0.0,1.331298828125,-6.396240234375,2.892822265625
0.0005,0.130126953125,-6.396240234375,4.134033203125
0.001,-0.710693359375,-6.476318359375,5.014892578125
0.0015,-1.471435546875,-6.396240234375,5.735595703125
0.002,-2.552490234375,-5.635498046875,6.256103515625
0.0025,-3.793701171875,-4.474365234375,6.536376953125
0.003,-4.874755859375,-3.072998046875,6.576416015625
0.0035,-5.555419921875,-1.911865234375,6.376220703125
0.004,-5.795654296875,-1.151123046875,6.216064453125
0.0045,-5.795654296875,-0.350341796875,5.695556640625
0.005,-5.635498046875,0.770751953125,4.814697265625
0.0055,-5.435302734375,1.971923828125,3.693603515625
0.006,-5.114990234375,3.173095703125,2.412353515625
0.0065,-4.834716796875,4.093994140625,1.371337890625
0.007,-4.514404296875,4.654541015625,0.610595703125
0.0075,-3.833740234375,5.054931640625,-0.390380859375
0.008,-2.832763671875,5.295166015625,-1.591552734375
0.0085,-1.591552734375,5.455322265625,-2.952880859375
0.009,-0.550537109375,5.495361328125,-4.114013671875
0.0095,0.130126953125,5.735595703125,-4.954833984375
0.01,1.010986328125,5.495361328125,-5.635498046875
0.0105,2.172119140625,4.654541015625,-6.115966796875
0.011,3.293212890625,3.653564453125,-6.396240234375
0.0115,4.334228515625,2.372314453125,-6.436279296875
0.012,4.934814453125,1.331298828125,-6.356201171875
0.0125,5.215087890625,0.610595703125,-6.276123046875
0.013,5.255126953125,-0.270263671875,-5.755615234375
0.0135,5.094970703125,-1.311279296875,-4.834716796875
0.014,4.974853515625,-2.552490234375,-3.793701171875
0.0145,4.694580078125,-3.713623046875,-2.552490234375
0.015,4.494384765625,-4.514404296875,-1.711669921875
0.0155,4.134033203125,-5.155029296875,-0.910888671875
0.016,3.413330078125,-5.515380859375,0.210205078125
0.0165,2.412353515625,-5.955810546875,1.451416015625
0.017,1.211181640625,-6.115966796875,2.812744140625
0.0175,0.290283203125,-6.276123046875,3.853759765625
0.018,-0.390380859375,-6.396240234375,4.734619140625
0.0185,-1.311279296875,-6.035888671875,5.415283203125
0.019,-2.552490234375,-5.155029296875,5.895751953125
0.0195,-3.713623046875,-4.114013671875,6.176025390625
0.02,-4.634521484375,-2.872802734375,6.135986328125
0.0205,-5.155029296875,-2.031982421875,6.135986328125
0.021,-5.435302734375,-1.271240234375,5.895751953125
0.0215,-5.435302734375,-0.390380859375,5.375244140625
0.022,-5.315185546875,0.690673828125,4.494384765625
0.0225,-5.195068359375,1.971923828125,3.333251953125
0.023,-4.954833984375,3.052978515625,2.252197265625
0.0235,-4.834716796875,3.853759765625,1.491455078125
0.024,-4.354248046875,4.414306640625,0.650634765625
0.0245,-3.553466796875,4.774658203125,-0.510498046875
0.025,-2.592529296875,5.135009765625,-1.791748046875
0.0255,-1.471435546875,5.255126953125,-3.072998046875
0.026,-0.670654296875,5.535400390625,-4.033935546875
0.0265,0.170166015625,5.615478515625,-4.874755859375
0.027,1.211181640625,5.135009765625,-5.515380859375
0.0275,2.372314453125,4.214111328125,-5.955810546875
0.028,3.533447265625,3.052978515625,-6.156005859375
0.0285,4.334228515625,1.931884765625,-6.115966796875
0.029,4.774658203125,1.251220703125,-6.156005859375
0.0295,4.934814453125,0.490478515625,-5.835693359375
0.03,4.934814453125,-0.590576171875,-5.155029296875
0.0305,4.854736328125,-1.671630859375,-4.314208984375
0.031,4.694580078125,-2.872802734375,-3.153076171875
0.0315,4.494384765625,-3.873779296875,-2.192138671875
0.032,4.334228515625,-4.634521484375,-1.431396484375
0.0325,3.813720703125,-5.114990234375,-0.590576171875
0.033,2.932861328125,-5.515380859375,0.650634765625
0.0335,1.851806640625,-5.835693359375,1.971923828125
0.034,0.890869140625,-5.955810546875,3.133056640625
0.0345,0.210205078125,-6.276123046875,4.093994140625
0.035,-0.710693359375,-6.115966796875,4.854736328125
0.0355,-1.871826171875,-5.475341796875,5.415283203125
0.036,-2.992919921875,-4.554443359375,5.815673828125
0.0365,-4.033935546875,-3.353271484375,5.975830078125
0.037,-4.754638671875,-2.432373046875,5.975830078125
0.0375,-5.114990234375,-1.751708984375,5.935791015625
0.038,-5.235107421875,-0.950927734375,5.535400390625
0.0385,-5.235107421875,0.130126953125,4.814697265625
0.039,-5.155029296875,1.331298828125,3.853759765625
0.0395,-4.994873046875,2.492431640625,2.732666015625
0.04,-4.874755859375,3.373291015625,1.931884765625
0.0405,-4.554443359375,3.973876953125,1.131103515625
0.041,-3.913818359375,4.454345703125,0.170166015625
0.0415,-3.113037109375,4.854736328125,-1.111083984375
0.042,-1.951904296875,5.175048828125,-2.432373046875
0.0425,-1.151123046875,5.415283203125,-3.513427734375
0.043,-0.430419921875,5.655517578125,-4.434326171875
0.0435,0.650634765625,5.375244140625,-5.155029296875
0.044,1.851806640625,4.534423828125,-5.715576171875
0.0445,3.012939453125,3.533447265625,-6.075927734375
0.045,3.973876953125,2.372314453125,-6.115966796875
0.0455,4.574462890625,1.531494140625,-6.115966796875
0.046,4.854736328125,0.810791015625,-5.995849609375
0.0465,4.934814453125,-0.150146484375,-5.475341796875
0.047,4.934814453125,-1.231201171875,-4.674560546875
0.0475,4.814697265625,-2.472412109375,-3.553466796875
0.048,4.614501953125,-3.553466796875,-2.512451171875
0.0485,4.494384765625,-4.434326171875,-1.751708984375
0.049,4.013916015625,-4.994873046875,-0.910888671875
0.0495,3.213134765625,-5.435302734375,0.290283203125
0.05,2.252197265625,-5.755615234375,1.611572265625
0.0505,1.171142578125,-5.915771484375,2.852783203125
0.051,0.370361328125,-6.196044921875,3.853759765625
0.0515,-0.470458984375,-6.276123046875,4.734619140625
0.052,-1.551513671875,-5.755615234375,5.375244140625
0.0525,-2.752685546875,-4.834716796875,5.855712890625
0.053,-3.913818359375,-3.633544921875,6.055908203125
0.0535,-4.754638671875,-2.512451171875,6.015869140625
0.054,-5.155029296875,-1.791748046875,6.015869140625
0.0545,-5.315185546875,-0.990966796875,5.655517578125
0.055,-5.315185546875,0.050048828125,4.934814453125
0.0555,-5.275146484375,1.211181640625,4.013916015625
0.056,-5.074951171875,2.452392578125,2.852783203125
0.0565,-4.874755859375,3.373291015625,1.891845703125
0.057,-4.674560546875,4.093994140625,1.131103515625
0.0575,-4.073974609375,4.534423828125,0.210205078125
0.058,-3.153076171875,4.934814453125,-1.111083984375
0.0585,-2.031982421875,5.255126953125,-2.432373046875
0.059,-1.031005859375,5.415283203125,-3.553466796875
0.0595,-0.350341796875,5.655517578125,-4.514404296875
0.06,0.650634765625,5.455322265625,-5.275146484375
0.0605,1.891845703125,4.654541015625,-5.835693359375
0.061,3.052978515625,3.653564453125,-6.236083984375
0.0615,4.134033203125,2.412353515625,-6.356201171875
0.062,4.814697265625,1.371337890625,-6.276123046875
0.0625,5.094970703125,0.690673828125,-6.156005859375
0.063,5.135009765625,-0.310302734375,-5.635498046875
0.0635,5.054931640625,-1.391357421875,-4.674560546875
0.064,4.934814453125,-2.632568359375,-3.553466796875
0.0645,4.694580078125,-3.873779296875,-2.392333984375
0.065,4.494384765625,-4.714599609375,-1.551513671875
0.0655,4.013916015625,-5.275146484375,-0.710693359375
0.066,3.253173828125,-5.595458984375,0.450439453125
0.0665,2.212158203125,-5.915771484375,1.771728515625
0.067,0.970947265625,-6.115966796875,3.173095703125
0.0675,0.130126953125,-6.236083984375,4.134033203125
0.068,-0.670654296875,-6.356201171875,4.974853515625
0.0685,-1.671630859375,-5.875732421875,5.655517578125
0.069,-2.952880859375,-4.874755859375,6.095947265625
0.0695,-4.154052734375,-3.673583984375,6.336181640625
0.07,-5.034912109375,-2.432373046875,6.256103515625
0.0705,-5.475341796875,-1.591552734375,6.135986328125
0.071,-5.635498046875,-0.830810546875,5.815673828125
0.0715,-5.515380859375,0.210205078125,5.094970703125
0.072,-5.435302734375,1.371337890625,4.093994140625
0.0725,-5.195068359375,2.652587890625,2.852783203125
0.073,-4.954833984375,3.653564453125,1.731689453125
0.0735,-4.714599609375,4.374267578125,0.930908203125
0.074,-4.114013671875,4.814697265625,0.090087890625
0.0745,-3.072998046875,5.135009765625,-1.231201171875
0.075,-1.991943359375,5.495361328125,-2.592529296875
0.0755,-0.830810546875,5.575439453125,-3.873779296875
0.076,0.010009765625,5.735595703125,-4.794677734375
0.0765,0.770751953125,5.655517578125,-5.555419921875
0.077,1.931884765625,4.974853515625,-6.115966796875
0.0775,3.213134765625,3.813720703125,-6.516357421875
0.078,4.374267578125,2.492431640625,-6.636474609375
0.0785,5.094970703125,1.291259765625,-6.476318359375
0.079,5.415283203125,0.570556640625,-6.396240234375
0.0795,5.415283203125,-0.390380859375,-5.875732421875
0.08,5.295166015625,-1.551513671875,-4.874755859375
0.0805,5.175048828125,-2.872802734375,-3.793701171875
0.081,4.894775390625,-4.154052734375,-2.392333984375
0.0815,4.574462890625,-5.074951171875,-1.391357421875
0.082,4.214111328125,-5.635498046875,-0.590576171875
0.0825,3.453369140625,-5.955810546875,0.530517578125
0.083,2.212158203125,-6.236083984375,1.931884765625
0.0835,0.890869140625,-6.396240234375,3.493408203125
0.084,-0.270263671875,-6.436279296875,4.534423828125
0.0845,-0.950927734375,-6.556396484375,5.415283203125
0.085,-1.951904296875,-6.115966796875,6.095947265625
0.0855,-3.273193359375,-5.034912109375,6.536376953125
0.086,-4.514404296875,-3.793701171875,6.776611328125
0.0865,-5.475341796875,-2.352294921875,6.696533203125
0.087,-5.995849609375,-1.311279296875,6.456298828125
0.0875,-6.115966796875,-0.550537109375,6.135986328125
0.088,-5.995849609375,0.530517578125,5.375244140625
0.0885,-5.755615234375,1.771728515625,4.134033203125
0.089,-5.515380859375,3.133056640625,2.772705078125
0.0895,-5.195068359375,4.214111328125,1.491455078125
0.09,-4.794677734375,4.974853515625,0.610595703125
0.0905,-4.154052734375,5.415283203125,-0.350341796875
0.091,-3.072998046875,5.615478515625,-1.591552734375
0.0915,-1.791748046875,5.895751953125,-3.113037109375
0.092,-0.430419921875,5.895751953125,-4.514404296875
0.0925,0.530517578125,5.895751953125,-5.395263671875
0.093,1.251220703125,5.815673828125,-6.115966796875
0.0935,2.412353515625,5.054931640625,-6.716552734375
0.094,3.813720703125,3.773681640625,-7.036865234375
0.0945,4.854736328125,2.412353515625,-7.116943359375
0.095,5.655517578125,1.051025390625,-6.836669921875
0.0955,5.895751953125,0.170166015625,-6.556396484375
0.096,5.895751953125,-0.790771484375,-6.075927734375
0.0965,5.655517578125,-1.951904296875,-5.074951171875
0.097,5.415283203125,-3.233154296875,-3.713623046875
0.0975,5.054931640625,-4.554443359375,-2.272216796875
0.098,4.654541015625,-5.435302734375,-1.111083984375
0.0985,4.214111328125,-6.075927734375,-0.310302734375
0.099,3.413330078125,-6.356201171875,0.770751953125
0.0995,2.172119140625,-6.516357421875,2.172119140625
0.1,0.770751953125,-6.676513671875,3.733642578125
0.1005,-0.550537109375,-6.596435546875,4.854736328125
0.101,-1.271240234375,-6.596435546875,5.695556640625
0.1015,-2.072021484375,-6.356201171875,6.376220703125
0.102,-3.233154296875,-5.395263671875,6.776611328125
0.1025,-4.554443359375,-4.033935546875,7.056884765625
0.103,-5.635498046875,-2.552490234375,6.976806640625
0.1035,-6.236083984375,-1.311279296875,6.656494140625
0.104,-6.356201171875,-0.590576171875,6.336181640625
0.1045,-6.236083984375,0.410400390625,5.735595703125
0.105,-5.955810546875,1.571533203125,4.494384765625
0.1055,-5.715576171875,2.892822265625,3.173095703125
0.106,-5.315185546875,4.134033203125,1.771728515625
0.1065,-4.874755859375,4.974853515625,0.730712890625
0.107,-4.434326171875,5.495361328125,-0.150146484375
0.1075,-3.553466796875,5.735595703125,-1.191162109375
0.108,-2.192138671875,5.895751953125,-2.592529296875
0.1085,-0.830810546875,6.015869140625,-4.114013671875
0.109,0.330322265625,5.935791015625,-5.155029296875
0.1095,1.010986328125,5.975830078125,-5.915771484375
0.11,1.931884765625,5.455322265625,-6.556396484375
0.1105,3.253173828125,4.334228515625,-6.916748046875
0.111,4.494384765625,3.052978515625,-7.116943359375
0.1115,5.415283203125,1.571533203125,-7.036865234375
0.112,5.895751953125,0.490478515625,-6.716552734375
0.1125,5.975830078125,-0.390380859375,-6.396240234375
0.113,5.815673828125,-1.311279296875,-5.635498046875
0.1135,5.535400390625,-2.592529296875,-4.394287109375
0.114,5.295166015625,-3.913818359375,-2.952880859375
0.1145,4.894775390625,-5.114990234375,-1.591552734375
0.115,4.494384765625,-5.795654296875,-0.710693359375
0.1155,3.893798828125,-6.236083984375,0.290283203125
0.116,2.812744140625,-6.476318359375,1.491455078125
0.1165,1.491455078125,-6.676513671875,3.012939453125
0.117,0.050048828125,-6.676513671875,4.414306640625
0.1175,-0.950927734375,-6.676513671875,5.375244140625
0.118,-1.591552734375,-6.596435546875,6.095947265625
0.1185,-2.712646484375,-5.875732421875,6.656494140625
0.119,-4.114013671875,-4.594482421875,7.016845703125
0.1195,-5.275146484375,-3.193115234375,7.096923828125
0.12,-6.075927734375,-1.791748046875,6.816650390625
0.1205,-6.356201171875,-0.910888671875,6.536376953125
0.121,-6.356201171875,0.010009765625,6.015869140625
0.1215,-6.156005859375,1.091064453125,5.054931640625
0.122,-5.915771484375,2.492431640625,3.773681640625
0.1225,-5.595458984375,3.853759765625,2.292236328125
0.123,-5.114990234375,4.854736328125,1.010986328125
0.1235,-4.714599609375,5.455322265625,0.210205078125
0.124,-3.873779296875,5.735595703125,-0.910888671875
0.1245,-2.592529296875,5.935791015625,-2.272216796875
0.125,-1.271240234375,6.135986328125,-3.833740234375
0.1255,0.130126953125,6.055908203125,-5.074951171875
0.126,0.930908203125,6.055908203125,-5.915771484375
0.1265,1.731689453125,5.775634765625,-6.556396484375
0.127,2.932861328125,4.814697265625,-7.036865234375
0.1275,4.294189453125,3.413330078125,-7.277099609375
0.128,5.375244140625,1.931884765625,-7.197021484375
0.1285,5.935791015625,0.610595703125,-6.876708984375
0.129,6.095947265625,-0.310302734375,-6.556396484375
0.1295,5.935791015625,-1.231201171875,-5.835693359375
0.13,5.695556640625,-2.432373046875,-4.634521484375
0.1305,5.415283203125,-3.753662109375,-3.273193359375
0.131,5.014892578125,-4.994873046875,-1.831787109375
0.1315,4.534423828125,-5.795654296875,-0.790771484375
0.132,4.053955078125,-6.276123046875,0.130126953125
0.1325,3.133056640625,-6.476318359375,1.171142578125
0.133,1.771728515625,-6.596435546875,2.652587890625
0.1335,0.290283203125,-6.676513671875,4.134033203125
0.134,-0.870849609375,-6.516357421875,5.135009765625
0.1345,-1.471435546875,-6.556396484375,5.895751953125
0.135,-2.392333984375,-6.115966796875,6.416259765625
0.1355,-3.673583984375,-4.954833984375,6.776611328125
0.136,-4.834716796875,-3.713623046875,6.976806640625
0.1365,-5.755615234375,-2.272216796875,6.816650390625
0.137,-6.156005859375,-1.231201171875,6.456298828125
0.1375,-6.276123046875,-0.510498046875,6.135986328125
0.138,-6.075927734375,0.530517578125,5.415283203125
0.1385,-5.795654296875,1.731689453125,4.254150390625
0.139,-5.515380859375,3.052978515625,2.892822265625
0.1395,-5.114990234375,4.134033203125,1.611572265625
0.14,-4.794677734375,4.854736328125,0.730712890625
0.1405,-4.234130859375,5.255126953125,-0.190185546875
0.141,-3.273193359375,5.535400390625,-1.271240234375
0.1415,-2.112060546875,5.735595703125,-2.592529296875
0.142,-0.710693359375,5.775634765625,-4.033935546875
0.1425,0.250244140625,5.815673828125,-4.994873046875
0.143,0.890869140625,5.855712890625,-5.755615234375
0.1435,1.891845703125,5.295166015625,-6.316162109375
0.144,3.173095703125,4.214111328125,-6.716552734375
0.1445,4.294189453125,2.932861328125,-6.916748046875
0.145,5.135009765625,1.571533203125,-6.756591796875
0.1455,5.535400390625,0.650634765625,-6.596435546875
0.146,5.655517578125,0.010009765625,-6.196044921875
0.1465,5.495361328125,-1.111083984375,-5.435302734375
0.147,5.375244140625,-2.272216796875,-4.354248046875
0.1475,5.094970703125,-3.633544921875,-2.952880859375
0.148,4.774658203125,-4.714599609375,-1.791748046875
0.1485,4.494384765625,-5.435302734375,-0.950927734375
0.149,3.853759765625,-5.835693359375,0.050048828125
0.1495,2.812744140625,-6.115966796875,1.251220703125
0.15,1.571533203125,-6.396240234375,2.692626953125
0.1505,0.290283203125,-6.396240234375,3.973876953125
0.151,-0.590576171875,-6.516357421875,4.934814453125
0.1515,-1.311279296875,-6.396240234375,5.655517578125
0.152,-2.432373046875,-5.755615234375,6.216064453125
0.1525,-3.713623046875,-4.594482421875,6.536376953125
0.153,-4.834716796875,-3.233154296875,6.656494140625
0.1535,-5.555419921875,-2.031982421875,6.416259765625
0.154,-5.835693359375,-1.231201171875,6.256103515625
0.1545,-5.835693359375,-0.390380859375,5.735595703125
0.155,-5.675537109375,0.730712890625,4.854736328125
0.1555,-5.475341796875,1.931884765625,3.733642578125
0.156,-5.195068359375,3.213134765625,2.412353515625
0.1565,-4.874755859375,4.134033203125,1.331298828125
0.157,-4.554443359375,4.734619140625,0.610595703125
0.1575,-3.873779296875,5.094970703125,-0.430419921875
0.158,-2.792724609375,5.295166015625,-1.631591796875
0.1585,-1.551513671875,5.575439453125,-3.072998046875
0.159,-0.510498046875,5.575439453125,-4.194091796875
0.1595,0.290283203125,5.735595703125,-5.074951171875
0.16,1.131103515625,5.495361328125,-5.755615234375
0.1605,2.252197265625,4.574462890625,-6.196044921875
0.161,3.453369140625,3.493408203125,-6.476318359375
0.1615,4.454345703125,2.212158203125,-6.516357421875
0.162,5.094970703125,1.171142578125,-6.356201171875
0.1625,5.295166015625,0.490478515625,-6.196044921875
0.163,5.255126953125,-0.390380859375,-5.635498046875
0.1635,5.094970703125,-1.431396484375,-4.754638671875
0.164,4.974853515625,-2.712646484375,-3.593505859375
0.1645,4.654541015625,-3.873779296875,-2.392333984375
0.165,4.454345703125,-4.674560546875,-1.511474609375
0.1655,4.093994140625,-5.275146484375,-0.710693359375
0.166,3.333251953125,-5.635498046875,0.330322265625
0.1665,2.292236328125,-5.955810546875,1.611572265625
0.167,1.051025390625,-6.075927734375,2.972900390625
0.1675,0.170166015625,-6.196044921875,3.973876953125
0.168,-0.590576171875,-6.396240234375,4.854736328125
0.1685,-1.471435546875,-6.035888671875,5.495361328125
0.169,-2.672607421875,-5.155029296875,5.935791015625
0.1695,-3.833740234375,-4.033935546875,6.216064453125
0.17,-4.754638671875,-2.752685546875,6.216064453125
0.1705,-5.235107421875,-1.951904296875,6.135986328125
0.171,-5.435302734375,-1.231201171875,5.895751953125
0.1715,-5.435302734375,-0.350341796875,5.335205078125
0.172,-5.315185546875,0.770751953125,4.494384765625
0.1725,-5.195068359375,2.052001953125,3.293212890625
0.173,-4.994873046875,3.133056640625,2.212158203125
0.1735,-4.834716796875,3.933837890625,1.451416015625
0.174,-4.314208984375,4.454345703125,0.610595703125
0.1745,-3.553466796875,4.814697265625,-0.510498046875
0.175,-2.552490234375,5.215087890625,-1.831787109375
0.1755,-1.391357421875,5.335205078125,-3.072998046875
0.176,-0.630615234375,5.535400390625,-4.073974609375
0.1765,0.170166015625,5.615478515625,-4.914794921875
0.177,1.211181640625,5.135009765625,-5.555419921875
0.1775,2.372314453125,4.174072265625,-6.035888671875
0.178,3.533447265625,3.052978515625,-6.236083984375
0.1785,4.334228515625,1.931884765625,-6.156005859375
0.179,4.814697265625,1.251220703125,-6.196044921875
0.1795,4.934814453125,0.490478515625,-5.875732421875
0.18,4.934814453125,-0.590576171875,-5.195068359375
0.1805,4.894775390625,-1.631591796875,-4.354248046875
0.181,4.734619140625,-2.872802734375,-3.193115234375
0.1815,4.534423828125,-3.833740234375,-2.232177734375
0.182,4.334228515625,-4.634521484375,-1.471435546875
0.1825,3.853759765625,-5.074951171875,-0.630615234375
0.183,2.972900390625,-5.475341796875,0.610595703125
0.1835,1.891845703125,-5.795654296875,1.971923828125
0.184,0.890869140625,-5.915771484375,3.093017578125
0.1845,0.250244140625,-6.316162109375,4.053955078125
0.185,-0.710693359375,-6.156005859375,4.814697265625
0.1855,-1.791748046875,-5.595458984375,5.415283203125
0.186,-2.912841796875,-4.594482421875,5.815673828125
0.1865,-4.033935546875,-3.393310546875,5.975830078125
0.187,-4.714599609375,-2.432373046875,5.935791015625
0.1875,-5.114990234375,-1.791748046875,5.935791015625
0.188,-5.195068359375,-0.990966796875,5.575439453125
