wavelength,x,y,z
0.0,20.665161132812,-9.8846435546875,-10.004760742188
0.0005,20.024536132812,-5.1199951171875,-14.248901367188
0.001,19.103637695312,-1.1561279296875,-17.171752929688
0.0015,17.742309570312,2.2471923828125,-19.253784179688
0.002,15.900512695312,5.4102783203125,-20.575073242188
0.0025,12.657348632812,8.3331298828125,-20.294799804688
0.003,8.4532470703125,12.176879882812,-19.974487304688
0.0035,3.9688720703125,15.740356445312,-19.253784179688
0.004,-0.9559326171875,18.543090820312,-17.492065429688
0.0045,-4.0789794921875,19.864379882812,-15.850463867188
0.005,-6.8416748046875,20.224731445312,-13.728393554688
0.0055,-9.9246826171875,20.224731445312,-10.885620117188
0.006,-14.248901367188,19.263793945312,-5.8006591796875
0.0065,-17.331909179688,18.182739257812,-1.7567138671875
0.007,-19.694213867188,16.661254882812,2.0469970703125
0.0075,-20.695190429688,14.739379882812,4.9698486328125
0.008,-20.535034179688,11.736450195312,7.8526611328125
0.0085,-20.535034179688,8.2130126953125,11.376098632812
0.009,-19.934448242188,3.8487548828125,15.219848632812
0.0095,-18.773315429688,-0.3953857421875,18.222778320312
0.01,-17.051635742188,-3.5584716796875,19.744262695312
0.0105,-15.089721679688,-6.4412841796875,20.705200195312
0.011,-11.846557617188,-9.4842529296875,20.505004882812
0.0115,-6.6815185546875,-13.648315429688,19.704223632812
0.012,-2.3973388671875,-16.811401367188,18.743286132812
0.0125,2.0469970703125,-19.253784179688,17.061645507812
0.013,5.0899658203125,-20.254760742188,15.219848632812
0.0135,7.9727783203125,-20.214721679688,12.497192382812
0.014,11.215942382812,-20.134643554688,9.4141845703125
0.0145,15.380004882812,-19.173706054688,4.4893798828125
0.015,18.382934570312,-17.652221679688,0.1251220703125
0.0155,20.064575195312,-16.130737304688,-3.0780029296875
0.016,20.745239257812,-13.968627929688,-5.8406982421875
0.0165,20.384887695312,-10.805541992188,-8.7635498046875
0.017,20.024536132812,-6.5614013671875,-12.727416992188
0.0175,19.423950195312,-2.7176513671875,-16.010620117188
0.018,18.222778320312,1.2862548828125,-18.733276367188
0.0185,16.220825195312,4.3692626953125,-19.894409179688
0.019,13.738403320312,7.2520751953125,-20.254760742188
0.0195,10.455200195312,10.455200195312,-20.294799804688
0.02,4.9698486328125,14.739379882812,-19.133666992188
0.0205,0.6055908203125,17.542114257812,-17.852416992188
0.021,-2.9578857421875,19.303833007812,-16.370971679688
0.0215,-5.8406982421875,20.144653320312,-14.529174804688
0.022,-8.8436279296875,19.784301757812,-11.406127929688
0.0225,-12.407104492188,19.463989257812,-7.7225341796875
0.023,-16.010620117188,18.543090820312,-3.3983154296875
0.0235,-18.853393554688,16.941528320312,1.0860595703125
0.024,-20.014526367188,15.219848632812,3.8487548828125
0.0245,-20.494995117188,12.817504882812,6.6514892578125
0.025,-20.254760742188,9.7344970703125,9.6143798828125
0.0255,-19.774291992188,5.0499267578125,13.778442382812
0.026,-18.893432617188,1.2862548828125,16.781372070312
0.0265,-17.772338867188,-2.2772216796875,19.143676757812
0.027,-15.770385742188,-5.2000732421875,20.144653320312
0.0275,-12.727416992188,-8.0828857421875,20.024536132812
0.028,-9.2039794921875,-11.566284179688,20.064575195312
0.0285,-3.9588623046875,-15.490112304688,18.903442382812
0.029,0.7657470703125,-18.212768554688,17.221801757812
0.0295,3.6885986328125,-19.534057617188,15.740356445312
0.03,6.6915283203125,-20.134643554688,13.738403320312
0.0305,9.6544189453125,-19.814331054688,10.535278320312
0.031,13.658325195312,-19.093627929688,6.0909423828125
0.0315,16.821411132812,-18.132690429688,2.0870361328125
0.032,19.263793945312,-16.531127929688,-1.9569091796875
0.0325,19.984497070312,-14.689331054688,-4.5194091796875
0.033,20.104614257812,-11.846557617188,-7.4822998046875
0.0335,19.984497070312,-8.5233154296875,-10.765502929688
0.034,19.463989257812,-3.9989013671875,-14.689331054688
0.0345,18.262817382812,0.0050048828125,-17.492065429688
0.035,16.941528320312,3.0880126953125,-19.253784179688
0.0355,14.859497070312,6.0509033203125,-20.134643554688
0.036,11.416137695312,9.1339111328125,-19.854370117188
0.0365,6.9718017578125,13.057739257812,-19.534057617188
0.037,2.4073486328125,16.501098632812,-18.573120117188
0.0375,-2.1170654296875,18.903442382812,-16.731323242188
0.038,-4.7996826171875,19.784301757812,-15.169799804688
0.0385,-7.7625732421875,20.104614257812,-12.807495117188
0.039,-11.045776367188,19.824340820312,-9.3641357421875
0.0395,-15.049682617188,18.903442382812,-4.6395263671875
0.04,-18.092651367188,17.662231445312,-0.4754638671875
0.0405,-20.134643554688,15.980590820312,3.1680908203125
0.041,-20.655151367188,13.778442382812,5.8507080078125
0.0415,-20.575073242188,10.575317382812,8.9737548828125
0.042,-20.294799804688,6.6514892578125,12.737426757812
0.0425,-19.694213867188,2.4473876953125,16.340942382812
0.043,-18.252807617188,-1.6766357421875,19.063598632812
0.0435,-16.451049804688,-4.6395263671875,20.184692382812
0.044,-14.128784179688,-7.5623779296875,20.945434570312
0.0445,-10.285034179688,-10.885620117188,20.464965820312
0.045,-5.2801513671875,-14.889526367188,19.504028320312
0.0455,-0.6756591796875,-17.972534179688,18.302856445312
0.046,3.5284423828125,-20.054565429688,16.501098632812
0.0465,6.2110595703125,-20.494995117188,14.499145507812
0.047,9.4141845703125,-20.535034179688,11.536254882812
0.0475,13.097778320312,-20.054565429688,7.5723876953125
0.048,16.701293945312,-18.933471679688,3.0479736328125
0.0485,19.463989257812,-17.411987304688,-1.2762451171875
0.049,20.825317382812,-15.650268554688,-4.3592529296875
0.0495,21.105590820312,-13.047729492188,-7.2020263671875
0.05,20.785278320312,-9.3240966796875,-10.565307617188
0.0505,20.184692382812,-5.0799560546875,-14.288940429688
0.051,19.343872070312,-1.0360107421875,-17.532104492188
0.0515,17.782348632812,2.8878173828125,-19.894409179688
0.052,15.500122070312,5.6905517578125,-20.414916992188
0.0525,12.777465820312,8.7335205078125,-20.815307617188
0.053,8.4532470703125,12.497192382812,-20.374877929688
0.0535,3.4884033203125,16.020629882812,-19.133666992188
0.054,-0.9959716796875,18.703247070312,-17.572143554688
0.0545,-4.4793701171875,20.264770507812,-15.890502929688
0.055,-7.1219482421875,20.464965820312,-13.608276367188
0.0555,-10.325073242188,20.184692382812,-10.405151367188
0.056,-14.168823242188,19.504028320312,-6.1209716796875
0.0565,-17.492065429688,18.262817382812,-1.7567138671875
0.057,-19.894409179688,16.581176757812,2.4073486328125
0.0575,-20.775268554688,14.579223632812,5.0899658203125
0.058,-20.935424804688,11.816528320312,8.0928955078125
0.0585,-20.575073242188,7.9727783203125,11.656372070312
0.059,-19.854370117188,3.7286376953125,15.219848632812
0.0595,-18.733276367188,-0.2752685546875,18.062622070312
0.06,-17.211791992188,-3.7586669921875,20.144653320312
0.0605,-14.849487304688,-6.4012451171875,20.424926757812
0.061,-11.806518554688,-9.4442138671875,20.464965820312
0.0615,-7.2420654296875,-13.328002929688,19.904418945312
0.062,-2.3172607421875,-16.691284179688,18.583129882812
0.0625,1.9669189453125,-18.973510742188,16.781372070312
0.063,4.9298095703125,-20.094604492188,15.219848632812
0.0635,7.8126220703125,-20.294799804688,12.777465820312
0.064,11.175903320312,-19.854370117188,9.2139892578125
0.0645,14.779418945312,-19.173706054688,4.9698486328125
0.065,17.942504882812,-17.892456054688,0.7257080078125
0.0655,19.984497070312,-16.170776367188,-3.0379638671875
0.066,20.264770507812,-13.968627929688,-5.4403076171875
0.0665,20.384887695312,-11.085815429688,-8.4832763671875
0.067,19.984497070312,-6.8416748046875,-12.367065429688
0.0675,19.343872070312,-2.8778076171875,-15.690307617188
0.068,18.062622070312,0.9259033203125,-18.212768554688
0.0685,16.501098632812,4.0889892578125,-19.854370117188
0.069,13.938598632812,6.8917236328125,-20.174682617188
0.0695,10.375122070312,10.174926757812,-19.894409179688
0.07,5.8106689453125,14.058715820312,-19.293823242188
0.0705,1.0860595703125,17.261840820312,-18.012573242188
0.071,-2.8377685546875,19.183715820312,-16.330932617188
0.0715,-5.4403076171875,19.864379882812,-14.609252929688
0.072,-8.5233154296875,20.064575195312,-12.006713867188
0.0725,-12.327026367188,19.504028320312,-7.7625732421875
0.073,-15.730346679688,18.623168945312,-3.7186279296875
0.0735,-18.613159179688,17.221801757812,0.4454345703125
0.074,-20.374877929688,15.540161132812,3.8887939453125
0.0745,-20.494995117188,13.017700195312,6.4913330078125
0.075,-20.535034179688,9.8145751953125,9.7745361328125
0.0755,-20.094604492188,5.4102783203125,13.738403320312
0.076,-19.253784179688,1.3663330078125,17.061645507812
0.0765,-17.772338867188,-2.3973388671875,19.223754882812
0.077,-15.930541992188,-5.2801513671875,20.384887695312
0.0775,-13.167846679688,-8.2830810546875,20.665161132812
0.078,-8.8436279296875,-12.006713867188,20.184692382812
0.0785,-4.3192138671875,-15.490112304688,19.263793945312
0.079,0.5655517578125,-18.453002929688,17.742309570312
0.0795,4.2091064453125,-20.134643554688,15.940551757812
0.08,6.8516845703125,-20.374877929688,13.738403320312
0.0805,9.9747314453125,-20.494995117188,10.935668945312
0.081,14.218872070312,-19.734252929688,6.1309814453125
0.0815,17.341918945312,-18.573120117188,1.8868408203125
0.082,19.824340820312,-16.931518554688,-1.9969482421875
0.0825,20.985473632812,-15.049682617188,-5.1600341796875
0.083,20.945434570312,-12.086791992188,-8.0028076171875
0.0835,20.785278320312,-8.3231201171875,-11.686401367188
0.084,20.144653320312,-4.1190185546875,-15.249877929688
0.0845,19.023559570312,0.1251220703125,-18.412963867188
0.085,17.261840820312,3.7286376953125,-20.174682617188
0.0855,14.899536132812,6.4913330078125,-20.695190429688
0.086,12.056762695312,9.6544189453125,-21.015502929688
0.0865,6.6915283203125,13.938598632812,-20.174682617188
0.087,2.2872314453125,17.021606445312,-18.973510742188
0.0875,-2.1170654296875,19.463989257812,-17.331909179688
0.088,-5.4403076171875,20.785278320312,-15.570190429688
0.0885,-8.2030029296875,20.545043945312,-12.847534179688
0.089,-11.486206054688,20.464965820312,-9.6444091796875
0.0895,-15.610229492188,19.544067382812,-4.8397216796875
0.09,-18.813354492188,18.062622070312,-0.1951904296875
0.0905,-20.695190429688,16.340942382812,3.3682861328125
0.091,-21.415893554688,14.098754882812,6.2510986328125
0.0915,-21.335815429688,11.055786132812,9.2540283203125
0.092,-20.855346679688,6.4512939453125,13.418090820312
0.0925,-20.054565429688,2.5274658203125,16.621215820312
0.093,-18.773315429688,-1.5565185546875,19.463989257812
0.0935,-16.931518554688,-5.0399169921875,21.025512695312
0.094,-14.088745117188,-7.7225341796875,20.985473632812
0.0945,-11.005737304688,-10.885620117188,21.105590820312
0.095,-5.4803466796875,-15.169799804688,20.064575195312
0.0955,-0.7156982421875,-18.172729492188,18.503051757812
0.096,3.1680908203125,-19.974487304688,16.781372070312
0.0965,6.2510986328125,-21.095581054688,14.979614257812
0.097,9.2540283203125,-20.775268554688,11.896606445312
0.0975,12.937622070312,-20.214721679688,7.8126220703125
0.098,16.461059570312,-19.373901367188,3.6885986328125
0.0985,19.423950195312,-17.692260742188,-0.9158935546875
0.099,20.825317382812,-15.890502929688,-4.1190185546875
0.0995,21.025512695312,-13.287963867188,-6.8416748046875
0.1,21.025512695312,-10.244995117188,-9.9647216796875
0.1005,20.424926757812,-5.2801513671875,-14.288940429688
0.101,19.463989257812,-1.3963623046875,-17.171752929688
0.1015,18.102661132812,2.2071533203125,-19.453979492188
0.102,16.140747070312,5.4102783203125,-20.815307617188
0.1025,12.897583007812,8.3731689453125,-20.575073242188
0.103,9.1339111328125,11.896606445312,-20.494995117188
0.1035,4.2891845703125,15.780395507812,-19.614135742188
0.104,-0.5955810546875,18.823364257812,-17.892456054688
0.1045,-3.8387451171875,20.024536132812,-16.210815429688
0.105,-6.7615966796875,20.625122070312,-14.128784179688
0.1055,-9.9647216796875,20.545043945312,-11.245971679688
0.106,-14.168823242188,19.704223632812,-6.2811279296875
0.1065,-17.331909179688,18.703247070312,-2.2371826171875
0.107,-19.934448242188,17.141723632812,1.9268798828125
0.1075,-21.055541992188,15.099731445312,4.9698486328125
0.108,-20.975463867188,12.176879882812,7.8126220703125
0.1085,-21.015502929688,8.8135986328125,11.215942382812
0.109,-20.334838867188,4.1290283203125,15.380004882812
0.1095,-19.213745117188,-0.1951904296875,18.382934570312
0.11,-17.492065429688,-3.4783935546875,20.104614257812
0.1105,-15.530151367188,-6.4813232421875,21.185668945312
0.111,-12.206909179688,-9.5242919921875,20.945434570312
0.1115,-7.3221435546875,-13.608276367188,20.304809570312
0.112,-2.6776123046875,-16.931518554688,19.263793945312
0.1125,1.9268798828125,-19.734252929688,17.542114257812
0.113,5.0899658203125,-20.735229492188,15.660278320312
0.1135,8.0128173828125,-20.735229492188,13.017700195312
0.114,11.296020507812,-20.735229492188,9.9747314453125
0.1145,15.620239257812,-19.654174804688,4.7696533203125
0.115,18.623168945312,-18.172729492188,0.4053955078125
0.1155,20.505004882812,-16.611206054688,-3.0780029296875
0.116,21.305786132812,-14.369018554688,-5.9608154296875
0.1165,20.905395507812,-11.085815429688,-8.9637451171875
0.117,20.665161132812,-7.0819091796875,-12.807495117188
0.1175,19.904418945312,-2.9979248046875,-16.170776367188
0.118,18.663208007812,1.2862548828125,-19.053588867188
0.1185,16.621215820312,4.4093017578125,-20.254760742188
0.119,14.138793945312,7.3721923828125,-20.815307617188
0.1195,10.855590820312,10.535278320312,-20.735229492188
0.12,5.3302001953125,14.859497070312,-19.694213867188
0.1205,0.8858642578125,17.742309570312,-18.412963867188
0.121,-2.9578857421875,19.784301757812,-16.811401367188
0.1215,-6.0008544921875,20.665161132812,-14.849487304688
0.122,-9.0037841796875,20.344848632812,-11.806518554688
0.1225,-12.447143554688,20.104614257812,-8.3231201171875
0.123,-16.290893554688,19.063598632812,-3.6385498046875
0.1235,-19.173706054688,17.341918945312,0.9659423828125
0.124,-20.454956054688,15.660278320312,3.8887939453125
0.1245,-21.015502929688,13.257934570312,6.7315673828125
0.125,-20.775268554688,10.094848632812,9.7344970703125
0.1255,-20.134643554688,5.4102783203125,13.858520507812
0.126,-19.293823242188,1.5665283203125,16.941528320312
0.1265,-18.092651367188,-2.2371826171875,19.463989257812
0.127,-16.010620117188,-5.2401123046875,20.424926757812
0.1275,-13.127807617188,-8.1229248046875,20.424926757812
0.128,-9.6444091796875,-11.406127929688,20.424926757812
0.1285,-4.1590576171875,-15.450073242188,19.223754882812
0.129,0.3653564453125,-18.292846679688,17.622192382812
0.1295,3.6885986328125,-19.694213867188,16.060668945312
0.13,6.5313720703125,-20.454956054688,14.058715820312
0.1305,9.6143798828125,-20.054565429688,10.855590820312
0.131,13.418090820312,-19.453979492188,6.6514892578125
0.1315,16.741333007812,-18.533081054688,2.5675048828125
0.132,19.383911132812,-16.851440429688,-1.6766357421875
0.1325,20.184692382812,-14.929565429688,-4.3592529296875
0.133,20.424926757812,-12.206909179688,-7.2420654296875
0.1335,20.304809570312,-9.0037841796875,-10.445190429688
0.134,19.704223632812,-4.3992919921875,-14.529174804688
0.1345,18.583129882812,-0.5155029296875,-17.331909179688
0.135,17.301879882812,2.7677001953125,-19.293823242188
0.1355,15.219848632812,5.6905517578125,-20.254760742188
0.136,11.856567382812,8.6934814453125,-19.934448242188
0.1365,7.8526611328125,12.617309570312,-19.774291992188
0.137,2.9278564453125,16.140747070312,-18.773315429688
0.1375,-1.6365966796875,18.703247070312,-17.011596679688
0.138,-4.3192138671875,19.704223632812,-15.450073242188
0.1385,-7.2020263671875,20.104614257812,-13.287963867188
0.139,-10.405151367188,19.784301757812,-10.004760742188
0.1395,-14.569213867188,18.943481445312,-5.2000732421875
0.14,-17.612182617188,17.822387695312,-1.0760498046875
0.1405,-19.774291992188,16.180786132812,2.6475830078125
0.141,-20.334838867188,14.138793945312,5.3302001953125
0.1415,-20.414916992188,11.055786132812,8.3731689453125
0.142,-20.254760742188,7.4122314453125,11.976684570312
0.1425,-19.654174804688,3.0880126953125,15.700317382812
0.143,-18.332885742188,-1.0360107421875,18.503051757812
0.1435,-16.691284179688,-3.9989013671875,19.864379882812
0.144,-14.609252929688,-7.0018310546875,20.745239257812
0.1445,-10.845581054688,-10.084838867188,20.304809570312
0.145,-6.1610107421875,-14.088745117188,19.584106445312
0.1455,-1.5965576171875,-17.331909179688,18.422973632812
0.146,2.8077392578125,-19.574096679688,16.661254882812
0.1465,5.4903564453125,-20.174682617188,14.779418945312
0.147,8.6534423828125,-20.334838867188,12.016723632812
0.1475,12.256958007812,-19.934448242188,8.3331298828125
0.148,15.860473632812,-19.093627929688,3.7686767578125
0.1485,18.783325195312,-17.492065429688,-0.5555419921875
0.149,20.424926757812,-15.890502929688,-3.7987060546875
0.1495,20.785278320312,-13.408081054688,-6.5213623046875
0.15,20.505004882812,-9.9647216796875,-9.7244873046875
0.1505,20.104614257812,-5.7606201171875,-13.568237304688
0.151,19.343872070312,-1.7967529296875,-16.851440429688
0.1515,17.862426757812,2.2471923828125,-19.333862304688
0.152,15.820434570312,5.0499267578125,-20.174682617188
0.1525,13.257934570312,8.0128173828125,-20.775268554688
0.153,9.0938720703125,11.616333007812,-20.294799804688
0.1535,4.1690673828125,15.460083007812,-19.213745117188
0.154,-0.3153076171875,18.262817382812,-17.812377929688
0.1545,-3.9989013671875,20.064575195312,-16.130737304688
0.155,-6.6815185546875,20.344848632812,-14.048706054688
0.1555,-9.9647216796875,20.224731445312,-10.885620117188
0.156,-13.808471679688,19.664184570312,-6.7215576171875
0.1565,-17.171752929688,18.503051757812,-2.3172607421875
0.157,-19.854370117188,16.781372070312,1.9669189453125
0.1575,-20.775268554688,14.939575195312,4.8497314453125
0.158,-21.135620117188,12.256958007812,7.8126220703125
0.1585,-20.855346679688,8.5333251953125,11.376098632812
0.159,-20.054565429688,4.1690673828125,15.059692382812
0.1595,-19.013549804688,0.2852783203125,18.062622070312
0.16,-17.652221679688,-3.6785888671875,20.344848632812
0.1605,-15.369995117188,-6.2811279296875,20.785278320312
0.161,-12.367065429688,-9.4842529296875,20.865356445312
0.1615,-7.7625732421875,-13.328002929688,20.384887695312
0.162,-2.7176513671875,-16.811401367188,19.063598632812
0.1625,1.7667236328125,-19.253784179688,17.301879882812
0.163,4.9698486328125,-20.535034179688,15.660278320312
0.1635,7.8526611328125,-20.815307617188,13.137817382812
0.164,11.175903320312,-20.294799804688,9.6544189453125
0.1645,15.179809570312,-19.574096679688,5.2501220703125
0.165,18.382934570312,-18.292846679688,0.8458251953125
0.1655,20.464965820312,-16.531127929688,-3.1580810546875
0.166,20.985473632812,-14.369018554688,-5.7606201171875
0.1665,21.065551757812,-11.366088867188,-8.8436279296875
0.167,20.625122070312,-7.1219482421875,-12.687377929688
0.1675,19.864379882812,-3.0780029296875,-16.170776367188
0.168,18.543090820312,0.9259033203125,-18.653198242188
0.1685,17.141723632812,4.4893798828125,-20.535034179688
0.169,14.218872070312,7.2520751953125,-20.695190429688
0.1695,10.775512695312,10.495239257812,-20.655151367188
0.17,6.0509033203125,14.419067382812,-20.014526367188
0.1705,1.2462158203125,17.742309570312,-18.573120117188
0.171,-2.9178466796875,19.744262695312,-16.691284179688
0.1715,-5.7606201171875,20.464965820312,-14.969604492188
0.172,-8.8436279296875,20.705200195312,-12.126831054688
0.1725,-12.687377929688,19.984497070312,-8.2030029296875
0.173,-15.930541992188,19.143676757812,-3.9188232421875
0.1735,-19.013549804688,17.622192382812,0.4454345703125
0.174,-20.895385742188,15.860473632812,4.1290283203125
0.1745,-21.095581054688,13.378051757812,6.6915283203125
0.175,-21.135620117188,10.174926757812,9.9747314453125
0.1755,-20.775268554688,5.6505126953125,13.978637695312
0.176,-19.814331054688,1.5665283203125,17.301879882812
0.1765,-18.212768554688,-2.1971435546875,19.664184570312
0.177,-16.531127929688,-5.3201904296875,20.945434570312
0.1775,-13.608276367188,-8.3231201171875,21.145629882812
0.178,-9.4842529296875,-11.886596679688,20.705200195312
