wavelength,x,y,z
0.0,-4.724609375,18.818359375,-14.25390625
0.0005,-7.767578125,18.6181640625,-11.4111328125
0.001,-10.890625,18.5380859375,-8.328125
0.0015,-14.814453125,17.77734375,-4.00390625
0.002,-17.45703125,16.015625,0.48046875
0.0025,-18.978515625,14.4541015625,3.5234375
0.003,-19.8994140625,12.412109375,6.4462890625
0.0035,-19.939453125,9.6494140625,9.2490234375
0.004,-19.6591796875,5.5654296875,13.1728515625
0.0045,-19.0986328125,2.08203125,15.9755859375
0.005,-17.6572265625,-1.921875,18.3779296875
0.0055,-15.6552734375,-4.6845703125,19.69921875
0.006,-13.0927734375,-7.6474609375,19.779296875
0.0065,-10.25,-10.490234375,19.939453125
0.007,-5.0849609375,-14.333984375,18.818359375
0.0075,-0.640625,-16.9365234375,17.0966796875
0.008,2.8427734375,-18.4580078125,15.5751953125
0.0085,6.0859375,-19.21875,13.61328125
0.009,8.8486328125,-19.0986328125,10.6103515625
0.0095,12.65234375,-18.73828125,6.5263671875
0.01,15.935546875,-17.8173828125,2.5224609375
0.0105,18.498046875,-15.8955078125,-1.8818359375
0.011,19.69921875,-14.09375,-4.8046875
0.0115,20.2197265625,-11.53125,-7.767578125
0.012,20.2197265625,-8.6884765625,-10.73046875
0.0125,19.8193359375,-4.3642578125,-14.57421875
0.013,18.41796875,-0.640625,-17.216796875
0.0135,17.0966796875,2.962890625,-19.1787109375
0.014,15.0546875,5.8056640625,-20.259765625
0.0145,11.9716796875,8.7685546875,-20.099609375
0.015,8.248046875,12.171875,-19.939453125
0.0155,3.6435546875,15.5751953125,-18.978515625
0.016,-1.3212890625,17.9375,-16.6962890625
0.0165,-4.2841796875,19.2587890625,-14.9345703125
0.017,-7.287109375,19.69921875,-12.8525390625
0.0175,-10.5302734375,19.4990234375,-9.369140625
0.018,-14.4140625,18.5380859375,-5.0048828125
0.0185,-17.45703125,17.296875,-0.80078125
0.019,-19.7392578125,15.4150390625,3.36328125
0.0195,-20.5400390625,13.4130859375,6.24609375
0.02,-20.9404296875,10.330078125,9.529296875
0.0205,-20.7802734375,7.046875,12.7724609375
0.021,-20.3798828125,2.8427734375,16.3359375
0.0215,-18.5380859375,-1.28125,18.818359375
0.022,-16.8564453125,-4.564453125,20.33984375
0.0225,-14.57421875,-7.447265625,21.1005859375
0.023,-10.970703125,-10.41015625,20.740234375
0.0235,-6.326171875,-14.09375,19.939453125
0.024,-1.7216796875,-17.296875,18.6181640625
0.0245,2.72265625,-19.2587890625,16.5361328125
0.025,5.5654296875,-20.0595703125,14.5341796875
0.0255,9.0087890625,-20.0595703125,11.771484375
0.026,12.3720703125,-19.69921875,7.9677734375
0.0265,16.015625,-18.658203125,3.443359375
0.027,18.73828125,-16.9365234375,-1.0009765625
0.0275,20.66015625,-14.974609375,-4.64453125
0.028,21.2607421875,-12.6123046875,-7.607421875
0.0285,21.140625,-9.3291015625,-10.810546875
0.029,20.8203125,-5.365234375,-14.2138671875
0.0295,19.779296875,-1.681640625,-17.4169921875
0.03,17.9775390625,2.6025390625,-19.619140625
0.0305,15.9755859375,5.4853515625,-20.66015625
0.031,13.4130859375,8.48828125,-21.1005859375
0.0315,9.44921875,11.7314453125,-20.6201171875
0.032,4.6044921875,15.0947265625,-19.5791015625
0.0325,0.240234375,17.8974609375,-17.6572265625
0.033,-4.00390625,19.6591796875,-15.8955078125
0.0335,-6.5263671875,20.099609375,-13.6533203125
0.034,-9.9296875,19.939453125,-10.6103515625
0.0345,-13.61328125,19.3388671875,-6.486328125
0.035,-17.0166015625,18.09765625,-2.001953125
0.0355,-19.5390625,16.095703125,2.322265625
0.036,-20.580078125,14.3740234375,5.5654296875
0.0365,-21.220703125,11.6513671875,8.48828125
0.037,-20.98046875,8.2880859375,11.9716796875
0.0375,-20.4599609375,4.2041015625,15.294921875
0.038,-19.4189453125,0.2802734375,18.1376953125
0.0385,-17.4970703125,-3.68359375,20.259765625
0.039,-15.375,-6.2861328125,20.8203125
0.0395,-12.6923828125,-9.2890625,21.0205078125
0.04,-8.328125,-12.8125,20.5
0.0405,-3.36328125,-15.9755859375,19.138671875
0.041,1.0810546875,-18.1376953125,17.0966796875
0.0415,4.5244140625,-19.7392578125,15.4150390625
0.042,7.4072265625,-20.0595703125,12.9326171875
0.0425,10.6904296875,-19.7392578125,9.5693359375
0.043,14.3740234375,-19.0986328125,5.4052734375
0.0435,17.6171875,-17.537109375,0.9609375
0.044,19.69921875,-15.85546875,-3.203125
0.0445,20.6201171875,-13.7734375,-6.1259765625
0.045,20.98046875,-11.0908203125,-9.3291015625
0.0455,20.98046875,-7.0068359375,-12.8525390625
0.046,20.2197265625,-3.203125,-16.095703125
0.0465,18.658203125,0.7607421875,-18.5380859375
0.047,16.9365234375,4.3642578125,-20.6201171875
0.0475,14.333984375,7.1669921875,-20.7001953125
0.048,11.37109375,10.1298828125,-20.8603515625
0.0485,6.7666015625,13.7734375,-20.5
0.049,1.9619140625,17.0966796875,-18.6181640625
0.0495,-2.5224609375,18.9384765625,-16.6162109375
0.05,-5.4453125,20.0595703125,-14.89453125
0.0505,-8.6083984375,20.1796875,-12.171875
0.051,-12.33203125,19.5791015625,-8.0078125
0.0515,-15.5751953125,18.7783203125,-4.083984375
0.052,-18.658203125,17.1767578125,0.7607421875
0.0525,-20.740234375,15.21484375,4.64453125
0.053,-21.1806640625,12.6123046875,7.3671875
0.0535,-21.6611328125,9.849609375,10.73046875
0.054,-21.1806640625,5.525390625,14.654296875
0.0545,-20.33984375,1.521484375,17.77734375
0.055,-18.337890625,-2.5224609375,19.859375
0.0555,-16.65625,-5.6455078125,21.5009765625
0.056,-13.7734375,-8.6884765625,21.62109375
0.0565,-9.9296875,-12.171875,21.2607421875
0.057,-5.365234375,-15.6953125,20.259765625
0.0575,-0.16015625,-18.41796875,18.41796875
0.058,3.923828125,-20.2197265625,16.3359375
0.0585,6.7666015625,-20.740234375,14.1337890625
0.059,10.08984375,-20.900390625,11.2509765625
0.0595,14.2138671875,-19.859375,6.326171875
0.06,17.45703125,-18.5380859375,2.322265625
0.0605,19.939453125,-16.9365234375,-2.1220703125
0.061,21.62109375,-15.134765625,-5.92578125
0.0615,21.7412109375,-11.8916015625,-8.8486328125
0.062,21.94140625,-8.6083984375,-12.33203125
0.0625,21.2607421875,-4.3642578125,-16.015625
0.063,20.2197265625,0.080078125,-19.0986328125
0.0635,17.9375,3.68359375,-20.8203125
0.064,15.935546875,6.8466796875,-21.94140625
0.0645,12.8525390625,9.8896484375,-21.94140625
0.065,8.0478515625,13.7734375,-21.3408203125
0.0655,3.603515625,16.896484375,-20.1396484375
0.066,-1.361328125,19.4990234375,-17.9775390625
0.0665,-5.365234375,21.060546875,-16.015625
0.067,-8.408203125,20.900390625,-13.1328125
0.0675,-11.53125,20.98046875,-9.9697265625
0.068,-15.775390625,19.8994140625,-5.28515625
0.0685,-18.9384765625,18.2177734375,-0.2802734375
0.069,-21.140625,16.17578125,3.68359375
0.0695,-22.4619140625,14.09375,7.20703125
0.07,-22.3017578125,10.890625,10.3701171875
0.0705,-22.2216796875,6.9267578125,14.1337890625
0.071,-21.62109375,2.9228515625,17.4169921875
0.0715,-19.8193359375,-1.4814453125,20.4599609375
0.072,-17.6171875,-5.365234375,21.9013671875
0.0725,-15.0146484375,-8.2080078125,22.26171875
0.073,-12.171875,-11.2509765625,22.5419921875
0.0735,-6.3662109375,-15.4150390625,21.2607421875
0.074,-1.8017578125,-18.2578125,19.69921875
0.0745,2.5625,-20.4599609375,17.5771484375
0.075,6.5263671875,-21.701171875,15.375
0.0755,9.609375,-21.30078125,12.1318359375
0.076,13.1328125,-21.0205078125,8.4482421875
0.0765,17.0966796875,-20.0595703125,3.84375
0.077,20.1396484375,-18.177734375,-1.4013671875
0.0775,21.8212890625,-15.8955078125,-5.0849609375
0.078,22.7021484375,-13.3330078125,-8.328125
0.0785,22.5419921875,-10.3701171875,-11.4912109375
0.079,22.421875,-5.4453125,-15.775390625
0.0795,21.1806640625,-1.6015625,-18.578125
0.08,19.3388671875,2.6025390625,-21.220703125
0.0805,17.216796875,6.3662109375,-22.662109375
0.081,13.7734375,9.2890625,-22.662109375
0.0815,10.5703125,12.65234375,-22.5419921875
0.082,4.96484375,16.7763671875,-21.2607421875
0.0825,-0.2001953125,19.4990234375,-19.21875
0.083,-4.244140625,21.140625,-16.9365234375
0.0835,-7.767578125,22.1015625,-14.814453125
0.084,-11.130859375,21.701171875,-11.05078125
0.0845,-15.1748046875,20.7802734375,-6.7265625
0.085,-18.4580078125,19.859375,-2.08203125
0.0855,-21.5009765625,17.4169921875,3.0029296875
0.086,-22.9423828125,15.1748046875,6.646484375
0.0865,-23.1826171875,12.01171875,9.9296875
0.087,-23.22265625,9.0087890625,13.3330078125
0.0875,-22.4619140625,3.8837890625,17.4169921875
0.088,-20.900390625,-0.400390625,20.2998046875
0.0885,-18.8583984375,-4.32421875,22.181640625
0.089,-16.7763671875,-7.927734375,23.462890625
0.0895,-12.8125,-10.970703125,22.90234375
0.09,-8.6884765625,-14.4541015625,22.4619140625
0.0905,-3.6435546875,-18.337890625,21.140625
0.091,2.08203125,-20.7802734375,18.5380859375
0.0915,5.6455078125,-21.861328125,16.3359375
0.092,9.048828125,-22.341796875,13.693359375
0.0925,12.4521484375,-22.1416015625,10.1298828125
0.093,16.736328125,-20.580078125,4.9248046875
0.0935,19.8994140625,-19.1787109375,0.2802734375
0.094,22.181640625,-16.9365234375,-4.2041015625
0.0945,23.2626953125,-14.734375,-7.84765625
0.095,23.22265625,-11.0107421875,-11.05078125
0.0955,23.0625,-7.5673828125,-14.494140625
0.096,22.26171875,-2.962890625,-18.41796875
0.0965,20.2998046875,1.921875,-20.8203125
0.097,17.9775390625,5.205078125,-22.6220703125
0.0975,15.6552734375,8.6083984375,-23.4228515625
0.098,11.771484375,11.8515625,-22.8623046875
0.0985,6.56640625,15.7353515625,-21.9013671875
0.099,1.921875,18.8984375,-20.2197265625
0.0995,-3.283203125,21.1806640625,-17.9775390625
0.1,-6.7265625,22.0615234375,-15.6953125
0.1005,-10.1298828125,21.9814453125,-12.3720703125
0.101,-13.853515625,21.5810546875,-8.728515625
0.1015,-17.8173828125,20.2998046875,-3.5234375
0.102,-20.8203125,18.2177734375,1.4013671875
0.1025,-22.58203125,16.1357421875,5.5654296875
0.103,-23.3828125,13.5732421875,8.6484375
0.1035,-23.1826171875,9.849609375,12.171875
0.104,-22.7421875,5.685546875,15.8955078125
0.1045,-21.78125,1.5615234375,19.2587890625
0.105,-19.5390625,-3.1630859375,21.861328125
0.1055,-17.3369140625,-6.56640625,22.8623046875
0.106,-14.6142578125,-9.609375,23.302734375
0.1065,-10.6904296875,-12.8525390625,22.8623046875
0.107,-5.044921875,-16.9365234375,21.30078125
0.1075,-0.2802734375,-19.5791015625,19.4990234375
0.108,4.2041015625,-21.5009765625,17.296875
0.1085,7.5673828125,-22.181640625,14.8544921875
0.109,11.1708984375,-21.6611328125,11.2509765625
0.1095,14.814453125,-21.140625,7.126953125
0.11,18.498046875,-19.939453125,2.2021484375
0.1105,21.140625,-17.537109375,-2.72265625
0.111,22.5419921875,-15.4150390625,-6.1259765625
0.1115,23.1025390625,-12.65234375,-9.4091796875
0.112,22.7822265625,-9.0087890625,-12.8125
0.1125,22.1015625,-4.32421875,-16.49609375
0.113,20.98046875,-0.4404296875,-19.5791015625
0.1135,18.7783203125,3.9638671875,-21.78125
0.114,16.4560546875,7.2470703125,-22.4619140625
0.1145,13.0927734375,10.25,-22.4619140625
0.115,9.0888671875,13.7734375,-22.26171875
0.1155,3.68359375,17.45703125,-20.8603515625
0.116,-1.28125,19.859375,-18.4580078125
0.1165,-5.0048828125,21.2607421875,-16.736328125
0.117,-8.0478515625,21.78125,-14.0537109375
0.1175,-11.6513671875,21.3408203125,-10.2099609375
0.118,-15.6552734375,20.5400390625,-5.6455078125
0.1185,-18.978515625,19.0185546875,-1.0009765625
0.119,-21.4609375,16.6962890625,3.68359375
0.1195,-22.421875,14.4541015625,6.88671875
0.12,-22.822265625,11.4111328125,10.25
0.1205,-22.5419921875,7.8076171875,13.8935546875
0.121,-21.861328125,3.203125,17.4970703125
0.1215,-20.1796875,-1.12109375,20.01953125
0.122,-18.1376953125,-4.7646484375,22.0615234375
0.1225,-15.53515625,-7.9677734375,22.5419921875
0.123,-11.9716796875,-11.130859375,22.26171875
0.1235,-7.52734375,-14.7744140625,21.62109375
0.124,-2.40234375,-18.1376953125,20.01953125
0.1245,2.5625,-20.0595703125,17.6171875
0.125,5.8056640625,-21.1806640625,15.6552734375
0.1255,9.2890625,-21.4609375,12.8125
0.126,12.732421875,-20.7802734375,8.96875
0.1265,16.49609375,-19.9794921875,4.32421875
0.127,19.4990234375,-18.2578125,-0.3603515625
0.1275,21.701171875,-16.17578125,-4.64453125
0.128,22.26171875,-13.7333984375,-7.6474609375
0.1285,22.421875,-10.73046875,-11.2109375
0.129,22.1416015625,-6.3662109375,-14.7744140625
0.1295,21.4208984375,-2.0419921875,-18.1376953125
0.13,19.21875,2.162109375,-20.66015625
0.1305,17.3369140625,5.5654296875,-22.0615234375
0.131,14.57421875,8.6484375,-22.4619140625
0.1315,10.5302734375,12.0517578125,-21.9814453125
0.132,5.8857421875,15.6552734375,-21.140625
0.1325,0.9208984375,18.6181640625,-19.458984375
0.133,-3.6435546875,20.7001953125,-17.0966796875
0.1335,-6.7265625,21.140625,-14.9345703125
0.134,-10.08984375,21.30078125,-11.9716796875
0.1345,-14.09375,20.580078125,-7.3271484375
0.135,-17.537109375,19.37890625,-2.8427734375
0.1355,-20.1796875,17.4169921875,1.76171875
0.136,-22.0615234375,15.375,5.60546875
0.1365,-22.341796875,12.4921875,8.6083984375
0.137,-22.501953125,9.0888671875,12.2919921875
0.1375,-21.78125,5.0849609375,15.9755859375
0.138,-20.7802734375,0.640625,19.21875
0.1385,-18.578125,-3.5634765625,21.1806640625
0.139,-16.5361328125,-6.56640625,22.1015625
0.1395,-13.61328125,-9.689453125,22.421875
0.14,-9.0087890625,-13.4130859375,21.701171875
0.1405,-4.1240234375,-16.5361328125,20.419921875
0.141,0.48046875,-19.1787109375,18.498046875
0.1415,4.64453125,-20.98046875,16.5361328125
0.142,7.607421875,-21.1005859375,13.7734375
0.1425,10.8505859375,-21.0205078125,10.650390625
0.143,14.974609375,-20.2197265625,6.005859375
0.1435,18.2177734375,-18.73828125,1.4013671875
0.144,20.4599609375,-16.65625,-2.8828125
0.1445,21.7412109375,-14.6142578125,-6.1259765625
0.145,22.0615234375,-11.69140625,-9.3291015625
0.1455,21.8212890625,-7.8076171875,-12.892578125
0.146,21.1806640625,-3.9638671875,-16.3759765625
0.1465,19.779296875,0.2802734375,-19.0986328125
0.147,17.77734375,4.2041015625,-21.140625
0.1475,15.21484375,7.046875,-21.4208984375
0.148,12.4521484375,10.009765625,-21.5009765625
0.1485,7.287109375,13.9736328125,-20.900390625
0.149,2.72265625,16.9765625,-19.5390625
0.1495,-1.6015625,19.05859375,-17.4970703125
0.15,-5.1650390625,20.580078125,-15.6552734375
0.1505,-8.16796875,20.4599609375,-12.8125
0.151,-11.611328125,20.099609375,-9.12890625
0.1515,-15.3349609375,19.3388671875,-4.96484375
0.152,-18.3779296875,17.6171875,-0.3203125
0.1525,-20.5,15.53515625,3.7236328125
0.153,-21.140625,13.4931640625,6.6865234375
0.1535,-21.541015625,10.6904296875,9.8095703125
0.154,-21.1806640625,6.40625,13.7333984375
0.1545,-20.419921875,2.6826171875,16.6962890625
0.155,-18.7783203125,-1.28125,18.978515625
0.1555,-17.0966796875,-4.8046875,20.9404296875
0.156,-14.25390625,-7.5673828125,20.900390625
0.1565,-11.0908203125,-10.490234375,20.900390625
0.157,-6.2861328125,-14.25390625,20.0595703125
0.1575,-1.6015625,-17.216796875,18.4580078125
0.158,2.3623046875,-18.9384765625,16.49609375
0.1585,5.4052734375,-19.939453125,14.6943359375
0.159,8.4482421875,-20.01953125,11.9716796875
0.1595,12.2919921875,-19.37890625,7.6474609375
0.16,15.455078125,-18.578125,4.00390625
0.1605,18.1376953125,-16.8564453125,-0.5205078125
0.161,20.099609375,-15.1748046875,-4.2841796875
0.1615,20.33984375,-12.5322265625,-6.88671875
0.162,20.66015625,-9.8095703125,-9.9697265625
0.1625,20.2998046875,-5.5654296875,-13.8134765625
0.163,19.37890625,-1.76171875,-16.7763671875
0.1635,17.697265625,1.841796875,-18.6181640625
0.164,16.1357421875,4.884765625,-20.01953125
0.1645,13.373046875,7.767578125,-20.2197265625
0.165,9.5693359375,11.05078125,-20.0595703125
0.1655,5.4052734375,14.333984375,-19.2587890625
0.166,0.6005859375,17.0166015625,-17.4169921875
0.1665,-3.1630859375,18.6982421875,-15.6552734375
0.167,-5.845703125,19.138671875,-13.5732421875
0.1675,-8.8486328125,19.3388671875,-11.05078125
0.168,-12.9326171875,18.5380859375,-6.40625
0.1685,-15.9755859375,17.4169921875,-2.482421875
0.169,-18.177734375,15.9755859375,1.5615234375
0.1695,-19.859375,14.1337890625,4.724609375
0.17,-20.01953125,11.4912109375,7.52734375
0.1705,-20.2197265625,8.3681640625,10.8505859375
0.171,-19.859375,4.6044921875,14.333984375
0.1715,-18.658203125,0.560546875,17.216796875
0.172,-16.9765625,-3.0029296875,18.8984375
0.1725,-15.0947265625,-5.6455078125,19.779296875
0.173,-12.65234375,-8.408203125,20.1796875
0.1735,-7.8876953125,-12.2119140625,19.37890625
0.174,-4.00390625,-15.0146484375,18.4580078125
0.1745,0.3603515625,-17.296875,16.65625
0.175,3.84375,-18.9384765625,15.0546875
0.1755,6.56640625,-18.9384765625,12.5322265625
0.176,9.7294921875,-18.818359375,9.849609375
0.1765,13.7333984375,-18.2578125,5.365234375
0.177,16.576171875,-16.8564453125,1.2412109375
0.1775,18.4580078125,-15.294921875,-2.40234375
0.178,19.619140625,-13.453125,-5.3251953125
0.1785,19.859375,-10.890625,-8.1279296875
0.179,19.779296875,-7.0068359375,-11.931640625
0.1795,19.3388671875,-3.68359375,-14.814453125
0.18,18.0576171875,0.3603515625,-17.2568359375
0.1805,16.49609375,3.8037109375,-19.138671875
0.181,14.013671875,6.2060546875,-19.5791015625
0.1815,11.4912109375,9.048828125,-19.8994140625
0.182,6.5263671875,13.052734375,-19.0986328125
0.1825,2.2421875,15.7353515625,-17.697265625
0.183,-1.4013671875,17.5771484375,-16.1357421875
0.1835,-4.64453125,18.8984375,-14.4541015625
0.184,-7.4873046875,18.8583984375,-11.53125
0.1845,-11.05078125,18.3779296875,-8.2080078125
0.185,-14.5341796875,17.857421875,-4.1640625
0.1855,-17.2568359375,16.1357421875,0.240234375
0.186,-18.9384765625,14.494140625,3.5234375
0.1865,-19.619140625,12.2919921875,6.2861328125
0.187,-19.939453125,9.8896484375,9.0888671875
0.1875,-19.619140625,5.525390625,13.0927734375
0.188,-18.9384765625,1.921875,15.85546875
0.1885,-17.4169921875,-1.4814453125,17.9375
0.189,-15.8955078125,-4.6044921875,19.6591796875
0.1895,-13.0126953125,-7.287109375,19.4990234375
0.19,-9.9697265625,-10.330078125,19.5791015625
0.1905,-5.4052734375,-13.9736328125,18.818359375
0.191,-0.7607421875,-16.576171875,16.9765625
0.1915,2.5224609375,-18.09765625,15.4951171875
0.192,5.4052734375,-19.21875,13.5732421875
0.1925,8.328125,-18.978515625,10.810546875
0.193,12.412109375,-18.2177734375,6.40625
0.1935,15.455078125,-17.376953125,2.642578125
0.194,17.857421875,-15.775390625,-1.3212890625
0.1945,19.2587890625,-14.09375,-4.404296875
0.195,19.4990234375,-11.4912109375,-7.20703125
0.1955,19.8193359375,-8.6884765625,-10.2099609375
0.196,19.4990234375,-4.5244140625,-13.853515625
0.1965,18.2578125,-0.80078125,-16.6162109375
0.197,16.736328125,2.40234375,-18.337890625
0.1975,15.0546875,5.28515625,-19.619140625
0.198,12.171875,8.0078125,-19.5390625
0.1985,7.9677734375,11.6513671875,-19.0986328125
0.199,3.9638671875,14.734375,-18.337890625
0.1995,-0.640625,17.056640625,-16.5361328125
0.2,-3.5634765625,18.3779296875,-14.9345703125
0.2005,-6.56640625,18.6181640625,-12.5322265625
0.201,-9.5693359375,18.6982421875,-9.76953125
0.2015,-13.61328125,17.8974609375,-5.0849609375
0.202,-16.4560546875,16.576171875,-1.0009765625
0.2025,-18.41796875,15.0146484375,2.482421875
0.203,-19.5390625,13.1728515625,5.4052734375
0.2035,-19.619140625,10.4501953125,8.2880859375
0.204,-19.619140625,7.1669921875,11.6513671875
0.2045,-19.2587890625,3.4033203125,14.9345703125
0.205,-17.8173828125,-0.6005859375,17.45703125
0.2055,-16.17578125,-3.5634765625,18.8984375
0.206,-14.173828125,-6.2861328125,19.5791015625
0.2065,-11.4111328125,-9.0087890625,19.6591796875
0.207,-6.40625,-12.892578125,18.6982421875
0.2075,-2.4423828125,-15.4951171875,17.6572265625
0.208,1.5615234375,-17.7373046875,15.8955078125
0.2085,4.5244140625,-18.73828125,14.2138671875
0.209,7.4072265625,-18.578125,11.451171875
0.2095,10.7705078125,-18.4580078125,8.248046875
0.21,14.3740234375,-17.697265625,4.00390625
0.2105,17.056640625,-16.015625,-0.3203125
0.211,18.578125,-14.494140625,-3.283203125
0.2115,19.4189453125,-12.33203125,-5.92578125
0.212,19.37890625,-9.9697265625,-8.96875
0.2125,19.21875,-5.7255859375,-12.6923828125
0.213,18.578125,-2.322265625,-15.53515625
0.2135,17.216796875,1.44140625,-17.8173828125
0.214,15.455078125,4.32421875,-19.05859375
0.2145,12.8525390625,7.0869140625,-19.2587890625
0.215,9.9296875,10.08984375,-19.4189453125
0.2155,5.125,13.8935546875,-18.4580078125
0.216,0.720703125,16.3359375,-16.736328125
0.2165,-2.6025390625,17.857421875,-15.4150390625
0.217,-5.5654296875,18.6982421875,-13.453125
0.2175,-8.48828125,18.498046875,-10.5703125
0.218,-12.2119140625,18.0576171875,-6.56640625
