wavelength,x,y,z
0.0,-0.46044921875,-4.38427734375,4.18408203125
0.0005,0.50048828125,-4.62451171875,3.46337890625
0.001,1.26123046875,-4.98486328125,3.06298828125
0.0015,2.54248046875,-5.26513671875,2.02197265625
0.002,3.38330078125,-5.30517578125,1.30126953125
0.0025,3.78369140625,-4.82470703125,0.50048828125
0.003,4.34423828125,-4.62451171875,-0.26025390625
0.0035,4.34423828125,-3.70361328125,-1.14111328125
0.004,4.58447265625,-3.34326171875,-1.78173828125
0.0045,4.74462890625,-2.26220703125,-2.98291015625
0.005,4.58447265625,-1.70166015625,-3.34326171875
0.0055,4.14404296875,-0.62060546875,-3.98388671875
0.006,3.58349609375,0.38037109375,-4.34423828125
0.0065,2.78271484375,1.38134765625,-4.50439453125
0.007,2.18212890625,2.26220703125,-4.74462890625
0.0075,1.26123046875,3.42333984375,-4.90478515625
0.008,0.46044921875,3.66357421875,-4.38427734375
0.0085,-0.46044921875,4.30419921875,-4.18408203125
0.009,-1.42138671875,4.38427734375,-3.34326171875
0.0095,-2.22216796875,4.66455078125,-2.86279296875
0.01,-3.54345703125,4.90478515625,-1.74169921875
0.0105,-4.26416015625,4.90478515625,-0.98095703125
0.011,-4.58447265625,4.26416015625,-0.10009765625
0.0115,-5.06494140625,4.02392578125,0.62060546875
0.012,-5.02490234375,3.06298828125,1.54150390625
0.0125,-5.18505859375,2.54248046875,2.22216796875
0.013,-5.42529296875,1.54150390625,3.46337890625
0.0135,-4.98486328125,0.78076171875,3.78369140625
0.014,-4.54443359375,-0.34033203125,4.38427734375
0.0145,-3.86376953125,-1.38134765625,4.66455078125
0.015,-3.10302734375,-2.30224609375,4.82470703125
0.0155,-2.30224609375,-3.30322265625,4.98486328125
0.016,-1.42138671875,-4.38427734375,5.10498046875
0.0165,-0.42041015625,-4.62451171875,4.30419921875
0.017,0.38037109375,-5.26513671875,4.14404296875
0.0175,1.46142578125,-5.30517578125,3.14306640625
0.018,2.26220703125,-5.50537109375,2.62255859375
0.0185,3.62353515625,-5.70556640625,1.50146484375
0.019,4.30419921875,-5.50537109375,0.66064453125
0.0195,4.54443359375,-4.74462890625,-0.38037109375
0.02,4.98486328125,-4.46435546875,-1.02099609375
0.0205,4.90478515625,-3.38330078125,-2.02197265625
0.021,4.98486328125,-2.82275390625,-2.70263671875
0.0215,5.22509765625,-1.78173828125,-3.94384765625
0.022,4.50439453125,-0.82080078125,-4.18408203125
0.0225,4.06396484375,0.30029296875,-4.74462890625
0.023,3.18310546875,1.30126953125,-4.86474609375
0.0235,2.42236328125,2.22216796875,-4.98486328125
0.024,1.58154296875,3.18310546875,-5.06494140625
0.0245,0.62060546875,4.14404296875,-5.10498046875
0.025,-0.50048828125,4.30419921875,-4.10400390625
0.0255,-1.14111328125,4.82470703125,-4.02392578125
0.026,-2.42236328125,4.86474609375,-2.82275390625
0.0265,-3.14306640625,5.06494140625,-2.26220703125
0.027,-4.34423828125,5.18505859375,-1.22119140625
0.0275,-4.78466796875,4.78466796875,-0.34033203125
0.028,-5.06494140625,4.10400390625,0.58056640625
0.0285,-5.30517578125,3.66357421875,1.26123046875
0.029,-5.30517578125,2.66259765625,2.26220703125
0.0295,-5.34521484375,2.02197265625,2.86279296875
0.03,-5.58544921875,1.14111328125,3.98388671875
0.0305,-4.66455078125,0.02001953125,4.14404296875
0.031,-4.34423828125,-0.98095703125,4.74462890625
0.0315,-3.34326171875,-2.06201171875,4.82470703125
0.032,-2.70263671875,-2.90283203125,4.98486328125
0.0325,-1.86181640625,-3.90380859375,5.02490234375
0.033,-0.90087890625,-4.70458984375,4.86474609375
0.0335,0.18017578125,-4.90478515625,3.98388671875
0.034,0.86083984375,-5.38525390625,3.86376953125
0.0345,2.22216796875,-5.46533203125,2.62255859375
0.035,2.82275390625,-5.58544921875,2.14208984375
0.0355,4.02392578125,-5.70556640625,1.10107421875
0.036,4.34423828125,-5.10498046875,0.22021484375
0.0365,4.66455078125,-4.50439453125,-0.66064453125
0.037,4.86474609375,-3.90380859375,-1.46142578125
0.0375,4.90478515625,-2.94287109375,-2.46240234375
0.038,4.90478515625,-2.34228515625,-3.06298828125
0.0385,5.02490234375,-1.42138671875,-4.06396484375
0.039,3.98388671875,-0.22021484375,-4.18408203125
0.0395,3.74365234375,0.62060546875,-4.74462890625
0.04,2.58251953125,1.78173828125,-4.74462890625
0.0405,2.10205078125,2.46240234375,-4.90478515625
0.041,1.22119140625,3.34326171875,-4.90478515625
0.0415,0.26025390625,3.98388671875,-4.58447265625
0.042,-0.78076171875,4.22412109375,-3.78369140625
0.0425,-1.54150390625,4.62451171875,-3.50341796875
0.043,-2.78271484375,4.74462890625,-2.26220703125
0.0435,-3.22314453125,4.82470703125,-1.90185546875
0.044,-4.30419921875,4.86474609375,-0.94091796875
0.0445,-4.50439453125,4.14404296875,0.02001953125
0.045,-4.82470703125,3.82373046875,0.66064453125
0.0455,-4.98486328125,3.02294921875,1.54150390625
0.046,-5.06494140625,2.34228515625,2.30224609375
0.0465,-5.02490234375,1.66162109375,2.94287109375
0.047,-5.06494140625,0.90087890625,3.70361328125
0.0475,-4.06396484375,-0.38037109375,3.90380859375
0.048,-3.94384765625,-1.10107421875,4.50439453125
0.0485,-2.78271484375,-2.34228515625,4.50439453125
0.049,-2.50244140625,-2.90283203125,4.74462890625
0.0495,-1.50146484375,-3.86376953125,4.62451171875
0.05,-0.62060546875,-4.22412109375,4.18408203125
0.0505,0.26025390625,-4.58447265625,3.70361328125
0.051,1.14111328125,-4.98486328125,3.22314453125
0.0515,2.26220703125,-5.10498046875,2.26220703125
0.052,2.78271484375,-5.14501953125,1.82177734375
0.0525,3.70361328125,-5.18505859375,0.94091796875
0.053,3.86376953125,-4.42431640625,0.02001953125
0.0535,4.30419921875,-4.22412109375,-0.58056640625
0.054,4.34423828125,-3.26318359375,-1.62158203125
0.0545,4.54443359375,-2.82275390625,-2.26220703125
0.055,4.50439453125,-1.98193359375,-2.98291015625
0.0555,4.34423828125,-1.22119140625,-3.58349609375
0.056,3.38330078125,0.02001953125,-3.82373046875
0.0565,3.22314453125,0.62060546875,-4.34423828125
0.057,2.14208984375,1.78173828125,-4.34423828125
0.0575,1.94189453125,2.26220703125,-4.58447265625
0.058,0.98095703125,3.18310546875,-4.42431640625
0.0585,0.06005859375,3.50341796875,-3.82373046875
0.059,-0.66064453125,3.86376953125,-3.50341796875
0.0595,-1.70166015625,4.14404296875,-2.74267578125
0.06,-2.58251953125,4.34423828125,-2.10205078125
0.0605,-3.14306640625,4.30419921875,-1.54150390625
0.061,-3.78369140625,4.22412109375,-0.82080078125
0.0615,-3.90380859375,3.50341796875,0.02001953125
0.062,-4.30419921875,3.42333984375,0.50048828125
0.0625,-4.34423828125,2.42236328125,1.50146484375
0.063,-4.58447265625,2.26220703125,1.94189453125
0.0635,-4.54443359375,1.42138671875,2.70263671875
0.064,-4.18408203125,0.62060546875,3.06298828125
0.0645,-3.66357421875,-0.46044921875,3.50341796875
0.065,-3.26318359375,-1.18115234375,3.82373046875
0.0655,-2.58251953125,-2.10205078125,4.02392578125
0.066,-2.26220703125,-2.54248046875,4.14404296875
0.0665,-1.42138671875,-3.26318359375,4.10400390625
0.067,-0.62060546875,-3.54345703125,3.50341796875
0.0675,0.02001953125,-4.10400390625,3.46337890625
0.068,1.14111328125,-4.30419921875,2.58251953125
0.0685,1.74169921875,-4.66455078125,2.30224609375
0.069,2.42236328125,-4.58447265625,1.58154296875
0.0695,2.94287109375,-4.50439453125,0.98095703125
0.07,3.18310546875,-3.90380859375,0.18017578125
0.0705,3.62353515625,-3.78369140625,-0.34033203125
0.071,3.82373046875,-2.98291015625,-1.30126953125
0.0715,4.02392578125,-2.78271484375,-1.78173828125
0.072,4.06396484375,-1.94189453125,-2.54248046875
0.0725,3.50341796875,-1.14111328125,-2.90283203125
0.073,3.18310546875,-0.26025390625,-3.46337890625
0.0735,2.66259765625,0.62060546875,-3.74365234375
0.074,2.22216796875,1.42138671875,-4.02392578125
0.0745,1.70166015625,1.98193359375,-4.02392578125
0.075,0.94091796875,2.62255859375,-3.90380859375
0.0755,0.10009765625,2.90283203125,-3.34326171875
0.076,-0.58056640625,3.50341796875,-3.22314453125
0.0765,-1.70166015625,3.70361328125,-2.30224609375
0.077,-2.18212890625,3.98388671875,-2.18212890625
0.0775,-2.86279296875,3.86376953125,-1.42138671875
0.078,-3.18310546875,3.58349609375,-0.78076171875
0.0785,-3.54345703125,3.22314453125,-0.14013671875
0.079,-3.78369140625,2.86279296875,0.54052734375
0.0795,-4.10400390625,2.38232421875,1.30126953125
0.08,-4.14404296875,1.94189453125,1.78173828125
0.0805,-4.18408203125,1.26123046875,2.42236328125
0.081,-3.54345703125,0.30029296875,2.70263671875
0.0815,-3.46337890625,-0.46044921875,3.30322265625
0.082,-2.70263671875,-1.34130859375,3.50341796875
0.0825,-2.58251953125,-1.94189453125,3.90380859375
0.083,-1.86181640625,-2.50244140625,3.78369140625
0.0835,-1.26123046875,-2.98291015625,3.62353515625
0.084,-0.46044921875,-3.34326171875,3.18310546875
0.0845,0.30029296875,-3.86376953125,3.02294921875
0.085,1.26123046875,-4.14404296875,2.26220703125
0.0855,1.74169921875,-4.34423828125,2.06201171875
0.086,2.42236328125,-4.30419921875,1.34130859375
0.0865,2.62255859375,-3.90380859375,0.70068359375
0.087,3.14306640625,-3.78369140625,0.10009765625
0.0875,3.34326171875,-3.18310546875,-0.66064453125
0.088,3.74365234375,-2.94287109375,-1.26123046875
0.0885,3.70361328125,-2.34228515625,-1.86181640625
0.089,3.70361328125,-1.70166015625,-2.50244140625
0.0895,2.98291015625,-0.66064453125,-2.86279296875
0.09,2.98291015625,0.02001953125,-3.38330078125
0.0905,2.22216796875,1.02099609375,-3.58349609375
0.091,2.14208984375,1.46142578125,-3.98388671875
0.0915,1.30126953125,2.18212890625,-3.78369140625
0.092,0.62060546875,2.58251953125,-3.54345703125
0.0925,-0.18017578125,3.02294921875,-3.18310546875
0.093,-1.06103515625,3.42333984375,-2.70263671875
0.0935,-1.94189453125,3.74365234375,-2.18212890625
0.094,-2.38232421875,3.74365234375,-1.74169921875
0.0945,-2.90283203125,3.70361328125,-1.14111328125
0.095,-3.14306640625,3.18310546875,-0.42041015625
0.0955,-3.58349609375,3.10302734375,0.14013671875
0.096,-3.78369140625,2.38232421875,0.98095703125
0.0965,-4.10400390625,2.18212890625,1.46142578125
0.097,-3.90380859375,1.42138671875,2.06201171875
0.0975,-3.78369140625,0.70068359375,2.50244140625
0.098,-3.22314453125,-0.22021484375,2.94287109375
0.0985,-3.06298828125,-0.90087890625,3.38330078125
0.099,-2.42236328125,-1.78173828125,3.66357421875
0.0995,-2.14208984375,-2.18212890625,3.74365234375
0.1,-1.42138671875,-2.86279296875,3.62353515625
0.1005,-0.70068359375,-3.14306640625,3.22314453125
0.101,0.02001953125,-3.70361328125,3.10302734375
0.1015,1.02099609375,-3.98388671875,2.42236328125
0.102,1.66162109375,-4.34423828125,2.06201171875
0.1025,2.18212890625,-4.18408203125,1.42138671875
0.103,2.70263671875,-4.14404296875,0.94091796875
0.1035,2.90283203125,-3.54345703125,0.14013671875
0.104,3.34326171875,-3.50341796875,-0.42041015625
0.1045,3.54345703125,-2.82275390625,-1.34130859375
0.105,3.78369140625,-2.54248046875,-1.78173828125
0.1055,3.66357421875,-1.70166015625,-2.50244140625
0.106,3.22314453125,-0.86083984375,-2.82275390625
0.1065,2.82275390625,0.06005859375,-3.34326171875
0.107,2.38232421875,0.86083984375,-3.62353515625
0.1075,1.94189453125,1.70166015625,-3.98388671875
0.108,1.34130859375,2.10205078125,-3.82373046875
0.1085,0.62060546875,2.78271484375,-3.74365234375
0.109,-0.22021484375,3.02294921875,-3.14306640625
0.1095,-0.94091796875,3.54345703125,-2.94287109375
0.11,-2.02197265625,3.82373046875,-2.10205078125
0.1105,-2.62255859375,3.98388671875,-1.74169921875
0.111,-3.10302734375,3.70361328125,-0.98095703125
0.1115,-3.54345703125,3.54345703125,-0.38037109375
0.112,-3.70361328125,2.94287109375,0.34033203125
0.1125,-4.02392578125,2.58251953125,0.98095703125
0.113,-4.34423828125,1.94189453125,1.90185546875
0.1135,-4.14404296875,1.42138671875,2.26220703125
0.114,-4.02392578125,0.62060546875,2.94287109375
0.1145,-3.38330078125,-0.34033203125,3.22314453125
0.115,-3.10302734375,-1.14111328125,3.70361328125
0.1155,-2.38232421875,-2.06201171875,3.86376953125
0.116,-1.94189453125,-2.78271484375,4.14404296875
0.1165,-1.18115234375,-3.14306640625,3.70361328125
0.117,-0.54052734375,-3.70361328125,3.66357421875
0.1175,0.34033203125,-3.90380859375,2.94287109375
0.118,1.14111328125,-4.34423828125,2.66259765625
0.1185,2.26220703125,-4.62451171875,1.78173828125
0.119,2.70263671875,-4.54443359375,1.30126953125
0.1195,3.22314453125,-4.22412109375,0.50048828125
0.12,3.50341796875,-3.86376953125,-0.14013671875
0.1205,3.70361328125,-3.38330078125,-0.90087890625
0.121,3.90380859375,-2.82275390625,-1.62158203125
0.1215,4.22412109375,-2.26220703125,-2.54248046875
0.122,3.78369140625,-1.42138671875,-2.78271484375
0.1225,3.66357421875,-0.62060546875,-3.50341796875
0.123,2.82275390625,0.42041015625,-3.62353515625
0.1235,2.54248046875,1.14111328125,-4.02392578125
0.124,1.74169921875,2.18212890625,-4.22412109375
0.1245,1.22119140625,2.78271484375,-4.30419921875
0.125,0.26025390625,3.18310546875,-3.78369140625
0.1255,-0.38037109375,3.70361328125,-3.58349609375
0.126,-1.34130859375,3.86376953125,-2.82275390625
0.1265,-2.14208984375,4.18408203125,-2.38232421875
0.127,-3.34326171875,4.46435546875,-1.50146484375
0.1275,-3.66357421875,4.10400390625,-0.78076171875
0.128,-4.14404296875,3.82373046875,0.02001953125
0.1285,-4.30419921875,3.18310546875,0.66064453125
0.129,-4.50439453125,2.66259765625,1.34130859375
0.1295,-4.66455078125,1.94189453125,2.22216796875
0.13,-4.90478515625,1.34130859375,3.06298828125
0.1305,-4.14404296875,0.34033203125,3.34326171875
0.131,-4.02392578125,-0.50048828125,3.98388671875
0.1315,-3.06298828125,-1.58154296875,4.02392578125
0.132,-2.70263671875,-2.26220703125,4.34423828125
0.1325,-1.78173828125,-3.34326171875,4.50439453125
0.133,-1.06103515625,-3.86376953125,4.26416015625
0.1335,-0.18017578125,-4.22412109375,3.78369140625
0.134,0.58056640625,-4.62451171875,3.42333984375
0.1345,1.62158203125,-4.82470703125,2.54248046875
0.135,2.42236328125,-4.98486328125,1.98193359375
0.1355,3.54345703125,-5.22509765625,1.14111328125
0.136,3.74365234375,-4.54443359375,0.30029296875
0.1365,4.14404296875,-4.42431640625,-0.38037109375
0.137,4.26416015625,-3.54345703125,-1.26123046875
0.1375,4.46435546875,-3.02294921875,-1.98193359375
0.138,4.54443359375,-2.18212890625,-2.86279296875
0.1385,4.62451171875,-1.42138671875,-3.66357421875
0.139,3.70361328125,-0.30029296875,-3.86376953125
0.1395,3.54345703125,0.50048828125,-4.42431640625
0.14,2.42236328125,1.66162109375,-4.46435546875
0.1405,2.06201171875,2.30224609375,-4.66455078125
0.141,1.10107421875,3.46337890625,-4.82470703125
0.1415,0.14013671875,3.86376953125,-4.30419921875
0.142,-0.70068359375,4.18408203125,-3.78369140625
0.1425,-1.66162109375,4.62451171875,-3.22314453125
0.143,-2.78271484375,4.66455078125,-2.26220703125
0.1435,-3.46337890625,4.78466796875,-1.66162109375
0.144,-4.50439453125,4.86474609375,-0.78076171875
0.1445,-4.54443359375,3.94384765625,0.18017578125
0.145,-4.98486328125,3.78369140625,0.78076171875
0.1455,-5.06494140625,2.70263671875,1.86181640625
0.146,-5.14501953125,2.18212890625,2.54248046875
0.1465,-5.14501953125,1.30126953125,3.42333984375
0.147,-4.98486328125,0.50048828125,4.02392578125
0.1475,-3.98388671875,-0.78076171875,4.22412109375
0.148,-3.74365234375,-1.58154296875,4.74462890625
0.1485,-2.54248046875,-2.86279296875,4.78466796875
0.149,-2.10205078125,-3.38330078125,4.86474609375
0.1495,-1.10107421875,-4.42431640625,4.82470703125
0.15,-0.10009765625,-4.66455078125,4.14404296875
0.1505,0.70068359375,-5.06494140625,3.74365234375
0.151,1.90185546875,-5.42529296875,2.90283203125
0.1515,2.86279296875,-5.42529296875,1.98193359375
0.152,3.54345703125,-5.42529296875,1.30126953125
0.1525,4.42431640625,-5.42529296875,0.46044921875
0.153,4.42431640625,-4.46435546875,-0.58056640625
0.1535,4.82470703125,-4.30419921875,-1.14111328125
0.154,4.86474609375,-3.02294921875,-2.42236328125
0.1545,4.94482421875,-2.50244140625,-2.90283203125
0.155,4.86474609375,-1.54150390625,-3.82373046875
0.1555,4.50439453125,-0.58056640625,-4.38427734375
0.156,3.54345703125,0.66064453125,-4.54443359375
0.1565,3.14306640625,1.50146484375,-4.98486328125
0.157,1.90185546875,2.86279296875,-5.02490234375
0.1575,1.46142578125,3.26318359375,-5.06494140625
0.158,0.34033203125,4.30419921875,-4.90478515625
0.1585,-0.74072265625,4.50439453125,-4.02392578125
0.159,-1.54150390625,4.86474609375,-3.62353515625
0.1595,-2.86279296875,5.14501953125,-2.58251953125
0.16,-3.82373046875,5.14501953125,-1.70166015625
0.1605,-4.34423828125,4.90478515625,-0.98095703125
0.161,-5.10498046875,4.70458984375,-0.06005859375
0.1615,-5.10498046875,3.70361328125,0.94091796875
0.162,-5.42529296875,3.46337890625,1.58154296875
0.1625,-5.46533203125,2.10205078125,2.94287109375
0.163,-5.38525390625,1.62158203125,3.26318359375
0.1635,-5.18505859375,0.62060546875,4.10400390625
0.164,-4.58447265625,-0.46044921875,4.50439453125
0.1645,-3.70361328125,-1.54150390625,4.70458984375
0.165,-3.14306640625,-2.50244140625,4.98486328125
0.1655,-1.98193359375,-3.66357421875,5.06494140625
0.166,-1.46142578125,-3.98388671875,4.82470703125
0.1665,-0.46044921875,-4.82470703125,4.62451171875
0.167,0.62060546875,-4.98486328125,3.74365234375
0.1675,1.34130859375,-5.38525390625,3.38330078125
0.168,2.70263671875,-5.54541015625,2.26220703125
0.1685,3.38330078125,-5.62548828125,1.58154296875
0.169,3.98388671875,-5.30517578125,0.70068359375
0.1695,4.58447265625,-5.10498046875,-0.14013671875
0.17,4.58447265625,-4.02392578125,-1.10107421875
0.1705,4.90478515625,-3.74365234375,-1.70166015625
0.171,4.98486328125,-2.50244140625,-3.02294921875
0.1715,4.86474609375,-2.06201171875,-3.26318359375
0.172,4.66455078125,-0.98095703125,-4.14404296875
0.1725,3.94384765625,0.10009765625,-4.42431640625
0.173,3.22314453125,1.14111328125,-4.70458984375
0.1735,2.50244140625,2.18212890625,-4.98486328125
0.174,1.58154296875,3.22314453125,-5.10498046875
0.1745,0.94091796875,3.54345703125,-4.78466796875
0.175,-0.14013671875,4.38427734375,-4.50439453125
0.1755,-1.22119140625,4.50439453125,-3.54345703125
0.176,-1.94189453125,4.86474609375,-3.22314453125
0.1765,-3.34326171875,4.98486328125,-1.98193359375
0.177,-3.94384765625,4.98486328125,-1.46142578125
0.1775,-4.50439453125,4.50439453125,-0.50048828125
0.178,-4.94482421875,4.22412109375,0.34033203125
0.1785,-4.98486328125,3.34326171875,1.26123046875
0.179,-5.18505859375,2.86279296875,1.94189453125
0.1795,-5.30517578125,1.78173828125,3.06298828125
0.18,-4.98486328125,1.26123046875,3.34326171875
0.1805,-4.82470703125,0.22021484375,4.10400390625
0.181,-3.90380859375,-0.94091796875,4.26416015625
0.1815,-3.38330078125,-1.78173828125,4.62451171875
0.182,-2.50244140625,-2.86279296875,4.70458984375
0.1825,-1.86181640625,-3.66357421875,4.82470703125
0.183,-1.02099609375,-3.98388671875,4.34423828125
0.1835,-0.14013671875,-4.62451171875,4.14404296875
0.184,0.82080078125,-4.70458984375,3.22314453125
0.1845,1.54150390625,-5.14501953125,2.94287109375
0.185,2.86279296875,-5.30517578125,1.78173828125
0.1855,3.22314453125,-5.26513671875,1.34130859375
0.186,3.86376953125,-4.82470703125,0.46044921875
0.1865,4.14404296875,-4.38427734375,-0.30029296875
0.187,4.34423828125,-3.70361328125,-1.14111328125
0.1875,4.50439453125,-3.14306640625,-1.90185546875
0.188,4.74462890625,-2.42236328125,-2.86279296875
0.1885,4.34423828125,-1.74169921875,-3.10302734375
0.189,4.22412109375,-0.74072265625,-3.94384765625
0.1895,3.26318359375,0.38037109375,-4.02392578125
0.19,3.02294921875,1.18115234375,-4.50439453125
0.1905,1.98193359375,2.30224609375,-4.58447265625
0.191,1.58154296875,2.90283203125,-4.78466796875
0.1915,0.58056640625,3.38330078125,-4.18408203125
0.192,-0.30029296875,3.98388671875,-3.98388671875
0.1925,-1.30126953125,4.10400390625,-3.18310546875
0.193,-2.06201171875,4.50439453125,-2.78271484375
0.1935,-3.26318359375,4.62451171875,-1.78173828125
0.194,-3.58349609375,4.46435546875,-1.22119140625
0.1945,-4.18408203125,4.14404296875,-0.34033203125
0.195,-4.34423828125,3.54345703125,0.46044921875
0.1955,-4.62451171875,3.06298828125,1.18115234375
0.196,-4.66455078125,2.26220703125,1.98193359375
0.1965,-4.94482421875,1.78173828125,2.70263671875
0.197,-4.38427734375,0.90087890625,3.02294921875
0.1975,-4.22412109375,0.06005859375,3.70361328125
0.198,-3.22314453125,-1.10107421875,3.82373046875
0.1985,-3.06298828125,-1.70166015625,4.18408203125
0.199,-2.10205078125,-2.78271484375,4.30419921875
