wavelength,x,y,z
0.0,-0.270263671875,6.095947265625,-4.834716796875
0.0005,0.570556640625,6.176025390625,-5.755615234375
0.001,1.571533203125,5.575439453125,-6.276123046875
0.0015,2.852783203125,4.334228515625,-6.556396484375
0.002,4.334228515625,2.972900390625,-6.956787109375
0.0025,5.415283203125,1.651611328125,-7.036865234375
0.003,5.895751953125,0.650634765625,-6.876708984375
0.0035,6.015869140625,-0.190185546875,-6.516357421875
0.004,5.695556640625,-1.151123046875,-5.595458984375
0.0045,5.415283203125,-2.512451171875,-4.234130859375
0.005,5.295166015625,-3.993896484375,-2.872802734375
0.0055,5.054931640625,-5.195068359375,-1.631591796875
0.006,4.734619140625,-5.915771484375,-0.790771484375
0.0065,3.973876953125,-6.236083984375,0.210205078125
0.007,2.732666015625,-6.276123046875,1.331298828125
0.0075,1.371337890625,-6.516357421875,3.012939453125
0.008,0.130126953125,-6.716552734375,4.454345703125
0.0085,-0.830810546875,-6.876708984375,5.455322265625
0.009,-1.591552734375,-6.756591796875,6.176025390625
0.0095,-2.832763671875,-5.795654296875,6.576416015625
0.01,-4.194091796875,-4.354248046875,6.856689453125
0.0105,-5.475341796875,-2.912841796875,7.056884765625
0.011,-6.316162109375,-1.631591796875,6.976806640625
0.0115,-6.596435546875,-0.790771484375,6.776611328125
0.012,-6.436279296875,0.090087890625,6.135986328125
0.0125,-6.035888671875,1.211181640625,4.934814453125
0.013,-5.795654296875,2.612548828125,3.533447265625
0.0135,-5.635498046875,4.093994140625,2.132080078125
0.014,-5.275146484375,5.094970703125,1.010986328125
0.0145,-4.834716796875,5.615478515625,0.170166015625
0.015,-3.873779296875,5.775634765625,-0.870849609375
0.0155,-2.472412109375,5.775634765625,-2.232177734375
0.016,-1.151123046875,6.095947265625,-3.873779296875
0.0165,0.130126953125,6.135986328125,-5.195068359375
0.017,0.890869140625,6.256103515625,-6.115966796875
0.0175,1.691650390625,5.815673828125,-6.676513671875
0.018,2.972900390625,4.654541015625,-6.876708984375
0.0185,4.414306640625,3.213134765625,-7.197021484375
0.019,5.575439453125,1.771728515625,-7.237060546875
0.0195,6.135986328125,0.650634765625,-7.076904296875
0.02,6.336181640625,-0.230224609375,-6.756591796875
0.0205,6.055908203125,-1.111083984375,-5.955810546875
0.021,5.575439453125,-2.272216796875,-4.634521484375
0.0215,5.415283203125,-3.753662109375,-3.193115234375
0.022,5.135009765625,-5.074951171875,-1.871826171875
0.0225,4.814697265625,-5.915771484375,-0.910888671875
0.023,4.294189453125,-6.396240234375,0.010009765625
0.0235,3.173095703125,-6.396240234375,1.051025390625
0.024,1.811767578125,-6.556396484375,2.492431640625
0.0245,0.370361328125,-6.756591796875,4.093994140625
0.025,-0.670654296875,-6.876708984375,5.175048828125
0.0255,-1.351318359375,-6.956787109375,6.055908203125
0.026,-2.312255859375,-6.276123046875,6.536376953125
0.0265,-3.633544921875,-4.954833984375,6.736572265625
0.027,-5.034912109375,-3.553466796875,7.056884765625
0.0275,-6.075927734375,-2.192138671875,7.096923828125
0.028,-6.556396484375,-1.231201171875,6.896728515625
0.0285,-6.556396484375,-0.430419921875,6.536376953125
0.029,-6.236083984375,0.610595703125,5.575439453125
0.0295,-5.915771484375,1.931884765625,4.254150390625
0.03,-5.755615234375,3.413330078125,2.812744140625
0.0305,-5.475341796875,4.614501953125,1.571533203125
0.031,-5.155029296875,5.375244140625,0.610595703125
0.0315,-4.474365234375,5.735595703125,-0.310302734375
0.032,-3.193115234375,5.735595703125,-1.471435546875
0.0325,-1.831787109375,6.015869140625,-3.072998046875
0.033,-0.510498046875,6.135986328125,-4.634521484375
0.0335,0.410400390625,6.256103515625,-5.635498046875
0.034,1.211181640625,6.216064453125,-6.396240234375
0.0345,2.292236328125,5.335205078125,-6.796630859375
0.035,3.773681640625,3.893798828125,-7.036865234375
0.0355,5.094970703125,2.492431640625,-7.277099609375
0.036,5.935791015625,1.171142578125,-7.197021484375
0.0365,6.256103515625,0.290283203125,-7.036865234375
0.037,6.176025390625,-0.630615234375,-6.396240234375
0.0375,5.735595703125,-1.711669921875,-5.235107421875
0.038,5.575439453125,-3.193115234375,-3.873779296875
0.0385,5.375244140625,-4.634521484375,-2.432373046875
0.039,5.094970703125,-5.715576171875,-1.271240234375
0.0395,4.614501953125,-6.356201171875,-0.430419921875
0.04,3.693603515625,-6.516357421875,0.610595703125
0.0405,2.332275390625,-6.556396484375,1.971923828125
0.041,0.890869140625,-6.836669921875,3.693603515625
0.0415,-0.430419921875,-6.916748046875,5.014892578125
0.042,-1.191162109375,-6.996826171875,5.935791015625
0.0425,-2.072021484375,-6.636474609375,6.536376953125
0.043,-3.353271484375,-5.435302734375,6.856689453125
0.0435,-4.794677734375,-3.993896484375,7.177001953125
0.044,-5.955810546875,-2.552490234375,7.217041015625
0.0445,-6.596435546875,-1.311279296875,7.056884765625
0.045,-6.756591796875,-0.550537109375,6.736572265625
0.0455,-6.476318359375,0.450439453125,5.935791015625
0.046,-6.075927734375,1.651611328125,4.574462890625
0.0465,-5.835693359375,3.173095703125,3.133056640625
0.047,-5.635498046875,4.534423828125,1.771728515625
0.0475,-5.195068359375,5.375244140625,0.690673828125
0.048,-4.594482421875,5.775634765625,-0.230224609375
0.0485,-3.513427734375,5.815673828125,-1.271240234375
0.049,-2.072021484375,5.935791015625,-2.752685546875
0.0495,-0.710693359375,6.095947265625,-4.354248046875
0.05,0.450439453125,6.216064453125,-5.475341796875
0.0505,1.091064453125,6.216064453125,-6.316162109375
0.051,2.052001953125,5.615478515625,-6.716552734375
0.0515,3.333251953125,4.254150390625,-6.916748046875
0.052,4.694580078125,2.852783203125,-7.197021484375
0.0525,5.695556640625,1.531494140625,-7.197021484375
0.053,6.135986328125,0.490478515625,-6.956787109375
0.0535,6.135986328125,-0.350341796875,-6.596435546875
0.054,5.815673828125,-1.271240234375,-5.635498046875
0.0545,5.455322265625,-2.472412109375,-4.354248046875
0.055,5.295166015625,-3.913818359375,-2.952880859375
0.0555,5.054931640625,-5.114990234375,-1.711669921875
0.056,4.734619140625,-5.835693359375,-0.870849609375
0.0565,4.013916015625,-6.236083984375,0.050048828125
0.057,2.932861328125,-6.276123046875,1.091064453125
0.0575,1.571533203125,-6.516357421875,2.572509765625
0.058,0.330322265625,-6.596435546875,4.053955078125
0.0585,-0.630615234375,-6.756591796875,5.094970703125
0.059,-1.311279296875,-6.796630859375,5.895751953125
0.0595,-2.272216796875,-6.075927734375,6.296142578125
0.06,-3.593505859375,-4.794677734375,6.536376953125
0.0605,-4.914794921875,-3.513427734375,6.856689453125
0.061,-5.795654296875,-2.192138671875,6.816650390625
0.0615,-6.236083984375,-1.431396484375,6.736572265625
0.062,-6.236083984375,-0.630615234375,6.296142578125
0.0625,-5.915771484375,0.370361328125,5.375244140625
0.063,-5.755615234375,1.731689453125,4.174072265625
0.0635,-5.635498046875,3.173095703125,2.852783203125
0.064,-5.355224609375,4.214111328125,1.731689453125
0.0645,-5.114990234375,4.934814453125,0.930908203125
0.065,-4.354248046875,5.255126953125,0.050048828125
0.0655,-3.193115234375,5.375244140625,-1.271240234375
0.066,-1.991943359375,5.735595703125,-2.752685546875
0.0665,-0.790771484375,5.935791015625,-4.154052734375
0.067,0.090087890625,6.135986328125,-5.195068359375
0.0675,0.890869140625,6.015869140625,-5.875732421875
0.068,2.011962890625,5.094970703125,-6.276123046875
0.0685,3.413330078125,3.853759765625,-6.636474609375
0.069,4.614501953125,2.532470703125,-6.876708984375
0.0695,5.375244140625,1.411376953125,-6.796630859375
0.07,5.735595703125,0.650634765625,-6.716552734375
0.0705,5.615478515625,-0.230224609375,-6.115966796875
0.071,5.295166015625,-1.231201171875,-5.074951171875
0.0715,5.255126953125,-2.592529296875,-3.913818359375
0.072,5.094970703125,-3.993896484375,-2.632568359375
0.0725,4.854736328125,-4.994873046875,-1.671630859375
0.073,4.494384765625,-5.595458984375,-0.910888671875
0.0735,3.693603515625,-5.795654296875,0.090087890625
0.074,2.532470703125,-5.955810546875,1.371337890625
0.0745,1.291259765625,-6.276123046875,2.892822265625
0.075,0.290283203125,-6.476318359375,4.134033203125
0.0755,-0.510498046875,-6.716552734375,5.054931640625
0.076,-1.351318359375,-6.356201171875,5.615478515625
0.0765,-2.552490234375,-5.315185546875,5.935791015625
0.077,-3.913818359375,-4.154052734375,6.416259765625
0.0775,-4.994873046875,-2.912841796875,6.536376953125
0.078,-5.635498046875,-1.951904296875,6.536376953125
0.0785,-5.835693359375,-1.271240234375,6.376220703125
0.079,-5.715576171875,-0.470458984375,5.695556640625
0.0795,-5.475341796875,0.730712890625,4.694580078125
0.08,-5.435302734375,2.092041015625,3.533447265625
0.0805,-5.315185546875,3.293212890625,2.372314453125
0.081,-5.114990234375,4.134033203125,1.491455078125
0.0815,-4.674560546875,4.654541015625,0.730712890625
0.082,-3.753662109375,4.894775390625,-0.310302734375
0.0825,-2.712646484375,5.295166015625,-1.711669921875
0.083,-1.511474609375,5.575439453125,-3.153076171875
0.0835,-0.630615234375,5.815673828125,-4.234130859375
0.084,0.130126953125,6.015869140625,-5.114990234375
0.0845,1.091064453125,5.455322265625,-5.635498046875
0.085,2.292236328125,4.454345703125,-6.035888671875
0.0855,3.613525390625,3.253173828125,-6.396240234375
0.086,4.614501953125,2.092041015625,-6.516357421875
0.0865,5.135009765625,1.291259765625,-6.556396484375
0.087,5.255126953125,0.610595703125,-6.276123046875
0.0875,5.094970703125,-0.350341796875,-5.555419921875
0.088,5.054931640625,-1.511474609375,-4.594482421875
0.0885,4.974853515625,-2.872802734375,-3.473388671875
0.089,4.854736328125,-4.033935546875,-2.432373046875
0.0895,4.734619140625,-4.834716796875,-1.671630859375
0.09,4.134033203125,-5.195068359375,-0.870849609375
0.0905,3.253173828125,-5.435302734375,0.290283203125
0.091,2.212158203125,-5.915771484375,1.731689453125
0.0915,1.131103515625,-6.156005859375,3.012939453125
0.092,0.370361328125,-6.476318359375,4.093994140625
0.0925,-0.470458984375,-6.476318359375,4.854736328125
0.093,-1.511474609375,-5.835693359375,5.335205078125
0.0935,-2.832763671875,-4.834716796875,5.815673828125
0.094,-4.073974609375,-3.713623046875,6.176025390625
0.0945,-4.914794921875,-2.672607421875,6.256103515625
0.095,-5.355224609375,-1.991943359375,6.376220703125
0.0955,-5.435302734375,-1.271240234375,5.935791015625
0.096,-5.275146484375,-0.390380859375,5.175048828125
0.0965,-5.315185546875,0.930908203125,4.214111328125
0.097,-5.275146484375,2.252197265625,3.133056640625
0.0975,-5.155029296875,3.253173828125,2.252197265625
0.098,-4.994873046875,4.013916015625,1.531494140625
0.0985,-4.354248046875,4.414306640625,0.690673828125
0.099,-3.393310546875,4.774658203125,-0.630615234375
0.0995,-2.432373046875,5.215087890625,-1.991943359375
0.1,-1.431396484375,5.535400390625,-3.193115234375
0.1005,-0.790771484375,5.855712890625,-4.234130859375
0.101,0.170166015625,5.735595703125,-4.994873046875
0.1015,1.291259765625,4.934814453125,-5.395263671875
0.102,2.572509765625,3.973876953125,-5.915771484375
0.1025,3.773681640625,2.852783203125,-6.236083984375
0.103,4.494384765625,1.931884765625,-6.356201171875
0.1035,4.894775390625,1.291259765625,-6.356201171875
0.104,4.894775390625,0.530517578125,-5.835693359375
0.1045,4.814697265625,-0.630615234375,-5.114990234375
0.105,4.934814453125,-1.911865234375,-4.154052734375
0.1055,4.854736328125,-3.193115234375,-3.113037109375
0.106,4.814697265625,-4.033935546875,-2.272216796875
0.1065,4.534423828125,-4.674560546875,-1.551513671875
0.107,3.813720703125,-4.994873046875,-0.630615234375
0.1075,2.892822265625,-5.515380859375,0.770751953125
0.108,1.811767578125,-5.915771484375,2.172119140625
0.1085,0.970947265625,-6.276123046875,3.333251953125
0.109,0.290283203125,-6.556396484375,4.294189453125
0.1095,-0.790771484375,-6.156005859375,4.934814453125
0.11,-2.031982421875,-5.275146484375,5.415283203125
0.1105,-3.353271484375,-4.274169921875,5.895751953125
0.111,-4.434326171875,-3.193115234375,6.135986328125
0.1115,-5.074951171875,-2.432373046875,6.296142578125
0.112,-5.275146484375,-1.671630859375,6.135986328125
0.1125,-5.235107421875,-0.910888671875,5.455322265625
0.113,-5.275146484375,0.370361328125,4.614501953125
0.1135,-5.355224609375,1.731689453125,3.573486328125
0.114,-5.195068359375,2.892822265625,2.572509765625
0.1145,-5.114990234375,3.773681640625,1.811767578125
0.115,-4.634521484375,4.254150390625,1.010986328125
0.1155,-3.713623046875,4.534423828125,-0.150146484375
0.116,-2.752685546875,5.094970703125,-1.591552734375
0.1165,-1.711669921875,5.455322265625,-2.912841796875
0.117,-0.990966796875,5.775634765625,-3.993896484375
0.1175,-0.190185546875,5.815673828125,-4.834716796875
0.118,0.970947265625,5.175048828125,-5.355224609375
0.1185,2.292236328125,4.174072265625,-5.835693359375
0.119,3.613525390625,3.052978515625,-6.236083984375
0.1195,4.454345703125,1.971923828125,-6.356201171875
0.12,4.974853515625,1.291259765625,-6.396240234375
0.1205,5.014892578125,0.530517578125,-5.995849609375
0.121,4.854736328125,-0.510498046875,-5.195068359375
0.1215,4.854736328125,-1.791748046875,-4.234130859375
0.122,4.894775390625,-3.072998046875,-3.153076171875
0.1225,4.774658203125,-4.114013671875,-2.232177734375
0.123,4.534423828125,-4.834716796875,-1.471435546875
0.1235,3.853759765625,-5.155029296875,-0.630615234375
0.124,2.892822265625,-5.475341796875,0.650634765625
0.1245,1.851806640625,-5.915771484375,2.132080078125
0.125,0.930908203125,-6.236083984375,3.333251953125
0.1255,0.210205078125,-6.556396484375,4.334228515625
0.126,-0.790771484375,-6.316162109375,5.054931640625
0.1265,-1.951904296875,-5.435302734375,5.415283203125
0.127,-3.313232421875,-4.394287109375,5.975830078125
0.1275,-4.474365234375,-3.193115234375,6.256103515625
0.128,-5.155029296875,-2.272216796875,6.336181640625
0.1285,-5.475341796875,-1.631591796875,6.256103515625
0.129,-5.435302734375,-0.830810546875,5.615478515625
0.1295,-5.355224609375,0.290283203125,4.734619140625
0.13,-5.355224609375,1.731689453125,3.693603515625
0.1305,-5.275146484375,3.012939453125,2.572509765625
0.131,-5.114990234375,3.853759765625,1.771728515625
0.1315,-4.714599609375,4.414306640625,0.970947265625
0.132,-3.833740234375,4.614501953125,0.010009765625
0.1325,-2.872802734375,5.094970703125,-1.471435546875
0.133,-1.711669921875,5.495361328125,-2.912841796875
0.1335,-0.910888671875,5.775634765625,-4.073974609375
0.134,-0.150146484375,5.935791015625,-4.954833984375
0.1345,0.970947265625,5.455322265625,-5.515380859375
0.135,2.252197265625,4.414306640625,-5.915771484375
0.1355,3.613525390625,3.173095703125,-6.396240234375
0.136,4.614501953125,2.052001953125,-6.516357421875
0.1365,5.175048828125,1.171142578125,-6.556396484375
0.137,5.295166015625,0.490478515625,-6.276123046875
0.1375,5.094970703125,-0.590576171875,-5.435302734375
0.138,5.054931640625,-1.751708984375,-4.434326171875
0.1385,5.054931640625,-3.193115234375,-3.233154296875
0.139,4.854736328125,-4.274169921875,-2.192138671875
0.1395,4.734619140625,-5.074951171875,-1.431396484375
0.14,4.053955078125,-5.435302734375,-0.590576171875
0.1405,3.012939453125,-5.635498046875,0.650634765625
0.141,1.851806640625,-6.075927734375,2.212158203125
0.1415,0.770751953125,-6.356201171875,3.533447265625
0.142,0.010009765625,-6.596435546875,4.614501953125
0.1425,-0.910888671875,-6.516357421875,5.375244140625
0.143,-2.072021484375,-5.675537109375,5.775634765625
0.1435,-3.473388671875,-4.514404296875,6.256103515625
0.144,-4.754638671875,-3.233154296875,6.536376953125
0.1445,-5.555419921875,-2.192138671875,6.536376953125
0.145,-5.915771484375,-1.431396484375,6.456298828125
0.1455,-5.875732421875,-0.630615234375,5.895751953125
0.146,-5.595458984375,0.610595703125,4.854736328125
0.1465,-5.555419921875,2.052001953125,3.693603515625
0.147,-5.475341796875,3.453369140625,2.452392578125
0.1475,-5.235107421875,4.414306640625,1.451416015625
0.148,-4.834716796875,4.974853515625,0.650634765625
0.1485,-3.913818359375,5.175048828125,-0.430419921875
0.149,-2.672607421875,5.415283203125,-1.831787109375
0.1495,-1.431396484375,5.775634765625,-3.433349609375
0.15,-0.470458984375,6.015869140625,-4.634521484375
0.1505,0.370361328125,6.216064453125,-5.595458984375
0.151,1.331298828125,5.695556640625,-6.156005859375
0.1515,2.652587890625,4.494384765625,-6.436279296875
0.152,4.134033203125,3.173095703125,-6.916748046875
0.1525,5.255126953125,1.771728515625,-6.996826171875
0.153,5.815673828125,0.730712890625,-6.876708984375
0.1535,5.895751953125,0.010009765625,-6.596435546875
0.154,5.695556640625,-1.031005859375,-5.715576171875
0.1545,5.415283203125,-2.312255859375,-4.354248046875
0.155,5.295166015625,-3.833740234375,-3.032958984375
0.1555,5.094970703125,-5.074951171875,-1.791748046875
0.156,4.774658203125,-5.795654296875,-0.910888671875
0.1565,4.093994140625,-6.156005859375,0.050048828125
0.157,2.892822265625,-6.196044921875,1.211181640625
0.1575,1.531494140625,-6.476318359375,2.812744140625
0.158,0.250244140625,-6.716552734375,4.334228515625
0.1585,-0.710693359375,-6.796630859375,5.335205078125
0.159,-1.471435546875,-6.756591796875,6.095947265625
0.1595,-2.592529296875,-5.875732421875,6.536376953125
0.16,-4.033935546875,-4.514404296875,6.736572265625
0.1605,-5.315185546875,-3.113037109375,7.056884765625
0.161,-6.196044921875,-1.871826171875,6.976806640625
0.1615,-6.556396484375,-0.990966796875,6.736572265625
0.162,-6.396240234375,0.010009765625,6.176025390625
0.1625,-6.035888671875,1.010986328125,5.054931640625
0.163,-5.795654296875,2.452392578125,3.693603515625
0.1635,-5.635498046875,3.893798828125,2.292236328125
0.164,-5.315185546875,4.934814453125,1.131103515625
0.1645,-4.914794921875,5.535400390625,0.330322265625
0.165,-4.033935546875,5.735595703125,-0.710693359375
0.1655,-2.592529296875,5.735595703125,-2.031982421875
0.166,-1.271240234375,6.055908203125,-3.673583984375
0.1665,0.010009765625,6.176025390625,-5.034912109375
0.167,0.730712890625,6.296142578125,-5.915771484375
0.1675,1.571533203125,5.975830078125,-6.556396484375
0.168,2.812744140625,4.814697265625,-6.876708984375
0.1685,4.254150390625,3.333251953125,-7.156982421875
0.169,5.455322265625,1.931884765625,-7.277099609375
0.1695,6.095947265625,0.690673828125,-7.116943359375
0.17,6.296142578125,0.010009765625,-6.876708984375
0.1705,6.055908203125,-0.990966796875,-6.075927734375
0.171,5.615478515625,-2.112060546875,-4.754638671875
0.1715,5.455322265625,-3.673583984375,-3.353271484375
0.172,5.255126953125,-5.034912109375,-1.991943359375
0.1725,4.894775390625,-5.915771484375,-0.990966796875
0.173,4.374267578125,-6.356201171875,-0.190185546875
0.1735,3.333251953125,-6.436279296875,0.930908203125
0.174,1.891845703125,-6.556396484375,2.412353515625
0.1745,0.490478515625,-6.756591796875,4.013916015625
0.175,-0.630615234375,-6.876708984375,5.255126953125
0.1755,-1.311279296875,-6.956787109375,6.095947265625
0.176,-2.272216796875,-6.396240234375,6.576416015625
0.1765,-3.593505859375,-5.074951171875,6.776611328125
0.177,-5.074951171875,-3.713623046875,7.096923828125
0.1775,-6.115966796875,-2.272216796875,7.096923828125
0.178,-6.556396484375,-1.231201171875,6.976806640625
0.1785,-6.636474609375,-0.390380859375,6.536376953125
0.179,-6.316162109375,0.610595703125,5.615478515625
0.1795,-5.955810546875,1.931884765625,4.254150390625
0.18,-5.755615234375,3.413330078125,2.852783203125
0.1805,-5.515380859375,4.654541015625,1.571533203125
0.181,-5.155029296875,5.415283203125,0.610595703125
0.1815,-4.474365234375,5.735595703125,-0.310302734375
0.182,-3.233154296875,5.735595703125,-1.431396484375
0.1825,-1.831787109375,6.055908203125,-3.072998046875
0.183,-0.470458984375,6.135986328125,-4.594482421875
0.1835,0.490478515625,6.256103515625,-5.635498046875
0.184,1.211181640625,6.256103515625,-6.396240234375
0.1845,2.252197265625,5.375244140625,-6.796630859375
0.185,3.693603515625,3.933837890625,-7.036865234375
0.1855,5.014892578125,2.492431640625,-7.277099609375
0.186,5.935791015625,1.211181640625,-7.197021484375
0.1865,6.256103515625,0.290283203125,-7.036865234375
0.187,6.216064453125,-0.630615234375,-6.436279296875
0.1875,5.775634765625,-1.631591796875,-5.315185546875
0.188,5.575439453125,-3.072998046875,-3.993896484375
