wavelength,x,y,z
0.0,22.552001953125,-11.681396484375,-9.959716796875
0.0005,22.552001953125,-8.197998046875,-13.563232421875
0.001,21.751220703125,-4.073974609375,-16.846435546875
0.0015,20.029541015625,0.450439453125,-19.689208984375
0.002,17.346923828125,4.654541015625,-21.170654296875
0.0025,14.824462890625,8.017822265625,-22.091552734375
0.003,11.661376953125,11.461181640625,-22.451904296875
0.0035,6.536376953125,15.505126953125,-21.571044921875
0.004,2.372314453125,18.227783203125,-20.249755859375
0.0045,-2.712646484375,20.429931640625,-17.767333984375
0.005,-6.716552734375,21.871337890625,-15.445068359375
0.0055,-9.919677734375,21.911376953125,-12.522216796875
0.006,-13.162841796875,22.071533203125,-9.599365234375
0.0065,-17.006591796875,20.990478515625,-4.874755859375
0.007,-19.729248046875,18.988525390625,-0.190185546875
0.0075,-21.490966796875,16.466064453125,4.053955078125
0.008,-22.612060546875,13.983642578125,7.657470703125
0.0085,-22.732177734375,10.620361328125,11.060791015625
0.009,-22.411865234375,6.416259765625,15.024658203125
0.0095,-21.450927734375,2.612548828125,17.787353515625
0.01,-19.408935546875,-1.951904296875,20.349853515625
0.0105,-16.806396484375,-6.075927734375,21.911376953125
0.011,-13.803466796875,-9.279052734375,22.231689453125
0.0115,-10.760498046875,-12.562255859375,22.592041015625
0.012,-5.195068359375,-16.646240234375,21.350830078125
0.0125,-0.470458984375,-19.208740234375,19.348876953125
0.013,3.973876953125,-20.890380859375,16.906494140625
0.0135,7.737548828125,-22.211669921875,14.704345703125
0.014,11.220947265625,-22.051513671875,11.260986328125
0.0145,14.464111328125,-21.651123046875,7.817626953125
0.015,17.867431640625,-20.650146484375,3.573486328125
0.0155,20.469970703125,-18.207763671875,-1.471435546875
0.016,21.911376953125,-15.685302734375,-5.395263671875
0.0165,22.552001953125,-12.882568359375,-8.758544921875
0.017,22.752197265625,-9.879638671875,-12.001708984375
0.0175,22.031494140625,-5.114990234375,-16.165771484375
0.018,20.670166015625,-1.271240234375,-18.568115234375
0.0185,18.427978515625,3.052978515625,-20.650146484375
0.019,15.985595703125,7.016845703125,-22.171630859375
0.0195,12.342041015625,10.340087890625,-21.931396484375
0.02,8.978759765625,13.743408203125,-22.091552734375
0.0205,3.853759765625,17.427001953125,-20.930419921875
0.021,-1.551513671875,19.909423828125,-18.367919921875
0.0215,-5.315185546875,21.190673828125,-16.045654296875
0.022,-8.878662109375,22.151611328125,-13.723388671875
0.0225,-12.241943359375,22.071533203125,-10.480224609375
0.023,-16.005615234375,21.110595703125,-5.955810546875
0.0235,-18.728271484375,19.869384765625,-2.031982421875
0.024,-21.010498046875,17.306884765625,2.732666015625
0.0245,-22.251708984375,14.744384765625,6.456298828125
0.025,-22.451904296875,11.501220703125,9.899658203125
0.0255,-22.572021484375,8.378173828125,13.142822265625
0.026,-21.731201171875,3.773681640625,17.026611328125
0.0265,-19.849365234375,-0.670654296875,19.509033203125
0.027,-17.447021484375,-4.514404296875,20.990478515625
0.0275,-15.124755859375,-8.117919921875,22.391845703125
0.028,-11.401123046875,-11.441162109375,22.071533203125
0.0285,-6.996826171875,-15.084716796875,21.470947265625
0.029,-2.592529296875,-18.007568359375,20.189697265625
0.0295,2.732666015625,-20.249755859375,17.427001953125
0.03,6.376220703125,-21.290771484375,15.104736328125
0.0305,9.659423828125,-21.691162109375,12.382080078125
0.031,12.782470703125,-21.731201171875,9.539306640625
0.0315,16.586181640625,-20.449951171875,4.614501953125
0.032,19.068603515625,-18.568115234375,0.370361328125
0.0325,20.790283203125,-16.325927734375,-3.713623046875
0.033,21.831298828125,-13.843505859375,-7.156982421875
0.0335,21.751220703125,-10.520263671875,-10.400146484375
0.034,21.551025390625,-6.996826171875,-13.803466796875
0.0345,20.750244140625,-3.072998046875,-16.846435546875
0.035,18.548095703125,1.531494140625,-19.248779296875
0.0355,16.145751953125,5.094970703125,-20.409912109375
0.036,13.583251953125,8.458251953125,-21.290771484375
0.0365,10.380126953125,11.541259765625,-21.330810546875
0.037,5.255126953125,15.385009765625,-20.209716796875
0.0375,1.131103515625,17.867431640625,-18.728271484375
0.038,-3.353271484375,19.709228515625,-16.365966796875
0.0385,-6.756591796875,20.750244140625,-14.243896484375
0.039,-10.119873046875,20.750244140625,-11.160888671875
0.0395,-13.082763671875,20.670166015625,-8.278076171875
0.04,-16.526123046875,19.589111328125,-3.913818359375
0.0405,-18.928466796875,17.266845703125,0.770751953125
0.041,-20.289794921875,15.104736328125,4.214111328125
0.0415,-21.170654296875,12.662353515625,7.537353515625
0.042,-21.210693359375,9.619384765625,10.660400390625
0.0425,-20.730224609375,5.455322265625,14.384033203125
0.043,-19.809326171875,1.931884765625,16.986572265625
0.0435,-17.767333984375,-2.432373046875,19.228759765625
0.044,-15.405029296875,-5.835693359375,20.429931640625
0.0445,-12.482177734375,-9.078857421875,20.750244140625
0.045,-9.439208984375,-12.241943359375,20.990478515625
0.0455,-4.274169921875,-15.885498046875,19.629150390625
0.046,0.490478515625,-18.127685546875,17.467041015625
0.0465,4.134033203125,-19.609130859375,15.545166015625
0.047,7.457275390625,-20.610107421875,13.423095703125
0.0475,10.660400390625,-20.530029296875,10.300048828125
0.048,14.023681640625,-20.009521484375,6.616455078125
0.0485,16.906494140625,-18.968505859375,2.732666015625
0.049,19.228759765625,-16.606201171875,-1.911865234375
0.0495,20.269775390625,-14.404052734375,-5.114990234375
0.05,20.870361328125,-11.681396484375,-8.318115234375
0.0505,20.910400390625,-8.678466796875,-11.481201171875
0.051,20.189697265625,-4.434326171875,-15.004638671875
0.0515,18.708251953125,-0.590576171875,-17.366943359375
0.052,16.786376953125,3.333251953125,-19.248779296875
0.0525,14.384033203125,6.696533203125,-20.409912109375
0.053,11.140869140625,9.939697265625,-20.409912109375
0.0535,7.377197265625,13.383056640625,-20.249755859375
0.054,2.852783203125,16.506103515625,-19.088623046875
0.0545,-2.031982421875,18.588134765625,-16.526123046875
0.055,-5.155029296875,19.709228515625,-14.684326171875
0.0555,-8.478271484375,20.469970703125,-12.362060546875
0.056,-11.601318359375,20.349853515625,-9.319091796875
0.0565,-15.124755859375,19.428955078125,-5.155029296875
0.057,-17.647216796875,17.947509765625,-1.151123046875
0.0575,-19.689208984375,15.625244140625,3.052978515625
0.058,-20.489990234375,13.343017578125,6.256103515625
0.0585,-20.850341796875,10.300048828125,9.619384765625
0.059,-20.810302734375,7.016845703125,12.862548828125
0.0595,-20.009521484375,3.052978515625,16.105712890625
0.06,-17.927490234375,-1.271240234375,18.267822265625
0.0605,-15.925537109375,-4.714599609375,19.709228515625
0.061,-13.483154296875,-7.997802734375,20.710205078125
0.0615,-10.079833984375,-11.160888671875,20.550048828125
0.062,-5.715576171875,-14.604248046875,19.829345703125
0.0625,-1.271240234375,-17.366943359375,18.307861328125
0.063,3.453369140625,-19.288818359375,15.825439453125
0.0635,6.416259765625,-20.049560546875,13.823486328125
0.064,9.739501953125,-20.489990234375,11.180908203125
0.0645,12.862548828125,-20.289794921875,7.937744140625
0.065,16.145751953125,-19.208740234375,3.773681640625
0.0655,18.468017578125,-17.166748046875,-0.630615234375
0.066,20.109619140625,-15.004638671875,-4.314208984375
0.0665,20.710205078125,-12.482177734375,-7.437255859375
0.067,20.790283203125,-9.319091796875,-10.640380859375
0.0675,20.349853515625,-5.635498046875,-13.963623046875
0.068,19.388916015625,-1.791748046875,-16.806396484375
0.0685,17.146728515625,2.532470703125,-18.848388671875
0.069,14.904541015625,5.695556640625,-19.849365234375
0.0695,12.261962890625,8.978759765625,-20.570068359375
0.07,8.538330078125,12.342041015625,-20.369873046875
0.0705,4.013916015625,15.505126953125,-19.208740234375
0.071,-0.510498046875,17.867431640625,-17.326904296875
0.0715,-4.474365234375,19.509033203125,-15.244873046875
0.072,-7.437255859375,20.109619140625,-13.002685546875
0.0725,-10.640380859375,20.309814453125,-10.199951171875
0.073,-14.043701171875,19.829345703125,-6.556396484375
0.0735,-16.966552734375,18.508056640625,-2.472412109375
0.074,-19.048583984375,16.225830078125,1.931884765625
0.0745,-20.289794921875,14.143798828125,5.255126953125
0.075,-20.850341796875,11.461181640625,8.498291015625
0.0755,-20.810302734375,7.977783203125,11.901611328125
0.076,-20.129638671875,4.214111328125,15.064697265625
0.0765,-18.768310546875,0.330322265625,17.587158203125
0.077,-16.606201171875,-3.833740234375,19.509033203125
0.0775,-14.163818359375,-6.796630859375,20.189697265625
0.078,-11.401123046875,-9.959716796875,20.630126953125
0.0785,-7.237060546875,-13.523193359375,20.189697265625
0.079,-2.632568359375,-16.486083984375,18.708251953125
0.0795,1.931884765625,-18.407958984375,16.385986328125
0.08,5.375244140625,-19.809326171875,14.584228515625
0.0805,8.458251953125,-20.249755859375,12.101806640625
0.081,11.581298828125,-20.169677734375,9.018798828125
0.0815,14.864501953125,-19.529052734375,5.255126953125
0.082,17.547119140625,-17.807373046875,1.091064453125
0.0825,19.468994140625,-15.525146484375,-3.193115234375
0.083,20.189697265625,-13.202880859375,-6.115966796875
0.0835,20.670166015625,-10.520263671875,-9.359130859375
0.084,20.429931640625,-6.756591796875,-12.842529296875
0.0845,19.549072265625,-3.113037109375,-15.685302734375
0.085,17.667236328125,0.890869140625,-17.767333984375
0.0855,15.705322265625,4.614501953125,-19.529052734375
0.086,12.942626953125,7.657470703125,-19.969482421875
0.0865,9.939697265625,10.780517578125,-20.169677734375
0.087,5.735595703125,14.263916015625,-19.529052734375
0.0875,1.131103515625,16.986572265625,-17.927490234375
0.088,-3.113037109375,18.668212890625,-15.565185546875
0.0885,-6.115966796875,19.589111328125,-13.803466796875
0.089,-9.319091796875,20.069580078125,-11.240966796875
0.0895,-12.642333984375,19.589111328125,-7.717529296875
0.09,-15.525146484375,18.828369140625,-4.114013671875
0.0905,-17.967529296875,16.826416015625,0.250244140625
0.091,-19.729248046875,14.744384765625,4.134033203125
0.0915,-20.169677734375,12.181884765625,7.056884765625
0.092,-20.530029296875,9.419189453125,10.219970703125
0.0925,-20.129638671875,5.455322265625,13.743408203125
0.093,-19.088623046875,1.691650390625,16.506103515625
0.0935,-16.886474609375,-2.272216796875,18.267822265625
0.094,-15.004638671875,-5.515380859375,19.709228515625
0.0945,-12.241943359375,-8.678466796875,20.149658203125
0.095,-8.518310546875,-11.921630859375,19.869384765625
0.0955,-4.554443359375,-14.884521484375,18.948486328125
0.096,0.250244140625,-17.447021484375,16.986572265625
0.0965,4.134033203125,-19.048583984375,14.864501953125
0.097,6.976806640625,-19.569091796875,12.782470703125
0.0975,9.979736328125,-20.009521484375,10.420166015625
0.098,13.583251953125,-19.288818359375,6.336181640625
0.0985,16.225830078125,-18.087646484375,2.612548828125
0.099,18.227783203125,-16.045654296875,-1.431396484375
0.0995,19.709228515625,-14.083740234375,-4.874755859375
0.1,19.989501953125,-11.401123046875,-7.797607421875
0.1005,20.069580078125,-8.197998046875,-11.080810546875
0.101,19.549072265625,-4.674560546875,-14.083740234375
0.1015,18.187744140625,-0.710693359375,-16.766357421875
0.102,15.985595703125,3.173095703125,-18.407958984375
0.1025,13.783447265625,6.095947265625,-19.208740234375
0.103,11.301025390625,9.138916015625,-19.889404296875
0.1035,6.816650390625,12.902587890625,-19.248779296875
0.104,3.052978515625,15.465087890625,-18.207763671875
0.1045,-1.431396484375,17.507080078125,-16.125732421875
0.105,-4.994873046875,19.068603515625,-14.323974609375
0.1055,-7.837646484375,19.308837890625,-11.881591796875
0.106,-10.760498046875,19.589111328125,-9.399169921875
0.1065,-14.283935546875,18.948486328125,-5.435302734375
0.107,-16.846435546875,17.306884765625,-1.271240234375
0.1075,-18.568115234375,15.224853515625,2.532470703125
0.108,-19.689208984375,13.102783203125,5.695556640625
0.1085,-20.049560546875,10.420166015625,8.778564453125
0.109,-19.889404296875,6.616455078125,12.422119140625
0.1095,-19.208740234375,3.333251953125,15.064697265625
0.11,-17.527099609375,-0.750732421875,17.427001953125
0.1105,-15.445068359375,-4.474365234375,19.108642578125
0.111,-12.842529296875,-7.317138671875,19.428955078125
0.1115,-10.440185546875,-10.239990234375,19.989501953125
0.112,-5.715576171875,-14.043701171875,19.188720703125
0.1125,-1.311279296875,-16.606201171875,17.507080078125
0.113,2.652587890625,-18.247802734375,15.465087890625
0.1135,5.935791015625,-19.529052734375,13.783447265625
0.114,9.018798828125,-19.689208984375,11.020751953125
0.1145,12.221923828125,-19.489013671875,7.777587890625
0.115,15.264892578125,-18.808349609375,4.214111328125
0.1155,17.787353515625,-16.806396484375,-0.270263671875
0.116,19.348876953125,-14.724365234375,-3.873779296875
0.1165,19.909423828125,-12.281982421875,-6.876708984375
0.117,20.389892578125,-9.759521484375,-9.879638671875
0.1175,19.869384765625,-5.435302734375,-13.723388671875
0.118,18.868408203125,-1.951904296875,-16.165771484375
0.1185,16.946533203125,1.931884765625,-18.047607421875
0.119,14.944580078125,5.495361328125,-19.729248046875
0.1195,11.821533203125,8.578369140625,-19.769287109375
0.12,8.618408203125,11.821533203125,-19.929443359375
0.1205,4.334228515625,15.184814453125,-19.128662109375
0.121,-0.590576171875,17.627197265625,-16.966552734375
0.1215,-4.114013671875,19.028564453125,-15.004638671875
0.122,-7.277099609375,19.869384765625,-12.962646484375
0.1225,-10.320068359375,20.149658203125,-10.360107421875
0.123,-14.043701171875,19.348876953125,-6.035888671875
0.1235,-16.646240234375,18.267822265625,-2.512451171875
0.124,-18.728271484375,16.145751953125,1.771728515625
0.1245,-20.209716796875,14.023681640625,5.255126953125
0.125,-20.369873046875,11.060791015625,8.378173828125
0.1255,-20.650146484375,8.218017578125,11.541259765625
0.126,-20.009521484375,4.134033203125,15.064697265625
0.1265,-18.447998046875,0.010009765625,17.547119140625
0.127,-16.205810546875,-3.633544921875,18.948486328125
0.1275,-14.243896484375,-6.916748046875,20.309814453125
0.128,-11.080810546875,-9.959716796875,20.349853515625
0.1285,-6.756591796875,-13.603271484375,19.789306640625
0.129,-2.832763671875,-16.365966796875,18.748291015625
0.1295,2.052001953125,-18.568115234375,16.385986328125
0.13,5.495361328125,-19.729248046875,14.384033203125
0.1305,8.578369140625,-20.049560546875,11.821533203125
0.131,11.461181640625,-20.329833984375,9.379150390625
0.1315,15.184814453125,-19.288818359375,4.814697265625
0.132,17.627197265625,-17.607177734375,0.730712890625
0.1325,19.308837890625,-15.525146484375,-3.032958984375
0.133,20.469970703125,-13.282958984375,-6.356201171875
0.1335,20.469970703125,-10.199951171875,-9.479248046875
0.134,20.349853515625,-6.716552734375,-12.842529296875
0.1345,19.709228515625,-3.193115234375,-15.765380859375
0.135,17.787353515625,1.211181640625,-18.127685546875
0.1355,15.505126953125,4.654541015625,-19.408935546875
0.136,12.982666015625,7.817626953125,-20.169677734375
0.1365,10.099853515625,10.860595703125,-20.449951171875
0.137,5.094970703125,14.704345703125,-19.368896484375
0.1375,1.010986328125,17.146728515625,-17.927490234375
0.138,-3.193115234375,18.908447265625,-15.765380859375
0.1385,-6.556396484375,20.109619140625,-13.803466796875
0.139,-9.799560546875,20.109619140625,-10.760498046875
0.1395,-12.802490234375,19.989501953125,-7.837646484375
0.14,-16.085693359375,19.028564453125,-3.753662109375
0.1405,-18.528076171875,16.786376953125,0.930908203125
0.141,-19.809326171875,14.704345703125,4.254150390625
0.1415,-20.650146484375,12.221923828125,7.537353515625
0.142,-20.690185546875,9.259033203125,10.540283203125
0.1425,-20.209716796875,5.054931640625,14.263916015625
0.143,-19.208740234375,1.531494140625,16.786376953125
0.1435,-17.206787109375,-2.592529296875,18.908447265625
0.144,-14.884521484375,-6.035888671875,20.109619140625
0.1445,-11.881591796875,-9.198974609375,20.349853515625
0.145,-8.838623046875,-12.322021484375,20.469970703125
0.1455,-3.873779296875,-15.845458984375,19.228759765625
0.146,0.930908203125,-18.087646484375,16.986572265625
0.1465,4.374267578125,-19.408935546875,15.064697265625
0.147,7.657470703125,-20.329833984375,12.942626953125
0.1475,10.820556640625,-20.249755859375,9.899658203125
0.148,14.143798828125,-19.609130859375,6.095947265625
0.1485,16.946533203125,-18.528076171875,2.292236328125
0.149,19.148681640625,-16.125732421875,-2.232177734375
0.1495,20.109619140625,-13.923583984375,-5.395263671875
0.15,20.550048828125,-11.160888671875,-8.598388671875
0.1505,20.590087890625,-8.238037109375,-11.561279296875
0.151,19.869384765625,-3.993896484375,-15.084716796875
0.1515,18.227783203125,0.010009765625,-17.366943359375
0.152,16.145751953125,3.453369140625,-19.088623046875
0.1525,13.943603515625,6.896728515625,-20.209716796875
0.153,10.620361328125,10.099853515625,-20.169677734375
0.1535,6.856689453125,13.503173828125,-19.889404296875
0.154,2.532470703125,16.546142578125,-18.728271484375
0.1545,-2.432373046875,18.588134765625,-16.205810546875
0.155,-5.475341796875,19.589111328125,-14.283935546875
0.1555,-8.718505859375,20.229736328125,-11.961669921875
0.156,-11.801513671875,20.149658203125,-8.998779296875
0.1565,-15.244873046875,19.228759765625,-4.754638671875
0.157,-17.727294921875,17.627197265625,-0.790771484375
0.1575,-19.609130859375,15.385009765625,3.333251953125
0.158,-20.449951171875,13.022705078125,6.456298828125
0.1585,-20.690185546875,9.939697265625,9.859619140625
0.159,-20.570068359375,6.616455078125,13.022705078125
0.1595,-19.849365234375,2.692626953125,16.185791015625
0.16,-17.767333984375,-1.751708984375,18.387939453125
0.1605,-15.645263671875,-4.994873046875,19.709228515625
0.161,-13.242919921875,-8.278076171875,20.670166015625
0.1615,-9.759521484375,-11.481201171875,20.469970703125
0.162,-5.275146484375,-14.884521484375,19.629150390625
0.1625,-0.950927734375,-17.527099609375,18.147705078125
0.163,3.693603515625,-19.408935546875,15.705322265625
0.1635,6.696533203125,-20.129638671875,13.663330078125
0.164,9.979736328125,-20.489990234375,10.900634765625
0.1645,13.142822265625,-20.209716796875,7.617431640625
0.165,16.385986328125,-19.088623046875,3.453369140625
0.1655,18.668212890625,-16.966552734375,-0.990966796875
0.166,20.189697265625,-14.804443359375,-4.514404296875
0.1665,20.790283203125,-12.281982421875,-7.717529296875
0.167,20.830322265625,-8.998779296875,-11.040771484375
0.1675,20.309814453125,-5.275146484375,-14.283935546875
0.168,19.388916015625,-1.551513671875,-17.166748046875
0.1685,17.106689453125,2.852783203125,-19.168701171875
0.169,14.744384765625,5.855712890625,-20.129638671875
0.1695,12.101806640625,9.299072265625,-20.770263671875
0.17,8.137939453125,12.862548828125,-20.489990234375
0.1705,3.653564453125,16.025634765625,-19.328857421875
0.171,-0.990966796875,18.307861328125,-17.286865234375
0.1715,-4.874755859375,19.989501953125,-15.244873046875
0.172,-7.957763671875,20.469970703125,-12.922607421875
0.1725,-11.240966796875,20.550048828125,-9.959716796875
0.173,-14.684326171875,20.029541015625,-6.115966796875
0.1735,-17.567138671875,18.628173828125,-1.991943359375
0.174,-19.649169921875,16.305908203125,2.492431640625
0.1745,-20.770263671875,14.103759765625,5.775634765625
0.175,-21.330810546875,11.260986328125,9.098876953125
0.1755,-21.210693359375,7.657470703125,12.662353515625
0.176,-20.449951171875,3.733642578125,15.745361328125
0.1765,-18.928466796875,-0.310302734375,18.267822265625
0.177,-16.726318359375,-4.554443359375,20.229736328125
0.1775,-14.083740234375,-7.517333984375,20.790283203125
0.178,-11.160888671875,-10.760498046875,21.150634765625
0.1785,-6.756591796875,-14.444091796875,20.630126953125
0.179,-2.072021484375,-17.406982421875,19.068603515625
0.1795,2.612548828125,-19.288818359375,16.586181640625
0.18,6.135986328125,-20.650146484375,14.664306640625
0.1805,9.419189453125,-21.010498046875,11.981689453125
0.181,12.662353515625,-20.730224609375,8.658447265625
