wavelength,x,y,z
0.0,11.5712890625,-4.484375,-7.5673828125
0.0005,11.8115234375,-6.9267578125,-5.205078125
0.001,11.05078125,-8.4482421875,-3.0029296875
0.0015,10.5703125,-9.8896484375,-1.041015625
0.002,9.8896484375,-11.130859375,1.1611328125
0.0025,7.927734375,-10.5703125,2.6826171875
0.003,6.6865234375,-10.73046875,4.1240234375
0.0035,3.8837890625,-10.4501953125,6.6865234375
0.004,1.76171875,-9.5693359375,7.9677734375
0.0045,-0.5205078125,-9.2890625,9.9697265625
0.005,-2.5625,-7.9677734375,10.73046875
0.0055,-3.8037109375,-6.6064453125,10.6103515625
0.006,-6.1259765625,-4.64453125,11.05078125
0.0065,-8.328125,-2.1220703125,10.73046875
0.007,-9.5693359375,0.0400390625,9.8896484375
0.0075,-11.37109375,1.8017578125,9.9296875
0.008,-11.53125,3.8037109375,8.0078125
0.0085,-11.53125,4.9248046875,6.8466796875
0.009,-11.69140625,7.3671875,4.484375
0.0095,-10.890625,8.6884765625,2.2021484375
0.01,-10.2900390625,9.9296875,0.48046875
0.0105,-9.4892578125,11.0107421875,-1.6015625
0.011,-7.4072265625,10.3701171875,-3.203125
0.0115,-5.92578125,10.3701171875,-4.7646484375
0.012,-3.203125,10.1298828125,-7.2470703125
0.0125,-1.12109375,9.0888671875,-8.328125
0.013,0.880859375,8.8486328125,-10.1298828125
0.0135,2.9228515625,7.4072265625,-10.7705078125
0.014,4.404296875,5.8056640625,-10.6103515625
0.0145,6.8466796875,3.6435546875,-10.9306640625
0.015,8.888671875,1.201171875,-10.4501953125
0.0155,9.8896484375,-0.8408203125,-9.5693359375
0.016,11.451171875,-2.322265625,-9.609375
0.0165,11.4912109375,-4.3642578125,-7.607421875
0.017,11.37109375,-5.765625,-6.0859375
0.0175,11.5712890625,-8.2080078125,-3.8037109375
0.018,10.490234375,-9.2490234375,-1.44140625
0.0185,9.9296875,-10.25,0.16015625
0.019,8.96875,-11.05078125,2.1220703125
0.0195,6.6865234375,-10.41015625,3.8037109375
0.02,4.96484375,-10.330078125,5.525390625
0.0205,2.40234375,-10.1298828125,7.927734375
0.021,0.240234375,-8.8486328125,8.80859375
0.0215,-1.44140625,-8.6884765625,10.3701171875
0.022,-3.5634765625,-7.046875,10.8505859375
0.0225,-5.1650390625,-5.205078125,10.6103515625
0.023,-7.7275390625,-2.9228515625,10.890625
0.0235,-9.5693359375,-0.400390625,10.2099609375
0.024,-10.2900390625,1.3212890625,9.2890625
0.0245,-11.611328125,2.642578125,9.2490234375
0.025,-11.451171875,4.724609375,7.046875
0.0255,-11.2509765625,6.2060546875,5.1650390625
0.026,-11.4912109375,8.6484375,2.9228515625
0.0265,-10.08984375,9.4892578125,0.640625
0.027,-9.6494140625,10.25,-0.720703125
0.0275,-8.4482421875,10.890625,-2.6025390625
0.028,-5.9658203125,10.1298828125,-4.3642578125
0.0285,-4.2041015625,10.009765625,-6.166015625
0.029,-1.6416015625,9.7294921875,-8.48828125
0.0295,0.4404296875,8.328125,-9.12890625
0.03,1.8017578125,8.248046875,-10.41015625
0.0305,3.9638671875,6.40625,-10.7705078125
0.031,5.7255859375,4.32421875,-10.490234375
0.0315,8.2880859375,1.9619140625,-10.6904296875
0.032,9.9296875,-0.5205078125,-9.8095703125
0.0325,10.4501953125,-1.9619140625,-9.048828125
0.033,11.5712890625,-3.203125,-8.8486328125
0.0335,11.3310546875,-5.4052734375,-6.4462890625
0.034,11.05078125,-7.0068359375,-4.4443359375
0.0345,11.2509765625,-9.3291015625,-2.2021484375
0.035,9.6494140625,-9.8095703125,0.0400390625
0.0355,9.2490234375,-10.4501953125,1.12109375
0.036,7.8076171875,-10.7705078125,3.04296875
0.0365,5.2451171875,-10.0498046875,4.884765625
0.037,3.3232421875,-9.9697265625,6.8466796875
0.0375,0.7607421875,-9.4892578125,8.96875
0.038,-1.12109375,-8.087890625,9.4091796875
0.0385,-2.2822265625,-8.0078125,10.490234375
0.039,-4.484375,-5.9658203125,10.6103515625
0.0395,-6.2861328125,-3.8037109375,10.330078125
0.04,-8.9287109375,-1.361328125,10.5302734375
0.0405,-10.1298828125,0.9208984375,9.529296875
0.041,-10.5703125,1.9619140625,8.8486328125
0.0415,-11.451171875,3.4033203125,8.248046875
0.042,-11.0908203125,5.60546875,5.765625
0.0425,-10.8505859375,7.287109375,3.763671875
0.043,-10.890625,9.529296875,1.4814453125
0.0435,-9.2490234375,9.7294921875,-0.5205078125
0.044,-9.0087890625,10.2099609375,-1.4013671875
0.0445,-7.20703125,10.2900390625,-3.36328125
0.045,-4.724609375,9.609375,-5.1650390625
0.0455,-2.6826171875,9.609375,-7.2470703125
0.046,-0.240234375,8.888671875,-9.0087890625
0.0465,1.3212890625,7.6875,-9.369140625
0.047,2.482421875,7.4072265625,-10.2900390625
0.0475,4.7646484375,5.205078125,-10.3701171875
0.048,6.56640625,3.0830078125,-10.0498046875
0.0485,9.208984375,0.6005859375,-10.2099609375
0.049,10.08984375,-1.4814453125,-9.0888671875
0.0495,10.5302734375,-2.4423828125,-8.6484375
0.05,11.2109375,-4.0439453125,-7.607421875
0.0505,10.890625,-6.1259765625,-5.205078125
0.051,10.650390625,-7.84765625,-3.1630859375
0.0515,10.5302734375,-9.849609375,-0.9208984375
0.052,8.9287109375,-9.8095703125,0.8408203125
0.0525,8.6083984375,-10.25,1.6416015625
0.053,6.40625,-10.25,3.84375
0.0535,4.083984375,-9.6494140625,5.685546875
0.054,1.8818359375,-9.5693359375,7.8876953125
0.0545,-0.560546875,-8.6884765625,9.369140625
0.055,-1.76171875,-7.6875,9.609375
0.0555,-3.04296875,-7.0869140625,10.2900390625
0.056,-5.525390625,-4.6044921875,10.41015625
0.0565,-7.287109375,-2.5625,10.08984375
0.057,-9.7294921875,-0.16015625,10.169921875
0.0575,-10.41015625,1.7216796875,8.9287109375
0.058,-10.7705078125,2.6826171875,8.328125
0.0585,-11.291015625,4.64453125,6.88671875
0.059,-10.890625,6.6064453125,4.484375
0.0595,-10.5703125,8.2880859375,2.4423828125
0.06,-10.2900390625,10.0498046875,0.2802734375
0.0605,-8.6484375,9.8896484375,-1.361328125
0.061,-8.087890625,10.169921875,-2.2822265625
0.0615,-5.7255859375,10.08984375,-4.6845703125
0.062,-3.443359375,9.44921875,-6.3662109375
0.0625,-1.1611328125,9.2490234375,-8.48828125
0.063,1.12109375,8.328125,-9.76953125
0.0635,2.2421875,7.287109375,-9.8896484375
0.064,3.84375,6.24609375,-10.4501953125
0.0645,6.486328125,3.6435546875,-10.5302734375
0.065,7.9677734375,1.521484375,-9.9296875
0.0655,10.2099609375,-0.720703125,-10.08984375
0.066,10.8505859375,-2.5625,-8.6884765625
0.0665,11.0107421875,-3.68359375,-7.8076171875
0.067,11.4912109375,-5.845703125,-6.0458984375
0.0675,11.0107421875,-7.6875,-3.68359375
0.068,10.490234375,-8.96875,-1.76171875
0.0685,10.08984375,-10.6103515625,0.4404296875
0.069,8.16796875,-10.330078125,2.162109375
0.0695,7.287109375,-10.41015625,3.2431640625
0.07,4.64453125,-10.41015625,5.8857421875
0.0705,2.4423828125,-9.6494140625,7.3671875
0.071,0.2802734375,-9.2890625,9.2490234375
0.0715,-1.921875,-8.328125,10.41015625
0.072,-3.2431640625,-6.88671875,10.3701171875
0.0725,-5.125,-5.4453125,10.810546875
0.073,-7.7275390625,-2.8427734375,10.810546875
0.0735,-8.96875,-0.720703125,9.8896484375
0.074,-10.890625,1.2412109375,9.9697265625
0.0745,-11.4111328125,3.2431640625,8.4482421875
0.075,-11.4111328125,4.5244140625,7.126953125
0.0755,-11.69140625,6.7666015625,5.0849609375
0.076,-11.1708984375,8.568359375,2.72265625
0.0765,-10.330078125,9.4892578125,0.9208984375
0.077,-9.9697265625,10.970703125,-1.12109375
0.0775,-7.8076171875,10.5302734375,-2.962890625
0.078,-6.486328125,10.4501953125,-4.244140625
0.0785,-3.8837890625,10.41015625,-6.88671875
0.079,-1.6015625,9.44921875,-8.2080078125
0.0795,0.4404296875,9.0087890625,-9.76953125
0.08,2.5625,7.9677734375,-10.890625
0.0805,4.2041015625,6.0859375,-10.7705078125
0.081,6.326171875,4.2841796875,-11.05078125
0.0815,8.8486328125,1.6015625,-11.0107421875
0.082,9.849609375,-0.640625,-9.7294921875
0.0825,11.4912109375,-2.08203125,-9.8896484375
0.083,11.8515625,-4.2041015625,-8.16796875
0.0835,11.6513671875,-5.6455078125,-6.4462890625
0.084,11.8515625,-7.927734375,-4.32421875
0.0845,11.1708984375,-9.609375,-1.841796875
0.085,10.08984375,-10.2099609375,0.0
0.0855,9.6494140625,-11.4912109375,1.8017578125
0.086,7.126953125,-10.9306640625,3.84375
0.0865,5.4453125,-10.6103515625,5.3251953125
0.087,2.8828125,-10.650390625,7.9677734375
0.0875,0.4404296875,-9.3291015625,9.1689453125
0.088,-1.3212890625,-8.888671875,10.41015625
0.0885,-3.443359375,-7.767578125,11.37109375
0.089,-5.28515625,-5.6455078125,11.130859375
0.0895,-7.52734375,-3.4833984375,11.2109375
0.09,-9.9697265625,-0.8408203125,11.05078125
0.0905,-10.5703125,1.4013671875,9.5693359375
0.091,-11.8916015625,2.5224609375,9.7294921875
0.0915,-12.171875,4.724609375,7.6875
0.092,-11.69140625,6.3662109375,5.60546875
0.0925,-11.8515625,8.6083984375,3.4033203125
0.093,-10.890625,10.1298828125,0.8408203125
0.0935,-9.7294921875,10.4501953125,-0.80078125
0.094,-9.2890625,11.4912109375,-2.40234375
0.0945,-6.56640625,10.810546875,-4.5244140625
0.095,-4.64453125,10.3701171875,-6.0859375
0.0955,-2.162109375,10.41015625,-8.6484375
0.096,0.400390625,8.8486328125,-9.609375
0.0965,1.8017578125,8.3681640625,-10.6103515625
0.097,3.84375,7.0869140625,-11.37109375
0.0975,5.7255859375,4.8046875,-11.05078125
0.098,8.1279296875,2.482421875,-11.0107421875
0.0985,10.3701171875,-0.2001953125,-10.7705078125
0.099,10.7705078125,-2.0419921875,-9.2490234375
0.0995,11.8916015625,-3.0029296875,-9.4091796875
0.1,12.01171875,-5.28515625,-7.1669921875
0.1005,11.4912109375,-6.966796875,-4.884765625
0.101,11.6513671875,-9.2890625,-2.6826171875
0.1015,10.490234375,-10.5302734375,-0.2001953125
0.102,9.369140625,-10.650390625,1.2412109375
0.1025,8.6884765625,-11.4111328125,2.802734375
0.103,5.8857421875,-10.73046875,4.96484375
0.1035,3.8037109375,-10.2900390625,6.6865234375
0.104,1.3212890625,-10.2900390625,9.208984375
0.1045,-1.041015625,-8.6484375,9.849609375
0.105,-2.162109375,-8.328125,10.6904296875
0.1055,-4.244140625,-6.7666015625,11.2109375
0.106,-6.24609375,-4.3642578125,10.8505859375
0.1065,-8.6884765625,-1.921875,10.8505859375
0.107,-10.6904296875,0.640625,10.3701171875
0.1075,-10.890625,2.2421875,8.96875
0.108,-11.8515625,3.2431640625,8.96875
0.1085,-11.8515625,5.60546875,6.4462890625
0.109,-11.291015625,7.20703125,4.2841796875
0.1095,-11.451171875,9.609375,1.9619140625
0.11,-10.1298828125,10.4501953125,-0.3603515625
0.1105,-9.12890625,10.5302734375,-1.4814453125
0.111,-8.16796875,11.0107421875,-3.0830078125
0.1115,-5.28515625,10.330078125,-5.3251953125
0.112,-3.1630859375,9.9697265625,-7.1669921875
0.1125,-0.640625,9.76953125,-9.4892578125
0.113,1.4814453125,8.1279296875,-10.009765625
0.1135,2.3623046875,7.84765625,-10.73046875
0.114,4.6845703125,6.005859375,-11.0908203125
0.1145,6.6064453125,3.6435546875,-10.650390625
0.115,9.0888671875,1.12109375,-10.6103515625
0.1155,10.8505859375,-1.28125,-10.08984375
0.116,11.0107421875,-2.6826171875,-8.80859375
0.1165,11.8115234375,-3.84375,-8.408203125
0.117,11.8115234375,-6.4462890625,-5.765625
0.1175,11.2109375,-7.8876953125,-3.68359375
0.118,11.2509765625,-10.25,-1.28125
0.1185,9.849609375,-10.890625,0.9609375
0.119,8.80859375,-10.7705078125,1.921875
0.1195,7.4873046875,-11.0908203125,3.763671875
0.12,4.5244140625,-10.490234375,6.0859375
0.1205,2.2822265625,-10.08984375,8.0078125
0.121,-0.3203125,-9.7294921875,10.2099609375
0.1215,-2.2021484375,-8.16796875,10.4501953125
0.122,-3.123046875,-7.5673828125,10.890625
0.1225,-5.845703125,-5.28515625,11.37109375
0.123,-7.6875,-2.9228515625,10.8505859375
0.1235,-9.8896484375,-0.5205078125,10.6103515625
0.124,-11.4912109375,1.76171875,10.009765625
0.1245,-11.451171875,3.3232421875,8.48828125
0.125,-12.0517578125,4.64453125,7.6875
0.1255,-11.9716796875,7.3271484375,4.8447265625
0.126,-11.2509765625,8.5283203125,2.8427734375
0.1265,-11.0908203125,10.6103515625,0.48046875
0.127,-9.6494140625,11.130859375,-1.6416015625
0.1275,-8.328125,10.7705078125,-2.642578125
0.128,-6.6064453125,11.0107421875,-4.6845703125
0.1285,-3.763671875,10.330078125,-6.9267578125
0.129,-1.4814453125,9.689453125,-8.6484375
0.1295,0.9609375,9.2490234375,-10.6904296875
0.13,2.802734375,7.6474609375,-10.8505859375
0.1305,3.9638671875,6.6865234375,-11.0908203125
0.131,6.88671875,4.1640625,-11.4912109375
0.1315,8.568359375,1.76171875,-10.7705078125
0.132,10.3701171875,-0.48046875,-10.41015625
0.1325,11.8115234375,-2.5224609375,-9.8095703125
0.133,11.7314453125,-4.1640625,-8.0078125
0.1335,12.091796875,-5.60546875,-6.9267578125
0.134,12.01171875,-8.2080078125,-4.1240234375
0.1345,11.0107421875,-9.2490234375,-2.08203125
0.135,10.810546875,-11.0107421875,0.1201171875
0.1355,9.1689453125,-11.451171875,2.2421875
0.136,7.52734375,-10.890625,3.443359375
0.1365,5.60546875,-11.0908203125,5.6455078125
0.137,2.8427734375,-10.4501953125,7.8076171875
0.1375,0.6806640625,-9.6494140625,9.0888671875
0.138,-1.6015625,-9.208984375,11.0107421875
0.1385,-3.5634765625,-7.3671875,11.1708984375
0.139,-4.8447265625,-6.0859375,11.2109375
0.1395,-7.84765625,-3.443359375,11.53125
0.14,-9.369140625,-1.0009765625,10.6103515625
0.1405,-10.8505859375,1.0009765625,10.2099609375
0.141,-12.1318359375,2.9228515625,9.5693359375
0.1415,-11.8515625,4.6845703125,7.4873046875
0.142,-11.9716796875,6.2060546875,6.0458984375
0.1425,-11.931640625,8.728515625,3.3232421875
0.143,-10.650390625,9.529296875,1.2412109375
0.1435,-10.5302734375,11.0107421875,-0.640625
0.144,-8.728515625,11.37109375,-2.8427734375
0.1445,-6.8466796875,10.650390625,-4.0439453125
0.145,-4.8046875,10.7705078125,-6.326171875
0.1455,-2.1220703125,10.08984375,-8.4482421875
0.146,-0.1201171875,9.0888671875,-9.4091796875
0.1465,1.9619140625,8.728515625,-11.0908203125
0.147,4.00390625,6.6865234375,-11.1708984375
0.1475,5.5654296875,5.0849609375,-11.05078125
0.148,8.4482421875,2.5224609375,-11.4111328125
0.1485,9.849609375,0.0,-10.25
0.149,11.05078125,-1.76171875,-9.8095703125
0.1495,12.171875,-3.5234375,-9.12890625
0.15,11.8115234375,-5.3251953125,-6.9267578125
0.1505,11.8115234375,-7.046875,-5.1650390625
0.151,11.8115234375,-9.4892578125,-2.6025390625
0.1515,10.2099609375,-9.9697265625,-0.5205078125
0.152,10.08984375,-11.2509765625,1.0810546875
0.1525,8.1279296875,-11.37109375,3.283203125
0.153,6.005859375,-10.650390625,4.7646484375
0.1535,3.8837890625,-10.7705078125,7.046875
0.154,1.2412109375,-9.9697265625,8.9287109375
0.1545,-0.720703125,-8.8486328125,9.7294921875
0.155,-2.5224609375,-8.48828125,11.2109375
0.1555,-4.564453125,-6.2861328125,11.130859375
0.156,-6.3662109375,-4.3642578125,10.9306640625
0.1565,-9.12890625,-1.8017578125,11.2109375
0.157,-10.25,0.720703125,9.8896484375
0.1575,-11.2509765625,2.0419921875,9.609375
0.158,-12.1318359375,3.8037109375,8.6484375
0.1585,-11.6513671875,5.685546875,6.24609375
0.159,-11.5712890625,7.4873046875,4.32421875
0.1595,-11.4912109375,9.7294921875,1.841796875
0.16,-9.8095703125,9.9296875,-0.2001953125
0.1605,-9.689453125,11.0107421875,-1.44140625
0.161,-7.4873046875,10.8505859375,-3.603515625
0.1615,-5.3251953125,10.1298828125,-5.205078125
0.162,-3.203125,10.2900390625,-7.4873046875
0.1625,-0.560546875,9.2890625,-9.1689453125
0.163,1.1611328125,8.2880859375,-9.8095703125
0.1635,2.72265625,7.84765625,-11.0107421875
0.164,4.8447265625,5.60546875,-10.890625
0.1645,6.7666015625,3.443359375,-10.650390625
0.165,9.4892578125,0.9609375,-10.8505859375
0.1655,10.2900390625,-1.361328125,-9.4091796875
0.166,11.1708984375,-2.3623046875,-9.2890625
0.1665,11.8115234375,-4.2041015625,-8.0478515625
0.167,11.37109375,-6.1259765625,-5.6455078125
0.1675,11.291015625,-8.0478515625,-3.5634765625
0.168,10.970703125,-10.0498046875,-1.1611328125
0.1685,9.369140625,-10.1298828125,0.640625
0.169,9.2490234375,-11.0107421875,1.7216796875
0.1695,6.8466796875,-10.7705078125,3.923828125
0.17,4.5244140625,-10.0498046875,5.6455078125
0.1705,2.3623046875,-10.2099609375,8.0078125
0.171,-0.3203125,-9.0087890625,9.44921875
0.1715,-1.6416015625,-8.16796875,9.9697265625
0.172,-3.203125,-7.447265625,10.890625
0.1725,-5.4052734375,-5.125,10.73046875
0.173,-7.4072265625,-2.8427734375,10.490234375
0.1735,-9.9697265625,-0.3603515625,10.5703125
0.174,-10.4501953125,1.6416015625,9.12890625
0.1745,-11.2109375,2.5224609375,9.0087890625
0.175,-11.611328125,4.484375,7.3671875
0.1755,-11.1708984375,6.4462890625,4.96484375
0.176,-11.130859375,8.4482421875,2.802734375
0.1765,-10.5703125,10.169921875,0.48046875
0.177,-9.048828125,10.009765625,-1.1611328125
0.1775,-8.80859375,10.650390625,-2.162109375
0.178,-6.2060546875,10.3701171875,-4.4443359375
0.1785,-3.8837890625,9.7294921875,-6.166015625
0.179,-1.681640625,9.8095703125,-8.48828125
0.1795,0.80078125,8.4482421875,-9.6494140625
0.18,1.921875,7.767578125,-10.0498046875
0.1805,3.5634765625,6.7265625,-10.7705078125
0.181,5.8857421875,4.2841796875,-10.5703125
0.1815,7.8876953125,1.9619140625,-10.2900390625
0.182,10.2900390625,-0.5205078125,-10.25
0.1825,10.5703125,-2.2421875,-8.8486328125
0.183,11.2109375,-3.0830078125,-8.6484375
0.1835,11.5712890625,-5.3251953125,-6.646484375
0.184,11.0107421875,-7.046875,-4.3642578125
0.1845,10.9306640625,-9.12890625,-2.1220703125
0.185,10.2099609375,-10.5703125,0.2001953125
0.1855,8.6884765625,-10.25,1.521484375
0.186,8.0478515625,-10.650390625,2.6025390625
0.1865,5.3251953125,-10.330078125,5.125
0.187,3.0830078125,-9.7294921875,6.8466796875
0.1875,0.6806640625,-9.6494140625,9.208984375
0.188,-1.521484375,-8.328125,9.9697265625
0.1885,-2.4423828125,-7.607421875,10.2099609375
0.189,-4.4443359375,-6.1259765625,10.810546875
0.1895,-6.7265625,-3.603515625,10.5703125
0.19,-8.48828125,-1.44140625,10.2099609375
0.1905,-10.650390625,0.880859375,10.08984375
0.191,-10.810546875,2.5224609375,8.568359375
0.1915,-11.291015625,3.5234375,8.087890625
0.192,-11.53125,5.9658203125,5.765625
0.1925,-10.890625,7.3671875,3.68359375
0.193,-10.650390625,9.2890625,1.4814453125
0.1935,-9.8095703125,10.4501953125,-0.720703125
0.194,-8.328125,10.08984375,-1.9619140625
0.1945,-7.3671875,10.3701171875,-3.283203125
0.195,-4.564453125,10.0498046875,-5.765625
0.1955,-2.482421875,9.4091796875,-7.3271484375
0.196,-0.16015625,9.208984375,-9.44921875
0.1965,1.8818359375,7.8076171875,-10.0498046875
0.197,2.802734375,7.046875,-10.2099609375
0.1975,5.125,5.125,-10.6904296875
0.198,7.2470703125,2.6826171875,-10.330078125
0.1985,8.888671875,0.6005859375,-9.8896484375
0.199,10.73046875,-1.44140625,-9.76953125
0.1995,10.8505859375,-3.203125,-8.16796875
0.2,11.1708984375,-4.244140625,-7.3671875
0.2005,11.37109375,-6.7666015625,-4.96484375
0.201,10.6103515625,-8.0078125,-2.962890625
0.2015,10.3701171875,-9.5693359375,-1.0009765625
0.202,9.369140625,-10.5703125,1.12109375
0.2025,7.6875,-10.1298828125,2.40234375
0.203,6.40625,-10.2900390625,4.00390625
0.2035,3.763671875,-9.9697265625,6.3662109375
0.204,1.7216796875,-9.2490234375,7.6875
0.2045,-0.5205078125,-9.0087890625,9.6494140625
0.205,-2.3623046875,-7.5673828125,10.169921875
0.2055,-3.4833984375,-6.5263671875,10.2099609375
0.206,-6.0458984375,-4.404296875,10.650390625
0.2065,-7.8876953125,-2.08203125,10.2099609375
0.207,-9.2890625,0.0,9.609375
0.2075,-10.890625,1.7216796875,9.44921875
0.208,-10.890625,3.5234375,7.6875
0.2085,-11.05078125,4.64453125,6.646484375
0.209,-11.2509765625,7.1669921875,4.244140625
0.2095,-10.330078125,8.248046875,2.2421875
0.21,-10.1298828125,9.609375,0.48046875
0.2105,-8.96875,10.41015625,-1.5615234375
0.211,-7.2470703125,9.8896484375,-2.8427734375
0.2115,-5.685546875,9.9697265625,-4.64453125
0.212,-3.1630859375,9.689453125,-6.9267578125
0.2125,-1.1611328125,8.80859375,-8.0078125
0.213,0.8408203125,8.6484375,-9.8095703125
0.2135,2.7626953125,7.046875,-10.2099609375
0.214,4.083984375,5.7255859375,-10.25
0.2145,6.6865234375,3.4833984375,-10.6103515625
0.215,8.4482421875,1.0810546875,-9.9697265625
0.2155,9.6494140625,-0.80078125,-9.3291015625
0.216,11.0908203125,-2.3623046875,-9.1689453125
0.2165,11.0107421875,-4.2041015625,-7.287109375
0.217,11.0107421875,-5.6455078125,-5.8056640625
0.2175,11.2509765625,-8.0478515625,-3.5634765625
0.218,10.0498046875,-8.9287109375,-1.361328125
0.2185,9.849609375,-10.1298828125,0.16015625
0.219,8.48828125,-10.6904296875,2.162109375
0.2195,6.5263671875,-10.08984375,3.6435546875
0.22,4.724609375,-10.1298828125,5.5654296875
0.2205,2.2021484375,-9.76953125,7.8076171875
0.221,0.2001953125,-8.6083984375,8.6484375
0.2215,-1.5615234375,-8.48828125,10.2099609375
0.222,-3.603515625,-6.7265625,10.5302734375
0.2225,-5.205078125,-4.96484375,10.3701171875
0.223,-7.8876953125,-2.642578125,10.7705078125
0.2235,-9.4091796875,-0.16015625,9.849609375
0.224,-10.25,1.2412109375,9.0888671875
