wavelength,x,y,z
0.0,2.78271484375,-2.70263671875,-0.62060546875
0.0005,2.26220703125,-2.74267578125,0.06005859375
0.001,1.78173828125,-2.82275390625,0.78076171875
0.0015,1.22119140625,-2.90283203125,1.54150390625
0.002,0.78076171875,-2.70263671875,1.98193359375
0.0025,0.42041015625,-2.58251953125,2.42236328125
0.003,-0.14013671875,-2.30224609375,2.62255859375
0.0035,-0.78076171875,-1.70166015625,2.78271484375
0.004,-1.46142578125,-1.22119140625,3.06298828125
0.0045,-2.02197265625,-0.70068359375,3.14306640625
0.005,-2.42236328125,-0.30029296875,3.18310546875
0.0055,-2.58251953125,0.06005859375,3.02294921875
0.006,-2.66259765625,0.58056640625,2.58251953125
0.0065,-2.74267578125,1.10107421875,2.14208984375
0.007,-2.90283203125,1.70166015625,1.58154296875
0.0075,-2.94287109375,2.06201171875,1.14111328125
0.008,-2.94287109375,2.46240234375,0.66064453125
0.0085,-2.78271484375,2.58251953125,0.14013671875
0.009,-2.30224609375,2.58251953125,-0.54052734375
0.0095,-1.90185546875,2.74267578125,-1.26123046875
0.01,-1.30126953125,2.82275390625,-1.98193359375
0.0105,-0.90087890625,2.74267578125,-2.50244140625
0.011,-0.50048828125,2.62255859375,-2.90283203125
0.0115,0.14013671875,2.26220703125,-3.18310546875
0.012,0.86083984375,1.70166015625,-3.42333984375
0.0125,1.66162109375,1.14111328125,-3.70361328125
0.013,2.14208984375,0.66064453125,-3.78369140625
0.0135,2.58251953125,0.22021484375,-3.82373046875
0.014,2.74267578125,-0.26025390625,-3.54345703125
0.0145,2.82275390625,-0.82080078125,-3.02294921875
0.015,2.98291015625,-1.42138671875,-2.54248046875
0.0155,3.10302734375,-2.10205078125,-1.86181640625
0.016,3.06298828125,-2.46240234375,-1.34130859375
0.0165,2.98291015625,-2.78271484375,-0.82080078125
0.017,2.58251953125,-2.82275390625,-0.30029296875
0.0175,1.98193359375,-2.86279296875,0.50048828125
0.018,1.54150390625,-2.94287109375,1.30126953125
0.0185,0.94091796875,-2.86279296875,1.94189453125
0.019,0.58056640625,-2.78271484375,2.38232421875
0.0195,0.06005859375,-2.46240234375,2.62255859375
0.02,-0.62060546875,-1.94189453125,2.82275390625
0.0205,-1.34130859375,-1.34130859375,3.06298828125
0.021,-2.06201171875,-0.78076171875,3.22314453125
0.0215,-2.38232421875,-0.38037109375,3.18310546875
0.022,-2.62255859375,0.06005859375,3.06298828125
0.0225,-2.70263671875,0.50048828125,2.70263671875
0.023,-2.70263671875,1.02099609375,2.14208984375
0.0235,-2.86279296875,1.58154296875,1.66162109375
0.024,-2.94287109375,2.10205078125,1.14111328125
0.0245,-2.90283203125,2.42236328125,0.66064453125
0.025,-2.78271484375,2.58251953125,0.18017578125
0.0255,-2.38232421875,2.58251953125,-0.46044921875
0.026,-1.90185546875,2.70263671875,-1.14111328125
0.0265,-1.34130859375,2.78271484375,-1.94189453125
0.027,-0.90087890625,2.70263671875,-2.42236328125
0.0275,-0.50048828125,2.70263671875,-2.90283203125
0.028,0.06005859375,2.38232421875,-3.18310546875
0.0285,0.70068359375,1.78173828125,-3.34326171875
0.029,1.42138671875,1.30126953125,-3.70361328125
0.0295,2.14208984375,0.66064453125,-3.78369140625
0.03,2.54248046875,0.30029296875,-3.82373046875
0.0305,2.74267578125,-0.18017578125,-3.66357421875
0.031,2.86279296875,-0.66064453125,-3.26318359375
0.0315,2.94287109375,-1.26123046875,-2.62255859375
0.032,3.06298828125,-1.94189453125,-2.06201171875
0.0325,3.14306640625,-2.42236328125,-1.54150390625
0.033,3.14306640625,-2.78271484375,-1.02099609375
0.0335,2.74267578125,-2.86279296875,-0.50048828125
0.034,2.26220703125,-2.86279296875,0.26025390625
0.0345,1.78173828125,-2.98291015625,1.10107421875
0.035,1.14111328125,-3.02294921875,1.86181640625
0.0355,0.66064453125,-2.86279296875,2.26220703125
0.036,0.26025390625,-2.70263671875,2.70263671875
0.0365,-0.50048828125,-2.18212890625,2.94287109375
0.037,-1.26123046875,-1.46142578125,3.10302734375
0.0375,-1.94189453125,-0.98095703125,3.34326171875
0.038,-2.50244140625,-0.38037109375,3.34326171875
0.0385,-2.78271484375,0.02001953125,3.30322265625
0.039,-2.86279296875,0.50048828125,2.86279296875
0.0395,-2.86279296875,0.98095703125,2.38232421875
0.04,-2.98291015625,1.62158203125,1.78173828125
0.0405,-3.06298828125,2.22216796875,1.14111328125
0.041,-3.02294921875,2.50244140625,0.62060546875
0.0415,-2.98291015625,2.74267578125,0.14013671875
0.042,-2.50244140625,2.78271484375,-0.50048828125
0.0425,-1.86181640625,2.78271484375,-1.26123046875
0.043,-1.34130859375,2.90283203125,-2.02197265625
0.0435,-0.78076171875,2.82275390625,-2.66259765625
0.044,-0.38037109375,2.70263671875,-3.06298828125
0.0445,0.18017578125,2.38232421875,-3.34326171875
0.045,0.82080078125,1.86181640625,-3.54345703125
0.0455,1.62158203125,1.14111328125,-3.70361328125
0.046,2.26220703125,0.62060546875,-3.86376953125
0.0465,2.70263671875,0.10009765625,-3.78369140625
0.047,2.94287109375,-0.26025390625,-3.78369140625
0.0475,2.94287109375,-0.78076171875,-3.26318359375
0.048,2.94287109375,-1.30126953125,-2.62255859375
0.0485,3.10302734375,-1.94189453125,-2.10205078125
0.049,3.10302734375,-2.50244140625,-1.46142578125
0.0495,3.02294921875,-2.82275390625,-0.98095703125
0.05,2.86279296875,-2.90283203125,-0.46044921875
0.0505,2.42236328125,-2.90283203125,0.18017578125
0.051,1.74169921875,-2.90283203125,1.02099609375
0.0515,1.22119140625,-2.98291015625,1.74169921875
0.052,0.66064453125,-2.86279296875,2.30224609375
0.0525,0.30029296875,-2.74267578125,2.70263671875
0.053,-0.34033203125,-2.26220703125,2.86279296875
0.0535,-0.98095703125,-1.70166015625,3.06298828125
0.054,-1.78173828125,-1.10107421875,3.26318359375
0.0545,-2.34228515625,-0.58056640625,3.34326171875
0.055,-2.66259765625,-0.14013671875,3.26318359375
0.0555,-2.86279296875,0.30029296875,3.14306640625
0.056,-2.90283203125,0.82080078125,2.62255859375
0.0565,-2.90283203125,1.34130859375,1.94189453125
0.057,-3.10302734375,1.94189453125,1.42138671875
0.0575,-3.14306640625,2.42236328125,0.82080078125
0.058,-3.06298828125,2.70263671875,0.42041015625
0.0585,-2.70263671875,2.78271484375,-0.22021484375
0.059,-2.26220703125,2.82275390625,-0.82080078125
0.0595,-1.62158203125,2.86279296875,-1.66162109375
0.06,-1.06103515625,2.86279296875,-2.34228515625
0.0605,-0.62060546875,2.74267578125,-2.86279296875
0.061,-0.22021484375,2.66259765625,-3.22314453125
0.0615,0.50048828125,2.06201171875,-3.38330078125
0.062,1.22119140625,1.46142578125,-3.58349609375
0.0625,1.98193359375,0.90087890625,-3.82373046875
0.063,2.46240234375,0.38037109375,-3.82373046875
0.0635,2.74267578125,0.02001953125,-3.82373046875
0.064,2.90283203125,-0.50048828125,-3.46337890625
0.0645,2.94287109375,-1.02099609375,-2.94287109375
0.065,2.98291015625,-1.66162109375,-2.26220703125
0.0655,3.10302734375,-2.22216796875,-1.78173828125
0.066,3.06298828125,-2.62255859375,-1.18115234375
0.0665,3.02294921875,-2.86279296875,-0.78076171875
0.067,2.54248046875,-2.82275390625,-0.14013671875
0.0675,2.02197265625,-2.86279296875,0.62060546875
0.068,1.42138671875,-2.98291015625,1.46142578125
0.0685,0.90087890625,-2.86279296875,2.02197265625
0.069,0.50048828125,-2.74267578125,2.50244140625
0.0695,0.02001953125,-2.54248046875,2.78271484375
0.07,-0.70068359375,-1.94189453125,2.94287109375
0.0705,-1.46142578125,-1.30126953125,3.14306640625
0.071,-2.10205078125,-0.78076171875,3.34326171875
0.0715,-2.54248046875,-0.30029296875,3.26318359375
0.072,-2.78271484375,0.06005859375,3.22314453125
0.0725,-2.86279296875,0.58056640625,2.78271484375
0.073,-2.90283203125,1.10107421875,2.26220703125
0.0735,-3.06298828125,1.74169921875,1.62158203125
0.074,-3.06298828125,2.22216796875,1.14111328125
0.0745,-3.02294921875,2.54248046875,0.58056640625
0.075,-2.90283203125,2.78271484375,0.10009765625
0.0755,-2.38232421875,2.74267578125,-0.58056640625
0.076,-1.86181640625,2.82275390625,-1.30126953125
0.0765,-1.26123046875,2.86279296875,-2.14208984375
0.077,-0.78076171875,2.82275390625,-2.62255859375
0.0775,-0.38037109375,2.66259765625,-3.06298828125
0.078,0.22021484375,2.30224609375,-3.34326171875
0.0785,0.94091796875,1.74169921875,-3.54345703125
0.079,1.70166015625,1.14111328125,-3.78369140625
0.0795,2.26220703125,0.62060546875,-3.82373046875
0.08,2.70263671875,0.14013671875,-3.82373046875
0.0805,2.86279296875,-0.30029296875,-3.66357421875
0.081,2.90283203125,-0.82080078125,-3.14306640625
0.0815,2.90283203125,-1.42138671875,-2.58251953125
0.082,3.14306640625,-2.06201171875,-1.94189453125
0.0825,3.10302734375,-2.46240234375,-1.42138671875
0.083,3.06298828125,-2.74267578125,-0.90087890625
0.0835,2.74267578125,-2.86279296875,-0.34033203125
0.084,2.22216796875,-2.86279296875,0.38037109375
0.0845,1.62158203125,-2.94287109375,1.22119140625
0.085,1.02099609375,-2.90283203125,1.94189453125
0.0855,0.62060546875,-2.86279296875,2.42236328125
0.086,0.18017578125,-2.66259765625,2.70263671875
0.0865,-0.50048828125,-2.14208984375,2.90283203125
0.087,-1.22119140625,-1.54150390625,3.10302734375
0.0875,-2.06201171875,-0.90087890625,3.34326171875
0.088,-2.42236328125,-0.42041015625,3.30322265625
0.0885,-2.74267578125,0.02001953125,3.26318359375
0.089,-2.90283203125,0.38037109375,2.94287109375
0.0895,-2.90283203125,0.94091796875,2.42236328125
0.09,-2.98291015625,1.54150390625,1.82177734375
0.0905,-3.06298828125,2.18212890625,1.22119140625
0.091,-3.06298828125,2.54248046875,0.70068359375
0.0915,-2.98291015625,2.74267578125,0.26025390625
0.092,-2.54248046875,2.82275390625,-0.42041015625
0.0925,-1.98193359375,2.82275390625,-1.14111328125
0.093,-1.42138671875,2.90283203125,-1.98193359375
0.0935,-0.90087890625,2.82275390625,-2.54248046875
0.094,-0.46044921875,2.74267578125,-3.02294921875
0.0945,0.02001953125,2.54248046875,-3.34326171875
0.095,0.70068359375,1.90185546875,-3.46337890625
0.0955,1.46142578125,1.30126953125,-3.70361328125
0.096,2.26220703125,0.66064453125,-3.86376953125
0.0965,2.58251953125,0.26025390625,-3.82373046875
0.097,2.86279296875,-0.26025390625,-3.78369140625
0.0975,2.86279296875,-0.70068359375,-3.34326171875
0.098,2.90283203125,-1.26123046875,-2.70263671875
0.0985,3.06298828125,-1.86181640625,-2.14208984375
0.099,3.06298828125,-2.38232421875,-1.54150390625
0.0995,3.06298828125,-2.70263671875,-1.02099609375
0.1,2.86279296875,-2.86279296875,-0.54052734375
0.1005,2.38232421875,-2.86279296875,0.14013671875
0.101,1.86181640625,-2.86279296875,0.90087890625
0.1015,1.26123046875,-2.94287109375,1.70166015625
0.102,0.78076171875,-2.82275390625,2.14208984375
0.1025,0.34033203125,-2.74267578125,2.58251953125
0.103,-0.18017578125,-2.34228515625,2.82275390625
0.1035,-0.90087890625,-1.70166015625,2.90283203125
0.104,-1.58154296875,-1.22119140625,3.18310546875
0.1045,-2.22216796875,-0.62060546875,3.26318359375
0.105,-2.58251953125,-0.26025390625,3.26318359375
0.1055,-2.74267578125,0.14013671875,3.06298828125
0.106,-2.82275390625,0.66064453125,2.62255859375
0.1065,-2.86279296875,1.22119140625,2.10205078125
0.107,-3.02294921875,1.90185546875,1.50146484375
0.1075,-3.02294921875,2.26220703125,0.98095703125
0.108,-3.02294921875,2.62255859375,0.50048828125
0.1085,-2.74267578125,2.70263671875,0.02001953125
0.109,-2.26220703125,2.70263671875,-0.70068359375
0.1095,-1.78173828125,2.82275390625,-1.42138671875
0.11,-1.14111328125,2.86279296875,-2.22216796875
0.1105,-0.78076171875,2.78271484375,-2.66259765625
0.111,-0.30029296875,2.62255859375,-3.06298828125
0.1115,0.30029296875,2.26220703125,-3.34326171875
0.112,1.02099609375,1.58154296875,-3.50341796875
0.1125,1.78173828125,1.02099609375,-3.78369140625
0.113,2.30224609375,0.50048828125,-3.82373046875
0.1135,2.66259765625,0.10009765625,-3.82373046875
0.114,2.82275390625,-0.34033203125,-3.54345703125
0.1145,2.86279296875,-0.90087890625,-3.02294921875
0.115,3.02294921875,-1.50146484375,-2.50244140625
0.1155,3.14306640625,-2.18212890625,-1.78173828125
0.116,3.06298828125,-2.54248046875,-1.30126953125
0.1165,3.02294921875,-2.82275390625,-0.78076171875
0.117,2.62255859375,-2.86279296875,-0.22021484375
0.1175,1.98193359375,-2.86279296875,0.62060546875
0.118,1.54150390625,-2.94287109375,1.34130859375
0.1185,0.94091796875,-2.86279296875,2.02197265625
0.119,0.54052734375,-2.82275390625,2.42236328125
0.1195,0.02001953125,-2.50244140625,2.70263671875
0.12,-0.66064453125,-1.94189453125,2.90283203125
0.1205,-1.42138671875,-1.34130859375,3.14306640625
0.121,-2.10205078125,-0.82080078125,3.26318359375
0.1215,-2.50244140625,-0.34033203125,3.18310546875
0.122,-2.74267578125,0.06005859375,3.18310546875
0.1225,-2.78271484375,0.50048828125,2.78271484375
0.123,-2.74267578125,1.10107421875,2.18212890625
0.1235,-2.94287109375,1.62158203125,1.70166015625
0.124,-2.98291015625,2.22216796875,1.10107421875
0.1245,-2.94287109375,2.50244140625,0.62060546875
0.125,-2.82275390625,2.70263671875,0.14013671875
0.1255,-2.42236328125,2.70263671875,-0.46044921875
0.126,-1.86181640625,2.70263671875,-1.22119140625
0.1265,-1.34130859375,2.82275390625,-1.94189453125
0.127,-0.82080078125,2.70263671875,-2.50244140625
0.1275,-0.50048828125,2.70263671875,-2.94287109375
0.128,0.10009765625,2.34228515625,-3.18310546875
0.1285,0.78076171875,1.74169921875,-3.38330078125
0.129,1.46142578125,1.22119140625,-3.70361328125
0.1295,2.14208984375,0.62060546875,-3.82373046875
0.13,2.50244140625,0.30029296875,-3.78369140625
0.1305,2.82275390625,-0.18017578125,-3.70361328125
0.131,2.86279296875,-0.66064453125,-3.26318359375
0.1315,2.90283203125,-1.30126953125,-2.62255859375
0.132,3.10302734375,-1.94189453125,-2.10205078125
0.1325,3.14306640625,-2.42236328125,-1.46142578125
0.133,3.14306640625,-2.74267578125,-1.02099609375
0.1335,2.78271484375,-2.86279296875,-0.42041015625
0.134,2.30224609375,-2.86279296875,0.26025390625
0.1345,1.74169921875,-2.98291015625,1.14111328125
0.135,1.14111328125,-2.98291015625,1.86181640625
0.1355,0.66064453125,-2.86279296875,2.30224609375
0.136,0.26025390625,-2.74267578125,2.74267578125
0.1365,-0.50048828125,-2.22216796875,2.90283203125
0.137,-1.26123046875,-1.54150390625,3.10302734375
0.1375,-1.94189453125,-1.02099609375,3.30322265625
0.138,-2.50244140625,-0.42041015625,3.34326171875
0.1385,-2.74267578125,0.02001953125,3.22314453125
0.139,-2.82275390625,0.46044921875,2.86279296875
0.1395,-2.86279296875,0.94091796875,2.42236328125
0.14,-2.90283203125,1.58154296875,1.74169921875
0.1405,-3.02294921875,2.06201171875,1.22119140625
0.141,-2.94287109375,2.46240234375,0.62060546875
0.1415,-2.90283203125,2.70263671875,0.26025390625
0.142,-2.46240234375,2.70263671875,-0.38037109375
0.1425,-1.94189453125,2.70263671875,-1.10107421875
0.143,-1.42138671875,2.82275390625,-1.82177734375
0.1435,-0.90087890625,2.70263671875,-2.42236328125
0.144,-0.50048828125,2.58251953125,-2.82275390625
0.1445,0.02001953125,2.38232421875,-3.14306640625
0.145,0.58056640625,1.90185546875,-3.26318359375
0.1455,1.26123046875,1.26123046875,-3.50341796875
0.146,1.90185546875,0.82080078125,-3.70361328125
0.1465,2.30224609375,0.34033203125,-3.66357421875
0.147,2.62255859375,0.02001953125,-3.66357421875
0.1475,2.66259765625,-0.50048828125,-3.26318359375
0.148,2.74267578125,-0.98095703125,-2.82275390625
0.1485,2.90283203125,-1.54150390625,-2.30224609375
0.149,2.94287109375,-2.06201171875,-1.78173828125
0.1495,2.94287109375,-2.42236328125,-1.30126953125
0.15,2.86279296875,-2.70263671875,-0.78076171875
0.1505,2.50244140625,-2.70263671875,-0.26025390625
0.151,1.98193359375,-2.74267578125,0.50048828125
0.1515,1.58154296875,-2.86279296875,1.22119140625
0.152,1.02099609375,-2.82275390625,1.82177734375
0.1525,0.66064453125,-2.82275390625,2.26220703125
0.153,0.14013671875,-2.50244140625,2.54248046875
0.1535,-0.54052734375,-2.06201171875,2.78271484375
0.154,-1.26123046875,-1.46142578125,3.06298828125
0.1545,-1.90185546875,-0.94091796875,3.18310546875
0.155,-2.30224609375,-0.50048828125,3.22314453125
0.1555,-2.62255859375,0.02001953125,3.18310546875
0.156,-2.70263671875,0.46044921875,2.74267578125
0.1565,-2.82275390625,1.02099609375,2.22216796875
0.157,-2.98291015625,1.66162109375,1.70166015625
0.1575,-3.06298828125,2.18212890625,1.14111328125
0.158,-3.02294921875,2.50244140625,0.70068359375
0.1585,-2.82275390625,2.66259765625,0.10009765625
0.159,-2.34228515625,2.70263671875,-0.58056640625
0.1595,-1.78173828125,2.82275390625,-1.38134765625
0.16,-1.26123046875,2.82275390625,-2.06201171875
0.1605,-0.78076171875,2.74267578125,-2.58251953125
0.161,-0.38037109375,2.62255859375,-3.06298828125
0.1615,0.30029296875,2.06201171875,-3.18310546875
0.162,0.98095703125,1.58154296875,-3.42333984375
0.1625,1.78173828125,1.02099609375,-3.70361328125
0.163,2.22216796875,0.58056640625,-3.70361328125
0.1635,2.50244140625,0.14013671875,-3.66357421875
0.164,2.70263671875,-0.30029296875,-3.42333984375
0.1645,2.70263671875,-0.82080078125,-2.90283203125
0.165,2.78271484375,-1.38134765625,-2.34228515625
0.1655,2.90283203125,-1.94189453125,-1.86181640625
0.166,2.90283203125,-2.34228515625,-1.30126953125
0.1665,2.86279296875,-2.58251953125,-0.90087890625
0.167,2.50244140625,-2.62255859375,-0.30029296875
0.1675,2.06201171875,-2.66259765625,0.34033203125
0.168,1.58154296875,-2.74267578125,1.10107421875
0.1685,1.06103515625,-2.78271484375,1.62158203125
0.169,0.70068359375,-2.70263671875,2.06201171875
0.1695,0.30029296875,-2.54248046875,2.46240234375
0.17,-0.34033203125,-2.02197265625,2.62255859375
0.1705,-0.98095703125,-1.58154296875,2.86279296875
0.171,-1.66162109375,-1.02099609375,3.06298828125
0.1715,-2.10205078125,-0.62060546875,3.14306640625
0.172,-2.42236328125,-0.30029296875,3.14306640625
0.1725,-2.58251953125,0.26025390625,2.82275390625
0.173,-2.70263671875,0.74072265625,2.42236328125
0.1735,-2.86279296875,1.34130859375,1.94189453125
0.174,-2.90283203125,1.86181640625,1.42138671875
0.1745,-2.98291015625,2.26220703125,0.94091796875
0.175,-2.94287109375,2.58251953125,0.46044921875
0.1755,-2.54248046875,2.62255859375,-0.18017578125
0.176,-2.10205078125,2.74267578125,-0.90087890625
0.1765,-1.58154296875,2.82275390625,-1.66162109375
0.177,-1.14111328125,2.78271484375,-2.26220703125
0.1775,-0.70068359375,2.70263671875,-2.74267578125
0.178,-0.18017578125,2.50244140625,-3.10302734375
0.1785,0.58056640625,1.94189453125,-3.34326171875
0.179,1.38134765625,1.38134765625,-3.62353515625
0.1795,1.98193359375,0.86083984375,-3.78369140625
0.18,2.46240234375,0.38037109375,-3.82373046875
0.1805,2.70263671875,0.02001953125,-3.70361328125
0.181,2.78271484375,-0.62060546875,-3.18310546875
0.1815,2.86279296875,-1.22119140625,-2.66259765625
0.182,3.06298828125,-1.94189453125,-2.02197265625
0.1825,3.06298828125,-2.30224609375,-1.50146484375
0.183,2.98291015625,-2.62255859375,-0.98095703125
0.1835,2.70263671875,-2.82275390625,-0.46044921875
0.184,2.18212890625,-2.74267578125,0.30029296875
0.1845,1.66162109375,-2.90283203125,1.06103515625
0.185,1.10107421875,-2.90283203125,1.78173828125
0.1855,0.66064453125,-2.86279296875,2.22216796875
0.186,0.26025390625,-2.58251953125,2.54248046875
0.1865,-0.38037109375,-2.10205078125,2.74267578125
0.187,-1.10107421875,-1.50146484375,2.90283203125
0.1875,-1.82177734375,-0.98095703125,3.14306640625
0.188,-2.22216796875,-0.50048828125,3.14306640625
0.1885,-2.54248046875,-0.14013671875,3.06298828125
0.189,-2.70263671875,0.30029296875,2.86279296875
0.1895,-2.70263671875,0.78076171875,2.34228515625
0.19,-2.78271484375,1.30126953125,1.90185546875
0.1905,-2.86279296875,1.90185546875,1.30126953125
0.191,-2.90283203125,2.26220703125,0.82080078125
0.1915,-2.86279296875,2.54248046875,0.46044921875
0.192,-2.54248046875,2.62255859375,-0.18017578125
0.1925,-2.10205078125,2.58251953125,-0.78076171875
0.193,-1.62158203125,2.70263671875,-1.54150390625
0.1935,-1.14111328125,2.62255859375,-2.10205078125
0.194,-0.74072265625,2.70263671875,-2.62255859375
0.1945,-0.30029296875,2.54248046875,-2.98291015625
0.195,0.30029296875,2.06201171875,-3.18310546875
0.1955,1.02099609375,1.58154296875,-3.46337890625
0.196,1.78173828125,0.98095703125,-3.70361328125
0.1965,2.26220703125,0.58056640625,-3.78369140625
0.197,2.58251953125,0.18017578125,-3.78369140625
0.1975,2.74267578125,-0.38037109375,-3.46337890625
0.198,2.82275390625,-0.98095703125,-2.90283203125
0.1985,3.02294921875,-1.58154296875,-2.42236328125
0.199,3.10302734375,-2.10205078125,-1.86181640625
0.1995,3.14306640625,-2.54248046875,-1.30126953125
