wavelength,x,y,z
0.0,1.411376953125,5.695556640625,-6.115966796875
0.0005,2.532470703125,4.854736328125,-6.636474609375
0.001,3.853759765625,3.573486328125,-6.916748046875
0.0015,4.774658203125,2.332275390625,-6.996826171875
0.002,5.415283203125,1.010986328125,-6.476318359375
0.0025,5.735595703125,0.130126953125,-6.276123046875
0.003,5.895751953125,-0.910888671875,-5.915771484375
0.0035,5.735595703125,-1.871826171875,-4.994873046875
0.004,5.455322265625,-3.193115234375,-3.713623046875
0.0045,5.014892578125,-4.314208984375,-2.392333984375
0.005,4.534423828125,-5.114990234375,-1.271240234375
0.0055,4.294189453125,-5.795654296875,-0.510498046875
0.006,3.493408203125,-6.156005859375,0.610595703125
0.0065,2.372314453125,-6.396240234375,1.851806640625
0.007,1.131103515625,-6.476318359375,3.173095703125
0.0075,-0.270263671875,-6.276123046875,4.214111328125
0.008,-0.990966796875,-6.356201171875,5.094970703125
0.0085,-1.751708984375,-6.316162109375,5.895751953125
0.009,-2.872802734375,-5.515380859375,6.416259765625
0.0095,-4.234130859375,-4.194091796875,6.696533203125
0.01,-5.114990234375,-2.832763671875,6.536376953125
0.0105,-5.675537109375,-1.631591796875,6.256103515625
0.011,-6.035888671875,-0.830810546875,6.135986328125
0.0115,-6.115966796875,0.250244140625,5.575439453125
0.012,-5.995849609375,1.411376953125,4.654541015625
0.0125,-5.795654296875,2.572509765625,3.493408203125
0.013,-5.275146484375,3.693603515625,2.132080078125
0.0135,-4.874755859375,4.494384765625,1.131103515625
0.014,-4.554443359375,5.215087890625,0.290283203125
0.0145,-3.713623046875,5.495361328125,-0.830810546875
0.015,-2.392333984375,5.735595703125,-2.312255859375
0.0155,-1.151123046875,5.735595703125,-3.553466796875
0.016,0.010009765625,5.575439453125,-4.514404296875
0.0165,0.690673828125,5.655517578125,-5.395263671875
0.017,1.651611328125,5.295166015625,-6.115966796875
0.0175,2.812744140625,4.334228515625,-6.556396484375
0.018,4.013916015625,3.173095703125,-6.716552734375
0.0185,4.814697265625,1.731689453125,-6.436279296875
0.019,5.295166015625,0.730712890625,-6.236083984375
0.0195,5.615478515625,-0.150146484375,-6.115966796875
0.02,5.535400390625,-1.111083984375,-5.355224609375
0.0205,5.375244140625,-2.352294921875,-4.194091796875
0.021,5.094970703125,-3.473388671875,-3.193115234375
0.0215,4.614501953125,-4.354248046875,-1.951904296875
0.022,4.374267578125,-5.114990234375,-1.111083984375
0.0225,3.933837890625,-5.755615234375,-0.190185546875
0.023,3.052978515625,-5.995849609375,0.890869140625
0.0235,1.851806640625,-6.156005859375,2.252197265625
0.024,0.530517578125,-6.115966796875,3.453369140625
0.0245,-0.350341796875,-6.115966796875,4.294189453125
0.025,-1.031005859375,-6.276123046875,5.175048828125
0.0255,-2.072021484375,-5.755615234375,5.775634765625
0.026,-3.273193359375,-4.674560546875,6.216064453125
0.0265,-4.274169921875,-3.593505859375,6.336181640625
0.027,-4.994873046875,-2.272216796875,6.055908203125
0.0275,-5.475341796875,-1.431396484375,6.015869140625
0.028,-5.755615234375,-0.630615234375,5.735595703125
0.0285,-5.755615234375,0.370361328125,5.175048828125
0.029,-5.555419921875,1.571533203125,4.093994140625
0.0295,-5.235107421875,2.612548828125,2.892822265625
0.03,-4.834716796875,3.493408203125,1.891845703125
0.0305,-4.714599609375,4.334228515625,1.091064453125
0.031,-4.154052734375,4.814697265625,0.170166015625
0.0315,-3.193115234375,5.135009765625,-1.071044921875
0.032,-2.192138671875,5.415283203125,-2.272216796875
0.0325,-0.950927734375,5.215087890625,-3.353271484375
0.033,-0.270263671875,5.415283203125,-4.274169921875
0.0335,0.610595703125,5.495361328125,-5.195068359375
0.034,1.571533203125,5.014892578125,-5.755615234375
0.0345,2.852783203125,3.893798828125,-6.115966796875
0.035,3.813720703125,2.692626953125,-6.115966796875
0.0355,4.494384765625,1.611572265625,-5.995849609375
0.036,5.014892578125,0.810791015625,-6.035888671875
0.0365,5.175048828125,0.010009765625,-5.715576171875
0.037,5.175048828125,-1.071044921875,-4.994873046875
0.0375,5.094970703125,-2.192138671875,-4.114013671875
0.038,4.734619140625,-3.233154296875,-2.872802734375
0.0385,4.494384765625,-4.114013671875,-1.951904296875
0.039,4.334228515625,-4.954833984375,-1.191162109375
0.0395,3.693603515625,-5.355224609375,-0.310302734375
0.04,2.692626953125,-5.715576171875,1.010986328125
0.0405,1.611572265625,-5.875732421875,2.252197265625
0.041,0.610595703125,-5.875732421875,3.173095703125
0.0415,-0.190185546875,-6.156005859375,4.134033203125
0.042,-1.031005859375,-6.035888671875,5.014892578125
0.0425,-2.072021484375,-5.395263671875,5.615478515625
0.043,-3.273193359375,-4.354248046875,5.975830078125
0.0435,-4.154052734375,-3.072998046875,5.775634765625
0.044,-4.834716796875,-2.112060546875,5.775634765625
0.0445,-5.315185546875,-1.391357421875,5.815673828125
0.045,-5.395263671875,-0.550537109375,5.375244140625
0.0455,-5.395263671875,0.610595703125,4.574462890625
0.046,-5.275146484375,1.651611328125,3.693603515625
0.0465,-4.914794921875,2.612548828125,2.572509765625
0.047,-4.794677734375,3.533447265625,1.771728515625
0.0475,-4.514404296875,4.254150390625,0.890869140625
0.048,-3.873779296875,4.654541015625,0.010009765625
0.0485,-2.872802734375,4.974853515625,-1.351318359375
0.049,-1.751708984375,5.014892578125,-2.512451171875
0.0495,-0.950927734375,5.135009765625,-3.473388671875
0.05,-0.270263671875,5.415283203125,-4.434326171875
0.0505,0.850830078125,5.135009765625,-5.155029296875
0.051,2.011962890625,4.334228515625,-5.635498046875
0.0515,3.012939453125,3.413330078125,-5.915771484375
0.052,3.853759765625,2.212158203125,-5.795654296875
0.0525,4.494384765625,1.331298828125,-5.835693359375
0.053,4.934814453125,0.610595703125,-5.795654296875
0.0535,4.974853515625,-0.350341796875,-5.355224609375
0.054,4.934814453125,-1.431396484375,-4.474365234375
0.0545,4.734619140625,-2.512451171875,-3.513427734375
0.055,4.494384765625,-3.473388671875,-2.512451171875
0.0555,4.454345703125,-4.314208984375,-1.791748046875
0.056,3.973876953125,-4.994873046875,-0.870849609375
0.0565,3.253173828125,-5.395263671875,0.290283203125
0.057,2.292236328125,-5.755615234375,1.451416015625
0.0575,1.131103515625,-5.755615234375,2.532470703125
0.058,0.490478515625,-5.915771484375,3.533447265625
0.0585,-0.470458984375,-6.156005859375,4.534423828125
0.059,-1.431396484375,-5.715576171875,5.215087890625
0.0595,-2.712646484375,-4.754638671875,5.655517578125
0.06,-3.673583984375,-3.593505859375,5.775634765625
0.0605,-4.434326171875,-2.552490234375,5.735595703125
0.061,-4.994873046875,-1.831787109375,5.815673828125
0.0615,-5.275146484375,-0.990966796875,5.535400390625
0.062,-5.355224609375,0.050048828125,4.974853515625
0.0625,-5.315185546875,1.171142578125,4.134033203125
0.063,-5.034912109375,2.212158203125,2.972900390625
0.0635,-4.794677734375,3.133056640625,2.052001953125
0.064,-4.674560546875,3.973876953125,1.251220703125
0.0645,-4.154052734375,4.454345703125,0.370361328125
0.065,-3.153076171875,4.814697265625,-0.990966796875
0.0655,-2.232177734375,5.054931640625,-2.152099609375
0.066,-1.151123046875,5.094970703125,-3.153076171875
0.0665,-0.510498046875,5.415283203125,-4.114013671875
0.067,0.530517578125,5.335205078125,-4.994873046875
0.0675,1.571533203125,4.734619140625,-5.635498046875
0.068,2.812744140625,3.693603515625,-5.955810546875
0.0685,3.693603515625,2.412353515625,-5.875732421875
0.069,4.374267578125,1.451416015625,-5.835693359375
0.0695,4.854736328125,0.730712890625,-5.915771484375
0.07,5.014892578125,-0.230224609375,-5.435302734375
0.0705,4.974853515625,-1.311279296875,-4.594482421875
0.071,4.894775390625,-2.392333984375,-3.753662109375
0.0715,4.534423828125,-3.353271484375,-2.632568359375
0.072,4.414306640625,-4.234130859375,-1.791748046875
0.0725,4.134033203125,-5.074951171875,-0.950927734375
0.073,3.413330078125,-5.435302734375,0.130126953125
0.0735,2.372314453125,-5.795654296875,1.411376953125
0.074,1.251220703125,-5.795654296875,2.572509765625
0.0745,0.410400390625,-5.915771484375,3.533447265625
0.075,-0.390380859375,-6.156005859375,4.494384765625
0.0755,-1.431396484375,-5.755615234375,5.255126953125
0.076,-2.632568359375,-4.874755859375,5.735595703125
0.0765,-3.713623046875,-3.873779296875,6.055908203125
0.077,-4.514404296875,-2.592529296875,5.815673828125
0.0775,-5.114990234375,-1.751708984375,5.855712890625
0.078,-5.515380859375,-0.910888671875,5.735595703125
0.0785,-5.515380859375,0.130126953125,5.094970703125
0.079,-5.435302734375,1.331298828125,4.134033203125
0.0795,-5.195068359375,2.452392578125,3.012939453125
0.08,-4.874755859375,3.333251953125,1.971923828125
0.0805,-4.714599609375,4.134033203125,1.211181640625
0.081,-4.194091796875,4.654541015625,0.250244140625
0.0815,-3.273193359375,4.974853515625,-1.031005859375
0.082,-2.192138671875,5.335205078125,-2.272216796875
0.0825,-0.990966796875,5.255126953125,-3.393310546875
0.083,-0.310302734375,5.415283203125,-4.314208984375
0.0835,0.610595703125,5.455322265625,-5.195068359375
0.084,1.731689453125,4.854736328125,-5.795654296875
0.0845,3.052978515625,3.653564453125,-6.196044921875
0.085,4.013916015625,2.492431640625,-6.236083984375
0.0855,4.614501953125,1.331298828125,-6.035888671875
0.086,5.094970703125,0.570556640625,-6.035888671875
0.0865,5.255126953125,-0.430419921875,-5.595458984375
0.087,5.255126953125,-1.471435546875,-4.794677734375
0.0875,5.094970703125,-2.672607421875,-3.753662109375
0.088,4.734619140625,-3.713623046875,-2.512451171875
0.0885,4.414306640625,-4.554443359375,-1.551513671875
0.089,4.174072265625,-5.315185546875,-0.790771484375
0.0895,3.413330078125,-5.715576171875,0.290283203125
0.09,2.292236328125,-5.955810546875,1.651611328125
0.0905,1.131103515625,-6.075927734375,2.892822265625
0.091,0.130126953125,-5.995849609375,3.853759765625
0.0915,-0.630615234375,-6.156005859375,4.734619140625
0.092,-1.591552734375,-5.955810546875,5.535400390625
0.0925,-2.712646484375,-5.155029296875,6.095947265625
0.093,-3.993896484375,-3.953857421875,6.376220703125
0.0935,-4.834716796875,-2.552490234375,6.135986328125
0.094,-5.435302734375,-1.551513671875,6.015869140625
0.0945,-5.755615234375,-0.790771484375,5.895751953125
0.095,-5.755615234375,0.290283203125,5.255126953125
0.0955,-5.715576171875,1.531494140625,4.214111328125
0.096,-5.515380859375,2.692626953125,3.173095703125
0.0965,-5.074951171875,3.573486328125,1.931884765625
0.097,-4.794677734375,4.414306640625,1.010986328125
0.0975,-4.394287109375,5.014892578125,0.130126953125
0.098,-3.473388671875,5.375244140625,-1.031005859375
0.0985,-2.112060546875,5.615478515625,-2.552490234375
0.099,-0.910888671875,5.535400390625,-3.713623046875
0.0995,0.090087890625,5.575439453125,-4.594482421875
0.1,0.770751953125,5.655517578125,-5.475341796875
0.1005,1.931884765625,5.014892578125,-6.156005859375
0.101,3.253173828125,3.893798828125,-6.596435546875
0.1015,4.374267578125,2.692626953125,-6.756591796875
0.102,5.094970703125,1.291259765625,-6.396240234375
0.1025,5.495361328125,0.370361328125,-6.276123046875
0.103,5.735595703125,-0.630615234375,-5.915771484375
0.1035,5.615478515625,-1.671630859375,-5.114990234375
0.104,5.415283203125,-3.072998046875,-3.713623046875
0.1045,5.094970703125,-4.234130859375,-2.512451171875
0.105,4.574462890625,-5.074951171875,-1.351318359375
0.1055,4.294189453125,-5.795654296875,-0.590576171875
0.106,3.533447265625,-6.156005859375,0.610595703125
0.1065,2.332275390625,-6.396240234375,1.931884765625
0.107,1.010986328125,-6.516357421875,3.373291015625
0.1075,-0.310302734375,-6.316162109375,4.414306640625
0.108,-1.031005859375,-6.356201171875,5.255126953125
0.1085,-1.871826171875,-6.196044921875,6.055908203125
0.109,-3.153076171875,-5.275146484375,6.536376953125
0.1095,-4.514404296875,-3.833740234375,6.856689453125
0.11,-5.435302734375,-2.552490234375,6.696533203125
0.1105,-5.915771484375,-1.311279296875,6.336181640625
0.111,-6.236083984375,-0.510498046875,6.135986328125
0.1115,-6.276123046875,0.690673828125,5.455322265625
0.112,-6.115966796875,1.891845703125,4.454345703125
0.1125,-5.835693359375,3.173095703125,3.093017578125
0.113,-5.275146484375,4.174072265625,1.731689453125
0.1135,-4.834716796875,4.894775390625,0.650634765625
0.114,-4.354248046875,5.535400390625,-0.270263671875
0.1145,-3.393310546875,5.775634765625,-1.351318359375
0.115,-1.951904296875,5.935791015625,-2.912841796875
0.1155,-0.670654296875,5.935791015625,-4.194091796875
0.116,0.490478515625,5.695556640625,-5.074951171875
0.1165,1.131103515625,5.735595703125,-5.835693359375
0.117,2.132080078125,5.255126953125,-6.556396484375
0.1175,3.333251953125,4.214111328125,-6.956787109375
0.118,4.614501953125,2.812744140625,-7.076904296875
0.1185,5.415283203125,1.331298828125,-6.716552734375
0.119,5.775634765625,0.250244140625,-6.396240234375
0.1195,6.015869140625,-0.630615234375,-6.156005859375
0.12,5.855712890625,-1.711669921875,-5.275146484375
0.1205,5.615478515625,-3.072998046875,-3.993896484375
0.121,5.335205078125,-4.234130859375,-2.832763671875
0.1215,4.694580078125,-5.155029296875,-1.511474609375
0.122,4.334228515625,-5.795654296875,-0.590576171875
0.1225,3.813720703125,-6.356201171875,0.410400390625
0.123,2.772705078125,-6.476318359375,1.531494140625
0.1235,1.291259765625,-6.596435546875,3.052978515625
0.124,0.010009765625,-6.436279296875,4.294189453125
0.1245,-0.990966796875,-6.356201171875,5.054931640625
0.125,-1.631591796875,-6.356201171875,5.855712890625
0.1255,-2.792724609375,-5.675537109375,6.456298828125
0.126,-4.073974609375,-4.474365234375,6.776611328125
0.1265,-5.114990234375,-3.193115234375,6.896728515625
0.127,-5.755615234375,-1.791748046875,6.456298828125
0.1275,-6.156005859375,-0.830810546875,6.256103515625
0.128,-6.356201171875,0.170166015625,5.895751953125
0.1285,-6.236083984375,1.171142578125,5.054931640625
0.129,-5.915771484375,2.532470703125,3.693603515625
0.1295,-5.595458984375,3.653564453125,2.372314453125
0.13,-5.034912109375,4.494384765625,1.211181640625
0.1305,-4.714599609375,5.255126953125,0.370361328125
0.131,-3.953857421875,5.655517578125,-0.710693359375
0.1315,-2.752685546875,5.815673828125,-2.031982421875
0.132,-1.471435546875,5.975830078125,-3.473388671875
0.1325,0.010009765625,5.735595703125,-4.594482421875
0.133,0.690673828125,5.735595703125,-5.395263671875
0.1335,1.531494140625,5.695556640625,-6.196044921875
0.134,2.692626953125,4.814697265625,-6.716552734375
0.1345,4.134033203125,3.373291015625,-6.996826171875
0.135,5.054931640625,2.092041015625,-6.916748046875
0.1355,5.575439453125,0.810791015625,-6.556396484375
0.136,5.895751953125,-0.150146484375,-6.356201171875
0.1365,6.015869140625,-1.231201171875,-5.755615234375
0.137,5.815673828125,-2.392333984375,-4.754638671875
0.1375,5.535400390625,-3.713623046875,-3.473388671875
0.138,5.054931640625,-4.794677734375,-1.991943359375
0.1385,4.534423828125,-5.515380859375,-0.990966796875
0.139,4.214111328125,-6.236083984375,0.010009765625
0.1395,3.253173828125,-6.476318359375,1.091064453125
0.14,1.851806640625,-6.716552734375,2.612548828125
0.1405,0.530517578125,-6.676513671875,3.973876953125
0.141,-0.790771484375,-6.436279296875,4.934814453125
0.1415,-1.431396484375,-6.476318359375,5.735595703125
0.142,-2.432373046875,-6.115966796875,6.496337890625
0.1425,-3.713623046875,-5.074951171875,6.976806640625
0.143,-5.034912109375,-3.593505859375,7.096923828125
0.1435,-5.875732421875,-2.072021484375,6.776611328125
0.144,-6.276123046875,-0.950927734375,6.416259765625
0.1445,-6.516357421875,0.010009765625,6.135986328125
0.145,-6.396240234375,1.091064453125,5.255126953125
0.1455,-6.196044921875,2.452392578125,3.973876953125
0.146,-5.835693359375,3.693603515625,2.692626953125
0.1465,-5.195068359375,4.614501953125,1.291259765625
0.147,-4.754638671875,5.295166015625,0.330322265625
0.1475,-4.154052734375,5.815673828125,-0.630615234375
0.148,-3.072998046875,5.975830078125,-1.831787109375
0.1485,-1.551513671875,6.135986328125,-3.473388671875
0.149,-0.150146484375,5.895751953125,-4.674560546875
0.1495,0.810791015625,5.735595703125,-5.435302734375
0.15,1.451416015625,5.735595703125,-6.156005859375
0.1505,2.612548828125,4.974853515625,-6.756591796875
0.151,3.893798828125,3.693603515625,-7.076904296875
0.1515,4.934814453125,2.412353515625,-7.076904296875
0.152,5.575439453125,0.930908203125,-6.596435546875
0.1525,5.895751953125,0.010009765625,-6.356201171875
0.153,6.055908203125,-0.990966796875,-5.955810546875
0.1535,5.815673828125,-2.031982421875,-5.074951171875
0.154,5.535400390625,-3.353271484375,-3.713623046875
0.1545,5.094970703125,-4.474365234375,-2.392333984375
0.155,4.534423828125,-5.195068359375,-1.231201171875
0.1555,4.214111328125,-5.915771484375,-0.390380859375
0.156,3.533447265625,-6.276123046875,0.610595703125
0.1565,2.412353515625,-6.436279296875,1.811767578125
0.157,1.091064453125,-6.516357421875,3.213134765625
0.1575,-0.310302734375,-6.276123046875,4.334228515625
0.158,-1.031005859375,-6.276123046875,5.094970703125
0.1585,-1.751708984375,-6.276123046875,5.895751953125
0.159,-2.872802734375,-5.515380859375,6.376220703125
0.1595,-4.154052734375,-4.234130859375,6.656494140625
0.16,-5.074951171875,-2.952880859375,6.616455078125
0.1605,-5.635498046875,-1.751708984375,6.296142578125
0.161,-6.035888671875,-0.910888671875,6.135986328125
0.1615,-6.196044921875,0.090087890625,5.695556640625
0.162,-6.035888671875,1.171142578125,4.854736328125
0.1625,-5.755615234375,2.412353515625,3.693603515625
0.163,-5.315185546875,3.533447265625,2.292236328125
0.1635,-4.914794921875,4.334228515625,1.291259765625
0.164,-4.674560546875,5.094970703125,0.490478515625
0.1645,-3.873779296875,5.415283203125,-0.630615234375
0.165,-2.672607421875,5.655517578125,-1.951904296875
0.1655,-1.471435546875,5.735595703125,-3.273193359375
0.166,-0.270263671875,5.535400390625,-4.314208984375
0.1665,0.530517578125,5.695556640625,-5.155029296875
0.167,1.411376953125,5.535400390625,-5.995849609375
0.1675,2.532470703125,4.734619140625,-6.436279296875
0.168,3.773681640625,3.453369140625,-6.716552734375
0.1685,4.694580078125,1.971923828125,-6.516357421875
0.169,5.255126953125,0.890869140625,-6.276123046875
0.1695,5.575439453125,0.090087890625,-6.196044921875
0.17,5.575439453125,-0.950927734375,-5.515380859375
0.1705,5.455322265625,-2.072021484375,-4.514404296875
0.171,5.255126953125,-3.233154296875,-3.473388671875
0.1715,4.774658203125,-4.234130859375,-2.152099609375
0.172,4.454345703125,-5.074951171875,-1.231201171875
0.1725,4.134033203125,-5.755615234375,-0.390380859375
0.173,3.253173828125,-5.995849609375,0.730712890625
0.1735,1.971923828125,-6.236083984375,2.132080078125
0.174,0.690673828125,-6.156005859375,3.333251953125
0.1745,-0.310302734375,-6.115966796875,4.214111328125
0.175,-0.950927734375,-6.276123046875,5.094970703125
0.1755,-1.951904296875,-5.835693359375,5.815673828125
0.176,-3.193115234375,-4.834716796875,6.256103515625
0.1765,-4.234130859375,-3.713623046875,6.416259765625
0.177,-5.034912109375,-2.392333984375,6.135986328125
0.1775,-5.555419921875,-1.471435546875,6.015869140625
0.178,-5.835693359375,-0.630615234375,5.815673828125
0.1785,-5.755615234375,0.370361328125,5.175048828125
0.179,-5.635498046875,1.571533203125,4.093994140625
0.1795,-5.315185546875,2.692626953125,2.932861328125
0.18,-4.874755859375,3.573486328125,1.851806640625
0.1805,-4.674560546875,4.374267578125,1.010986328125
0.181,-4.194091796875,4.934814453125,0.130126953125
0.1815,-3.273193359375,5.175048828125,-1.031005859375
0.182,-2.192138671875,5.415283203125,-2.312255859375
0.1825,-0.870849609375,5.255126953125,-3.473388671875
0.183,-0.150146484375,5.415283203125,-4.354248046875
0.1835,0.650634765625,5.535400390625,-5.195068359375
0.184,1.611572265625,5.014892578125,-5.795654296875
0.1845,2.892822265625,3.893798828125,-6.156005859375
0.185,3.853759765625,2.732666015625,-6.276123046875
0.1855,4.494384765625,1.531494140625,-6.075927734375
0.186,5.014892578125,0.770751953125,-6.035888671875
0.1865,5.255126953125,-0.150146484375,-5.755615234375
0.187,5.175048828125,-1.071044921875,-5.114990234375
0.1875,5.094970703125,-2.192138671875,-4.114013671875
0.188,4.734619140625,-3.273193359375,-2.912841796875
