wavelength,x,y,z
0.0,4.814697265625,-4.154052734375,-2.312255859375
0.0005,4.494384765625,-4.834716796875,-1.351318359375
0.001,4.134033203125,-5.395263671875,-0.630615234375
0.0015,3.613525390625,-6.035888671875,0.330322265625
0.002,2.252197265625,-6.156005859375,1.891845703125
0.0025,0.970947265625,-6.196044921875,3.173095703125
0.003,-0.190185546875,-6.156005859375,4.214111328125
0.0035,-0.830810546875,-6.115966796875,4.974853515625
0.004,-1.791748046875,-5.915771484375,5.655517578125
0.0045,-2.752685546875,-5.515380859375,6.456298828125
0.005,-4.234130859375,-3.713623046875,6.576416015625
0.0055,-5.355224609375,-2.272216796875,6.416259765625
0.006,-5.755615234375,-1.311279296875,6.135986328125
0.0065,-5.915771484375,-0.590576171875,5.855712890625
0.007,-6.075927734375,0.490478515625,5.415283203125
0.0075,-6.035888671875,1.851806640625,4.214111328125
0.008,-5.755615234375,3.052978515625,2.972900390625
0.0085,-5.195068359375,4.134033203125,1.611572265625
0.009,-4.754638671875,4.734619140625,0.770751953125
0.0095,-4.194091796875,5.135009765625,-0.230224609375
0.01,-3.673583984375,5.775634765625,-1.151123046875
0.0105,-1.831787109375,5.735595703125,-2.952880859375
0.011,-0.510498046875,5.655517578125,-4.234130859375
0.0115,0.370361328125,5.615478515625,-5.034912109375
0.012,1.091064453125,5.575439453125,-5.635498046875
0.0125,2.092041015625,5.054931640625,-6.396240234375
0.013,3.453369140625,4.013916015625,-6.996826171875
0.0135,4.614501953125,2.532470703125,-6.956787109375
0.014,5.455322265625,1.010986328125,-6.556396484375
0.0145,5.695556640625,0.130126953125,-6.276123046875
0.015,5.775634765625,-0.790771484375,-5.835693359375
0.0155,5.975830078125,-1.671630859375,-5.395263671875
0.016,5.615478515625,-3.313232421875,-3.673583984375
0.0165,5.094970703125,-4.554443359375,-2.312255859375
0.017,4.614501953125,-5.395263671875,-1.231201171875
0.0175,4.174072265625,-5.835693359375,-0.390380859375
0.018,3.533447265625,-6.196044921875,0.610595703125
0.0185,2.572509765625,-6.596435546875,1.931884765625
0.019,0.930908203125,-6.476318359375,3.453369140625
0.0195,-0.550537109375,-6.316162109375,4.614501953125
0.02,-1.191162109375,-6.196044921875,5.295166015625
0.0205,-1.871826171875,-6.035888671875,5.975830078125
0.021,-3.032958984375,-5.635498046875,6.736572265625
0.0215,-4.514404296875,-3.913818359375,6.936767578125
0.022,-5.515380859375,-2.552490234375,6.776611328125
0.0225,-6.115966796875,-1.271240234375,6.456298828125
0.023,-6.236083984375,-0.510498046875,6.135986328125
0.0235,-6.356201171875,0.450439453125,5.615478515625
0.024,-6.396240234375,1.571533203125,4.854736328125
0.0245,-5.915771484375,3.052978515625,3.213134765625
0.025,-5.355224609375,4.294189453125,1.731689453125
0.0255,-4.914794921875,4.854736328125,0.770751953125
0.026,-4.354248046875,5.375244140625,0.010009765625
0.0265,-3.753662109375,5.775634765625,-1.111083984375
0.027,-2.232177734375,5.935791015625,-2.712646484375
0.0275,-0.790771484375,5.815673828125,-4.073974609375
0.028,0.490478515625,5.735595703125,-5.034912109375
0.0285,1.010986328125,5.575439453125,-5.715576171875
0.029,1.971923828125,5.295166015625,-6.396240234375
0.0295,2.972900390625,4.774658203125,-7.076904296875
0.03,4.494384765625,2.932861328125,-7.076904296875
0.0305,5.455322265625,1.411376953125,-6.756591796875
0.031,5.815673828125,0.370361328125,-6.476318359375
0.0315,5.975830078125,-0.510498046875,-6.156005859375
0.032,6.095947265625,-1.351318359375,-5.635498046875
0.0325,5.855712890625,-2.872802734375,-4.394287109375
0.033,5.455322265625,-4.154052734375,-2.912841796875
0.0335,4.854736328125,-5.275146484375,-1.551513671875
0.034,4.454345703125,-5.715576171875,-0.670654296875
0.0345,3.853759765625,-6.156005859375,0.290283203125
0.035,3.173095703125,-6.716552734375,1.251220703125
0.0355,1.371337890625,-6.596435546875,3.012939453125
0.036,0.010009765625,-6.356201171875,4.414306640625
0.0365,-1.071044921875,-6.396240234375,5.175048828125
0.037,-1.551513671875,-6.236083984375,5.775634765625
0.0375,-2.712646484375,-5.795654296875,6.496337890625
0.038,-3.993896484375,-4.714599609375,7.056884765625
0.0385,-5.195068359375,-3.193115234375,6.976806640625
0.039,-6.035888671875,-1.631591796875,6.576416015625
0.0395,-6.316162109375,-0.790771484375,6.296142578125
0.04,-6.396240234375,0.130126953125,5.855712890625
0.0405,-6.516357421875,1.051025390625,5.375244140625
0.041,-6.115966796875,2.652587890625,3.693603515625
0.0415,-5.635498046875,3.933837890625,2.212158203125
0.042,-5.155029296875,4.814697265625,1.091064453125
0.0425,-4.594482421875,5.255126953125,0.250244140625
0.043,-3.913818359375,5.735595703125,-0.790771484375
0.0435,-2.912841796875,6.135986328125,-2.072021484375
0.044,-1.231201171875,6.015869140625,-3.713623046875
0.0445,0.130126953125,5.735595703125,-4.954833984375
0.045,0.930908203125,5.735595703125,-5.555419921875
0.0455,1.611572265625,5.495361328125,-6.276123046875
0.046,2.692626953125,5.054931640625,-7.036865234375
0.0465,4.294189453125,3.373291015625,-7.156982421875
0.047,5.295166015625,1.851806640625,-7.036865234375
0.0475,5.895751953125,0.650634765625,-6.636474609375
0.048,5.895751953125,-0.350341796875,-6.316162109375
0.0485,6.095947265625,-1.231201171875,-5.795654296875
0.049,6.055908203125,-2.512451171875,-4.994873046875
0.0495,5.615478515625,-3.913818359375,-3.353271484375
0.05,5.094970703125,-5.114990234375,-1.791748046875
0.0505,4.494384765625,-5.755615234375,-0.790771484375
0.051,3.973876953125,-6.196044921875,0.090087890625
0.0515,3.453369140625,-6.556396484375,1.010986328125
0.052,1.731689453125,-6.796630859375,2.692626953125
0.0525,0.290283203125,-6.636474609375,4.093994140625
0.053,-0.950927734375,-6.396240234375,5.094970703125
0.0535,-1.551513671875,-6.316162109375,5.695556640625
0.054,-2.432373046875,-5.955810546875,6.376220703125
0.0545,-3.513427734375,-5.395263671875,7.056884765625
0.055,-4.874755859375,-3.553466796875,7.056884765625
0.0555,-5.755615234375,-1.951904296875,6.656494140625
0.056,-6.236083984375,-0.950927734375,6.416259765625
0.0565,-6.236083984375,-0.270263671875,6.015869140625
0.057,-6.396240234375,0.690673828125,5.455322265625
0.0575,-6.236083984375,2.172119140625,4.214111328125
0.058,-5.755615234375,3.413330078125,2.852783203125
0.0585,-5.155029296875,4.494384765625,1.451416015625
0.059,-4.674560546875,5.014892578125,0.610595703125
0.0595,-4.194091796875,5.415283203125,-0.310302734375
0.06,-3.553466796875,5.975830078125,-1.231201171875
0.0605,-1.791748046875,5.775634765625,-2.952880859375
0.061,-0.470458984375,5.655517578125,-4.234130859375
0.0615,0.490478515625,5.575439453125,-5.074951171875
0.062,1.131103515625,5.575439453125,-5.715576171875
0.0625,2.052001953125,5.135009765625,-6.396240234375
0.063,3.293212890625,4.174072265625,-6.876708984375
0.0635,4.534423828125,2.812744140625,-6.916748046875
0.064,5.255126953125,1.291259765625,-6.436279296875
0.0645,5.615478515625,0.290283203125,-6.316162109375
0.065,5.735595703125,-0.510498046875,-5.955810546875
0.0655,5.815673828125,-1.351318359375,-5.635498046875
0.066,5.535400390625,-2.832763671875,-4.114013671875
0.0665,5.175048828125,-4.033935546875,-2.712646484375
0.067,4.774658203125,-4.834716796875,-1.591552734375
0.0675,4.374267578125,-5.395263671875,-0.790771484375
0.068,3.893798828125,-5.875732421875,0.170166015625
0.0685,3.012939453125,-6.356201171875,1.291259765625
0.069,1.411376953125,-6.356201171875,2.692626953125
0.0695,0.130126953125,-6.156005859375,4.013916015625
0.07,-0.710693359375,-6.236083984375,4.814697265625
0.0705,-1.351318359375,-6.115966796875,5.535400390625
0.071,-2.312255859375,-5.915771484375,6.296142578125
0.0715,-3.833740234375,-4.434326171875,6.456298828125
0.072,-4.954833984375,-3.032958984375,6.536376953125
0.0725,-5.595458984375,-1.911865234375,6.216064453125
0.073,-5.795654296875,-1.071044921875,6.095947265625
0.0735,-5.955810546875,-0.310302734375,5.695556640625
0.074,-6.075927734375,0.890869140625,5.094970703125
0.0745,-5.755615234375,2.172119140625,3.773681640625
0.075,-5.155029296875,3.453369140625,2.252197265625
0.0755,-4.914794921875,4.134033203125,1.291259765625
0.076,-4.554443359375,4.614501953125,0.530517578125
0.0765,-4.073974609375,5.255126953125,-0.350341796875
0.077,-2.792724609375,5.415283203125,-1.831787109375
0.0775,-1.471435546875,5.495361328125,-3.072998046875
0.078,-0.350341796875,5.415283203125,-4.114013671875
0.0785,0.290283203125,5.455322265625,-4.834716796875
0.079,1.131103515625,5.335205078125,-5.595458984375
0.0795,2.011962890625,4.974853515625,-6.356201171875
0.08,3.533447265625,3.573486328125,-6.436279296875
0.0805,4.534423828125,1.931884765625,-6.356201171875
0.081,4.934814453125,0.970947265625,-6.115966796875
0.0815,5.175048828125,0.290283203125,-6.035888671875
0.082,5.495361328125,-0.510498046875,-5.755615234375
0.0825,5.335205078125,-1.751708984375,-4.674560546875
0.083,5.094970703125,-2.952880859375,-3.593505859375
0.0835,4.734619140625,-4.033935546875,-2.312255859375
0.084,4.334228515625,-4.754638671875,-1.471435546875
0.0845,3.973876953125,-5.275146484375,-0.710693359375
0.085,3.653564453125,-5.875732421875,0.210205078125
0.0855,2.292236328125,-5.915771484375,1.651611328125
0.086,0.930908203125,-5.875732421875,2.932861328125
0.0865,0.170166015625,-5.915771484375,3.853759765625
0.087,-0.630615234375,-6.115966796875,4.614501953125
0.0875,-1.471435546875,-5.915771484375,5.415283203125
0.088,-2.712646484375,-5.235107421875,5.935791015625
0.0885,-3.713623046875,-3.953857421875,6.135986328125
0.089,-4.794677734375,-2.592529296875,5.935791015625
0.0895,-5.155029296875,-1.791748046875,5.855712890625
0.09,-5.435302734375,-0.990966796875,5.735595703125
0.0905,-5.755615234375,-0.270263671875,5.615478515625
0.091,-5.635498046875,1.131103515625,4.414306640625
0.0915,-5.275146484375,2.252197265625,3.052978515625
0.092,-4.994873046875,3.173095703125,2.052001953125
0.0925,-4.834716796875,3.893798828125,1.371337890625
0.093,-4.434326171875,4.534423828125,0.570556640625
0.0935,-3.713623046875,5.094970703125,-0.630615234375
0.094,-2.512451171875,5.135009765625,-1.951904296875
0.0945,-1.231201171875,5.094970703125,-3.193115234375
0.095,-0.510498046875,5.255126953125,-3.993896484375
0.0955,0.290283203125,5.295166015625,-4.874755859375
0.096,1.131103515625,5.375244140625,-5.635498046875
0.0965,2.532470703125,4.053955078125,-5.915771484375
0.097,3.613525390625,2.812744140625,-6.035888671875
0.0975,4.334228515625,1.731689453125,-5.995849609375
0.098,4.694580078125,0.970947265625,-5.915771484375
0.0985,5.054931640625,0.290283203125,-5.755615234375
0.099,5.215087890625,-0.790771484375,-5.435302734375
0.0995,5.054931640625,-1.951904296875,-4.234130859375
0.1,4.734619140625,-3.072998046875,-2.912841796875
0.1005,4.414306640625,-3.953857421875,-2.072021484375
0.101,4.214111328125,-4.634521484375,-1.351318359375
0.1015,3.973876953125,-5.275146484375,-0.630615234375
0.102,2.852783203125,-5.595458984375,0.770751953125
0.1025,1.771728515625,-5.715576171875,2.011962890625
0.103,0.690673828125,-5.755615234375,3.052978515625
0.1035,0.130126953125,-5.875732421875,3.973876953125
0.104,-0.710693359375,-5.915771484375,4.734619140625
0.1045,-1.631591796875,-5.795654296875,5.575439453125
0.105,-2.912841796875,-4.514404296875,5.735595703125
0.1055,-4.073974609375,-3.193115234375,5.695556640625
0.106,-4.554443359375,-2.232177734375,5.735595703125
0.1065,-5.074951171875,-1.631591796875,5.735595703125
0.107,-5.315185546875,-0.790771484375,5.695556640625
0.1075,-5.395263671875,0.250244140625,4.774658203125
0.108,-5.155029296875,1.411376953125,3.853759765625
0.1085,-5.074951171875,2.452392578125,2.692626953125
0.109,-4.794677734375,3.173095703125,1.931884765625
0.1095,-4.514404296875,3.893798828125,1.171142578125
0.11,-4.274169921875,4.654541015625,0.370361328125
0.1105,-3.032958984375,4.934814453125,-0.990966796875
0.111,-1.951904296875,4.934814453125,-2.272216796875
0.1115,-1.111083984375,5.094970703125,-3.353271484375
0.112,-0.470458984375,5.295166015625,-4.194091796875
0.1125,0.610595703125,5.255126953125,-4.994873046875
0.113,1.651611328125,4.654541015625,-5.635498046875
0.1135,2.772705078125,3.573486328125,-5.835693359375
0.114,3.853759765625,2.252197265625,-5.835693359375
0.1145,4.294189453125,1.491455078125,-5.795654296875
0.115,4.734619140625,0.770751953125,-5.915771484375
0.1155,5.094970703125,0.050048828125,-5.835693359375
0.116,4.974853515625,-1.271240234375,-4.674560546875
0.1165,4.854736328125,-2.352294921875,-3.513427734375
0.117,4.574462890625,-3.353271484375,-2.552490234375
0.1175,4.494384765625,-4.114013671875,-1.831787109375
0.118,4.134033203125,-4.794677734375,-1.031005859375
0.1185,3.573486328125,-5.355224609375,0.050048828125
0.119,2.372314453125,-5.555419921875,1.331298828125
0.1195,1.211181640625,-5.635498046875,2.572509765625
0.12,0.570556640625,-5.835693359375,3.453369140625
0.1205,-0.310302734375,-6.115966796875,4.294189453125
0.121,-1.151123046875,-6.035888671875,5.215087890625
0.1215,-2.592529296875,-4.874755859375,5.575439453125
0.122,-3.713623046875,-3.633544921875,5.735595703125
0.1225,-4.474365234375,-2.552490234375,5.735595703125
0.123,-4.914794921875,-1.871826171875,5.775634765625
0.1235,-5.235107421875,-1.111083984375,5.695556640625
0.124,-5.475341796875,-0.190185546875,5.335205078125
0.1245,-5.355224609375,1.091064453125,4.214111328125
0.125,-5.074951171875,2.252197265625,2.892822265625
0.1255,-4.834716796875,3.093017578125,2.052001953125
0.126,-4.634521484375,3.733642578125,1.251220703125
0.1265,-4.354248046875,4.534423828125,0.610595703125
0.127,-3.273193359375,4.814697265625,-0.830810546875
0.1275,-2.192138671875,5.054931640625,-2.072021484375
0.128,-1.151123046875,5.175048828125,-3.153076171875
0.1285,-0.590576171875,5.255126953125,-4.033935546875
0.129,0.450439453125,5.255126953125,-4.914794921875
0.1295,1.371337890625,5.054931640625,-5.755615234375
0.13,2.732666015625,3.693603515625,-6.035888671875
0.1305,3.773681640625,2.372314453125,-5.915771484375
0.131,4.414306640625,1.491455078125,-5.795654296875
0.1315,4.774658203125,0.770751953125,-5.915771484375
0.132,5.094970703125,0.130126953125,-5.595458984375
0.1325,5.054931640625,-1.271240234375,-4.794677734375
0.133,4.934814453125,-2.432373046875,-3.713623046875
0.1335,4.734619140625,-3.513427734375,-2.552490234375
0.134,4.334228515625,-4.274169921875,-1.671630859375
0.1345,4.134033203125,-4.874755859375,-1.031005859375
0.135,3.773681640625,-5.555419921875,0.010009765625
0.1355,2.412353515625,-5.635498046875,1.411376953125
0.136,1.171142578125,-5.675537109375,2.732666015625
0.1365,0.410400390625,-5.995849609375,3.573486328125
0.137,-0.350341796875,-6.075927734375,4.414306640625
0.1375,-1.311279296875,-5.835693359375,5.255126953125
0.138,-2.512451171875,-4.994873046875,5.855712890625
0.1385,-3.793701171875,-3.833740234375,6.055908203125
0.139,-4.674560546875,-2.432373046875,5.975830078125
0.1395,-5.114990234375,-1.711669921875,5.775634765625
0.14,-5.435302734375,-0.910888671875,5.735595703125
0.1405,-5.755615234375,-0.190185546875,5.415283203125
0.141,-5.475341796875,1.291259765625,4.134033203125
0.1415,-5.235107421875,2.492431640625,2.852783203125
0.142,-4.874755859375,3.533447265625,1.971923828125
0.1425,-4.674560546875,4.093994140625,1.211181640625
0.143,-4.234130859375,4.654541015625,0.330322265625
0.1435,-3.393310546875,5.135009765625,-0.950927734375
0.144,-2.112060546875,5.295166015625,-2.192138671875
0.1445,-0.830810546875,5.215087890625,-3.553466796875
0.145,-0.270263671875,5.335205078125,-4.314208984375
0.1455,0.490478515625,5.335205078125,-5.074951171875
0.146,1.491455078125,5.175048828125,-5.795654296875
0.1465,3.012939453125,3.813720703125,-6.156005859375
0.147,4.053955078125,2.412353515625,-6.236083984375
0.1475,4.774658203125,1.291259765625,-6.115966796875
0.148,5.054931640625,0.650634765625,-5.875732421875
0.1485,5.215087890625,-0.270263671875,-5.675537109375
0.149,5.455322265625,-1.311279296875,-5.114990234375
0.1495,5.094970703125,-2.632568359375,-3.793701171875
0.15,4.814697265625,-3.833740234375,-2.432373046875
0.1505,4.494384765625,-4.594482421875,-1.551513671875
0.151,4.174072265625,-5.155029296875,-0.790771484375
0.1515,3.733642578125,-5.795654296875,0.130126953125
0.152,2.412353515625,-5.955810546875,1.571533203125
0.1525,1.131103515625,-6.115966796875,3.052978515625
0.153,0.050048828125,-6.115966796875,3.973876953125
0.1535,-0.710693359375,-6.276123046875,4.694580078125
0.154,-1.551513671875,-6.035888671875,5.495361328125
0.1545,-2.632568359375,-5.515380859375,6.376220703125
0.155,-4.073974609375,-3.913818359375,6.416259765625
0.1555,-5.114990234375,-2.432373046875,6.296142578125
0.156,-5.635498046875,-1.391357421875,6.176025390625
0.1565,-5.795654296875,-0.710693359375,5.935791015625
0.157,-5.995849609375,0.290283203125,5.495361328125
0.1575,-5.835693359375,1.731689453125,4.254150390625
0.158,-5.635498046875,2.932861328125,3.012939453125
0.1585,-5.195068359375,4.013916015625,1.651611328125
0.159,-4.794677734375,4.614501953125,0.850830078125
0.1595,-4.234130859375,5.094970703125,0.010009765625
0.16,-3.673583984375,5.695556640625,-1.231201171875
0.1605,-1.951904296875,5.695556640625,-2.872802734375
0.161,-0.510498046875,5.615478515625,-4.154052734375
0.1615,0.370361328125,5.655517578125,-4.994873046875
0.162,1.010986328125,5.575439453125,-5.635498046875
0.1625,2.092041015625,5.094970703125,-6.396240234375
0.163,3.533447265625,3.893798828125,-6.916748046875
0.1635,4.694580078125,2.412353515625,-7.036865234375
0.164,5.455322265625,0.970947265625,-6.556396484375
0.1645,5.695556640625,0.090087890625,-6.276123046875
0.165,5.855712890625,-0.790771484375,-5.835693359375
0.1655,5.895751953125,-1.871826171875,-5.275146484375
0.166,5.575439453125,-3.473388671875,-3.593505859375
0.1665,5.094970703125,-4.674560546875,-2.112060546875
0.167,4.654541015625,-5.475341796875,-1.031005859375
0.1675,4.134033203125,-5.915771484375,-0.270263671875
0.168,3.493408203125,-6.396240234375,0.690673828125
0.1685,2.332275390625,-6.716552734375,2.172119140625
0.169,0.690673828125,-6.596435546875,3.653564453125
0.1695,-0.710693359375,-6.476318359375,4.734619140625
0.17,-1.351318359375,-6.276123046875,5.415283203125
0.1705,-2.112060546875,-6.035888671875,6.095947265625
0.171,-3.113037109375,-5.595458984375,6.856689453125
0.1715,-4.714599609375,-3.833740234375,6.896728515625
0.172,-5.715576171875,-2.312255859375,6.776611328125
0.1725,-6.236083984375,-1.111083984375,6.416259765625
0.173,-6.196044921875,-0.310302734375,6.095947265625
0.1735,-6.316162109375,0.570556640625,5.495361328125
0.174,-6.356201171875,1.851806640625,4.654541015625
0.1745,-5.915771484375,3.213134765625,3.133056640625
0.175,-5.315185546875,4.414306640625,1.571533203125
0.1755,-4.834716796875,5.014892578125,0.610595703125
0.176,-4.314208984375,5.415283203125,-0.310302734375
0.1765,-3.713623046875,5.895751953125,-1.231201171875
0.177,-2.031982421875,5.895751953125,-2.912841796875
0.1775,-0.670654296875,5.895751953125,-4.154052734375
0.178,0.530517578125,5.735595703125,-5.155029296875
0.1785,1.131103515625,5.655517578125,-5.795654296875
0.179,2.052001953125,5.255126953125,-6.436279296875
0.1795,3.133056640625,4.654541015625,-7.156982421875
0.18,4.494384765625,2.892822265625,-6.996826171875
0.1805,5.455322265625,1.251220703125,-6.796630859375
0.181,5.775634765625,0.250244140625,-6.476318359375
0.1815,5.935791015625,-0.590576171875,-6.156005859375
0.182,6.015869140625,-1.471435546875,-5.635498046875
0.1825,5.775634765625,-2.952880859375,-4.194091796875
0.183,5.375244140625,-4.154052734375,-2.832763671875
0.1835,4.854736328125,-5.195068359375,-1.431396484375
0.184,4.414306640625,-5.755615234375,-0.670654296875
0.1845,3.773681640625,-6.276123046875,0.290283203125
0.185,3.213134765625,-6.716552734375,1.291259765625
0.1855,1.331298828125,-6.556396484375,3.052978515625
0.186,-0.190185546875,-6.396240234375,4.374267578125
0.1865,-0.990966796875,-6.316162109375,5.094970703125
0.187,-1.631591796875,-6.276123046875,5.775634765625
0.1875,-2.632568359375,-5.795654296875,6.536376953125
0.188,-4.033935546875,-4.514404296875,7.056884765625
