wavelength,x,y,z
0.0,-10.650390625,10.73046875,-0.640625
0.0005,-9.2890625,11.37109375,-2.72265625
0.001,-6.88671875,10.6904296875,-4.5244140625
0.0015,-4.96484375,10.810546875,-6.486328125
0.002,-2.322265625,10.6103515625,-8.96875
0.0025,-0.3203125,9.529296875,-9.8095703125
0.003,1.5615234375,9.4091796875,-11.4912109375
0.0035,3.8837890625,7.4072265625,-11.7314453125
0.004,5.7255859375,5.4052734375,-11.53125
0.0045,8.6083984375,2.9228515625,-11.8916015625
0.005,10.4501953125,0.3603515625,-11.130859375
0.0055,11.2509765625,-1.5615234375,-10.1298828125
0.006,12.6123046875,-3.0830078125,-9.9697265625
0.0065,12.33203125,-5.4853515625,-7.2470703125
0.007,12.091796875,-7.2470703125,-5.2451171875
0.0075,12.412109375,-9.8896484375,-2.8427734375
0.008,10.890625,-10.5703125,-0.640625
0.0085,10.41015625,-11.53125,0.880859375
0.009,8.888671875,-11.9716796875,2.962890625
0.0095,6.005859375,-11.0908203125,5.0048828125
0.01,3.9638671875,-11.05078125,6.966796875
0.0105,1.3212890625,-10.810546875,9.4091796875
0.011,-0.8408203125,-9.2890625,9.9296875
0.0115,-2.3623046875,-9.1689453125,11.2509765625
0.012,-4.8447265625,-6.88671875,11.451171875
0.0125,-6.8466796875,-4.5244140625,11.0107421875
0.013,-9.6494140625,-2.08203125,11.3310546875
0.0135,-11.2509765625,0.6005859375,10.2900390625
0.014,-11.69140625,2.08203125,9.2490234375
0.0145,-12.732421875,3.5234375,8.80859375
0.015,-12.3720703125,6.1259765625,5.8857421875
0.0155,-12.01171875,7.927734375,3.68359375
0.016,-12.251953125,10.490234375,1.361328125
0.0165,-10.4501953125,10.8505859375,-1.041015625
0.017,-9.9697265625,11.451171875,-2.1220703125
0.0175,-8.2080078125,11.69140625,-4.2841796875
0.018,-5.205078125,10.890625,-6.40625
0.0185,-3.0830078125,10.810546875,-8.3681640625
0.019,-0.48046875,10.41015625,-10.6103515625
0.0195,1.5615234375,8.80859375,-10.890625
0.02,2.802734375,8.6484375,-11.8916015625
0.0205,5.4052734375,6.166015625,-12.01171875
0.021,7.4072265625,3.68359375,-11.53125
0.0215,10.2099609375,1.12109375,-11.69140625
0.022,11.53125,-1.4013671875,-10.5302734375
0.0225,11.771484375,-2.6025390625,-9.5693359375
0.023,12.572265625,-4.1640625,-8.8486328125
0.0235,12.171875,-6.6865234375,-5.845703125
0.024,11.771484375,-8.408203125,-3.7236328125
0.0245,11.8916015625,-10.890625,-1.361328125
0.025,10.08984375,-10.970703125,0.720703125
0.0255,9.529296875,-11.451171875,1.6416015625
0.026,7.447265625,-11.4111328125,3.84375
0.0265,4.6044921875,-10.6103515625,5.92578125
0.027,2.5224609375,-10.6103515625,8.0078125
0.0275,0.0,-10.0498046875,9.9296875
0.028,-1.8017578125,-8.6083984375,10.08984375
0.0285,-2.962890625,-8.2080078125,10.8505859375
0.029,-5.6455078125,-5.60546875,10.890625
0.0295,-7.5673828125,-3.283203125,10.5302734375
0.03,-10.2900390625,-0.80078125,10.6904296875
0.0305,-11.2509765625,1.44140625,9.44921875
0.031,-11.451171875,2.482421875,8.6484375
0.0315,-12.091796875,4.2841796875,7.447265625
0.032,-11.771484375,6.7265625,4.64453125
0.0325,-11.4111328125,8.4482421875,2.5625
0.033,-11.4111328125,10.6904296875,0.2802734375
0.0335,-9.609375,10.5703125,-1.6416015625
0.034,-9.0087890625,10.9306640625,-2.5224609375
0.0345,-6.6865234375,10.890625,-4.884765625
0.035,-4.0439453125,10.2900390625,-6.9267578125
0.0355,-1.8017578125,10.25,-9.1689453125
0.036,0.720703125,9.5693359375,-10.7705078125
0.0365,2.08203125,8.248046875,-10.8505859375
0.037,3.443359375,7.52734375,-11.4111328125
0.0375,6.40625,4.724609375,-11.53125
0.038,8.16796875,2.5625,-11.05078125
0.0385,10.73046875,0.0400390625,-11.1708984375
0.039,11.53125,-2.08203125,-9.849609375
0.0395,11.611328125,-3.1630859375,-8.8486328125
0.04,12.171875,-5.3251953125,-7.20703125
0.0405,11.8515625,-7.7275390625,-4.564453125
0.041,11.4111328125,-9.2490234375,-2.5625
0.0415,11.2109375,-11.291015625,-0.3203125
0.042,9.2890625,-10.9306640625,1.521484375
0.0425,8.408203125,-10.970703125,2.482421875
0.043,5.765625,-11.0107421875,5.1650390625
0.0435,3.3232421875,-10.3701171875,6.966796875
0.044,0.9609375,-10.2099609375,9.0888671875
0.0445,-1.361328125,-9.369140625,10.5302734375
0.045,-2.72265625,-7.927734375,10.330078125
0.0455,-4.3642578125,-6.7265625,10.810546875
0.046,-7.4072265625,-3.8837890625,10.970703125
0.0465,-8.8486328125,-1.841796875,10.2900390625
0.047,-11.0908203125,0.48046875,10.2900390625
0.0475,-11.7314453125,2.482421875,8.9287109375
0.048,-11.69140625,3.8037109375,7.52734375
0.0485,-12.091796875,6.1259765625,5.60546875
0.049,-11.7314453125,8.248046875,3.0830078125
0.0495,-11.05078125,9.4091796875,1.201171875
0.05,-10.8505859375,11.291015625,-1.0009765625
0.0505,-8.6884765625,10.8505859375,-2.7626953125
0.051,-7.4873046875,10.810546875,-3.923828125
0.0515,-4.724609375,10.8505859375,-6.7666015625
0.052,-2.4423828125,10.1298828125,-8.328125
0.0525,-0.3603515625,9.849609375,-10.1298828125
0.053,1.921875,8.96875,-11.37109375
0.0535,3.443359375,7.2470703125,-11.0908203125
0.054,5.4052734375,5.6455078125,-11.4912109375
0.0545,8.2880859375,2.9228515625,-11.611328125
0.055,9.4892578125,0.7607421875,-10.5703125
0.0555,11.37109375,-1.1611328125,-10.6103515625
0.056,11.8916015625,-3.283203125,-9.0087890625
0.0565,11.7314453125,-4.724609375,-7.4072265625
0.057,12.01171875,-7.0869140625,-5.4052734375
0.0575,11.5712890625,-8.96875,-3.0830078125
0.058,10.73046875,-9.7294921875,-1.28125
0.0585,10.4501953125,-11.3310546875,0.720703125
0.059,8.087890625,-10.7705078125,2.5625
0.0595,6.646484375,-10.6103515625,3.8837890625
0.06,4.0439453125,-10.650390625,6.56640625
0.0605,1.8818359375,-9.8896484375,7.927734375
0.061,-0.2001953125,-9.5693359375,9.529296875
0.0615,-2.2822265625,-8.48828125,10.5302734375
0.062,-3.84375,-6.6865234375,10.2099609375
0.0625,-5.9658203125,-4.8447265625,10.5302734375
0.063,-8.568359375,-2.4423828125,10.6103515625
0.0635,-9.529296875,-0.3603515625,9.44921875
0.064,-11.2109375,1.28125,9.609375
0.0645,-11.53125,3.3232421875,7.8076171875
0.065,-11.291015625,4.8046875,6.0859375
0.0655,-11.611328125,7.1669921875,4.00390625
0.066,-11.0908203125,8.8486328125,1.8818359375
0.0665,-10.25,9.5693359375,0.2802734375
0.067,-9.8896484375,10.890625,-1.6015625
0.0675,-7.3671875,10.25,-3.5634765625
0.068,-5.765625,10.169921875,-5.0048828125
0.0685,-3.36328125,10.2900390625,-7.607421875
0.069,-1.2412109375,9.3291015625,-8.7685546875
0.0695,0.560546875,9.12890625,-10.169921875
0.07,2.5625,7.927734375,-10.970703125
0.0705,4.3642578125,6.005859375,-10.7705078125
0.071,6.6865234375,3.923828125,-11.05078125
0.0715,9.0888671875,1.5615234375,-10.970703125
0.072,9.8896484375,-0.5205078125,-9.76953125
0.0725,11.37109375,-1.841796875,-9.9697265625
0.073,11.451171875,-4.00390625,-7.927734375
0.0735,11.2109375,-5.7255859375,-6.005859375
0.074,11.5712890625,-7.9677734375,-4.00390625
0.0745,10.8505859375,-9.3291015625,-1.8017578125
0.075,9.9697265625,-9.9296875,-0.3203125
0.0755,9.4091796875,-10.970703125,1.44140625
0.076,6.6865234375,-10.2900390625,3.5234375
0.0765,4.96484375,-10.169921875,5.0849609375
0.077,2.6025390625,-10.330078125,7.607421875
0.0775,0.5205078125,-9.1689453125,8.5283203125
0.078,-1.0810546875,-8.96875,9.76953125
0.0785,-3.1630859375,-7.4873046875,10.3701171875
0.079,-5.0849609375,-5.3251953125,10.08984375
0.0795,-7.52734375,-3.203125,10.3701171875
0.08,-9.6494140625,-0.80078125,10.08984375
0.0805,-10.2099609375,0.9609375,8.8486328125
0.081,-11.4111328125,2.08203125,8.96875
0.0815,-11.4111328125,4.3642578125,6.56640625
0.082,-11.0908203125,6.24609375,4.484375
0.0825,-11.4912109375,8.568359375,2.5224609375
0.083,-10.41015625,9.6494140625,0.3203125
0.0835,-9.609375,10.0498046875,-1.0009765625
0.084,-8.6884765625,10.810546875,-2.72265625
0.0845,-5.92578125,10.08984375,-4.8447265625
0.085,-4.00390625,9.9697265625,-6.6064453125
0.0855,-1.7216796875,10.08984375,-9.0087890625
0.086,0.48046875,8.6884765625,-9.6494140625
0.0865,1.6416015625,8.568359375,-10.650390625
0.087,3.84375,6.7666015625,-11.05078125
0.0875,5.8857421875,4.484375,-10.7705078125
0.088,8.3681640625,2.2021484375,-10.970703125
0.0885,10.2900390625,-0.3203125,-10.490234375
0.089,10.5703125,-1.76171875,-9.2490234375
0.0895,11.53125,-2.8828125,-9.12890625
0.09,11.451171875,-5.28515625,-6.56640625
0.0905,11.0908203125,-7.046875,-4.4443359375
0.091,11.451171875,-9.369140625,-2.3623046875
0.0915,10.08984375,-10.08984375,-0.3203125
0.092,9.3291015625,-10.330078125,0.8408203125
0.0925,8.0478515625,-10.7705078125,2.5625
0.093,5.2451171875,-10.08984375,4.724609375
0.0935,3.3232421875,-9.9296875,6.5263671875
0.094,1.0009765625,-9.8896484375,8.7685546875
0.0945,-1.0009765625,-8.48828125,9.1689453125
0.095,-2.001953125,-8.248046875,9.9697265625
0.0955,-4.2841796875,-6.24609375,10.2099609375
0.096,-6.2861328125,-3.9638671875,9.9296875
0.0965,-8.7685546875,-1.7216796875,10.08984375
0.097,-10.330078125,0.560546875,9.4091796875
0.0975,-10.5302734375,1.7216796875,8.328125
0.098,-11.291015625,3.0830078125,7.84765625
0.0985,-11.130859375,5.5654296875,5.2451171875
0.099,-10.890625,7.1669921875,3.2431640625
0.0995,-11.05078125,9.529296875,1.1611328125
0.1,-9.609375,9.9296875,-0.8408203125
0.1005,-8.96875,10.08984375,-1.7216796875
0.101,-7.3271484375,10.2900390625,-3.603515625
0.1015,-4.6044921875,9.7294921875,-5.765625
0.102,-2.5625,9.6494140625,-7.7275390625
0.1025,-0.3603515625,9.44921875,-9.689453125
0.103,1.3212890625,8.1279296875,-9.9296875
0.1035,2.40234375,7.767578125,-10.5703125
0.104,4.96484375,5.4453125,-10.8505859375
0.1045,6.8466796875,3.283203125,-10.5703125
0.105,9.2890625,0.9208984375,-10.650390625
0.1055,10.5703125,-1.28125,-9.849609375
0.106,10.73046875,-2.322265625,-8.80859375
0.1065,11.37109375,-3.9638671875,-7.84765625
0.107,11.2109375,-6.4462890625,-5.125
0.1075,10.890625,-7.8876953125,-3.36328125
0.108,10.9306640625,-10.1298828125,-1.201171875
0.1085,9.44921875,-10.25,0.6806640625
0.109,8.6083984375,-10.2900390625,1.5615234375
0.1095,6.56640625,-10.4501953125,3.763671875
0.11,4.0439453125,-9.9296875,5.765625
0.1105,1.921875,-9.8095703125,7.8076171875
0.111,-0.4404296875,-9.369140625,9.609375
0.1115,-1.921875,-8.0078125,9.609375
0.112,-3.1630859375,-7.2470703125,10.08984375
0.1125,-6.1259765625,-4.6845703125,10.41015625
0.113,-7.7275390625,-2.72265625,10.009765625
0.1135,-9.9697265625,-0.5205078125,9.9697265625
0.114,-11.0908203125,1.6416015625,9.12890625
0.1145,-11.0908203125,3.0029296875,7.767578125
0.115,-11.611328125,4.96484375,6.3662109375
0.1155,-11.53125,7.4072265625,3.7236328125
0.116,-10.9306640625,8.568359375,1.9619140625
0.1165,-10.890625,10.6103515625,-0.2802734375
0.117,-9.12890625,10.6904296875,-2.1220703125
0.1175,-7.84765625,10.490234375,-3.2431640625
0.118,-5.4853515625,10.73046875,-5.845703125
0.1185,-3.04296875,10.08984375,-7.7275390625
0.119,-1.0009765625,9.7294921875,-9.369140625
0.1195,1.3212890625,9.2490234375,-11.0908203125
0.12,2.962890625,7.5673828125,-11.05078125
0.1205,4.64453125,6.24609375,-11.3310546875
0.121,7.7275390625,3.4833984375,-11.69140625
0.1215,9.12890625,1.201171875,-10.810546875
0.122,10.9306640625,-0.720703125,-10.6103515625
0.1225,12.01171875,-2.802734375,-9.609375
0.123,11.8115234375,-4.5244140625,-7.6875
0.1235,12.0517578125,-6.4462890625,-5.9658203125
0.124,11.8916015625,-8.8486328125,-3.4033203125
0.1245,10.8505859375,-9.609375,-1.6015625
0.125,10.810546875,-11.37109375,0.3603515625
0.1255,8.6884765625,-11.2509765625,2.40234375
0.126,7.0068359375,-10.8505859375,3.763671875
0.1265,4.5244140625,-10.970703125,6.3662109375
0.127,2.08203125,-10.25,8.1279296875
0.1275,0.2001953125,-9.6494140625,9.3291015625
0.128,-2.001953125,-9.12890625,10.890625
0.1285,-3.923828125,-7.046875,10.6904296875
0.129,-5.765625,-5.4453125,10.7705078125
0.1295,-8.6884765625,-2.8427734375,11.05078125
0.13,-9.8896484375,-0.4404296875,9.9296875
0.1305,-11.291015625,1.2412109375,9.7294921875
0.131,-12.2119140625,3.2431640625,8.6083984375
0.1315,-11.8115234375,5.0849609375,6.3662109375
0.132,-11.931640625,7.0869140625,4.484375
0.1325,-11.8115234375,9.3291015625,2.0419921875
0.133,-10.5302734375,9.849609375,0.240234375
0.1335,-10.4501953125,11.37109375,-1.44140625
0.134,-8.0478515625,11.130859375,-3.7236328125
0.1345,-6.1259765625,10.6103515625,-5.1650390625
0.135,-3.8037109375,10.810546875,-7.6875
0.1355,-1.3212890625,9.9697265625,-9.2890625
0.136,0.5205078125,9.2490234375,-10.25
0.1365,2.482421875,8.6484375,-11.6513671875
0.137,4.564453125,6.3662109375,-11.4111328125
0.1375,6.6064453125,4.32421875,-11.451171875
0.138,9.44921875,1.921875,-11.69140625
0.1385,10.3701171875,-0.6005859375,-10.25
0.139,11.611328125,-1.8818359375,-10.169921875
0.1395,12.251953125,-3.8837890625,-8.728515625
0.14,11.8115234375,-5.8056640625,-6.3662109375
0.1405,11.8916015625,-7.8876953125,-4.3642578125
0.141,11.6513671875,-9.9697265625,-2.001953125
0.1415,10.169921875,-10.169921875,-0.2802734375
0.142,10.08984375,-11.4912109375,1.2412109375
0.1425,7.4072265625,-11.05078125,3.5234375
0.143,5.365234375,-10.5302734375,5.0849609375
0.1435,3.123046875,-10.73046875,7.52734375
0.144,0.640625,-9.689453125,8.96875
0.1445,-1.0009765625,-9.048828125,9.76953125
0.145,-2.8828125,-8.2880859375,10.8505859375
0.1455,-5.044921875,-5.8857421875,10.5302734375
0.146,-7.126953125,-3.7236328125,10.5302734375
0.1465,-9.7294921875,-1.3212890625,10.6904296875
0.147,-10.41015625,0.9609375,9.12890625
0.1475,-11.4912109375,1.921875,9.208984375
0.148,-11.8916015625,4.083984375,7.4072265625
0.1485,-11.4111328125,6.005859375,5.044921875
0.149,-11.5712890625,8.1279296875,3.04296875
0.1495,-11.0908203125,9.8896484375,0.7607421875
0.15,-9.6494140625,10.009765625,-0.9208984375
0.1505,-9.44921875,11.05078125,-2.2021484375
0.151,-6.6865234375,10.5302734375,-4.5244140625
0.1515,-4.5244140625,10.08984375,-6.2060546875
0.152,-2.40234375,10.330078125,-8.6083984375
0.1525,0.0400390625,9.0888671875,-9.689453125
0.153,1.3212890625,8.6083984375,-10.41015625
0.1535,3.1630859375,7.4873046875,-11.2509765625
0.154,5.4052734375,5.1650390625,-10.970703125
0.1545,7.6474609375,2.9228515625,-10.9306640625
0.155,10.0498046875,0.5205078125,-10.890625
0.1555,10.4501953125,-1.44140625,-9.4091796875
0.156,11.451171875,-2.322265625,-9.4892578125
0.1565,11.611328125,-4.6044921875,-7.4072265625
0.157,11.2109375,-6.486328125,-5.0849609375
0.1575,11.4111328125,-8.6884765625,-3.0830078125
0.158,10.650390625,-10.0498046875,-0.880859375
0.1585,9.4091796875,-10.0498046875,0.48046875
0.159,8.8486328125,-10.8505859375,1.8818359375
0.1595,6.0458984375,-10.25,4.1240234375
0.16,3.9638671875,-9.9697265625,5.8857421875
0.1605,1.841796875,-10.169921875,8.2080078125
0.161,-0.48046875,-8.8486328125,9.0087890625
0.1615,-1.6015625,-8.48828125,9.6494140625
0.162,-3.5634765625,-7.046875,10.25
0.1625,-5.7255859375,-4.64453125,10.0498046875
0.163,-8.0078125,-2.4423828125,10.08984375
0.1635,-10.1298828125,-0.16015625,9.8896484375
0.164,-10.330078125,1.521484375,8.48828125
0.1645,-11.2109375,2.482421875,8.408203125
0.165,-11.37109375,4.9248046875,6.0458984375
0.1655,-10.9306640625,6.6865234375,3.8837890625
0.166,-11.1708984375,8.96875,1.841796875
0.1665,-10.2099609375,10.0498046875,-0.400390625
0.167,-9.048828125,9.9697265625,-1.4814453125
0.1675,-8.2080078125,10.5302734375,-2.9228515625
0.168,-5.3251953125,10.0498046875,-5.4052734375
0.1685,-3.203125,9.7294921875,-7.20703125
0.169,-1.0009765625,9.849609375,-9.529296875
0.1695,1.1611328125,8.3681640625,-10.1298828125
0.17,2.0419921875,8.087890625,-10.5703125
0.1705,4.3642578125,6.24609375,-11.0908203125
0.171,6.56640625,3.84375,-10.8505859375
0.1715,8.80859375,1.5615234375,-10.7705078125
0.172,10.7705078125,-0.80078125,-10.41015625
0.1725,10.8505859375,-2.2822265625,-8.96875
0.173,11.53125,-3.443359375,-8.48828125
0.1735,11.6513671875,-6.2060546875,-5.8056640625
0.174,11.1708984375,-7.6474609375,-3.84375
0.1745,11.1708984375,-9.849609375,-1.6416015625
0.175,10.0498046875,-10.73046875,0.48046875
0.1755,8.7685546875,-10.41015625,1.521484375
0.176,7.447265625,-10.7705078125,3.203125
0.1765,4.484375,-10.330078125,5.685546875
0.177,2.40234375,-9.9697265625,7.3671875
0.1775,0.0400390625,-9.8896484375,9.609375
0.178,-1.8818359375,-8.328125,9.9296875
0.1785,-2.802734375,-7.6474609375,10.169921875
0.179,-5.525390625,-5.4052734375,10.650390625
0.1795,-7.5673828125,-3.0830078125,10.2900390625
0.18,-9.44921875,-1.0009765625,10.0498046875
0.1805,-11.1708984375,1.2412109375,9.609375
0.181,-11.1708984375,2.802734375,7.9677734375
0.1815,-11.611328125,4.2041015625,7.046875
0.182,-11.7314453125,7.046875,4.32421875
0.1825,-11.05078125,8.2080078125,2.482421875
0.183,-10.970703125,10.169921875,0.400390625
0.1835,-9.689453125,10.8505859375,-1.7216796875
0.184,-8.16796875,10.3701171875,-2.8828125
0.1845,-6.40625,10.73046875,-4.96484375
0.185,-3.68359375,10.2900390625,-7.3271484375
0.1855,-1.6416015625,9.609375,-8.8486328125
0.186,0.640625,9.609375,-10.7705078125
0.1865,2.5224609375,7.9677734375,-10.9306640625
0.187,3.8037109375,6.88671875,-11.05078125
0.1875,6.7666015625,4.404296875,-11.53125
0.188,8.6083984375,2.08203125,-11.05078125
0.1885,10.169921875,0.0400390625,-10.5302734375
0.189,11.7314453125,-2.001953125,-10.1298828125
0.1895,11.5712890625,-3.8837890625,-8.087890625
0.19,11.8115234375,-5.4052734375,-6.806640625
0.1905,11.9716796875,-8.1279296875,-4.2041015625
0.191,11.05078125,-9.048828125,-2.2822265625
0.1915,10.8505859375,-10.73046875,-0.48046875
0.192,9.44921875,-11.2509765625,1.7216796875
0.1925,7.3671875,-10.650390625,3.1630859375
0.193,5.525390625,-10.890625,5.2451171875
0.1935,2.8828125,-10.5302734375,7.447265625
0.194,0.9609375,-9.689453125,8.6083984375
0.1945,-1.2412109375,-9.4892578125,10.41015625
0.195,-3.203125,-7.607421875,10.5302734375
0.1955,-4.8046875,-6.1259765625,10.5302734375
0.196,-7.7275390625,-3.603515625,10.970703125
0.1965,-9.3291015625,-1.28125,10.2099609375
0.197,-10.5703125,0.6005859375,9.609375
0.1975,-11.8916015625,2.40234375,9.1689453125
0.198,-11.611328125,4.404296875,6.88671875
0.1985,-11.69140625,6.0859375,5.2451171875
0.199,-11.8916015625,8.6484375,2.8427734375
0.1995,-10.6904296875,9.4091796875,0.880859375
0.2,-10.5302734375,10.7705078125,-0.80078125
0.2005,-8.8486328125,11.1708984375,-2.962890625
0.201,-6.6064453125,10.490234375,-4.5244140625
0.2015,-4.564453125,10.6103515625,-6.7666015625
0.202,-2.0419921875,10.2099609375,-8.8486328125
0.2025,-0.2001953125,9.2490234375,-9.689453125
0.203,1.7216796875,9.048828125,-11.291015625
0.2035,3.8837890625,6.966796875,-11.3310546875
0.204,5.7255859375,5.125,-11.2509765625
0.2045,8.568359375,2.6826171875,-11.6513671875
0.205,10.009765625,0.240234375,-10.5703125
0.2055,11.0107421875,-1.44140625,-10.009765625
0.206,12.1318359375,-3.123046875,-9.369140625
0.2065,11.7314453125,-5.205078125,-6.9267578125
0.207,11.69140625,-7.046875,-5.0849609375
0.2075,11.8515625,-9.44921875,-2.7626953125
0.208,10.41015625,-9.8896484375,-0.80078125
0.2085,10.2099609375,-11.05078125,0.640625
0.209,8.2080078125,-11.2509765625,2.8427734375
0.2095,5.8857421875,-10.5302734375,4.484375
0.21,3.8837890625,-10.650390625,6.6865234375
0.2105,1.4013671875,-10.08984375,8.6484375
0.211,-0.48046875,-9.048828125,9.2490234375
0.2115,-2.162109375,-8.728515625,10.6103515625
0.212,-4.4443359375,-6.4462890625,10.5302734375
0.2125,-6.3662109375,-4.404296875,10.3701171875
0.213,-9.0888671875,-2.08203125,10.810546875
0.2135,-10.2099609375,0.3603515625,9.5693359375
0.214,-11.05078125,1.5615234375,9.0888671875
0.2145,-11.8515625,3.3232421875,8.16796875
0.215,-11.451171875,5.4453125,5.6455078125
0.2155,-11.451171875,7.3671875,3.7236328125
0.216,-11.53125,9.609375,1.521484375
0.2165,-9.8896484375,9.849609375,-0.5205078125
0.217,-9.76953125,10.8505859375,-1.6416015625
0.2175,-7.447265625,10.73046875,-3.923828125
0.218,-5.0849609375,10.1298828125,-5.7255859375
0.2185,-3.0830078125,10.3701171875,-7.8876953125
0.219,-0.640625,9.6494140625,-9.609375
0.2195,1.0009765625,8.6083984375,-10.1298828125
0.22,2.5224609375,8.2080078125,-11.2509765625
0.2205,4.9248046875,5.765625,-11.130859375
0.221,6.966796875,3.5634765625,-10.9306640625
0.2215,9.689453125,1.201171875,-11.2509765625
0.222,10.5302734375,-1.1611328125,-9.8095703125
0.2225,11.1708984375,-2.08203125,-9.529296875
0.223,11.8115234375,-4.00390625,-8.2080078125
