wavelength,x,y,z
0.0,3.693603515625,17.427001953125,-20.770263671875
0.0005,-1.871826171875,20.109619140625,-18.207763671875
0.001,-5.755615234375,21.510986328125,-15.965576171875
0.0015,-8.958740234375,22.071533203125,-13.523193359375
0.002,-12.161865234375,22.191650390625,-10.720458984375
0.0025,-16.085693359375,20.990478515625,-5.755615234375
0.003,-18.928466796875,19.348876953125,-1.431396484375
0.0035,-21.090576171875,17.106689453125,3.052978515625
0.004,-22.411865234375,14.864501953125,6.536376953125
0.0045,-22.331787109375,11.541259765625,9.739501953125
0.005,-22.131591796875,7.977783203125,13.182861328125
0.0055,-21.210693359375,3.573486328125,16.706298828125
0.006,-19.288818359375,-1.231201171875,19.509033203125
0.0065,-16.846435546875,-5.114990234375,21.030517578125
0.007,-14.684326171875,-8.278076171875,22.071533203125
0.0075,-11.521240234375,-11.361083984375,22.111572265625
0.008,-6.396240234375,-15.244873046875,21.070556640625
0.0085,-2.031982421875,-18.087646484375,19.629150390625
0.009,2.932861328125,-20.369873046875,17.266845703125
0.0095,6.616455078125,-21.651123046875,15.144775390625
0.01,9.739501953125,-21.531005859375,12.181884765625
0.0105,12.782470703125,-21.571044921875,9.339111328125
0.011,16.586181640625,-20.449951171875,4.614501953125
0.0115,19.228759765625,-18.247802734375,-0.190185546875
0.012,20.830322265625,-16.165771484375,-3.873779296875
0.0125,21.831298828125,-13.843505859375,-7.076904296875
0.013,21.631103515625,-10.760498046875,-9.999755859375
0.0135,21.110595703125,-6.556396484375,-13.803466796875
0.014,20.189697265625,-2.672607421875,-16.686279296875
0.0145,18.147705078125,1.931884765625,-19.288818359375
0.015,15.945556640625,5.575439453125,-20.770263671875
0.0155,13.262939453125,8.538330078125,-21.090576171875
0.016,10.420166015625,11.581298828125,-21.410888671875
0.0165,5.094970703125,15.545166015625,-20.249755859375
0.017,0.450439453125,18.067626953125,-18.327880859375
0.0175,-3.633544921875,19.909423828125,-16.365966796875
0.018,-7.036865234375,21.190673828125,-14.444091796875
0.0185,-10.159912109375,20.990478515625,-11.361083984375
0.019,-13.443115234375,20.510009765625,-7.797607421875
0.0195,-16.686279296875,19.589111328125,-3.713623046875
0.02,-19.208740234375,17.306884765625,1.091064453125
0.0205,-20.570068359375,15.224853515625,4.414306640625
0.021,-21.130615234375,12.742431640625,7.457275390625
0.0215,-21.210693359375,9.819580078125,10.420166015625
0.022,-20.489990234375,5.094970703125,14.384033203125
0.0225,-19.128662109375,1.171142578125,17.106689453125
0.023,-17.166748046875,-2.872802734375,19.268798828125
0.0235,-15.324951171875,-6.276123046875,20.790283203125
0.024,-12.201904296875,-9.279052734375,20.670166015625
0.0245,-8.918701171875,-12.522216796875,20.750244140625
0.025,-4.033935546875,-16.085693359375,19.669189453125
0.0255,1.091064453125,-18.568115234375,17.266845703125
0.026,4.494384765625,-19.929443359375,15.465087890625
0.0265,7.657470703125,-20.850341796875,13.423095703125
0.027,10.700439453125,-20.770263671875,10.540283203125
0.0275,14.424072265625,-19.929443359375,6.135986328125
0.028,17.306884765625,-18.648193359375,2.172119140625
0.0285,19.509033203125,-16.526123046875,-2.232177734375
0.029,20.630126953125,-14.564208984375,-5.235107421875
0.0295,20.790283203125,-11.641357421875,-8.318115234375
0.03,20.790283203125,-8.598388671875,-11.401123046875
0.0305,20.109619140625,-4.154052734375,-15.164794921875
0.031,18.267822265625,0.370361328125,-17.647216796875
0.0315,16.345947265625,3.933837890625,-19.529052734375
0.032,14.384033203125,7.177001953125,-20.810302734375
0.0325,11.100830078125,10.219970703125,-20.690185546875
0.033,6.776611328125,13.783447265625,-20.169677734375
0.0335,2.492431640625,16.866455078125,-19.088623046875
0.034,-2.592529296875,19.268798828125,-16.646240234375
0.0345,-5.755615234375,20.389892578125,-14.844482421875
0.035,-8.958740234375,20.870361328125,-12.322021484375
0.0355,-12.121826171875,20.750244140625,-9.359130859375
0.036,-15.845458984375,19.709228515625,-4.754638671875
0.0365,-18.488037109375,17.787353515625,-0.270263671875
0.037,-20.329833984375,15.785400390625,3.573486328125
0.0375,-21.210693359375,13.583251953125,6.656494140625
0.038,-21.130615234375,10.340087890625,9.859619140625
0.0385,-20.730224609375,6.536376953125,13.302978515625
0.039,-19.889404296875,2.412353515625,16.626220703125
0.0395,-17.807373046875,-2.272216796875,19.148681640625
0.04,-15.725341796875,-5.555419921875,20.389892578125
0.0405,-13.443115234375,-8.638427734375,21.270751953125
0.041,-9.959716796875,-11.841552734375,21.110595703125
0.0415,-4.954833984375,-15.565185546875,19.909423828125
0.042,-0.430419921875,-18.127685546875,18.227783203125
0.0425,3.973876953125,-20.169677734375,16.105712890625
0.043,7.056884765625,-20.930419921875,14.103759765625
0.0435,10.340087890625,-20.970458984375,11.020751953125
0.044,13.583251953125,-20.570068359375,7.617431640625
0.0445,16.946533203125,-19.368896484375,3.173095703125
0.045,19.348876953125,-17.046630859375,-1.511474609375
0.0455,20.630126953125,-15.084716796875,-4.754638671875
0.046,21.230712890625,-12.602294921875,-7.797607421875
0.0465,20.990478515625,-9.279052734375,-10.880615234375
0.047,20.189697265625,-5.034912109375,-14.404052734375
0.0475,18.988525390625,-0.990966796875,-17.246826171875
0.048,16.946533203125,3.373291015625,-19.529052734375
0.0485,14.704345703125,6.456298828125,-20.489990234375
0.049,11.901611328125,9.579345703125,-20.810302734375
0.0495,8.338134765625,12.822509765625,-20.650146484375
0.05,3.453369140625,16.305908203125,-19.368896484375
0.0505,-1.471435546875,18.628173828125,-17.046630859375
0.051,-4.954833984375,20.149658203125,-15.324951171875
0.0515,-8.037841796875,20.790283203125,-13.162841796875
0.052,-11.200927734375,20.630126953125,-10.039794921875
0.0525,-14.564208984375,19.909423828125,-6.115966796875
0.053,-17.567138671875,18.468017578125,-1.871826171875
0.0535,-19.769287109375,16.185791015625,2.692626953125
0.054,-20.650146484375,14.143798828125,5.575439453125
0.0545,-21.090576171875,11.381103515625,8.698486328125
0.055,-20.810302734375,7.857666015625,12.021728515625
0.0555,-20.009521484375,3.573486328125,15.505126953125
0.056,-18.207763671875,-0.710693359375,17.947509765625
0.0565,-16.365966796875,-4.514404296875,19.949462890625
0.057,-14.123779296875,-7.437255859375,20.790283203125
0.0575,-10.920654296875,-10.560302734375,20.710205078125
0.058,-6.876708984375,-13.963623046875,20.189697265625
0.0585,-2.072021484375,-17.046630859375,18.708251953125
0.059,2.692626953125,-19.088623046875,16.305908203125
0.0595,5.695556640625,-20.209716796875,14.664306640625
0.06,8.818603515625,-20.690185546875,12.221923828125
0.0605,12.021728515625,-20.289794921875,8.818603515625
0.061,15.344970703125,-19.368896484375,4.774658203125
0.0615,17.947509765625,-17.567138671875,0.450439453125
0.062,19.909423828125,-15.525146484375,-3.593505859375
0.0625,20.469970703125,-13.322998046875,-6.276123046875
0.063,20.630126953125,-10.400146484375,-9.359130859375
0.0635,20.149658203125,-6.596435546875,-12.762451171875
0.064,19.228759765625,-2.712646484375,-16.005615234375
0.0645,17.226806640625,1.731689453125,-18.207763671875
0.065,15.465087890625,4.974853515625,-19.729248046875
0.0655,13.102783203125,7.937744140625,-20.489990234375
0.066,9.579345703125,11.220947265625,-20.209716796875
0.0665,5.375244140625,14.544189453125,-19.448974609375
0.067,0.690673828125,17.306884765625,-17.807373046875
0.0675,-3.593505859375,19.228759765625,-15.645263671875
0.068,-6.396240234375,19.989501953125,-13.803466796875
0.0685,-9.519287109375,20.309814453125,-11.240966796875
0.069,-12.922607421875,19.789306640625,-7.517333984375
0.0695,-16.005615234375,18.708251953125,-3.553466796875
0.07,-18.287841796875,16.666259765625,0.810791015625
0.0705,-19.969482421875,14.784423828125,4.214111328125
0.071,-20.369873046875,12.382080078125,7.096923828125
0.0715,-20.449951171875,9.138916015625,10.380126953125
0.072,-19.849365234375,5.175048828125,13.703369140625
0.0725,-18.648193359375,1.091064453125,16.706298828125
0.073,-16.606201171875,-3.113037109375,18.788330078125
0.0735,-14.724365234375,-5.955810546875,19.829345703125
0.074,-12.241943359375,-8.918701171875,20.429931640625
0.0745,-8.197998046875,-12.442138671875,19.989501953125
0.075,-3.833740234375,-15.485107421875,18.868408203125
0.0755,0.810791015625,-17.887451171875,16.826416015625
0.076,4.574462890625,-19.609130859375,15.064697265625
0.0765,7.377197265625,-20.009521484375,12.862548828125
0.077,10.380126953125,-20.129638671875,10.219970703125
0.0775,13.943603515625,-19.448974609375,6.216064453125
0.078,16.786376953125,-17.967529296875,1.931884765625
0.0785,18.868408203125,-15.885498046875,-2.192138671875
0.079,19.909423828125,-14.083740234375,-5.114990234375
0.0795,20.309814453125,-11.481201171875,-8.037841796875
0.08,20.029541015625,-7.797607421875,-11.481201171875
0.0805,19.348876953125,-4.114013671875,-14.564208984375
0.081,17.787353515625,0.130126953125,-17.206787109375
0.0815,15.865478515625,3.933837890625,-19.168701171875
0.082,13.583251953125,6.776611328125,-19.689208984375
0.0825,11.060791015625,9.659423828125,-20.169677734375
0.083,6.576416015625,13.383056640625,-19.529052734375
0.0835,2.132080078125,16.265869140625,-18.127685546875
0.084,-2.272216796875,18.267822265625,-16.005615234375
0.0845,-5.515380859375,19.749267578125,-14.404052734375
0.085,-8.438232421875,19.989501953125,-11.961669921875
0.0855,-11.601318359375,19.829345703125,-8.838623046875
0.086,-14.884521484375,19.148681640625,-5.034912109375
0.0865,-17.607177734375,17.306884765625,-0.590576171875
0.087,-19.489013671875,15.264892578125,3.333251953125
0.0875,-20.169677734375,13.142822265625,6.095947265625
0.088,-20.489990234375,10.460205078125,9.138916015625
0.0885,-20.009521484375,6.176025390625,12.942626953125
0.089,-19.128662109375,2.332275390625,15.865478515625
0.0895,-17.246826171875,-1.751708984375,18.067626953125
0.09,-15.605224609375,-5.195068359375,19.989501953125
0.0905,-12.962646484375,-7.997802734375,20.189697265625
0.091,-9.799560546875,-11.160888671875,20.309814453125
0.0915,-5.395263671875,-14.684326171875,19.509033203125
0.092,-0.470458984375,-17.447021484375,17.587158203125
0.0925,3.613525390625,-19.168701171875,15.505126953125
0.093,6.536376953125,-20.129638671875,13.783447265625
0.0935,9.659423828125,-20.369873046875,11.180908203125
0.094,13.142822265625,-19.729248046875,7.096923828125
0.0945,16.065673828125,-18.728271484375,3.413330078125
0.095,18.508056640625,-16.726318359375,-1.031005859375
0.0955,20.149658203125,-14.804443359375,-4.514404296875
0.096,20.349853515625,-12.201904296875,-7.277099609375
0.0965,20.510009765625,-9.439208984375,-10.400146484375
0.097,19.869384765625,-5.114990234375,-14.083740234375
0.0975,18.548095703125,-0.910888671875,-16.886474609375
0.098,16.426025390625,3.052978515625,-18.728271484375
0.0985,14.704345703125,6.216064453125,-20.209716796875
0.099,11.821533203125,9.138916015625,-20.369873046875
0.0995,7.857666015625,12.662353515625,-19.929443359375
0.1,3.853759765625,15.625244140625,-19.088623046875
0.1005,-1.231201171875,18.187744140625,-16.886474609375
0.101,-4.874755859375,19.709228515625,-15.004638671875
0.1015,-7.717529296875,20.149658203125,-12.802490234375
0.102,-10.720458984375,20.469970703125,-10.239990234375
0.1025,-14.564208984375,19.509033203125,-5.755615234375
0.103,-17.286865234375,18.027587890625,-1.671630859375
0.1035,-19.288818359375,16.025634765625,2.372314453125
0.104,-20.690185546875,14.143798828125,5.615478515625
0.1045,-20.690185546875,11.180908203125,8.578369140625
0.105,-20.650146484375,7.617431640625,12.101806640625
0.1055,-19.929443359375,3.693603515625,15.385009765625
0.106,-18.247802734375,-0.790771484375,18.107666015625
0.1065,-16.085693359375,-4.514404296875,19.749267578125
0.107,-14.003662109375,-7.397216796875,20.590087890625
0.1075,-11.240966796875,-10.400146484375,20.950439453125
0.108,-6.156005859375,-14.283935546875,19.909423828125
0.1085,-1.951904296875,-16.966552734375,18.548095703125
0.109,2.612548828125,-19.088623046875,16.385986328125
0.1095,6.055908203125,-20.489990234375,14.584228515625
0.11,9.098876953125,-20.449951171875,11.701416015625
0.1105,12.181884765625,-20.489990234375,8.898681640625
0.111,15.785400390625,-19.529052734375,4.494384765625
0.1115,18.427978515625,-17.447021484375,-0.230224609375
0.112,20.029541015625,-15.485107421875,-3.753662109375
0.1125,20.950439453125,-13.403076171875,-6.796630859375
0.113,20.870361328125,-10.440185546875,-9.639404296875
0.1135,20.349853515625,-6.075927734375,-13.443115234375
0.114,19.348876953125,-2.392333984375,-16.285888671875
0.1145,17.467041015625,2.052001953125,-18.728271484375
0.115,15.385009765625,5.615478515625,-20.249755859375
0.1155,12.622314453125,8.498291015625,-20.449951171875
0.116,9.779541015625,11.541259765625,-20.770263671875
0.1165,4.654541015625,15.385009765625,-19.649169921875
0.117,0.010009765625,17.867431640625,-17.607177734375
0.1175,-3.913818359375,19.509033203125,-15.685302734375
0.118,-7.116943359375,20.710205078125,-13.883544921875
0.1185,-10.199951171875,20.469970703125,-10.840576171875
0.119,-13.523193359375,19.909423828125,-7.116943359375
0.1195,-16.606201171875,18.948486328125,-3.193115234375
0.12,-19.088623046875,16.706298828125,1.491455078125
0.1205,-20.369873046875,14.704345703125,4.774658203125
0.121,-20.810302734375,12.101806640625,7.737548828125
0.1215,-20.810302734375,9.259033203125,10.740478515625
0.122,-20.129638671875,4.534423828125,14.704345703125
0.1225,-18.648193359375,0.570556640625,17.306884765625
0.123,-16.726318359375,-3.353271484375,19.228759765625
0.1235,-14.924560546875,-6.636474609375,20.670166015625
0.124,-11.641357421875,-9.559326171875,20.469970703125
0.1245,-8.197998046875,-12.802490234375,20.349853515625
0.125,-3.553466796875,-16.165771484375,19.268798828125
0.1255,1.571533203125,-18.568115234375,16.826416015625
0.126,4.934814453125,-19.889404296875,14.984619140625
0.1265,7.977783203125,-20.610107421875,12.902587890625
0.127,10.940673828125,-20.530029296875,10.099853515625
0.1275,14.664306640625,-19.569091796875,5.575439453125
0.128,17.427001953125,-18.287841796875,1.451416015625
0.1285,19.509033203125,-16.165771484375,-2.552490234375
0.129,20.550048828125,-14.243896484375,-5.635498046875
0.1295,20.590087890625,-11.200927734375,-8.598388671875
0.13,20.510009765625,-8.037841796875,-11.721435546875
0.1305,19.829345703125,-3.753662109375,-15.324951171875
0.131,17.907470703125,0.770751953125,-17.887451171875
0.1315,15.905517578125,4.174072265625,-19.368896484375
0.132,13.943603515625,7.337158203125,-20.570068359375
0.1325,10.740478515625,10.300048828125,-20.489990234375
0.133,6.256103515625,13.943603515625,-19.689208984375
0.1335,2.052001953125,16.786376953125,-18.568115234375
0.134,-2.792724609375,19.068603515625,-16.285888671875
0.1345,-5.915771484375,20.149658203125,-14.444091796875
0.135,-9.078857421875,20.469970703125,-11.841552734375
0.1355,-12.081787109375,20.389892578125,-8.958740234375
0.136,-15.845458984375,19.268798828125,-4.434326171875
0.1365,-18.327880859375,17.306884765625,0.130126953125
0.137,-19.929443359375,15.425048828125,3.733642578125
0.1375,-21.010498046875,13.302978515625,6.696533203125
0.138,-20.810302734375,10.099853515625,9.779541015625
0.1385,-20.369873046875,6.135986328125,13.343017578125
0.139,-19.529052734375,2.212158203125,16.506103515625
0.1395,-17.487060546875,-2.392333984375,18.948486328125
0.14,-15.405029296875,-5.635498046875,20.189697265625
0.1405,-13.002685546875,-8.638427734375,20.830322265625
0.141,-9.719482421875,-11.801513671875,20.830322265625
0.1415,-4.594482421875,-15.525146484375,19.589111328125
0.142,0.050048828125,-18.047607421875,17.747314453125
0.1425,4.134033203125,-19.889404296875,15.745361328125
0.143,7.257080078125,-20.810302734375,13.783447265625
0.1435,10.540283203125,-20.690185546875,10.620361328125
0.144,13.743408203125,-20.289794921875,7.177001953125
0.1445,16.986572265625,-19.168701171875,2.852783203125
0.145,19.549072265625,-16.806396484375,-2.031982421875
0.1455,20.630126953125,-14.804443359375,-4.994873046875
0.146,21.190673828125,-12.322021484375,-8.077880859375
0.1465,20.990478515625,-8.998779296875,-11.200927734375
0.147,20.229736328125,-4.634521484375,-14.804443359375
0.1475,18.868408203125,-0.590576171875,-17.567138671875
0.148,16.866455078125,3.693603515625,-19.809326171875
0.1485,14.584228515625,6.896728515625,-20.810302734375
0.149,11.541259765625,10.059814453125,-20.970458984375
0.1495,7.897705078125,13.383056640625,-20.770263671875
0.15,2.932861328125,16.866455078125,-19.448974609375
0.1505,-2.152099609375,19.188720703125,-17.006591796875
0.151,-5.515380859375,20.590087890625,-15.124755859375
0.1515,-8.718505859375,21.270751953125,-13.002685546875
0.152,-12.001708984375,20.950439453125,-9.679443359375
0.1525,-15.445068359375,20.109619140625,-5.515380859375
0.153,-18.407958984375,18.548095703125,-1.151123046875
0.1535,-20.610107421875,16.185791015625,3.453369140625
0.154,-21.410888671875,14.023681640625,6.416259765625
0.1545,-21.731201171875,11.020751953125,9.739501953125
0.155,-21.370849609375,7.297119140625,13.142822265625
0.1555,-20.449951171875,2.852783203125,16.666259765625
0.156,-18.447998046875,-1.591552734375,19.068603515625
0.1565,-16.446044921875,-5.315185546875,20.870361328125
0.157,-14.043701171875,-8.398193359375,21.631103515625
0.1575,-10.440185546875,-11.641357421875,21.430908203125
0.158,-6.156005859375,-15.084716796875,20.670166015625
0.1585,-1.231201171875,-18.247802734375,19.068603515625
0.159,3.693603515625,-20.329833984375,16.506103515625
0.1595,6.816650390625,-21.210693359375,14.584228515625
0.16,10.099853515625,-21.691162109375,12.021728515625
0.1605,13.463134765625,-21.130615234375,8.258056640625
0.161,16.866455078125,-20.089599609375,3.933837890625
0.1615,19.468994140625,-17.967529296875,-0.670654296875
0.162,21.350830078125,-15.765380859375,-4.754638671875
0.1625,21.791259765625,-13.282958984375,-7.637451171875
0.163,21.791259765625,-9.999755859375,-10.920654296875
0.1635,21.110595703125,-5.915771484375,-14.404052734375
0.164,20.029541015625,-1.591552734375,-17.647216796875
0.1645,17.667236328125,2.932861328125,-19.849365234375
0.165,15.585205078125,6.296142578125,-21.130615234375
0.1655,12.982666015625,9.459228515625,-21.731201171875
0.166,9.018798828125,12.862548828125,-21.290771484375
0.1665,4.494384765625,16.185791015625,-20.289794921875
0.167,-0.510498046875,18.948486328125,-18.287841796875
0.1675,-4.994873046875,20.830322265625,-16.005615234375
0.168,-7.957763671875,21.430908203125,-13.843505859375
0.1685,-11.240966796875,21.631103515625,-11.000732421875
0.169,-14.804443359375,20.830322265625,-6.876708984375
0.1695,-17.967529296875,19.509033203125,-2.512451171875
0.17,-20.249755859375,17.186767578125,2.172119140625
0.1705,-21.771240234375,15.104736328125,5.735595703125
0.171,-22.091552734375,12.221923828125,8.818603515625
0.1715,-21.931396484375,8.578369140625,12.422119140625
0.172,-21.090576171875,4.334228515625,15.825439453125
0.1725,-19.609130859375,-0.190185546875,18.828369140625
0.173,-17.246826171875,-4.554443359375,20.910400390625
0.1735,-14.964599609375,-7.597412109375,21.711181640625
0.174,-12.161865234375,-10.760498046875,22.151611328125
0.1745,-7.517333984375,-14.564208984375,21.430908203125
0.175,-2.832763671875,-17.647216796875,19.989501953125
0.1755,2.172119140625,-19.929443359375,17.667236328125
0.176,6.135986328125,-21.731201171875,15.665283203125
0.1765,9.218994140625,-21.851318359375,12.942626953125
0.177,12.502197265625,-21.811279296875,9.819580078125
0.1775,16.225830078125,-20.850341796875,5.415283203125
0.178,19.228759765625,-19.048583984375,0.650634765625
0.1785,21.230712890625,-16.726318359375,-3.793701171875
0.179,22.231689453125,-14.444091796875,-6.916748046875
0.1795,22.391845703125,-11.401123046875,-10.079833984375
0.18,21.911376953125,-7.156982421875,-13.923583984375
0.1805,20.870361328125,-3.113037109375,-16.966552734375
0.181,18.948486328125,1.571533203125,-19.609130859375
