wavelength,x,y,z
0.0,27.421752929688,-20.825317382812,-7.8126220703125
0.0005,29.503784179688,-16.461059570312,-10.455200195312
0.001,29.503784179688,-11.576293945312,-14.298950195312
0.0015,27.581909179688,-6.8116455078125,-18.863403320312
0.002,26.420776367188,-0.6055908203125,-21.906372070312
0.0025,23.097534179688,4.5194091796875,-25.349731445312
0.003,18.693237304688,8.0828857421875,-27.832153320312
0.0035,14.889526367188,10.525268554688,-28.793090820312
0.004,9.0838623046875,14.969604492188,-28.512817382812
0.0045,3.9989013671875,19.093627929688,-27.591918945312
0.005,-2.5675048828125,23.337768554688,-24.308715820312
0.0055,-7.0118408203125,26.100463867188,-22.026489257812
0.006,-9.7745361328125,28.462768554688,-16.621215820312
0.0065,-13.177856445312,28.302612304688,-11.856567382812
0.007,-18.022583007812,26.781127929688,-6.3712158203125
0.0075,-21.505981445312,26.100463867188,0.0350341796875
0.008,-25.589965820312,22.256713867188,4.9998779296875
0.0085,-27.872192382812,18.733276367188,8.6834716796875
0.009,-28.993286132812,14.729370117188,11.406127929688
0.0095,-28.913208007812,9.4842529296875,15.690307617188
0.01,-27.031372070312,4.5194091796875,20.134643554688
0.0105,-24.989379882812,-1.8067626953125,23.297729492188
0.011,-22.106567382812,-6.0509033203125,26.420776367188
0.0115,-17.221801757812,-9.2139892578125,28.823120117188
0.012,-13.297973632812,-12.096801757812,28.983276367188
0.0125,-7.6925048828125,-16.901489257812,28.382690429688
0.013,-1.8468017578125,-20.865356445312,27.381713867188
0.0135,3.9588623046875,-24.989379882812,23.618041992188
0.014,8.0028076171875,-27.391723632812,20.655151367188
0.0145,10.725463867188,-29.073364257812,15.410034179688
0.015,14.969604492188,-28.632934570312,9.8846435546875
0.0155,19.614135742188,-26.831176757812,4.6795654296875
0.016,23.337768554688,-25.469848632812,-2.4073486328125
0.0165,26.661010742188,-21.986450195312,-6.1710205078125
0.017,29.303588867188,-17.662231445312,-9.6143798828125
0.0175,29.183471679688,-13.738403320312,-12.697387695312
0.018,28.943237304688,-8.0528564453125,-17.221801757812
0.0185,26.941284179688,-2.6876220703125,-21.345825195312
0.019,23.938354492188,3.2781982421875,-24.508911132812
0.0195,21.015502929688,7.0819091796875,-27.271606445312
0.02,15.770385742188,9.8846435546875,-29.393676757812
0.0205,11.125854492188,13.448120117188,-28.953247070312
0.021,5.7606201171875,18.172729492188,-27.992309570312
0.0215,-1.2862548828125,22.176635742188,-26.470825195312
0.022,-5.6905517578125,25.900268554688,-22.466918945312
0.0225,-9.2540283203125,28.262573242188,-18.703247070312
0.023,-12.096801757812,28.823120117188,-13.498168945312
0.0235,-16.781372070312,28.342651367188,-7.6524658203125
0.024,-21.145629882812,26.220581054688,-2.4073486328125
0.0245,-24.829223632812,23.938354492188,4.6795654296875
0.025,-27.712036132812,20.294799804688,7.7225341796875
0.0255,-29.954223632812,15.610229492188,10.925659179688
0.026,-28.993286132812,11.406127929688,14.609252929688
0.0265,-28.352661132812,5.7606201171875,19.053588867188
0.027,-26.230590820312,-0.3253173828125,22.937377929688
0.0275,-22.667114257812,-5.2100830078125,26.100463867188
0.028,-19.504028320312,-8.6134033203125,28.502807617188
0.0285,-14.258911132812,-11.255981445312,29.784057617188
0.029,-9.2940673828125,-15.540161132812,29.183471679688
0.0295,-3.9688720703125,-20.104614257812,27.581909179688
0.03,3.2781982421875,-23.908325195312,25.780151367188
0.0305,6.9217529296875,-27.151489257812,21.415893554688
0.031,10.004760742188,-29.193481445312,17.171752929688
0.0315,13.528198242188,-28.552856445312,11.686401367188
0.032,18.052612304688,-28.192504882812,5.9608154296875
0.0325,22.496948242188,-25.750122070312,0.1551513671875
0.033,25.780151367188,-23.107543945312,-5.6104736328125
0.0335,28.342651367188,-19.423950195312,-8.4932861328125
0.034,29.784057617188,-14.619262695312,-11.496215820312
0.0345,28.703002929688,-10.214965820312,-15.580200195312
0.035,27.541870117188,-4.6495361328125,-19.704223632812
0.0355,25.499877929688,1.7967529296875,-23.267700195312
0.036,21.295776367188,5.7205810546875,-26.310668945312
0.0365,17.932495117188,8.6834716796875,-28.352661132812
0.037,12.527221679688,11.726440429688,-28.753051757812
0.0375,7.5623779296875,16.010620117188,-28.512817382812
0.038,1.8367919921875,20.575073242188,-26.070434570312
0.0385,-4.6495361328125,24.058471679688,-24.348754882812
0.039,-7.7325439453125,27.061401367188,-19.784301757812
0.0395,-10.535278320312,28.703002929688,-15.299926757812
0.04,-14.579223632812,27.581909179688,-9.9747314453125
0.0405,-18.663208007812,27.141479492188,-4.5294189453125
0.041,-23.187622070312,24.378784179688,1.9969482421875
0.0415,-26.110473632812,21.335815429688,6.3612060546875
0.042,-28.592895507812,17.692260742188,9.2440185546875
0.0425,-29.113403320312,12.687377929688,12.647338867188
0.043,-28.192504882812,8.2030029296875,16.931518554688
0.0435,-26.390747070312,2.6375732421875,20.975463867188
0.044,-24.468872070312,-3.8087158203125,24.338745117188
0.0445,-19.984497070312,-6.9718017578125,27.421752929688
0.045,-16.421020507812,-9.7745361328125,29.143432617188
0.0455,-11.135864257812,-13.578247070312,28.703002929688
0.046,-6.0909423828125,-17.742309570312,28.703002929688
0.0465,0.3553466796875,-22.466918945312,25.419799804688
0.047,5.6004638671875,-25.469848632812,23.417846679688
0.0475,8.5633544921875,-28.272583007812,18.733276367188
0.048,11.806518554688,-29.033325195312,13.448120117188
0.0485,16.370971679688,-27.792114257812,8.2030029296875
0.049,20.374877929688,-26.951293945312,2.6375732421875
0.0495,24.659057617188,-24.068481445312,-3.9688720703125
0.05,27.541870117188,-20.184692382812,-7.4122314453125
0.0505,29.463745117188,-16.701293945312,-10.174926757812
0.051,29.183471679688,-11.336059570312,-14.218872070312
0.0515,28.262573242188,-6.5313720703125,-18.262817382812
0.052,25.660034179688,-0.9259033203125,-22.386840820312
0.0525,23.698120117188,4.8797607421875,-25.189575195312
0.053,18.773315429688,7.7625732421875,-28.192504882812
0.0535,14.409057617188,10.645385742188,-29.353637695312
0.054,9.0438232421875,15.089721679688,-28.352661132812
0.0545,3.6385498046875,18.973510742188,-28.232543945312
0.055,-2.8477783203125,23.738159179688,-24.428833007812
0.0555,-7.2120361328125,26.580932617188,-21.546020507812
0.056,-9.7745361328125,28.903198242188,-17.141723632812
0.0565,-13.578247070312,28.743041992188,-11.175903320312
0.057,-18.062622070312,27.421752929688,-6.1309814453125
0.0575,-22.106567382812,25.619995117188,0.0750732421875
0.058,-25.750122070312,23.057495117188,5.6405029296875
0.0585,-28.632934570312,18.212768554688,8.8436279296875
0.059,-29.673950195312,14.609252929688,11.846557617188
0.0595,-28.873168945312,9.1239013671875,16.330932617188
0.06,-28.032348632812,3.9588623046875,20.094604492188
0.0605,-24.468872070312,-1.8868408203125,24.138549804688
0.061,-22.266723632812,-6.7315673828125,26.741088867188
0.0615,-17.421997070312,-9.2940673828125,29.343627929688
0.062,-12.537231445312,-12.537231445312,29.784057617188
0.0625,-7.5323486328125,-17.221801757812,28.462768554688
0.063,-1.5264892578125,-20.945434570312,27.581909179688
0.0635,4.3192138671875,-25.189575195312,24.098510742188
0.064,8.2030029296875,-27.872192382812,19.894409179688
0.0645,10.845581054688,-29.313598632812,15.690307617188
0.065,15.329956054688,-28.672973632812,9.1239013671875
0.0655,19.373901367188,-27.551879882812,4.3592529296875
0.066,23.618041992188,-24.508911132812,-2.1671142578125
0.0665,26.420776367188,-22.426879882812,-6.5714111328125
0.067,29.303588867188,-17.261840820312,-9.5743408203125
0.0675,29.503784179688,-13.257934570312,-12.697387695312
0.068,28.222534179688,-7.9727783203125,-17.221801757812
0.0685,27.421752929688,-2.5274658203125,-20.545043945312
0.069,23.417846679688,2.9178466796875,-24.348754882812
0.0695,20.494995117188,7.0819091796875,-26.871215820312
0.07,16.170776367188,9.3641357421875,-28.713012695312
0.0705,10.405151367188,13.167846679688,-28.873168945312
0.071,5.9207763671875,17.452026367188,-27.511840820312
0.0715,-0.7657470703125,21.335815429688,-25.589965820312
0.072,-5.4503173828125,24.899291992188,-22.987426757812
0.0725,-8.8135986328125,27.702026367188,-17.942504882812
0.073,-11.456176757812,28.102416992188,-13.818481445312
0.0735,-16.100708007812,27.261596679688,-7.4923095703125
0.074,-19.704223632812,26.420776367188,-2.6075439453125
0.0745,-23.988403320312,22.697143554688,3.5584716796875
0.075,-26.390747070312,20.374877929688,7.3621826171875
0.0755,-28.672973632812,15.690307617188,10.044799804688
0.076,-28.592895507812,11.125854492188,13.648315429688
0.0765,-26.951293945312,6.1610107421875,18.052612304688
0.077,-25.950317382812,0.4754638671875,21.215698242188
0.0775,-22.426879882812,-4.2491455078125,24.659057617188
0.078,-18.623168945312,-7.9327392578125,27.301635742188
0.0785,-14.859497070312,-10.214965820312,28.342651367188
0.079,-8.9737548828125,-14.459106445312,28.342651367188
0.0795,-4.4493408203125,-18.583129882812,27.061401367188
0.08,2.0770263671875,-22.587036132812,24.298706054688
0.0805,6.2811279296875,-25.509887695312,21.896362304688
0.081,9.2039794921875,-28.152465820312,16.571166992188
0.0815,12.407104492188,-27.872192382812,11.846557617188
0.082,17.051635742188,-26.751098632812,6.2410888671875
0.0825,20.735229492188,-25.790161132812,0.5955810546875
0.083,24.498901367188,-22.146606445312,-4.3292236328125
0.0835,27.061401367188,-19.063598632812,-7.8126220703125
0.084,28.382690429688,-14.939575195312,-10.375122070312
0.0845,28.342651367188,-9.7745361328125,-14.379028320312
0.085,26.460815429688,-5.0098876953125,-18.623168945312
0.0855,24.739135742188,1.0360107421875,-21.746215820312
0.086,21.616088867188,4.9998779296875,-24.909301757812
0.0865,17.011596679688,8.1629638671875,-27.551879882812
0.087,12.927612304688,10.765502929688,-27.752075195312
0.0875,7.2420654296875,15.169799804688,-27.671997070312
0.088,1.8768310546875,19.373901367188,-26.110473632812
0.0885,-3.6885986328125,23.217651367188,-22.907348632812
0.089,-7.4122314453125,25.900268554688,-20.104614257812
0.0895,-10.054809570312,27.782104492188,-14.859497070312
0.09,-13.858520507812,27.301635742188,-9.6143798828125
0.0905,-18.222778320312,25.940307617188,-4.4893798828125
0.091,-22.066528320312,24.338745117188,2.1571044921875
0.0915,-25.269653320312,20.815307617188,5.7205810546875
0.092,-27.912231445312,16.971557617188,9.0037841796875
0.0925,-28.032348632812,12.807495117188,11.926635742188
0.093,-27.992309570312,7.4822998046875,16.050659179688
0.0935,-25.750122070312,2.5174560546875,20.254760742188
0.094,-23.227661132812,-3.2481689453125,23.377807617188
0.0945,-20.304809570312,-6.7315673828125,26.140502929688
0.095,-15.380004882812,-9.4942626953125,28.382690429688
0.0955,-11.055786132812,-12.737426757812,27.942260742188
0.096,-5.6905517578125,-17.101684570312,27.421752929688
0.0965,0.6756591796875,-21.305786132812,25.499877929688
0.097,4.8797607421875,-24.629028320312,21.936401367188
0.0975,8.2830810546875,-27.151489257812,18.493041992188
0.098,11.165893554688,-27.792114257812,13.127807617188
0.0985,15.410034179688,-27.351684570312,7.6824951171875
0.099,19.614135742188,-25.469848632812,2.5975341796875
0.0995,23.297729492188,-23.347778320312,-3.8087158203125
0.1,26.020385742188,-19.864379882812,-6.7315673828125
0.1005,28.342651367188,-15.740356445312,-9.6143798828125
0.101,27.621948242188,-11.536254882812,-12.937622070312
0.1015,27.261596679688,-6.1309814453125,-16.821411132812
0.102,25.019409179688,-0.9659423828125,-20.745239257812
0.1025,21.936401367188,3.7987060546875,-23.547973632812
0.103,18.933471679688,7.0819091796875,-26.030395507812
0.1035,13.728393554688,9.6444091796875,-27.591918945312
0.104,9.0838623046875,13.287963867188,-27.151489257812
0.1045,3.8787841796875,17.532104492188,-26.110473632812
0.105,-2.5675048828125,21.455932617188,-24.188598632812
0.1055,-5.8907470703125,24.498901367188,-20.304809570312
0.106,-8.8135986328125,26.781127929688,-16.621215820312
0.1065,-11.856567382812,26.540893554688,-11.376098632812
0.107,-15.860473632812,26.300659179688,-6.0509033203125
0.1075,-20.184692382812,24.058471679688,-0.7257080078125
0.108,-23.387817382812,21.816284179688,4.5194091796875
0.1085,-25.990356445312,18.252807617188,7.4422607421875
0.109,-27.671997070312,13.848510742188,10.244995117188
0.1095,-26.871215820312,9.7645263671875,13.968627929688
0.11,-26.190551757812,4.4793701171875,17.692260742188
0.1105,-23.988403320312,-1.3262939453125,21.495971679688
0.111,-20.464965820312,-4.9698486328125,24.458862304688
0.1115,-17.462036132812,-7.9727783203125,26.741088867188
0.112,-12.497192382812,-10.775512695312,27.421752929688
0.1125,-7.7725830078125,-14.779418945312,27.301635742188
0.113,-2.3673095703125,-19.143676757812,25.299682617188
0.1135,3.5184326171875,-22.747192382812,23.578002929688
0.114,6.6815185546875,-25.589965820312,19.333862304688
0.1145,9.4842529296875,-27.391723632812,15.089721679688
0.115,13.448120117188,-26.590942382812,9.7645263671875
0.1155,17.211791992188,-26.430786132812,4.6395263671875
0.116,21.776245117188,-23.668090820312,-1.4063720703125
0.1165,24.659057617188,-21.065551757812,-5.3702392578125
0.117,27.221557617188,-17.542114257812,-8.2530517578125
0.1175,28.062377929688,-12.697387695312,-11.456176757812
0.118,27.221557617188,-8.2930908203125,-15.460083007812
0.1185,25.820190429688,-3.0479736328125,-19.103637695312
0.119,23.578002929688,2.7576904296875,-22.667114257812
0.1195,19.373901367188,6.0008544921875,-25.670043945312
0.12,15.890502929688,8.7235107421875,-27.551879882812
0.1205,10.445190429688,12.407104492188,-27.511840820312
0.121,5.6004638671875,16.170776367188,-27.551879882812
0.1215,-0.4854736328125,20.815307617188,-24.428833007812
0.122,-5.2901611328125,24.058471679688,-22.506958007812
0.1225,-8.2130126953125,26.901245117188,-17.862426757812
0.123,-11.215942382812,27.862182617188,-12.817504882812
0.1235,-15.780395507812,26.661010742188,-7.5323486328125
0.124,-19.223754882812,26.020385742188,-2.1671142578125
0.1245,-23.748168945312,22.817260742188,3.8387451171875
0.125,-26.550903320312,19.213745117188,7.3221435546875
0.1255,-28.472778320312,15.730346679688,10.124877929688
0.126,-28.512817382812,10.325073242188,14.008666992188
0.1265,-27.551879882812,5.6405029296875,18.012573242188
0.127,-25.069458007812,0.1951904296875,21.736206054688
0.1275,-22.907348632812,-5.0899658203125,24.859252929688
0.128,-18.062622070312,-8.0128173828125,27.782104492188
0.1285,-14.058715820312,-10.855590820312,28.903198242188
0.129,-8.6134033203125,-15.380004882812,28.142456054688
0.1295,-3.4083251953125,-18.863403320312,27.902221679688
0.13,2.6375732421875,-23.427856445312,24.058471679688
0.1305,6.9617919921875,-26.230590820312,21.175659179688
0.131,9.6844482421875,-28.392700195312,16.691284179688
0.1315,13.448120117188,-28.472778320312,10.605346679688
0.132,17.932495117188,-27.111450195312,5.6004638671875
0.1325,21.455932617188,-25.589965820312,-0.4454345703125
0.133,25.139526367188,-22.747192382812,-5.2901611328125
0.1335,27.942260742188,-18.062622070312,-8.5333251953125
0.134,28.903198242188,-14.579223632812,-11.296020507812
0.1345,28.342651367188,-8.9737548828125,-15.540161132812
0.135,27.461791992188,-3.9688720703125,-19.023559570312
0.1355,24.018432617188,1.4364013671875,-22.667114257812
0.136,21.616088867188,5.9608154296875,-25.349731445312
0.1365,16.851440429688,8.4832763671875,-27.872192382812
0.137,11.846557617188,11.606323242188,-28.472778320312
0.1375,6.9217529296875,16.010620117188,-27.351684570312
0.138,1.0760498046875,19.373901367188,-26.550903320312
0.1385,-4.1290283203125,23.578002929688,-23.027465820312
0.139,-7.8526611328125,26.300659179688,-19.063598632812
0.1395,-10.295043945312,27.621948242188,-15.059692382812
0.14,-14.379028320312,27.421752929688,-8.7335205078125
0.1405,-18.222778320312,26.300659179688,-4.0889892578125
0.141,-22.066528320312,23.578002929688,2.0770263671875
0.1415,-25.029418945312,21.335815429688,6.1610107421875
0.142,-27.872192382812,16.451049804688,9.1239013671875
0.1425,-28.192504882812,12.567260742188,12.166870117188
0.143,-27.191528320312,7.3621826171875,16.531127929688
0.1435,-26.550903320312,1.9969482421875,19.614135742188
0.144,-22.747192382812,-2.8878173828125,23.257690429688
0.1445,-19.944458007812,-6.9317626953125,25.940307617188
0.145,-15.900512695312,-9.2940673828125,27.822143554688
0.1455,-10.415161132812,-12.937622070312,28.262573242188
0.146,-5.8907470703125,-17.141723632812,27.061401367188
0.1465,0.5955810546875,-20.665161132812,25.419799804688
0.147,4.8397216796875,-24.188598632812,22.577026367188
0.1475,8.2830810546875,-27.071411132812,17.772338867188
0.148,11.005737304688,-27.511840820312,13.568237304688
0.1485,15.530151367188,-27.031372070312,7.3621826171875
0.149,19.253784179688,-26.190551757812,2.3973388671875
0.1495,23.177612304688,-22.707153320312,-3.4483642578125
0.15,25.820190429688,-20.304809570312,-6.8516845703125
0.1505,28.182495117188,-15.740356445312,-9.6143798828125
0.151,28.222534179688,-11.175903320312,-13.057739257812
0.1515,26.781127929688,-6.2110595703125,-17.421997070312
0.152,25.820190429688,-0.4454345703125,-20.424926757812
0.1525,22.096557617188,3.7186279296875,-23.788208007812
0.153,18.332885742188,7.3221435546875,-26.550903320312
0.1535,14.208862304688,9.7244873046875,-27.551879882812
0.154,8.3231201171875,13.848510742188,-27.912231445312
0.1545,3.5584716796875,18.172729492188,-26.510864257812
0.155,-2.8077392578125,21.816284179688,-23.908325195312
0.1555,-6.4112548828125,24.899291992188,-21.065551757812
0.156,-9.2540283203125,27.501831054688,-15.940551757812
0.1565,-12.457153320312,27.221557617188,-11.296020507812
0.157,-16.981567382812,26.380737304688,-5.4903564453125
0.1575,-20.665161132812,25.179565429688,0.4754638671875
0.158,-24.188598632812,21.495971679688,4.9197998046875
0.1585,-26.831176757812,18.212768554688,8.1629638671875
0.159,-28.072387695312,13.768432617188,11.045776367188
0.1595,-28.152465820312,8.8035888671875,14.889526367188
0.16,-26.230590820312,3.7987060546875,19.253784179688
0.1605,-24.508911132812,-2.3673095703125,22.096557617188
0.161,-20.945434570312,-5.8106689453125,25.219604492188
0.1615,-16.661254882812,-8.9337158203125,27.782104492188
0.162,-12.577270507812,-11.496215820312,27.822143554688
0.1625,-6.7716064453125,-15.860473632812,28.022338867188
0.163,-1.2862548828125,-20.064575195312,26.140502929688
0.1635,4.1190185546875,-23.507934570312,23.097534179688
0.164,7.5223388671875,-26.190551757812,19.774291992188
0.1645,10.244995117188,-27.912231445312,14.489135742188
0.165,14.168823242188,-27.431762695312,9.2039794921875
0.1655,18.453002929688,-26.190551757812,3.9188232421875
0.166,22.096557617188,-24.508911132812,-2.5675048828125
0.1665,25.099487304688,-20.865356445312,-5.8907470703125
0.167,27.742065429688,-17.101684570312,-8.8936767578125
0.1675,27.822143554688,-12.777465820312,-11.896606445312
0.168,27.902221679688,-7.4923095703125,-15.820434570312
0.1685,25.660034179688,-2.4473876953125,-19.904418945312
0.169,23.297729492188,3.1981201171875,-22.587036132812
0.1695,19.894409179688,6.2811279296875,-25.509887695312
0.17,15.129760742188,8.9637451171875,-27.712036132812
0.1705,10.645385742188,12.286987304688,-27.351684570312
0.171,5.2000732421875,16.531127929688,-27.191528320312
0.1715,-1.2462158203125,20.615112304688,-25.069458007812
0.172,-5.1700439453125,23.818237304688,-21.746215820312
0.1725,-8.2530517578125,26.540893554688,-18.102661132812
0.173,-11.055786132812,27.221557617188,-12.857543945312
0.1735,-15.259887695312,26.981323242188,-7.3721923828125
0.174,-19.504028320312,25.299682617188,-2.2471923828125
0.1745,-23.067504882812,23.177612304688,4.2391357421875
0.175,-25.910278320312,19.373901367188,7.0018310546875
0.1755,-28.312622070312,15.329956054688,9.8045654296875
0.176,-27.671997070312,10.885620117188,13.688354492188
0.1765,-27.671997070312,5.4403076171875,17.492065429688
0.177,-25.149536132812,0.0350341796875,21.616088867188
0.1775,-22.306762695312,-4.8897705078125,24.338745117188
0.178,-18.783325195312,-7.6925048828125,27.181518554688
