wavelength,x,y,z
0.0,7.20703125,-20.8203125,13.93359375
0.0005,9.9296875,-20.900390625,11.4111328125
0.001,13.8134765625,-19.8994140625,6.6865234375
0.0015,16.81640625,-18.73828125,2.5224609375
0.002,19.4990234375,-16.81640625,-1.9619140625
0.0025,20.9404296875,-15.0947265625,-5.0048828125
0.003,20.98046875,-12.33203125,-7.767578125
0.0035,21.1005859375,-9.44921875,-10.7705078125
0.004,20.1796875,-4.5244140625,-14.734375
0.0045,18.578125,0.0,-17.6572265625
0.005,16.736328125,3.4833984375,-19.5791015625
0.0055,15.134765625,6.646484375,-20.9404296875
0.006,11.931640625,9.529296875,-20.740234375
0.0065,7.3271484375,13.29296875,-20.099609375
0.007,2.642578125,16.576171875,-18.8984375
0.0075,-2.5625,19.3388671875,-16.81640625
0.008,-5.6455078125,20.6201171875,-15.3349609375
0.0085,-8.4482421875,20.9404296875,-12.9326171875
0.009,-11.2509765625,20.98046875,-10.41015625
0.0095,-15.4150390625,19.5791015625,-5.125
0.01,-18.337890625,17.8974609375,-0.5205078125
0.0105,-20.4599609375,16.1357421875,3.3232421875
0.011,-21.541015625,14.2939453125,6.24609375
0.0115,-21.220703125,11.1708984375,9.048828125
0.012,-21.0205078125,7.3671875,12.5322265625
0.0125,-19.939453125,3.0029296875,15.9755859375
0.013,-18.2177734375,-1.681640625,18.8984375
0.0135,-16.3759765625,-5.0048828125,20.33984375
0.014,-14.25390625,-7.7275390625,21.1005859375
0.0145,-11.0908203125,-10.650390625,20.98046875
0.015,-5.4853515625,-14.7744140625,19.6591796875
0.0155,-0.80078125,-17.6572265625,18.09765625
0.016,3.4833984375,-19.8994140625,16.3359375
0.0165,6.40625,-21.0205078125,14.734375
0.017,9.369140625,-20.8603515625,11.8115234375
0.0175,12.33203125,-20.66015625,8.80859375
0.018,16.095703125,-19.2587890625,3.923828125
0.0185,19.05859375,-17.296875,-1.041015625
0.019,20.5400390625,-15.5751953125,-4.1640625
0.0195,21.4609375,-13.453125,-6.966796875
0.02,21.1005859375,-10.5302734375,-9.6494140625
0.0205,20.3798828125,-5.845703125,-13.61328125
0.021,19.2587890625,-1.841796875,-16.5361328125
0.0215,17.6572265625,2.5224609375,-19.2587890625
0.022,15.7353515625,5.60546875,-20.5
0.0225,12.97265625,8.408203125,-20.66015625
0.023,9.6494140625,11.5712890625,-20.66015625
0.0235,4.083984375,15.4951171875,-19.21875
0.024,-0.9208984375,18.337890625,-17.2568359375
0.0245,-4.2041015625,20.1396484375,-15.7353515625
0.025,-7.126953125,20.900390625,-14.1337890625
0.0255,-10.169921875,20.6201171875,-11.1708984375
0.026,-13.6533203125,19.8994140625,-7.046875
0.0265,-16.9765625,18.6181640625,-2.5625
0.027,-19.779296875,16.6162109375,2.2421875
0.0275,-20.8603515625,14.8544921875,5.0849609375
0.028,-21.30078125,12.33203125,7.84765625
0.0285,-21.140625,9.2490234375,10.8505859375
0.029,-20.2197265625,4.2841796875,14.8544921875
0.0295,-18.73828125,0.0400390625,17.697265625
0.03,-17.2568359375,-3.8037109375,19.9794921875
0.0305,-15.3349609375,-6.7265625,21.1005859375
0.031,-12.01171875,-9.6494140625,20.7802734375
0.0315,-7.84765625,-13.29296875,20.4599609375
0.032,-2.5625,-16.8564453125,18.9384765625
0.0325,2.482421875,-19.5390625,16.8564453125
0.033,5.4853515625,-20.7802734375,15.375
0.0335,8.328125,-21.4208984375,13.29296875
0.034,11.4912109375,-21.1005859375,10.1298828125
0.0345,15.294921875,-19.8994140625,5.28515625
0.035,18.41796875,-18.337890625,0.7607421875
0.0355,20.8203125,-16.49609375,-3.5234375
0.036,21.541015625,-14.4140625,-6.166015625
0.0365,21.62109375,-11.3310546875,-9.369140625
0.037,21.30078125,-7.6474609375,-12.732421875
0.0375,20.2197265625,-2.8828125,-16.3359375
0.038,18.2978515625,1.76171875,-19.1787109375
0.0385,16.6162109375,5.0849609375,-20.8203125
0.039,14.333984375,8.0478515625,-21.541015625
0.0395,10.5302734375,11.2509765625,-21.140625
0.04,5.6455078125,15.0146484375,-20.1796875
0.0405,0.6005859375,18.2177734375,-18.578125
0.041,-4.2041015625,20.5400390625,-16.49609375
0.0415,-7.0068359375,21.3408203125,-14.7744140625
0.042,-10.0498046875,21.62109375,-12.171875
0.0425,-13.3330078125,21.1005859375,-8.48828125
0.043,-16.9765625,19.5791015625,-3.5234375
0.0435,-19.8994140625,17.6171875,1.3212890625
0.044,-21.78125,15.775390625,5.0048828125
0.0445,-22.2216796875,13.4130859375,7.767578125
0.045,-22.0615234375,9.9296875,11.0107421875
0.0455,-21.30078125,5.60546875,14.654296875
0.046,-20.0595703125,1.0009765625,17.9375
0.0465,-18.017578125,-3.5634765625,20.5
0.047,-16.015625,-6.5263671875,21.541015625
0.0475,-13.453125,-9.4892578125,22.0615234375
0.048,-9.048828125,-13.0126953125,21.380859375
0.0485,-3.84375,-16.5361328125,19.859375
0.049,1.2412109375,-19.4189453125,17.9375
0.0495,5.2451171875,-21.4609375,16.1357421875
0.05,7.9677734375,-21.78125,14.0537109375
0.0505,11.130859375,-21.78125,11.130859375
0.051,14.7744140625,-20.8603515625,6.7265625
0.0515,18.1376953125,-19.21875,1.921875
0.052,20.740234375,-17.1767578125,-2.72265625
0.0525,22.021484375,-15.3349609375,-5.8056640625
0.053,22.26171875,-12.65234375,-8.6884765625
0.0535,21.9013671875,-8.80859375,-12.171875
0.054,20.8203125,-4.32421875,-15.5751953125
0.0545,19.298828125,0.2802734375,-18.578125
0.055,17.3369140625,4.32421875,-20.900390625
0.0555,15.0546875,7.1669921875,-21.4208984375
0.056,12.2119140625,10.169921875,-21.6611328125
0.0565,7.3671875,14.013671875,-20.8603515625
0.057,2.2421875,17.296875,-19.21875
0.0575,-2.6025390625,19.7392578125,-17.1767578125
0.058,-5.92578125,21.3408203125,-15.6552734375
0.0585,-8.6884765625,21.5009765625,-13.29296875
0.059,-11.8115234375,21.1806640625,-10.0498046875
0.0595,-15.4150390625,20.1796875,-5.525390625
0.06,-18.658203125,18.337890625,-0.640625
0.0605,-20.9404296875,16.3759765625,3.6435546875
0.061,-21.6611328125,14.3740234375,6.326171875
0.0615,-21.94140625,11.611328125,9.2490234375
0.062,-21.4208984375,7.287109375,13.052734375
0.0625,-20.2197265625,2.9228515625,16.2158203125
0.063,-18.578125,-1.521484375,18.8984375
0.0635,-16.9765625,-5.125,21.060546875
0.064,-14.4140625,-7.767578125,21.2607421875
0.0645,-11.0908203125,-10.8505859375,21.140625
0.065,-6.0859375,-14.734375,20.1796875
0.0655,-0.9208984375,-17.9775390625,18.41796875
0.066,3.4833984375,-20.01953125,16.49609375
0.0665,6.326171875,-21.140625,15.0146484375
0.067,9.2490234375,-21.380859375,12.5322265625
0.0675,12.732421875,-20.7802734375,8.6083984375
0.068,16.095703125,-19.69921875,4.1240234375
0.0685,19.138671875,-17.77734375,-0.6005859375
0.069,21.140625,-16.015625,-4.244140625
0.0695,21.4208984375,-13.61328125,-6.9267578125
0.07,21.62109375,-10.73046875,-9.9697265625
0.0705,20.900390625,-6.0859375,-13.93359375
0.071,19.6591796875,-1.6416015625,-17.0966796875
0.0715,17.8173828125,2.5224609375,-19.4189453125
0.072,16.17578125,5.7255859375,-21.0205078125
0.0725,13.373046875,8.6083984375,-21.1806640625
0.073,9.2490234375,12.1318359375,-20.740234375
0.0735,4.484375,15.4951171875,-19.69921875
0.074,-0.8408203125,18.6982421875,-17.77734375
0.0745,-4.724609375,20.5400390625,-15.9755859375
0.075,-7.3671875,21.060546875,-14.09375
0.0755,-10.2900390625,21.3408203125,-11.6513671875
0.076,-14.1337890625,20.2998046875,-6.7666015625
0.0765,-17.3369140625,18.7783203125,-2.322265625
0.077,-19.939453125,16.9365234375,2.0419921875
0.0775,-21.5810546875,15.21484375,5.365234375
0.078,-21.5009765625,12.412109375,8.0478515625
0.0785,-21.5009765625,8.96875,11.451171875
0.079,-20.5400390625,4.484375,15.0146484375
0.0795,-19.0986328125,-0.2001953125,18.2177734375
0.08,-17.1767578125,-4.0439453125,20.1796875
0.0805,-15.294921875,-6.806640625,21.140625
0.081,-12.5322265625,-9.689453125,21.380859375
0.0815,-7.4072265625,-13.7734375,20.33984375
0.082,-2.72265625,-16.6962890625,18.9384765625
0.0825,2.08203125,-19.2587890625,17.2568359375
0.083,5.60546875,-21.0205078125,15.615234375
0.0835,8.2080078125,-21.0205078125,13.1728515625
0.084,11.1708984375,-21.140625,10.490234375
0.0845,15.21484375,-19.9794921875,5.4853515625
0.085,18.2978515625,-18.2578125,0.7607421875
0.0855,20.3798828125,-16.416015625,-3.0830078125
0.086,21.4609375,-14.6142578125,-5.9658203125
0.0865,21.4208984375,-11.7314453125,-8.728515625
0.087,20.98046875,-7.52734375,-12.5322265625
0.0875,19.939453125,-3.4833984375,-15.5751953125
0.088,18.41796875,1.12109375,-18.578125
0.0885,16.65625,4.724609375,-20.4599609375
0.089,14.09375,7.3671875,-20.66015625
0.0895,11.3310546875,10.2900390625,-21.0205078125
0.09,5.765625,14.57421875,-19.8193359375
0.0905,0.9609375,17.45703125,-18.09765625
0.091,-3.1630859375,19.5791015625,-16.416015625
0.0915,-6.2861328125,20.98046875,-15.0146484375
0.092,-9.0888671875,20.8203125,-12.2119140625
0.0925,-12.33203125,20.4599609375,-8.80859375
0.093,-15.85546875,19.3388671875,-4.3642578125
0.0935,-18.9384765625,17.376953125,0.6806640625
0.094,-20.66015625,15.6552734375,4.0439453125
0.0945,-21.1806640625,13.453125,6.6865234375
0.095,-21.3408203125,10.810546875,9.529296875
0.0955,-20.66015625,5.8857421875,13.853515625
0.096,-19.37890625,1.76171875,16.6162109375
0.0965,-17.857421875,-2.40234375,19.1787109375
0.097,-16.2158203125,-5.7255859375,20.9404296875
0.0975,-13.2529296875,-8.48828125,20.740234375
0.098,-9.8896484375,-11.6513671875,20.7802734375
0.0985,-4.5244140625,-15.5751953125,19.5390625
0.099,0.7607421875,-18.578125,17.6171875
0.0995,4.2041015625,-20.2197265625,15.9755859375
0.1,7.0869140625,-21.220703125,14.3740234375
0.1005,9.9697265625,-21.220703125,11.6513671875
0.101,13.93359375,-20.259765625,6.966796875
0.1015,17.0966796875,-19.0185546875,2.6826171875
0.102,19.859375,-17.13671875,-1.9619140625
0.1025,21.2607421875,-15.4150390625,-5.0048828125
0.103,21.380859375,-12.65234375,-7.84765625
0.1035,21.4208984375,-9.6494140625,-10.890625
0.104,20.5400390625,-4.64453125,-15.0146484375
0.1045,18.9384765625,0.0,-17.9775390625
0.105,17.296875,3.603515625,-19.939453125
0.1055,15.4150390625,6.6865234375,-21.3408203125
0.106,12.171875,9.6494140625,-21.1005859375
0.1065,7.52734375,13.4931640625,-20.4599609375
0.107,2.72265625,16.81640625,-19.21875
0.1075,-2.5224609375,19.6591796875,-17.13671875
0.108,-5.6455078125,20.9404296875,-15.4951171875
0.1085,-8.5283203125,21.2607421875,-13.2529296875
0.109,-11.4111328125,21.2607421875,-10.5302734375
0.1095,-15.53515625,19.859375,-5.1650390625
0.11,-18.578125,18.1376953125,-0.5205078125
0.1105,-20.66015625,16.3359375,3.4033203125
0.111,-21.78125,14.4140625,6.326171875
0.1115,-21.5009765625,11.2109375,9.2490234375
0.112,-21.1806640625,7.52734375,12.6123046875
0.1125,-20.2197265625,3.0029296875,16.1357421875
0.113,-18.41796875,-1.8017578125,19.138671875
0.1135,-16.5361328125,-5.125,20.5400390625
0.114,-14.4541015625,-7.84765625,21.4208984375
0.1145,-11.2109375,-10.810546875,21.1806640625
0.115,-5.60546875,-14.89453125,19.8994140625
0.1155,-0.880859375,-17.857421875,18.3779296875
0.116,3.5234375,-20.1796875,16.5361328125
0.1165,6.5263671875,-21.220703125,14.8544921875
0.117,9.44921875,-21.1005859375,12.01171875
0.1175,12.5322265625,-20.8203125,8.888671875
0.118,16.3359375,-19.69921875,3.8037109375
0.1185,19.2587890625,-17.45703125,-1.041015625
0.119,20.7802734375,-15.7353515625,-4.2041015625
0.1195,21.5009765625,-13.61328125,-7.0068359375
0.12,21.2607421875,-10.5703125,-9.7294921875
0.1205,20.5,-6.005859375,-13.6533203125
0.121,19.4189453125,-1.8818359375,-16.65625
0.1215,17.77734375,2.5224609375,-19.458984375
0.122,15.775390625,5.685546875,-20.580078125
0.1225,13.052734375,8.4482421875,-20.7802734375
0.123,9.6494140625,11.6513671875,-20.7001953125
0.1235,4.083984375,15.615234375,-19.2587890625
0.124,-1.0009765625,18.3779296875,-17.3369140625
0.1245,-4.404296875,20.099609375,-15.8955078125
0.125,-7.20703125,20.98046875,-14.1337890625
0.1255,-10.1298828125,20.7001953125,-11.1708984375
0.126,-13.61328125,19.939453125,-7.0869140625
0.1265,-16.896484375,18.658203125,-2.642578125
0.127,-19.69921875,16.6162109375,2.162109375
0.1275,-20.7802734375,14.8544921875,4.9248046875
0.128,-21.140625,12.4521484375,7.6875
0.1285,-21.0205078125,9.3291015625,10.6103515625
0.129,-20.0595703125,4.484375,14.57421875
0.1295,-18.6181640625,0.2001953125,17.4169921875
0.13,-17.2568359375,-3.5234375,19.69921875
0.1305,-15.375,-6.4462890625,20.7802734375
0.131,-12.171875,-9.2490234375,20.5400390625
0.1315,-8.0078125,-12.8525390625,20.1796875
0.132,-2.802734375,-16.416015625,18.73828125
0.1325,2.2021484375,-19.05859375,16.736328125
0.133,5.0849609375,-20.2998046875,15.375
0.1335,7.8876953125,-20.9404296875,13.373046875
0.134,10.890625,-20.66015625,10.2900390625
0.1345,14.654296875,-19.5390625,5.5654296875
0.135,17.7373046875,-18.0576171875,1.1611328125
0.1355,20.1396484375,-16.2958984375,-2.962890625
0.136,20.8603515625,-14.4140625,-5.6455078125
0.1365,20.98046875,-11.53125,-8.6083984375
0.137,20.7001953125,-7.927734375,-11.931640625
0.1375,19.8193359375,-3.203125,-15.455078125
0.138,18.017578125,1.28125,-18.2978515625
0.1385,16.4560546875,4.4443359375,-19.9794921875
0.139,14.25390625,7.52734375,-20.580078125
0.1395,10.810546875,10.330078125,-20.4599609375
0.14,5.9658203125,14.0537109375,-19.5390625
0.1405,1.12109375,17.296875,-18.09765625
0.141,-3.5234375,19.6591796875,-16.2158203125
0.1415,-6.1259765625,20.4599609375,-14.6142578125
0.142,-9.0087890625,20.740234375,-12.2119140625
0.1425,-12.251953125,20.2998046875,-8.728515625
0.143,-15.85546875,18.9384765625,-4.00390625
0.1435,-18.658203125,17.13671875,0.6806640625
0.144,-20.5400390625,15.455078125,4.083984375
0.1445,-21.1005859375,13.29296875,6.7666015625
0.145,-21.0205078125,10.1298828125,9.849609375
0.1455,-20.3798828125,5.8857421875,13.373046875
0.146,-19.298828125,1.6015625,16.65625
0.1465,-17.537109375,-2.802734375,19.2587890625
0.147,-15.7353515625,-5.6455078125,20.2998046875
0.1475,-13.4130859375,-8.408203125,20.900390625
0.148,-9.369140625,-11.771484375,20.419921875
0.1485,-4.2841796875,-15.2548828125,19.0185546875
0.149,0.5205078125,-18.09765625,17.4169921875
0.1495,4.3642578125,-20.1796875,15.8154296875
0.15,6.88671875,-20.6201171875,14.013671875
0.1505,9.8896484375,-20.66015625,11.2109375
0.151,13.4931640625,-19.9794921875,7.0869140625
0.1515,16.7763671875,-18.578125,2.5625
0.152,19.4189453125,-16.6962890625,-1.9619140625
0.1525,20.7001953125,-15.0546875,-4.8447265625
0.153,21.060546875,-12.6123046875,-7.5673828125
0.1535,20.7802734375,-9.12890625,-10.890625
0.154,19.8994140625,-4.724609375,-14.2939453125
0.1545,18.6181640625,-0.4404296875,-17.3369140625
0.155,17.0166015625,3.6435546875,-19.7392578125
0.1555,14.8544921875,6.24609375,-20.2998046875
0.156,12.171875,9.0888671875,-20.580078125
0.1565,7.6875,12.892578125,-20.01953125
0.157,2.6025390625,16.17578125,-18.498046875
0.1575,-2.001953125,18.6982421875,-16.65625
0.158,-5.1650390625,20.2998046875,-15.2548828125
0.1585,-7.8876953125,20.580078125,-13.1328125
0.159,-10.890625,20.3798828125,-10.08984375
0.1595,-14.4541015625,19.4189453125,-5.7255859375
0.16,-17.6572265625,17.77734375,-1.0810546875
0.1605,-19.8994140625,15.9755859375,3.0830078125
0.161,-20.66015625,14.0537109375,5.6455078125
0.1615,-21.0205078125,11.4111328125,8.48828125
0.162,-20.5400390625,7.4072265625,12.171875
0.1625,-19.4990234375,3.1630859375,15.294921875
0.163,-17.9775390625,-1.12109375,17.9775390625
0.1635,-16.5361328125,-4.564453125,20.099609375
0.164,-14.09375,-7.20703125,20.3798828125
0.1645,-10.970703125,-10.1298828125,20.33984375
0.165,-6.166015625,-13.93359375,19.4990234375
0.1655,-1.0810546875,-17.13671875,17.857421875
0.166,3.1630859375,-19.2587890625,16.015625
0.1665,5.92578125,-20.1396484375,14.6142578125
0.167,8.6884765625,-20.66015625,12.2919921875
0.1675,12.091796875,-20.01953125,8.48828125
0.168,15.294921875,-18.9384765625,4.2841796875
0.1685,18.2578125,-17.296875,-0.2802734375
0.169,20.259765625,-15.615234375,-3.84375
0.1695,20.5,-13.453125,-6.326171875
0.17,20.66015625,-10.5703125,-9.2490234375
0.1705,20.099609375,-6.166015625,-13.052734375
0.171,18.8984375,-1.9619140625,-16.095703125
0.1715,17.216796875,2.08203125,-18.4580078125
0.172,15.6552734375,5.125,-19.8994140625
0.1725,13.0927734375,7.84765625,-20.1796875
0.173,9.0888671875,11.0107421875,-19.8193359375
0.1735,4.64453125,14.4541015625,-18.73828125
0.174,-0.3603515625,17.4970703125,-17.0166015625
0.1745,-4.1240234375,19.3388671875,-15.4150390625
0.175,-6.486328125,19.859375,-13.6533203125
0.1755,-9.2490234375,20.1796875,-11.4912109375
0.176,-12.97265625,19.2587890625,-7.0068359375
0.1765,-16.015625,17.9375,-2.802734375
0.177,-18.498046875,16.255859375,1.3212890625
0.1775,-20.1396484375,14.734375,4.404296875
0.178,-20.1796875,12.2919921875,6.88671875
0.1785,-20.1796875,9.12890625,10.08984375
0.179,-19.37890625,4.96484375,13.4130859375
0.1795,-18.1376953125,0.640625,16.576171875
0.18,-16.5361328125,-3.0830078125,18.6181640625
0.1805,-14.814453125,-5.5654296875,19.4990234375
0.181,-12.4521484375,-8.328125,19.859375
0.1815,-7.7275390625,-12.0517578125,19.0986328125
0.182,-3.2431640625,-15.0146484375,17.77734375
0.1825,1.12109375,-17.5771484375,16.2958984375
0.183,4.32421875,-19.2587890625,14.974609375
0.1835,6.6865234375,-19.4189453125,12.9326171875
0.184,9.529296875,-19.5791015625,10.5302734375
0.1845,13.29296875,-18.7783203125,6.0458984375
0.185,16.3359375,-17.296875,1.6416015625
0.1855,18.4580078125,-15.6953125,-1.9619140625
0.186,19.4990234375,-14.1337890625,-4.6044921875
0.1865,19.779296875,-11.69140625,-7.20703125
0.187,19.4990234375,-7.8076171875,-10.890625
0.1875,18.658203125,-4.00390625,-13.7734375
0.188,17.4169921875,0.16015625,-16.6962890625
0.1885,16.015625,3.5234375,-18.73828125
0.189,13.8134765625,6.005859375,-19.0185546875
0.1895,11.37109375,8.728515625,-19.4189453125
0.19,6.2861328125,12.7724609375,-18.578125
0.1905,1.7216796875,15.7353515625,-17.13671875
0.191,-2.2021484375,17.8173828125,-15.6552734375
0.1915,-5.0849609375,19.2587890625,-14.4541015625
0.192,-7.6474609375,19.21875,-12.2119140625
0.1925,-10.6103515625,19.05859375,-8.9287109375
0.193,-14.1337890625,18.177734375,-4.8447265625
0.1935,-17.13671875,16.576171875,-0.2802734375
0.194,-19.0185546875,15.0546875,3.04296875
0.1945,-19.5791015625,13.0927734375,5.4853515625
0.195,-19.8994140625,10.73046875,8.2080078125
0.1955,-19.37890625,6.1259765625,12.251953125
0.196,-18.2978515625,2.2421875,15.0947265625
0.1965,-16.9765625,-1.5615234375,17.5771484375
0.197,-15.6953125,-4.6845703125,19.3388671875
0.1975,-13.0126953125,-7.20703125,19.3388671875
0.198,-9.76953125,-10.330078125,19.3388671875
0.1985,-4.9248046875,-14.09375,18.41796875
0.199,0.1201171875,-17.056640625,16.6962890625
0.1995,3.4833984375,-18.7783203125,15.294921875
0.2,6.166015625,-19.8193359375,13.6533203125
0.2005,8.80859375,-20.01953125,11.5712890625
0.201,12.65234375,-19.1787109375,7.046875
0.2015,15.6552734375,-17.9775390625,3.04296875
0.202,18.337890625,-16.3759765625,-1.201171875
0.2025,19.8994140625,-14.814453125,-4.244140625
0.203,19.9794921875,-12.33203125,-6.7666015625
0.2035,20.1796875,-9.529296875,-9.76953125
0.204,19.458984375,-4.884765625,-13.6533203125
0.2045,18.09765625,-0.6005859375,-16.65625
0.205,16.49609375,3.0029296875,-18.578125
0.2055,14.8544921875,5.92578125,-19.939453125
0.206,12.01171875,8.6484375,-19.939453125
0.2065,7.4873046875,12.3720703125,-19.2587890625
0.207,3.04296875,15.53515625,-18.2578125
0.2075,-1.9619140625,18.337890625,-16.3759765625
0.208,-4.9248046875,19.859375,-14.9345703125
0.2085,-7.6875,20.01953125,-12.7724609375
0.209,-10.41015625,20.2197265625,-10.41015625
0.2095,-14.4541015625,19.0185546875,-5.3251953125
0.21,-17.537109375,17.296875,-0.9208984375
0.2105,-19.4990234375,15.775390625,2.802734375
0.211,-20.66015625,14.013671875,5.685546875
0.2115,-20.4599609375,11.130859375,8.328125
0.212,-20.2197265625,7.4873046875,11.7314453125
0.2125,-19.3388671875,3.2431640625,15.0546875
0.213,-17.8173828125,-1.28125,18.0576171875
0.2135,-16.0556640625,-4.5244140625,19.5791015625
0.214,-14.0537109375,-7.1669921875,20.2998046875
0.2145,-11.1708984375,-10.009765625,20.3798828125
0.215,-5.6455078125,-14.0537109375,19.1787109375
0.2155,-1.0810546875,-16.9765625,17.6572265625
0.216,3.1630859375,-19.21875,16.1357421875
0.2165,6.005859375,-20.5,14.654296875
0.217,8.80859375,-20.3798828125,11.8916015625
0.2175,11.8515625,-20.2197265625,8.8486328125
0.218,15.615234375,-18.9384765625,4.1240234375
