wavelength,x,y,z
0.0,-4.4293212890625,4.4193115234375,0.7357177734375
0.0005,-3.5484619140625,4.6595458984375,-0.5054931640625
0.001,-2.4273681640625,5.0599365234375,-1.8668212890625
0.0015,-1.3463134765625,5.1800537109375,-3.1480712890625
0.002,-0.6656494140625,5.5804443359375,-4.0689697265625
0.0025,0.1351318359375,5.6605224609375,-4.9097900390625
0.003,1.1361083984375,5.0999755859375,-5.4302978515625
0.0035,2.4173583984375,4.0189208984375,-5.7506103515625
0.004,3.6185302734375,2.7376708984375,-5.9508056640625
0.0045,4.4193115234375,1.7366943359375,-6.0709228515625
0.005,4.8597412109375,1.1361083984375,-6.1510009765625
0.0055,4.9798583984375,0.3753662109375,-5.8306884765625
0.006,4.8997802734375,-0.6656494140625,-5.0699462890625
0.0065,4.8197021484375,-1.8668212890625,-4.0689697265625
0.007,4.7396240234375,-3.1080322265625,-2.9478759765625
0.0075,4.6195068359375,-4.0289306640625,-2.1070556640625
0.008,4.4993896484375,-4.7496337890625,-1.4263916015625
0.0085,3.8587646484375,-5.1900634765625,-0.5855712890625
0.009,2.8577880859375,-5.5103759765625,0.7757568359375
0.0095,1.6165771484375,-5.7906494140625,2.1771240234375
0.01,0.8157958984375,-6.0308837890625,3.2581787109375
0.0105,0.1351318359375,-6.3511962890625,4.2591552734375
0.011,-0.7857666015625,-6.1910400390625,5.0198974609375
0.0115,-1.9468994140625,-5.3502197265625,5.4603271484375
0.012,-3.2281494140625,-4.1490478515625,5.7806396484375
0.0125,-4.3492431640625,-2.9078369140625,5.9007568359375
0.013,-5.0299072265625,-2.1070556640625,6.0208740234375
0.0135,-5.3502197265625,-1.4664306640625,6.0208740234375
0.014,-5.3902587890625,-0.7056884765625,5.5003662109375
0.0145,-5.2701416015625,0.4954833984375,4.6195068359375
0.015,-5.1900634765625,1.8167724609375,3.4583740234375
0.0155,-5.1099853515625,2.9378662109375,2.4173583984375
0.016,-4.9898681640625,3.8187255859375,1.6566162109375
0.0165,-4.6295166015625,4.3392333984375,0.9359130859375
0.017,-3.8287353515625,4.6595458984375,-0.1851806640625
0.0175,-2.7476806640625,4.9798583984375,-1.5865478515625
0.018,-1.5465087890625,5.2200927734375,-2.9078369140625
0.0185,-0.7457275390625,5.5003662109375,-3.9488525390625
0.019,0.0150146484375,5.7005615234375,-4.8297119140625
0.0195,0.9359130859375,5.3001708984375,-5.4302978515625
0.02,2.1771240234375,4.2191162109375,-5.7906494140625
0.0205,3.5384521484375,2.8978271484375,-6.0308837890625
0.021,4.4193115234375,1.7767333984375,-6.0709228515625
0.0215,4.9398193359375,1.0560302734375,-6.1510009765625
0.022,5.0999755859375,0.3753662109375,-5.9107666015625
0.0225,5.0198974609375,-0.6256103515625,-5.2301025390625
0.023,4.8997802734375,-1.7867431640625,-4.1890869140625
0.0235,4.8197021484375,-3.0679931640625,-3.0279541015625
0.024,4.6195068359375,-4.1090087890625,-2.0670166015625
0.0245,4.4993896484375,-4.8697509765625,-1.3863525390625
0.025,3.9788818359375,-5.2701416015625,-0.6256103515625
0.0255,2.9378662109375,-5.5904541015625,0.6156005859375
0.026,1.7767333984375,-5.7906494140625,2.0970458984375
0.0265,0.7357177734375,-5.9908447265625,3.2982177734375
0.027,0.0550537109375,-6.2711181640625,4.2991943359375
0.0275,-0.7857666015625,-6.2711181640625,5.0999755859375
0.028,-1.9068603515625,-5.5504150390625,5.5804443359375
0.0285,-3.1881103515625,-4.3892822265625,5.9007568359375
0.029,-4.4293212890625,-3.0279541015625,6.0609130859375
0.0295,-5.1500244140625,-2.0269775390625,6.1009521484375
0.03,-5.5504150390625,-1.3863525390625,6.1009521484375
0.0305,-5.5904541015625,-0.6256103515625,5.6605224609375
0.031,-5.4302978515625,0.4954833984375,4.8197021484375
0.0315,-5.3101806640625,1.7767333984375,3.6185302734375
0.032,-5.1500244140625,3.0179443359375,2.4173583984375
0.0325,-4.9898681640625,3.8988037109375,1.5765380859375
0.033,-4.7095947265625,4.4993896484375,0.8958740234375
0.0335,-3.9888916015625,4.8197021484375,-0.1451416015625
0.034,-2.8277587890625,5.0999755859375,-1.4664306640625
0.0345,-1.5465087890625,5.3402099609375,-2.9478759765625
0.035,-0.6256103515625,5.5003662109375,-4.0289306640625
0.0355,0.0950927734375,5.7406005859375,-4.9498291015625
0.036,0.9759521484375,5.4202880859375,-5.6304931640625
0.0365,2.2171630859375,4.4593505859375,-5.9508056640625
0.037,3.5384521484375,3.1380615234375,-6.2310791015625
0.0375,4.5794677734375,1.8167724609375,-6.2711181640625
0.038,5.1400146484375,0.9759521484375,-6.2711181640625
0.0385,5.3802490234375,0.2952880859375,-6.1109619140625
0.039,5.2601318359375,-0.6656494140625,-5.4703369140625
0.0395,5.0999755859375,-1.8668212890625,-4.3492431640625
0.04,4.9798583984375,-3.1881103515625,-3.1480712890625
0.0405,4.7396240234375,-4.3492431640625,-2.0269775390625
0.041,4.5794677734375,-5.1099853515625,-1.2662353515625
0.0415,4.0189208984375,-5.5904541015625,-0.5054931640625
0.042,3.0980224609375,-5.7506103515625,0.6956787109375
0.0425,1.8568115234375,-5.9908447265625,2.2171630859375
0.043,0.5755615234375,-6.1510009765625,3.5784912109375
0.0435,-0.3052978515625,-6.3511962890625,4.5394287109375
0.044,-0.9859619140625,-6.4312744140625,5.3802490234375
0.0445,-1.9869384765625,-5.8306884765625,5.9407958984375
0.045,-3.3482666015625,-4.5494384765625,6.2611083984375
0.0455,-4.7095947265625,-3.1080322265625,6.4212646484375
0.046,-5.5103759765625,-1.9068603515625,6.3812255859375
0.0465,-5.9107666015625,-1.1461181640625,6.3411865234375
0.047,-5.9508056640625,-0.3853759765625,5.9007568359375
0.0475,-5.7906494140625,0.7757568359375,4.9798583984375
0.048,-5.5904541015625,2.0970458984375,3.6986083984375
0.0485,-5.3902587890625,3.4984130859375,2.2972412109375
0.049,-5.1099853515625,4.4193115234375,1.2962646484375
0.0495,-4.8297119140625,5.0198974609375,0.5355224609375
0.05,-4.0289306640625,5.3802490234375,-0.5054931640625
0.0505,-2.7076416015625,5.5003662109375,-1.8267822265625
0.051,-1.3062744140625,5.7406005859375,-3.4683837890625
0.0515,-0.1851806640625,5.7406005859375,-4.6695556640625
0.052,0.6156005859375,5.9007568359375,-5.5504150390625
0.0525,1.4163818359375,5.6605224609375,-6.2310791015625
0.053,2.6575927734375,4.6195068359375,-6.5914306640625
0.0535,4.0589599609375,3.1380615234375,-6.7515869140625
0.054,5.2601318359375,1.5765380859375,-6.7515869140625
0.0545,5.7806396484375,0.5355224609375,-6.5914306640625
0.055,5.9808349609375,-0.3052978515625,-6.3912353515625
0.0555,5.8206787109375,-1.1861572265625,-5.6304931640625
0.056,5.5003662109375,-2.4674072265625,-4.3492431640625
0.0565,5.2200927734375,-3.9088134765625,-2.9078369140625
0.057,4.9398193359375,-5.1099853515625,-1.6265869140625
0.0575,4.5794677734375,-5.8306884765625,-0.7857666015625
0.058,4.0589599609375,-6.2310791015625,0.1351318359375
0.0585,3.0179443359375,-6.3511962890625,1.2161865234375
0.059,1.5765380859375,-6.4312744140625,2.7376708984375
0.0595,0.0550537109375,-6.4713134765625,4.2991943359375
0.06,-0.9058837890625,-6.5113525390625,5.2601318359375
0.0605,-1.5465087890625,-6.5513916015625,6.0208740234375
0.061,-2.5074462890625,-5.9508056640625,6.5413818359375
0.0615,-3.8687744140625,-4.6295166015625,6.7816162109375
0.062,-5.1900634765625,-3.0679931640625,6.9017333984375
0.0625,-6.1109619140625,-1.6265869140625,6.7015380859375
0.063,-6.4312744140625,-0.7457275390625,6.5013427734375
0.0635,-6.4713134765625,0.0950927734375,6.1409912109375
0.064,-6.2310791015625,1.0560302734375,5.2601318359375
0.0645,-5.8306884765625,2.3773193359375,3.8187255859375
0.065,-5.5504150390625,3.8587646484375,2.2572021484375
0.0655,-5.2301025390625,4.8197021484375,1.0960693359375
0.066,-4.8297119140625,5.4603271484375,0.2952880859375
0.0665,-4.1490478515625,5.7406005859375,-0.6256103515625
0.067,-2.8677978515625,5.8206787109375,-1.9068603515625
0.0675,-1.3463134765625,5.9407958984375,-3.5084228515625
0.068,0.1351318359375,5.9007568359375,-4.9097900390625
0.0685,0.8958740234375,5.9407958984375,-5.7506103515625
0.069,1.5364990234375,5.9007568359375,-6.4312744140625
0.0695,2.6175537109375,5.0599365234375,-6.8717041015625
0.07,4.0189208984375,3.4984130859375,-7.0318603515625
0.0705,5.2601318359375,1.9368896484375,-7.0318603515625
0.071,5.9407958984375,0.6156005859375,-6.7916259765625
0.0715,6.1810302734375,-0.2652587890625,-6.5914306640625
0.072,6.1009521484375,-1.0260009765625,-6.0308837890625
0.0725,5.7806396484375,-2.2271728515625,-4.9097900390625
0.073,5.4202880859375,-3.5484619140625,-3.4283447265625
0.0735,5.0999755859375,-4.9498291015625,-1.9869384765625
0.074,4.7396240234375,-5.7105712890625,-0.9459228515625
0.0745,4.3392333984375,-6.2711181640625,-0.1851806640625
0.075,3.4984130859375,-6.4312744140625,0.8157958984375
0.0755,2.0970458984375,-6.4713134765625,2.2171630859375
0.076,0.5355224609375,-6.5513916015625,3.8587646484375
0.0765,-0.7056884765625,-6.5513916015625,4.9798583984375
0.077,-1.3463134765625,-6.6715087890625,5.8206787109375
0.0775,-2.1070556640625,-6.3511962890625,6.4212646484375
0.078,-3.3482666015625,-5.2301025390625,6.7415771484375
0.0785,-4.7095947265625,-3.7086181640625,6.9017333984375
0.079,-5.8306884765625,-2.1470947265625,6.8216552734375
0.0795,-6.3912353515625,-1.1060791015625,6.6214599609375
0.08,-6.5513916015625,-0.3453369140625,6.4212646484375
0.0805,-6.3912353515625,0.5355224609375,5.7005615234375
0.081,-6.0308837890625,1.7767333984375,4.4593505859375
0.0815,-5.7506103515625,3.2181396484375,2.8577880859375
0.082,-5.3502197265625,4.4993896484375,1.5765380859375
0.0825,-4.9898681640625,5.2200927734375,0.6156005859375
0.083,-4.5093994140625,5.7005615234375,-0.2652587890625
0.0835,-3.5084228515625,5.8206787109375,-1.2662353515625
0.084,-2.0269775390625,5.9007568359375,-2.8277587890625
0.0845,-0.4654541015625,5.9007568359375,-4.4293212890625
0.085,0.5355224609375,5.9407958984375,-5.4302978515625
0.0855,1.2161865234375,6.0208740234375,-6.1910400390625
0.086,2.0970458984375,5.4603271484375,-6.7115478515625
0.0865,3.4583740234375,4.1390380859375,-6.9517822265625
0.087,4.7796630859375,2.5775146484375,-7.0718994140625
0.0875,5.7406005859375,1.0960693359375,-6.8717041015625
0.088,6.1409912109375,0.1751708984375,-6.6715087890625
0.0885,6.1810302734375,-0.7056884765625,-6.3511962890625
0.089,5.9007568359375,-1.6265869140625,-5.4302978515625
0.0895,5.5804443359375,-3.0279541015625,-4.0689697265625
0.09,5.2601318359375,-4.4293212890625,-2.5074462890625
0.0905,4.9398193359375,-5.4703369140625,-1.3062744140625
0.091,4.5394287109375,-6.1109619140625,-0.5054931640625
0.0915,3.8587646484375,-6.4312744140625,0.4954833984375
0.092,2.6976318359375,-6.5113525390625,1.6566162109375
0.0925,1.0960693359375,-6.6314697265625,3.3382568359375
0.093,-0.3853759765625,-6.5914306640625,4.7396240234375
0.0935,-1.1461181640625,-6.6715087890625,5.6204833984375
0.094,-1.8267822265625,-6.5914306640625,6.3411865234375
0.0945,-2.9078369140625,-5.7506103515625,6.7415771484375
0.095,-4.3492431640625,-4.2291259765625,6.9818115234375
0.0955,-5.6304931640625,-2.6275634765625,6.9818115234375
0.096,-6.3511962890625,-1.3062744140625,6.7015380859375
0.0965,-6.5914306640625,-0.5855712890625,6.5413818359375
0.097,-6.5113525390625,0.3353271484375,6.0208740234375
0.0975,-6.1910400390625,1.4163818359375,4.8197021484375
0.098,-5.8306884765625,2.8577880859375,3.3382568359375
0.0985,-5.4703369140625,4.2191162109375,1.8968505859375
0.099,-5.1099853515625,5.0999755859375,0.8157958984375
0.0995,-4.6695556640625,5.6204833984375,0.0550537109375
0.1,-3.8687744140625,5.8206787109375,-0.9459228515625
0.1005,-2.4273681640625,5.8206787109375,-2.3072509765625
0.101,-0.9058837890625,5.9407958984375,-3.9888916015625
0.1015,0.4154052734375,5.9007568359375,-5.1500244140625
0.102,1.0159912109375,5.9407958984375,-5.9107666015625
0.1025,1.7767333984375,5.7005615234375,-6.5513916015625
0.103,2.9779052734375,4.6195068359375,-6.8717041015625
0.1035,4.2991943359375,3.0980224609375,-6.9517822265625
0.104,5.4202880859375,1.5364990234375,-6.8717041015625
0.1045,5.9407958984375,0.3753662109375,-6.6314697265625
0.105,6.1009521484375,-0.3853759765625,-6.4312744140625
0.1055,5.8607177734375,-1.2261962890625,-5.7506103515625
0.106,5.5404052734375,-2.3072509765625,-4.5093994140625
0.1065,5.2601318359375,-3.7086181640625,-3.1080322265625
0.107,4.8997802734375,-4.8697509765625,-1.7467041015625
0.1075,4.6195068359375,-5.6304931640625,-0.9058837890625
0.108,4.1390380859375,-6.1109619140625,0.0150146484375
0.1085,3.2181396484375,-6.2711181640625,0.9359130859375
0.109,1.8568115234375,-6.3912353515625,2.3372802734375
0.1095,0.3353271484375,-6.3912353515625,3.8988037109375
0.11,-0.6656494140625,-6.4312744140625,4.9398193359375
0.1105,-1.2662353515625,-6.5914306640625,5.7005615234375
0.111,-2.1070556640625,-6.1510009765625,6.2611083984375
0.1115,-3.3482666015625,-4.9898681640625,6.5413818359375
0.112,-4.7095947265625,-3.5484619140625,6.7015380859375
0.1125,-5.7105712890625,-2.1070556640625,6.5413818359375
0.113,-6.1510009765625,-1.2261962890625,6.4613037109375
0.1135,-6.3511962890625,-0.5455322265625,6.2611083984375
0.114,-6.1109619140625,0.4554443359375,5.5003662109375
0.1145,-5.7906494140625,1.6966552734375,4.2191162109375
0.115,-5.5504150390625,3.1781005859375,2.7777099609375
0.1155,-5.2701416015625,4.2591552734375,1.6165771484375
0.116,-4.9898681640625,4.9798583984375,0.7757568359375
0.1165,-4.4293212890625,5.3802490234375,0.0150146484375
0.117,-3.3482666015625,5.5404052734375,-1.2662353515625
0.1175,-1.9468994140625,5.7406005859375,-2.7476806640625
0.118,-0.5455322265625,5.7406005859375,-4.1890869140625
0.1185,0.3353271484375,5.8607177734375,-5.1500244140625
0.119,0.9759521484375,5.9007568359375,-5.9107666015625
0.1195,1.9368896484375,5.2601318359375,-6.3912353515625
0.12,3.2982177734375,3.8988037109375,-6.5914306640625
0.1205,4.5794677734375,2.3372802734375,-6.6715087890625
0.121,5.3802490234375,1.0960693359375,-6.5513916015625
0.1215,5.7005615234375,0.2952880859375,-6.4713134765625
0.122,5.7406005859375,-0.5054931640625,-6.0709228515625
0.1225,5.4603271484375,-1.4263916015625,-5.1099853515625
0.123,5.2200927734375,-2.7076416015625,-3.8687744140625
0.1235,4.9398193359375,-4.0689697265625,-2.4674072265625
0.124,4.6995849609375,-4.9898681640625,-1.4664306640625
0.1245,4.4593505859375,-5.6304931640625,-0.7457275390625
0.125,3.7386474609375,-5.8707275390625,0.1751708984375
0.1255,2.5775146484375,-6.0308837890625,1.3763427734375
0.126,1.1761474609375,-6.1510009765625,2.8978271484375
0.1265,0.0550537109375,-6.1910400390625,4.0989990234375
0.127,-0.7056884765625,-6.3912353515625,4.9798583984375
0.1275,-1.3863525390625,-6.3511962890625,5.7005615234375
0.128,-2.4674072265625,-5.4703369140625,6.0609130859375
0.1285,-3.7886962890625,-4.1890869140625,6.2611083984375
0.129,-4.9498291015625,-2.7877197265625,6.3411865234375
0.1295,-5.6304931640625,-1.7867431640625,6.2611083984375
0.13,-5.8707275390625,-1.0660400390625,6.1810302734375
0.1305,-5.8306884765625,-0.3453369140625,5.7406005859375
0.131,-5.5904541015625,0.7357177734375,4.7796630859375
0.1315,-5.3902587890625,2.0570068359375,3.5384521484375
0.132,-5.1500244140625,3.2581787109375,2.2972412109375
0.1325,-4.9898681640625,4.1390380859375,1.4163818359375
0.133,-4.6695556640625,4.7396240234375,0.7357177734375
0.1335,-3.9088134765625,5.0198974609375,-0.2652587890625
0.134,-2.7877197265625,5.1800537109375,-1.5064697265625
0.1345,-1.4263916015625,5.3802490234375,-2.9879150390625
0.135,-0.5455322265625,5.5003662109375,-4.1090087890625
0.1355,0.2152099609375,5.7406005859375,-4.9898681640625
0.136,1.0159912109375,5.5003662109375,-5.6304931640625
0.1365,2.0970458984375,4.5394287109375,-5.9508056640625
0.137,3.3382568359375,3.2982177734375,-6.2310791015625
0.1375,4.4193115234375,1.9769287109375,-6.2711181640625
0.138,5.0198974609375,1.1761474609375,-6.2711181640625
0.1385,5.3001708984375,0.5355224609375,-6.1910400390625
0.139,5.2601318359375,-0.3453369140625,-5.6304931640625
0.1395,5.0599365234375,-1.3863525390625,-4.6695556640625
0.14,4.9398193359375,-2.7076416015625,-3.5084228515625
0.1405,4.7396240234375,-3.8287353515625,-2.4273681640625
0.141,4.6195068359375,-4.6695556640625,-1.6265869140625
0.1415,4.2591552734375,-5.1900634765625,-0.9058837890625
0.142,3.4183349609375,-5.4703369140625,0.1751708984375
0.1425,2.2972412109375,-5.7506103515625,1.5364990234375
0.143,1.0960693359375,-5.9107666015625,2.8577880859375
0.1435,0.2952880859375,-6.1510009765625,3.8988037109375
0.144,-0.4654541015625,-6.3912353515625,4.8197021484375
0.1445,-1.3463134765625,-6.0308837890625,5.3802490234375
0.145,-2.5875244140625,-4.9898681640625,5.7406005859375
0.1455,-3.8687744140625,-3.7086181640625,5.9407958984375
0.146,-4.7896728515625,-2.5074462890625,5.9808349609375
0.1465,-5.3101806640625,-1.8267822265625,6.1009521484375
0.147,-5.5103759765625,-1.1461181640625,5.9007568359375
0.1475,-5.4302978515625,-0.3052978515625,5.2601318359375
0.148,-5.2701416015625,0.9359130859375,4.2991943359375
0.1485,-5.1500244140625,2.2572021484375,3.0579833984375
0.149,-5.0299072265625,3.2581787109375,2.1370849609375
0.1495,-4.9097900390625,4.0189208984375,1.4163818359375
0.15,-4.4293212890625,4.4993896484375,0.6156005859375
0.1505,-3.4683837890625,4.7796630859375,-0.5855712890625
0.151,-2.3072509765625,5.0999755859375,-1.9468994140625
0.1515,-1.2662353515625,5.2601318359375,-3.1881103515625
0.152,-0.5855712890625,5.5804443359375,-4.1890869140625
0.1525,0.2552490234375,5.5804443359375,-4.9898681640625
0.153,1.2562255859375,4.9798583984375,-5.4703369140625
0.1535,2.4974365234375,3.8988037109375,-5.8306884765625
0.154,3.6986083984375,2.6175537109375,-5.9908447265625
0.1545,4.4993896484375,1.6566162109375,-6.0308837890625
0.155,4.9398193359375,1.0159912109375,-6.1109619140625
0.1555,5.0198974609375,0.2952880859375,-5.7906494140625
0.156,4.9398193359375,-0.7056884765625,-5.0299072265625
0.1565,4.8197021484375,-1.9068603515625,-4.0289306640625
0.157,4.6995849609375,-3.1480712890625,-2.9078369140625
0.1575,4.6195068359375,-4.0689697265625,-2.1070556640625
0.158,4.4993896484375,-4.7896728515625,-1.4263916015625
0.1585,3.8587646484375,-5.1500244140625,-0.5855712890625
0.159,2.8577880859375,-5.4703369140625,0.7757568359375
0.1595,1.6165771484375,-5.7506103515625,2.1771240234375
0.16,0.7757568359375,-5.9908447265625,3.2581787109375
0.1605,0.1351318359375,-6.3511962890625,4.2191162109375
0.161,-0.7857666015625,-6.1910400390625,4.9798583984375
0.1615,-1.9869384765625,-5.4302978515625,5.3802490234375
0.162,-3.1881103515625,-4.2291259765625,5.7406005859375
0.1625,-4.3492431640625,-2.9478759765625,5.9007568359375
0.163,-4.9898681640625,-2.1871337890625,6.0208740234375
0.1635,-5.3502197265625,-1.5064697265625,6.0208740234375
0.164,-5.3902587890625,-0.7457275390625,5.5804443359375
0.1645,-5.2701416015625,0.3753662109375,4.6995849609375
0.165,-5.1900634765625,1.6966552734375,3.5384521484375
0.1655,-5.0699462890625,2.8577880859375,2.5374755859375
0.166,-4.9898681640625,3.6986083984375,1.7767333984375
0.1665,-4.6695556640625,4.2991943359375,1.0159912109375
0.167,-3.8687744140625,4.6195068359375,0.0150146484375
0.1675,-2.8277587890625,4.9798583984375,-1.3863525390625
0.168,-1.6265869140625,5.1800537109375,-2.7476806640625
0.1685,-0.8258056640625,5.4202880859375,-3.8287353515625
0.169,-0.1851806640625,5.6204833984375,-4.7496337890625
0.1695,0.8558349609375,5.3001708984375,-5.3902587890625
0.17,2.0570068359375,4.2991943359375,-5.7506103515625
0.1705,3.3782958984375,3.0179443359375,-5.9508056640625
0.171,4.3392333984375,1.8968505859375,-6.0709228515625
0.1715,4.8597412109375,1.1361083984375,-6.1510009765625
0.172,5.0599365234375,0.4954833984375,-5.9508056640625
0.1725,5.0198974609375,-0.5054931640625,-5.2701416015625
0.173,4.8997802734375,-1.6265869140625,-4.3092041015625
0.1735,4.7796630859375,-2.9478759765625,-3.1480712890625
0.174,4.6195068359375,-3.9888916015625,-2.1871337890625
0.1745,4.5394287109375,-4.7896728515625,-1.4664306640625
0.175,4.0189208984375,-5.1900634765625,-0.6656494140625
0.1755,3.0579833984375,-5.4703369140625,0.5755615234375
0.176,1.8568115234375,-5.7506103515625,1.9769287109375
0.1765,0.8157958984375,-5.9908447265625,3.2181396484375
0.177,0.1351318359375,-6.3511962890625,4.2191162109375
0.1775,-0.8258056640625,-6.3511962890625,5.0198974609375
0.178,-1.8267822265625,-5.5904541015625,5.5404052734375
