wavelength,x,y,z
0.0,-5.125,10.970703125,-6.5263671875
0.0005,-2.642578125,10.330078125,-8.408203125
0.001,-0.640625,9.76953125,-9.8095703125
0.0015,1.6015625,9.2490234375,-11.4111328125
0.002,3.443359375,7.4873046875,-11.37109375
0.0025,5.2451171875,6.005859375,-11.6513671875
0.003,8.2880859375,3.3232421875,-12.01171875
0.0035,9.529296875,1.0009765625,-10.8505859375
0.004,11.130859375,-0.9609375,-10.5703125
0.0045,12.091796875,-3.04296875,-9.44921875
0.005,11.8515625,-4.8447265625,-7.4072265625
0.0055,12.1318359375,-6.88671875,-5.6455078125
0.006,12.01171875,-9.208984375,-3.123046875
0.0065,10.6904296875,-9.8095703125,-1.1611328125
0.007,10.5302734375,-11.4111328125,0.6806640625
0.0075,8.3681640625,-11.451171875,2.9228515625
0.008,6.5263671875,-11.05078125,4.404296875
0.0085,4.1640625,-11.291015625,7.046875
0.009,1.681640625,-10.5703125,8.728515625
0.0095,-0.2802734375,-9.6494140625,9.6494140625
0.01,-2.322265625,-9.12890625,11.1708984375
0.0105,-4.4443359375,-6.88671875,11.05078125
0.011,-6.40625,-5.0849609375,11.0908203125
0.0115,-9.208984375,-2.5625,11.4111328125
0.012,-10.2099609375,0.0,9.9296875
0.0125,-11.4912109375,1.521484375,9.6494140625
0.013,-12.2919921875,3.5234375,8.3681640625
0.0135,-11.8916015625,5.4853515625,6.0458984375
0.014,-11.9716796875,7.52734375,4.083984375
0.0145,-11.8115234375,9.7294921875,1.6416015625
0.015,-10.2099609375,10.0498046875,-0.3603515625
0.0155,-10.0498046875,11.37109375,-1.921875
0.016,-7.6875,11.2509765625,-4.244140625
0.0165,-5.60546875,10.7705078125,-5.845703125
0.017,-3.36328125,11.0107421875,-8.328125
0.0175,-0.8408203125,10.009765625,-9.8095703125
0.018,0.9208984375,9.12890625,-10.5302734375
0.0185,2.7626953125,8.568359375,-11.8115234375
0.019,5.0048828125,6.2060546875,-11.611328125
0.0195,7.046875,4.1240234375,-11.5712890625
0.02,9.7294921875,1.6416015625,-11.7314453125
0.0205,10.490234375,-0.80078125,-10.08984375
0.021,11.53125,-2.001953125,-9.9697265625
0.0215,12.1318359375,-4.0439453125,-8.4482421875
0.022,11.6513671875,-6.0458984375,-6.0458984375
0.0225,11.771484375,-8.0478515625,-4.0439453125
0.023,11.37109375,-9.9697265625,-1.7216796875
0.0235,9.76953125,-10.08984375,0.1201171875
0.024,9.609375,-11.2509765625,1.521484375
0.0245,7.046875,-10.970703125,3.8037109375
0.025,4.96484375,-10.5703125,5.4052734375
0.0255,2.8427734375,-10.7705078125,7.8076171875
0.026,0.4404296875,-9.609375,9.0087890625
0.0265,-1.12109375,-8.9287109375,9.7294921875
0.027,-2.9228515625,-8.087890625,10.73046875
0.0275,-5.0849609375,-5.765625,10.5302734375
0.028,-7.20703125,-3.6435546875,10.490234375
0.0285,-9.6494140625,-1.3212890625,10.5703125
0.029,-10.1298828125,0.80078125,8.96875
0.0295,-11.1708984375,1.841796875,8.96875
0.03,-11.53125,4.00390625,7.1669921875
0.0305,-11.1708984375,5.92578125,4.8447265625
0.031,-11.37109375,8.0478515625,2.8828125
0.0315,-10.6904296875,9.609375,0.640625
0.032,-9.3291015625,9.7294921875,-0.9609375
0.0325,-9.048828125,10.73046875,-2.2822265625
0.033,-6.40625,10.2900390625,-4.6044921875
0.0335,-4.3642578125,10.0498046875,-6.40625
0.034,-2.2822265625,10.3701171875,-8.728515625
0.0345,0.1201171875,9.0087890625,-9.6494140625
0.035,1.28125,8.568359375,-10.330078125
0.0355,3.2431640625,7.447265625,-11.1708984375
0.036,5.4052734375,5.1650390625,-10.970703125
0.0365,7.6875,2.9228515625,-10.970703125
0.037,9.9296875,0.560546875,-10.810546875
0.0375,10.2099609375,-1.361328125,-9.2890625
0.038,11.2109375,-2.2822265625,-9.2890625
0.0385,11.4111328125,-4.6845703125,-7.126953125
0.039,11.05078125,-6.486328125,-4.884765625
0.0395,11.2109375,-8.728515625,-2.8427734375
0.04,10.3701171875,-9.9697265625,-0.640625
0.0405,9.0888671875,-10.009765625,0.6806640625
0.041,8.5283203125,-10.810546875,2.0419921875
0.0415,5.765625,-10.41015625,4.404296875
0.042,3.7236328125,-10.0498046875,6.24609375
0.0425,1.521484375,-10.1298828125,8.48828125
0.043,-0.720703125,-8.728515625,9.2490234375
0.0435,-1.7216796875,-8.328125,9.76953125
0.044,-3.8037109375,-6.88671875,10.3701171875
0.0445,-5.9658203125,-4.5244140625,10.2099609375
0.045,-8.2080078125,-2.322265625,10.169921875
0.0455,-10.2099609375,0.080078125,9.8095703125
0.046,-10.2900390625,1.5615234375,8.3681640625
0.0465,-11.0908203125,2.5224609375,8.2080078125
0.047,-11.2509765625,5.1650390625,5.7255859375
0.0475,-10.890625,6.8466796875,3.68359375
0.048,-10.890625,9.0087890625,1.4814453125
0.0485,-9.849609375,9.9697265625,-0.6806640625
0.049,-8.6884765625,9.849609375,-1.76171875
0.0495,-7.767578125,10.3701171875,-3.283203125
0.05,-5.0048828125,10.08984375,-5.7255859375
0.0505,-2.9228515625,9.8095703125,-7.4873046875
0.051,-0.720703125,9.76953125,-9.6494140625
0.0515,1.28125,8.3681640625,-10.1298828125
0.052,2.162109375,7.9677734375,-10.5703125
0.0525,4.6044921875,6.0458984375,-11.130859375
0.053,6.6865234375,3.8037109375,-10.890625
0.0535,8.728515625,1.521484375,-10.6103515625
0.054,10.5302734375,-0.720703125,-10.2099609375
0.0545,10.5302734375,-2.2421875,-8.728515625
0.055,11.2109375,-3.4033203125,-8.2080078125
0.0555,11.3310546875,-6.166015625,-5.5654296875
0.056,10.8505859375,-7.4873046875,-3.7236328125
0.0565,10.73046875,-9.609375,-1.5615234375
0.057,9.609375,-10.330078125,0.48046875
0.0575,8.328125,-10.1298828125,1.521484375
0.058,7.046875,-10.490234375,3.3232421875
0.0585,4.32421875,-10.1298828125,5.685546875
0.059,2.3623046875,-9.8095703125,7.3271484375
0.0595,0.16015625,-9.6494140625,9.2890625
0.06,-1.681640625,-8.2080078125,9.609375
0.0605,-2.72265625,-7.4873046875,9.9296875
0.061,-5.4453125,-5.3251953125,10.41015625
0.0615,-7.2470703125,-3.203125,10.08984375
0.062,-9.0087890625,-1.12109375,9.7294921875
0.0625,-10.6103515625,1.0009765625,9.2490234375
0.063,-10.5703125,2.5224609375,7.7275390625
0.0635,-11.05078125,3.9638671875,6.7666015625
0.064,-11.2509765625,6.6865234375,4.1640625
0.0645,-10.650390625,7.767578125,2.4423828125
0.065,-10.4501953125,9.609375,0.48046875
0.0655,-9.2490234375,10.2099609375,-1.6015625
0.066,-7.84765625,9.9697265625,-2.72265625
0.0665,-6.1259765625,10.3701171875,-4.8447265625
0.067,-3.5634765625,10.0498046875,-7.0869140625
0.0675,-1.76171875,9.5693359375,-8.408203125
0.068,0.48046875,9.2890625,-10.2900390625
0.0685,2.2421875,7.8076171875,-10.5703125
0.069,3.5634765625,6.7265625,-10.7705078125
0.0695,6.486328125,4.3642578125,-11.291015625
0.07,8.16796875,2.162109375,-10.73046875
0.0705,9.689453125,0.240234375,-10.25
0.071,11.130859375,-1.8017578125,-9.76953125
0.0715,11.05078125,-3.5234375,-7.927734375
0.072,11.37109375,-5.125,-6.6064453125
0.0725,11.53125,-7.767578125,-4.1240234375
0.073,10.6103515625,-8.6884765625,-2.322265625
0.0735,10.3701171875,-10.2900390625,-0.5205078125
0.074,8.96875,-10.7705078125,1.6015625
0.0745,7.1669921875,-10.330078125,3.04296875
0.075,5.28515625,-10.650390625,5.28515625
0.0755,2.802734375,-10.2900390625,7.4072265625
0.076,0.9208984375,-9.4892578125,8.4482421875
0.0765,-1.1611328125,-9.2890625,10.169921875
0.077,-3.1630859375,-7.52734375,10.3701171875
0.0775,-4.7646484375,-5.9658203125,10.41015625
0.078,-7.6474609375,-3.5634765625,10.8505859375
0.0785,-9.048828125,-1.3212890625,9.9697265625
0.079,-10.25,0.5205078125,9.44921875
0.0795,-11.53125,2.2822265625,8.888671875
0.08,-11.291015625,4.2841796875,6.6865234375
0.0805,-11.4111328125,6.005859375,5.044921875
0.081,-11.5712890625,8.48828125,2.642578125
0.0815,-10.25,9.0888671875,0.640625
0.082,-10.08984375,10.4501953125,-0.9609375
0.0825,-8.408203125,10.890625,-3.0830078125
0.083,-6.2861328125,10.3701171875,-4.724609375
0.0835,-4.244140625,10.5703125,-7.0068359375
0.084,-1.8017578125,10.08984375,-8.96875
0.0845,0.0400390625,9.0888671875,-9.6494140625
0.085,1.76171875,8.888671875,-11.1708984375
0.0855,3.9638671875,6.88671875,-11.291015625
0.086,5.765625,4.96484375,-11.2109375
0.0865,8.568359375,2.6025390625,-11.53125
0.087,9.76953125,0.240234375,-10.330078125
0.0875,10.73046875,-1.361328125,-9.76953125
0.088,11.771484375,-3.0830078125,-9.0888671875
0.0885,11.37109375,-5.205078125,-6.646484375
0.089,11.37109375,-7.0068359375,-4.8046875
0.0895,11.451171875,-9.3291015625,-2.5625
0.09,9.9296875,-9.5693359375,-0.640625
0.0905,9.7294921875,-10.6904296875,0.7607421875
0.091,7.8076171875,-10.8505859375,2.8828125
0.0915,5.60546875,-10.25,4.5244140625
0.092,3.6435546875,-10.4501953125,6.7265625
0.0925,1.28125,-9.8095703125,8.408203125
0.093,-0.48046875,-8.8486328125,9.0087890625
0.0935,-2.08203125,-8.48828125,10.2900390625
0.094,-4.2041015625,-6.3662109375,10.25
0.0945,-6.1259765625,-4.3642578125,10.169921875
0.095,-8.6884765625,-2.1220703125,10.490234375
0.0955,-9.5693359375,0.1201171875,9.0888671875
0.096,-10.4501953125,1.28125,8.888671875
0.0965,-11.2509765625,3.04296875,7.8076171875
0.097,-10.890625,4.96484375,5.4853515625
0.0975,-10.9306640625,6.88671875,3.6435546875
0.098,-10.8505859375,8.9287109375,1.521484375
0.0985,-9.369140625,9.0888671875,-0.2802734375
0.099,-9.2890625,10.2099609375,-1.4814453125
0.0995,-7.126953125,10.1298828125,-3.603515625
0.1,-5.044921875,9.689453125,-5.28515625
0.1005,-3.123046875,10.0498046875,-7.52734375
0.101,-0.880859375,9.1689453125,-8.9287109375
0.1015,0.6005859375,8.4482421875,-9.5693359375
0.102,2.162109375,8.0078125,-10.6103515625
0.1025,4.32421875,5.845703125,-10.6103515625
0.103,6.40625,3.8037109375,-10.5703125
0.1035,8.888671875,1.521484375,-10.7705078125
0.104,9.529296875,-0.6005859375,-9.369140625
0.1045,10.41015625,-1.6015625,-9.3291015625
0.105,10.970703125,-3.5234375,-7.9677734375
0.1055,10.650390625,-5.4453125,-5.7255859375
0.106,10.8505859375,-7.4072265625,-3.8037109375
0.1065,10.4501953125,-9.12890625,-1.6416015625
0.107,9.12890625,-9.2890625,0.0
0.1075,8.96875,-10.25,1.12109375
0.108,6.6064453125,-10.009765625,3.283203125
0.1085,4.484375,-9.689453125,5.0849609375
0.109,2.5625,-10.009765625,7.3671875
0.1095,0.3203125,-8.9287109375,8.4482421875
0.11,-1.0009765625,-8.3681640625,9.0888671875
0.1105,-2.642578125,-7.5673828125,9.9296875
0.111,-4.8447265625,-5.3251953125,9.8896484375
0.1115,-6.966796875,-3.203125,9.8896484375
0.112,-9.2890625,-1.0009765625,9.8896484375
0.1125,-9.7294921875,0.880859375,8.48828125
0.113,-10.5302734375,1.7216796875,8.408203125
0.1135,-10.970703125,3.923828125,6.56640625
0.114,-10.650390625,5.92578125,4.32421875
0.1145,-10.7705078125,8.0478515625,2.3623046875
0.115,-10.169921875,9.529296875,0.2001953125
0.1155,-8.8486328125,9.44921875,-1.201171875
0.116,-8.4482421875,10.2099609375,-2.3623046875
0.1165,-5.845703125,10.009765625,-4.7646484375
0.117,-3.7236328125,9.6494140625,-6.6064453125
0.1175,-1.6015625,9.849609375,-8.888671875
0.118,0.6806640625,8.6484375,-9.76953125
0.1185,1.6015625,8.087890625,-10.169921875
0.119,3.5234375,6.88671875,-10.890625
0.1195,5.9658203125,4.484375,-10.8505859375
0.12,7.927734375,2.2822265625,-10.5703125
0.1205,10.169921875,-0.16015625,-10.490234375
0.121,10.3701171875,-1.8818359375,-8.96875
0.1215,11.0107421875,-2.802734375,-8.6884765625
0.122,11.37109375,-5.365234375,-6.40625
0.1225,10.890625,-7.0068359375,-4.244140625
0.123,10.8505859375,-9.0087890625,-2.162109375
0.1235,10.08984375,-10.2900390625,0.0400390625
0.124,8.6083984375,-10.009765625,1.2412109375
0.1245,7.84765625,-10.5302734375,2.5224609375
0.125,5.0849609375,-10.2900390625,5.125
0.1255,3.0029296875,-9.849609375,6.7666015625
0.126,0.7607421875,-9.849609375,8.96875
0.1265,-1.3212890625,-8.5283203125,9.609375
0.127,-2.2822265625,-7.84765625,9.8095703125
0.1275,-4.5244140625,-6.2060546875,10.41015625
0.128,-6.8466796875,-3.7236328125,10.2099609375
0.1285,-8.48828125,-1.76171875,9.849609375
0.129,-10.490234375,0.48046875,9.609375
0.1295,-10.6103515625,2.162109375,8.0078125
0.13,-11.05078125,3.3232421875,7.4072265625
0.1305,-11.4111328125,6.0458984375,4.96484375
0.131,-10.810546875,7.4072265625,3.0029296875
0.1315,-10.5703125,9.208984375,0.9609375
0.132,-9.7294921875,10.2900390625,-1.1611328125
0.1325,-8.2080078125,10.009765625,-2.40234375
0.133,-7.046875,10.41015625,-4.00390625
0.1335,-4.244140625,10.2099609375,-6.56640625
0.134,-2.322265625,9.6494140625,-7.9677734375
0.1345,-0.16015625,9.5693359375,-9.9697265625
0.135,1.841796875,8.16796875,-10.5302734375
0.1355,2.9228515625,7.3271484375,-10.6904296875
0.136,5.5654296875,5.2451171875,-11.2509765625
0.1365,7.6875,2.8427734375,-10.970703125
0.137,9.048828125,0.8408203125,-10.2900390625
0.1375,10.8505859375,-1.2412109375,-10.1298828125
0.138,10.9306640625,-2.9228515625,-8.328125
0.1385,11.2109375,-4.244140625,-7.3671875
0.139,11.4912109375,-6.966796875,-4.884765625
0.1395,10.7705078125,-8.16796875,-2.9228515625
0.14,10.4501953125,-9.6494140625,-1.12109375
0.1405,9.44921875,-10.6103515625,0.9609375
0.141,7.7275390625,-10.2099609375,2.322265625
0.1415,6.24609375,-10.5302734375,4.1240234375
0.142,3.603515625,-10.2900390625,6.56640625
0.1425,1.7216796875,-9.5693359375,7.7275390625
0.143,-0.400390625,-9.4091796875,9.609375
0.1435,-2.322265625,-7.9677734375,10.009765625
0.144,-3.7236328125,-6.6865234375,10.08984375
0.1445,-6.40625,-4.564453125,10.5302734375
0.145,-8.2880859375,-2.322265625,10.08984375
0.1455,-9.44921875,-0.4404296875,9.369140625
0.146,-11.0107421875,1.44140625,9.208984375
0.1465,-10.970703125,3.36328125,7.287109375
0.147,-11.1708984375,4.8447265625,5.9658203125
0.1475,-11.4111328125,7.4873046875,3.5634765625
0.148,-10.4501953125,8.4482421875,1.5615234375
0.1485,-10.1298828125,9.7294921875,0.0
0.149,-9.0087890625,10.490234375,-2.08203125
0.1495,-7.0068359375,10.08984375,-3.68359375
0.15,-5.28515625,10.2900390625,-5.6455078125
0.1505,-2.8427734375,10.08984375,-7.927734375
0.151,-1.0009765625,9.208984375,-8.8486328125
0.1515,0.9208984375,9.0888671875,-10.490234375
0.152,2.9228515625,7.4873046875,-10.890625
0.1525,4.5244140625,5.845703125,-10.890625
0.153,7.287109375,3.5634765625,-11.291015625
0.1535,8.9287109375,1.2412109375,-10.6103515625
0.154,9.9296875,-0.6005859375,-9.76953125
0.1545,11.291015625,-2.162109375,-9.529296875
0.155,11.1708984375,-4.2041015625,-7.3671875
0.1555,11.1708984375,-5.765625,-5.765625
0.156,11.451171875,-8.2880859375,-3.5634765625
0.1565,10.2099609375,-9.0087890625,-1.4814453125
0.157,9.9296875,-10.1298828125,0.0400390625
0.1575,8.6083984375,-10.7705078125,2.0419921875
0.158,6.40625,-10.2099609375,3.7236328125
0.1585,4.5244140625,-10.3701171875,5.7255859375
0.159,2.162109375,-10.169921875,7.84765625
0.1595,0.2802734375,-9.0087890625,8.568359375
0.16,-1.4013671875,-8.9287109375,10.0498046875
0.1605,-3.5634765625,-7.0869140625,10.2900390625
0.161,-5.365234375,-5.2451171875,10.2099609375
0.1615,-8.0078125,-3.0830078125,10.6103515625
0.162,-9.369140625,-0.640625,9.6494140625
0.1625,-10.169921875,0.9208984375,8.9287109375
0.163,-11.3310546875,2.482421875,8.568359375
0.1635,-11.130859375,4.6044921875,6.1259765625
0.164,-11.05078125,6.3662109375,4.32421875
0.1645,-11.3310546875,8.7685546875,2.162109375
0.165,-9.8095703125,9.2490234375,0.1201171875
0.1655,-9.5693359375,10.2099609375,-1.2412109375
0.166,-8.0078125,10.650390625,-3.2431640625
0.1665,-5.6455078125,10.08984375,-5.0849609375
0.167,-3.7236328125,10.25,-7.1669921875
0.1675,-1.3212890625,9.849609375,-9.12890625
0.168,0.560546875,8.6083984375,-9.6494140625
0.1685,1.921875,8.48828125,-10.970703125
0.169,4.2041015625,6.40625,-11.130859375
0.1695,6.005859375,4.2841796875,-10.9306640625
0.17,8.888671875,2.0419921875,-11.291015625
0.1705,10.0498046875,-0.4404296875,-10.009765625
0.171,10.650390625,-1.6416015625,-9.369140625
0.1715,11.5712890625,-3.2431640625,-8.728515625
0.172,11.3310546875,-5.4853515625,-6.2060546875
0.1725,11.2109375,-7.3271484375,-4.2041015625
0.173,11.291015625,-9.609375,-2.0419921875
0.1735,9.609375,-9.8095703125,0.0400390625
0.174,9.3291015625,-10.650390625,1.12109375
0.1745,7.4873046875,-10.810546875,3.203125
0.175,4.96484375,-10.25,5.125
0.1755,3.04296875,-10.41015625,7.287109375
0.176,0.6005859375,-9.76953125,9.0888671875
0.1765,-1.12109375,-8.6484375,9.2890625
0.177,-2.482421875,-8.3681640625,10.490234375
0.1775,-4.9248046875,-6.0458984375,10.5703125
0.178,-6.9267578125,-3.8037109375,10.330078125
0.1785,-9.529296875,-1.4013671875,10.5302734375
0.179,-10.4501953125,0.9208984375,9.1689453125
0.1795,-10.890625,1.921875,8.6484375
0.18,-11.6513671875,3.7236328125,7.607421875
0.1805,-11.4111328125,6.0458984375,4.96484375
0.181,-11.1708984375,7.927734375,2.8427734375
0.1815,-11.0908203125,10.08984375,0.6005859375
0.182,-9.2890625,10.08984375,-1.361328125
0.1825,-9.0087890625,10.73046875,-2.2822265625
0.183,-6.806640625,10.810546875,-4.64453125
0.1835,-4.2041015625,10.25,-6.6865234375
0.184,-2.08203125,10.330078125,-8.888671875
0.1845,0.3603515625,9.369140625,-10.5703125
0.185,1.841796875,8.248046875,-10.6103515625
0.1855,3.1630859375,7.8076171875,-11.451171875
0.186,6.005859375,5.205078125,-11.611328125
0.1865,7.8076171875,2.9228515625,-11.1708984375
0.187,10.41015625,0.4404296875,-11.2509765625
0.1875,11.1708984375,-1.841796875,-9.76953125
0.188,11.4111328125,-2.8427734375,-8.96875
0.1885,12.01171875,-4.96484375,-7.4873046875
0.189,11.69140625,-7.287109375,-4.7646484375
0.1895,11.291015625,-8.96875,-2.72265625
0.19,11.05078125,-10.9306640625,-0.400390625
0.1905,9.12890625,-10.7705078125,1.44140625
0.191,8.568359375,-11.05078125,2.40234375
0.1915,6.0859375,-11.1708984375,5.044921875
0.192,3.5634765625,-10.490234375,6.8466796875
0.1925,1.28125,-10.330078125,9.0087890625
0.193,-1.1611328125,-9.4892578125,10.3701171875
0.1935,-2.482421875,-8.1279296875,10.2900390625
0.194,-4.0439453125,-7.126953125,10.9306640625
0.1945,-7.0068359375,-4.4443359375,11.0908203125
0.195,-8.48828125,-2.322265625,10.41015625
0.1955,-10.8505859375,0.1201171875,10.3701171875
0.196,-11.451171875,2.2421875,8.888671875
0.1965,-11.53125,3.3232421875,7.84765625
0.197,-12.0517578125,5.685546875,6.0458984375
0.1975,-11.6513671875,7.8076171875,3.443359375
0.198,-11.05078125,9.208984375,1.44140625
0.1985,-10.73046875,11.0107421875,-0.80078125
0.199,-8.728515625,10.73046875,-2.6025390625
0.1995,-7.8076171875,10.890625,-3.7236328125
0.2,-5.1650390625,11.0107421875,-6.486328125
0.2005,-2.8828125,10.2900390625,-8.087890625
0.201,-0.640625,9.9697265625,-10.0498046875
0.2015,1.681640625,9.0087890625,-11.291015625
0.202,3.04296875,7.6875,-11.2109375
0.2025,4.96484375,6.2861328125,-11.69140625
0.203,7.84765625,3.5634765625,-11.8115234375
0.2035,9.0888671875,1.4013671875,-10.8505859375
0.204,11.1708984375,-0.80078125,-10.810546875
0.2045,11.69140625,-2.8828125,-9.1689453125
0.205,11.6513671875,-4.2041015625,-7.8876953125
0.2055,12.0517578125,-6.6064453125,-5.8056640625
0.206,11.6513671875,-8.48828125,-3.4833984375
0.2065,10.810546875,-9.5693359375,-1.5615234375
0.207,10.490234375,-11.2509765625,0.6005859375
0.2075,8.328125,-10.8505859375,2.40234375
0.208,7.0869140625,-10.890625,3.7236328125
0.2085,4.404296875,-10.970703125,6.486328125
0.209,2.2421875,-10.25,7.8876953125
0.2095,0.16015625,-9.9296875,9.529296875
0.21,-2.0419921875,-8.8486328125,10.650390625
0.2105,-3.603515625,-7.20703125,10.5302734375
0.211,-5.7255859375,-5.525390625,10.890625
0.2115,-8.3681640625,-2.962890625,11.0107421875
0.212,-9.369140625,-0.8408203125,9.849609375
0.2125,-11.1708984375,1.0009765625,9.849609375
0.213,-11.5712890625,3.1630859375,8.1279296875
0.2135,-11.4912109375,4.5244140625,6.5263671875
0.214,-11.8115234375,7.046875,4.404296875
0.2145,-11.37109375,8.7685546875,2.2021484375
0.215,-10.330078125,9.5693359375,0.3603515625
0.2155,-10.009765625,11.0107421875,-1.6015625
0.216,-7.7275390625,10.650390625,-3.603515625
0.2165,-6.24609375,10.6103515625,-5.044921875
0.217,-3.68359375,10.73046875,-7.7275390625
0.2175,-1.4814453125,9.7294921875,-8.96875
0.218,0.400390625,9.4091796875,-10.330078125
0.2185,2.482421875,8.3681640625,-11.3310546875
0.219,4.32421875,6.4462890625,-11.2109375
0.2195,6.5263671875,4.5244140625,-11.4912109375
0.22,9.048828125,2.0419921875,-11.53125
0.2205,9.849609375,-0.240234375,-10.08984375
0.221,11.451171875,-1.6416015625,-10.169921875
0.2215,11.69140625,-3.84375,-8.2880859375
0.222,11.4912109375,-5.4453125,-6.4462890625
0.2225,11.771484375,-7.8076171875,-4.32421875
0.223,11.130859375,-9.3291015625,-2.08203125
0.2235,10.0498046875,-9.9296875,-0.400390625
