wavelength,x,y,z
0.0,3.893798828125,-0.230224609375,-4.114013671875
0.0005,3.373291015625,0.570556640625,-4.354248046875
0.001,2.692626953125,1.411376953125,-4.514404296875
0.0015,2.052001953125,2.252197265625,-4.634521484375
0.002,1.171142578125,3.253173828125,-4.754638671875
0.0025,0.250244140625,3.493408203125,-3.993896484375
0.003,-0.470458984375,4.134033203125,-4.033935546875
0.0035,-1.391357421875,4.174072265625,-3.193115234375
0.004,-2.072021484375,4.494384765625,-2.712646484375
0.0045,-3.233154296875,4.534423828125,-1.671630859375
0.005,-3.833740234375,4.414306640625,-0.990966796875
0.0055,-4.154052734375,3.853759765625,-0.150146484375
0.006,-4.554443359375,3.773681640625,0.450439453125
0.0065,-4.634521484375,2.932861328125,1.291259765625
0.007,-4.674560546875,2.372314453125,1.891845703125
0.0075,-4.914794921875,1.491455078125,2.972900390625
0.008,-4.314208984375,0.650634765625,3.173095703125
0.0085,-4.194091796875,-0.310302734375,3.853759765625
0.009,-3.553466796875,-1.151123046875,4.013916015625
0.0095,-3.032958984375,-1.911865234375,4.294189453125
0.01,-2.192138671875,-2.712646484375,4.334228515625
0.0105,-1.551513671875,-3.513427734375,4.374267578125
0.011,-0.630615234375,-3.713623046875,3.733642578125
0.0115,-0.110107421875,-4.354248046875,3.853759765625
0.012,0.890869140625,-4.434326171875,2.892822265625
0.0125,1.571533203125,-4.674560546875,2.532470703125
0.013,2.652587890625,-4.834716796875,1.571533203125
0.0135,3.012939453125,-4.514404296875,0.970947265625
0.014,3.453369140625,-4.234130859375,0.250244140625
0.0145,3.693603515625,-3.913818359375,-0.310302734375
0.015,3.853759765625,-3.313232421875,-1.071044921875
0.0155,3.893798828125,-2.712646484375,-1.751708984375
0.016,4.134033203125,-2.031982421875,-2.592529296875
0.0165,3.533447265625,-1.231201171875,-2.872802734375
0.017,3.613525390625,-0.550537109375,-3.593505859375
0.0175,2.812744140625,0.370361328125,-3.673583984375
0.018,2.532470703125,1.091064453125,-3.993896484375
0.0185,1.731689453125,1.971923828125,-4.114013671875
0.019,1.211181640625,2.492431640625,-4.033935546875
0.0195,0.330322265625,2.932861328125,-3.633544921875
0.02,-0.190185546875,3.453369140625,-3.593505859375
0.0205,-1.151123046875,3.653564453125,-2.832763671875
0.021,-1.831787109375,3.933837890625,-2.432373046875
0.0215,-2.832763671875,4.093994140625,-1.631591796875
0.022,-3.072998046875,3.693603515625,-0.990966796875
0.0225,-3.713623046875,3.693603515625,-0.430419921875
0.023,-3.833740234375,3.173095703125,0.250244140625
0.0235,-4.114013671875,2.772705078125,0.930908203125
0.024,-4.194091796875,2.052001953125,1.691650390625
0.0245,-4.354248046875,1.491455078125,2.372314453125
0.025,-3.753662109375,0.530517578125,2.692626953125
0.0255,-3.873779296875,-0.110107421875,3.333251953125
0.026,-3.032958984375,-0.990966796875,3.453369140625
0.0265,-2.832763671875,-1.591552734375,3.853759765625
0.027,-2.031982421875,-2.512451171875,3.933837890625
0.0275,-1.471435546875,-2.832763671875,3.693603515625
0.028,-0.790771484375,-3.353271484375,3.533447265625
0.0285,-0.150146484375,-3.713623046875,3.213134765625
0.029,0.650634765625,-3.953857421875,2.692626953125
0.0295,1.411376953125,-4.154052734375,2.172119140625
0.03,2.172119140625,-4.274169921875,1.571533203125
0.0305,2.332275390625,-3.833740234375,0.970947265625
0.031,2.932861328125,-4.033935546875,0.570556640625
0.0315,3.012939453125,-3.353271484375,-0.190185546875
0.032,3.373291015625,-3.193115234375,-0.750732421875
0.0325,3.493408203125,-2.512451171875,-1.591552734375
0.033,3.453369140625,-2.072021484375,-1.951904296875
0.0335,3.173095703125,-1.231201171875,-2.552490234375
0.034,3.173095703125,-0.630615234375,-2.952880859375
0.0345,2.572509765625,0.250244140625,-3.233154296875
0.035,2.292236328125,0.890869140625,-3.593505859375
0.0355,1.771728515625,1.611572265625,-3.793701171875
0.036,1.171142578125,1.931884765625,-3.513427734375
0.0365,0.610595703125,2.652587890625,-3.633544921875
0.037,-0.190185546875,2.892822265625,-3.072998046875
0.0375,-0.950927734375,3.373291015625,-2.792724609375
0.038,-1.791748046875,3.573486328125,-2.192138671875
0.0385,-2.272216796875,3.653564453125,-1.751708984375
0.039,-2.712646484375,3.373291015625,-1.071044921875
0.0395,-3.233154296875,3.533447265625,-0.630615234375
0.04,-3.473388671875,2.852783203125,0.170166015625
0.0405,-3.793701171875,2.572509765625,0.770751953125
0.041,-3.993896484375,1.931884765625,1.571533203125
0.0415,-3.793701171875,1.291259765625,1.931884765625
0.042,-3.713623046875,0.530517578125,2.692626953125
0.0425,-3.313232421875,-0.190185546875,3.012939453125
0.043,-2.952880859375,-0.990966796875,3.373291015625
0.0435,-2.472412109375,-1.671630859375,3.573486328125
0.044,-1.951904296875,-2.272216796875,3.693603515625
0.0445,-1.271240234375,-2.632568359375,3.293212890625
0.045,-0.790771484375,-3.273193359375,3.493408203125
0.0455,0.130126953125,-3.433349609375,2.732666015625
0.046,0.770751953125,-3.833740234375,2.492431640625
0.0465,1.571533203125,-3.953857421875,1.811767578125
0.047,1.931884765625,-3.833740234375,1.371337890625
0.0475,2.372314453125,-3.713623046875,0.810791015625
0.048,2.692626953125,-3.553466796875,0.330322265625
0.0485,2.892822265625,-3.153076171875,-0.350341796875
0.049,3.173095703125,-2.752685546875,-0.990966796875
0.0495,3.373291015625,-2.312255859375,-1.671630859375
0.05,3.012939453125,-1.511474609375,-1.991943359375
0.0505,3.173095703125,-0.990966796875,-2.632568359375
0.051,2.572509765625,-0.150146484375,-2.872802734375
0.0515,2.412353515625,0.490478515625,-3.353271484375
0.052,1.931884765625,1.211181640625,-3.513427734375
0.0525,1.491455078125,1.651611328125,-3.513427734375
0.053,0.810791015625,2.172119140625,-3.353271484375
0.0535,0.290283203125,2.692626953125,-3.313232421875
0.054,-0.630615234375,2.972900390625,-2.712646484375
0.0545,-1.311279296875,3.373291015625,-2.432373046875
0.055,-2.072021484375,3.533447265625,-1.831787109375
0.0555,-2.432373046875,3.333251953125,-1.311279296875
0.056,-3.032958984375,3.373291015625,-0.790771484375
0.0565,-3.273193359375,2.932861328125,-0.150146484375
0.057,-3.633544921875,2.612548828125,0.530517578125
0.0575,-3.833740234375,2.052001953125,1.291259765625
0.058,-3.913818359375,1.571533203125,1.931884765625
0.0585,-3.553466796875,0.650634765625,2.372314453125
0.059,-3.633544921875,0.090087890625,3.052978515625
0.0595,-2.872802734375,-0.870849609375,3.173095703125
0.06,-2.632568359375,-1.511474609375,3.613525390625
0.0605,-2.031982421875,-2.232177734375,3.693603515625
0.061,-1.391357421875,-2.672607421875,3.493408203125
0.0615,-0.790771484375,-3.193115234375,3.373291015625
0.062,0.010009765625,-3.593505859375,3.012939453125
0.0625,0.890869140625,-3.833740234375,2.372314453125
0.063,1.571533203125,-4.033935546875,1.931884765625
0.0635,2.172119140625,-4.114013671875,1.331298828125
0.064,2.452392578125,-3.713623046875,0.690673828125
0.0645,2.932861328125,-3.793701171875,0.290283203125
0.065,3.052978515625,-3.113037109375,-0.510498046875
0.0655,3.333251953125,-2.792724609375,-1.151123046875
0.066,3.373291015625,-2.072021484375,-1.871826171875
0.0665,3.293212890625,-1.471435546875,-2.312255859375
0.067,2.932861328125,-0.670654296875,-2.712646484375
0.0675,2.812744140625,-0.070068359375,-3.153076171875
0.068,2.132080078125,0.810791015625,-3.353271484375
0.0685,1.851806640625,1.411376953125,-3.673583984375
0.069,1.251220703125,2.052001953125,-3.673583984375
0.0695,0.530517578125,2.452392578125,-3.353271484375
0.07,0.010009765625,2.972900390625,-3.353271484375
0.0705,-0.990966796875,3.213134765625,-2.632568359375
0.071,-1.671630859375,3.533447265625,-2.192138671875
0.0715,-2.392333984375,3.573486328125,-1.591552734375
0.072,-2.872802734375,3.573486328125,-1.111083984375
0.0725,-3.233154296875,3.173095703125,-0.470458984375
0.073,-3.673583984375,3.173095703125,0.050048828125
0.0735,-3.833740234375,2.372314453125,0.930908203125
0.074,-4.073974609375,2.052001953125,1.571533203125
0.0745,-4.114013671875,1.291259765625,2.292236328125
0.075,-3.833740234375,0.490478515625,2.812744140625
0.0755,-3.553466796875,-0.310302734375,3.293212890625
0.076,-3.072998046875,-1.151123046875,3.613525390625
0.0765,-2.432373046875,-2.072021484375,3.853759765625
0.077,-1.911865234375,-2.592529296875,3.893798828125
0.0775,-1.231201171875,-3.273193359375,3.853759765625
0.078,-0.430419921875,-3.593505859375,3.453369140625
0.0785,0.210205078125,-4.114013671875,3.293212890625
0.079,1.411376953125,-4.314208984375,2.292236328125
0.0795,2.172119140625,-4.514404296875,1.771728515625
0.08,2.772705078125,-4.314208984375,1.010986328125
0.0805,3.213134765625,-4.194091796875,0.370361328125
0.081,3.373291015625,-3.713623046875,-0.310302734375
0.0815,3.733642578125,-3.393310546875,-0.910888671875
0.082,3.853759765625,-2.432373046875,-1.951904296875
0.0825,3.853759765625,-1.911865234375,-2.432373046875
0.083,3.733642578125,-1.111083984375,-3.072998046875
0.0835,3.173095703125,-0.190185546875,-3.433349609375
0.084,2.852783203125,0.450439453125,-3.713623046875
0.0845,2.172119140625,1.411376953125,-3.953857421875
0.085,1.451416015625,2.292236328125,-4.114013671875
0.0855,0.810791015625,2.692626953125,-3.873779296875
0.086,0.130126953125,3.333251953125,-3.793701171875
0.0865,-0.630615234375,3.533447265625,-3.233154296875
0.087,-1.311279296875,3.933837890625,-2.952880859375
0.0875,-2.552490234375,4.093994140625,-1.911865234375
0.088,-3.193115234375,4.134033203125,-1.311279296875
0.0885,-3.753662109375,3.853759765625,-0.550537109375
0.089,-4.114013671875,3.613525390625,0.090087890625
0.0895,-4.314208984375,3.093017578125,0.690673828125
0.09,-4.514404296875,2.572509765625,1.491455078125
0.0905,-4.714599609375,1.731689453125,2.532470703125
0.091,-4.434326171875,0.970947265625,2.972900390625
0.0915,-4.354248046875,0.170166015625,3.693603515625
0.092,-3.633544921875,-0.830810546875,3.973876953125
0.0925,-3.313232421875,-1.551513671875,4.294189453125
0.093,-2.312255859375,-2.712646484375,4.454345703125
0.0935,-1.631591796875,-3.553466796875,4.534423828125
0.094,-0.790771484375,-3.953857421875,4.053955078125
0.0945,-0.070068359375,-4.554443359375,3.973876953125
0.095,0.810791015625,-4.674560546875,3.213134765625
0.0955,1.651611328125,-5.034912109375,2.772705078125
0.096,3.052978515625,-5.195068359375,1.571533203125
0.0965,3.573486328125,-4.994873046875,0.810791015625
0.097,4.053955078125,-4.634521484375,0.010009765625
0.0975,4.374267578125,-4.274169921875,-0.710693359375
0.098,4.414306640625,-3.513427734375,-1.431396484375
0.0985,4.534423828125,-2.712646484375,-2.312255859375
0.099,4.694580078125,-1.791748046875,-3.393310546875
0.0995,4.053955078125,-0.790771484375,-3.713623046875
0.1,3.973876953125,0.050048828125,-4.394287109375
0.1005,3.052978515625,1.010986328125,-4.434326171875
0.101,2.532470703125,1.771728515625,-4.634521484375
0.1015,1.451416015625,2.932861328125,-4.754638671875
0.102,0.650634765625,3.693603515625,-4.674560546875
0.1025,-0.310302734375,3.973876953125,-3.993896484375
0.103,-0.990966796875,4.534423828125,-3.913818359375
0.1035,-1.991943359375,4.534423828125,-2.912841796875
0.104,-2.752685546875,4.774658203125,-2.352294921875
0.1045,-4.114013671875,4.854736328125,-1.191162109375
0.105,-4.434326171875,4.334228515625,-0.310302734375
0.1055,-4.874755859375,4.013916015625,0.370361328125
0.106,-5.114990234375,3.533447265625,1.171142578125
0.1065,-5.114990234375,2.772705078125,1.931884765625
0.107,-5.155029296875,1.891845703125,2.812744140625
0.1075,-5.275146484375,0.970947265625,3.813720703125
0.108,-4.434326171875,-0.150146484375,4.013916015625
0.1085,-4.354248046875,-0.950927734375,4.734619140625
0.109,-3.353271484375,-1.951904296875,4.734619140625
0.1095,-2.832763671875,-2.712646484375,4.894775390625
0.11,-1.631591796875,-3.873779296875,4.934814453125
0.1105,-0.790771484375,-4.514404296875,4.654541015625
0.111,0.130126953125,-4.834716796875,4.053955078125
0.1115,0.890869140625,-5.315185546875,3.853759765625
0.112,1.931884765625,-5.315185546875,2.772705078125
0.1125,2.732666015625,-5.475341796875,2.092041015625
0.113,4.013916015625,-5.635498046875,0.970947265625
0.1135,4.254150390625,-4.954833984375,0.050048828125
0.114,4.694580078125,-4.634521484375,-0.630615234375
0.1145,4.854736328125,-3.913818359375,-1.471435546875
0.115,4.854736328125,-3.113037109375,-2.272216796875
0.1155,4.814697265625,-2.152099609375,-3.193115234375
0.116,4.854736328125,-1.271240234375,-4.114013671875
0.1165,3.933837890625,-0.070068359375,-4.274169921875
0.117,3.853759765625,0.650634765625,-4.874755859375
0.1175,2.652587890625,1.771728515625,-4.834716796875
0.118,2.132080078125,2.492431640625,-4.954833984375
0.1185,1.010986328125,3.653564453125,-4.994873046875
0.119,0.130126953125,4.134033203125,-4.554443359375
0.1195,-0.790771484375,4.494384765625,-3.953857421875
0.12,-1.591552734375,4.894775390625,-3.593505859375
0.1205,-2.792724609375,4.814697265625,-2.512451171875
0.121,-3.473388671875,4.934814453125,-1.791748046875
0.1215,-4.634521484375,4.934814453125,-0.790771484375
0.122,-4.674560546875,4.134033203125,0.170166015625
0.1225,-5.155029296875,3.973876953125,0.810791015625
0.123,-5.275146484375,3.052978515625,1.771728515625
0.1235,-5.275146484375,2.372314453125,2.452392578125
0.124,-5.195068359375,1.331298828125,3.373291015625
0.1245,-5.114990234375,0.490478515625,4.093994140625
0.125,-4.154052734375,-0.670654296875,4.294189453125
0.1255,-4.033935546875,-1.391357421875,4.854736328125
0.126,-2.832763671875,-2.632568359375,4.814697265625
0.1265,-2.272216796875,-3.193115234375,4.854736328125
0.127,-1.231201171875,-4.274169921875,4.814697265625
0.1275,-0.310302734375,-4.554443359375,4.214111328125
0.128,0.490478515625,-4.954833984375,3.853759765625
0.1285,1.411376953125,-5.315185546875,3.213134765625
0.129,2.452392578125,-5.355224609375,2.252197265625
0.1295,3.133056640625,-5.315185546875,1.531494140625
0.13,4.013916015625,-5.275146484375,0.610595703125
0.1305,4.134033203125,-4.434326171875,-0.270263671875
0.131,4.614501953125,-4.354248046875,-0.790771484375
0.1315,4.614501953125,-3.273193359375,-1.791748046875
0.132,4.614501953125,-2.712646484375,-2.432373046875
0.1325,4.574462890625,-1.751708984375,-3.353271484375
0.133,4.334228515625,-0.910888671875,-3.873779296875
0.1335,3.573486328125,0.170166015625,-4.154052734375
0.134,3.333251953125,0.850830078125,-4.594482421875
0.1345,2.252197265625,2.011962890625,-4.594482421875
0.135,1.771728515625,2.572509765625,-4.634521484375
0.1355,0.810791015625,3.533447265625,-4.634521484375
0.136,-0.150146484375,3.813720703125,-3.953857421875
0.1365,-0.790771484375,4.214111328125,-3.833740234375
0.137,-1.911865234375,4.494384765625,-2.952880859375
0.1375,-2.712646484375,4.494384765625,-2.232177734375
0.138,-3.473388671875,4.494384765625,-1.431396484375
0.1385,-4.154052734375,4.414306640625,-0.670654296875
0.139,-4.314208984375,3.693603515625,0.170166015625
0.1395,-4.754638671875,3.653564453125,0.690673828125
0.14,-4.754638671875,2.572509765625,1.771728515625
0.1405,-4.834716796875,2.052001953125,2.292236328125
0.141,-4.794677734375,1.131103515625,3.173095703125
0.1415,-4.354248046875,0.290283203125,3.573486328125
0.142,-3.873779296875,-0.630615234375,3.973876953125
0.1425,-3.353271484375,-1.431396484375,4.294189453125
0.143,-2.512451171875,-2.472412109375,4.414306640625
0.1435,-1.951904296875,-3.032958984375,4.334228515625
0.144,-1.151123046875,-3.793701171875,4.334228515625
0.1445,-0.310302734375,-4.033935546875,3.653564453125
0.145,0.290283203125,-4.634521484375,3.613525390625
0.1455,1.451416015625,-4.714599609375,2.532470703125
0.146,2.092041015625,-4.834716796875,2.092041015625
0.1465,2.852783203125,-4.714599609375,1.291259765625
0.147,3.333251953125,-4.514404296875,0.650634765625
0.1475,3.573486328125,-3.993896484375,-0.150146484375
0.148,3.893798828125,-3.833740234375,-0.630615234375
0.1485,3.933837890625,-2.872802734375,-1.591552734375
0.149,4.013916015625,-2.472412109375,-2.072021484375
0.1495,4.053955078125,-1.631591796875,-2.912841796875
0.15,3.493408203125,-0.790771484375,-3.193115234375
0.1505,3.333251953125,0.010009765625,-3.753662109375
0.151,2.692626953125,0.810791015625,-3.873779296875
0.1515,2.092041015625,1.611572265625,-4.114013671875
0.152,1.531494140625,2.252197265625,-4.114013671875
0.1525,0.810791015625,2.812744140625,-3.993896484375
0.153,0.010009765625,3.133056640625,-3.513427734375
0.1535,-0.590576171875,3.653564453125,-3.553466796875
0.154,-1.671630859375,3.813720703125,-2.512451171875
0.1545,-2.232177734375,4.013916015625,-2.192138671875
0.155,-2.992919921875,3.973876953125,-1.311279296875
0.1555,-3.353271484375,3.693603515625,-0.750732421875
0.156,-3.793701171875,3.493408203125,-0.110107421875
0.1565,-3.993896484375,3.052978515625,0.530517578125
0.157,-4.194091796875,2.412353515625,1.331298828125
0.1575,-4.234130859375,1.891845703125,1.931884765625
0.158,-4.314208984375,1.171142578125,2.612548828125
0.1585,-3.713623046875,0.210205078125,3.012939453125
0.159,-3.713623046875,-0.390380859375,3.613525390625
0.1595,-2.872802734375,-1.391357421875,3.693603515625
0.16,-2.552490234375,-2.072021484375,3.973876953125
0.1605,-1.791748046875,-2.712646484375,3.853759765625
0.161,-1.191162109375,-3.193115234375,3.693603515625
0.1615,-0.510498046875,-3.593505859375,3.373291015625
0.162,0.250244140625,-3.993896484375,3.173095703125
0.1625,1.251220703125,-4.154052734375,2.292236328125
0.163,1.771728515625,-4.314208984375,1.931884765625
0.1635,2.452392578125,-4.274169921875,1.251220703125
0.164,2.692626953125,-3.913818359375,0.650634765625
0.1645,3.173095703125,-3.873779296875,0.130126953125
0.165,3.253173828125,-3.193115234375,-0.590576171875
0.1655,3.533447265625,-2.792724609375,-1.231201171875
0.166,3.493408203125,-2.152099609375,-1.831787109375
0.1665,3.533447265625,-1.591552734375,-2.432373046875
0.167,3.012939453125,-0.710693359375,-2.752685546875
0.1675,3.052978515625,-0.190185546875,-3.233154296875
0.168,2.252197265625,0.730712890625,-3.393310546875
0.1685,2.052001953125,1.251220703125,-3.753662109375
0.169,1.411376953125,1.891845703125,-3.673583984375
0.1695,0.810791015625,2.252197265625,-3.513427734375
0.17,0.210205078125,2.812744140625,-3.393310546875
0.1705,-0.630615234375,3.133056640625,-2.912841796875
0.171,-1.351318359375,3.413330078125,-2.432373046875
0.1715,-1.951904296875,3.533447265625,-1.951904296875
0.172,-2.512451171875,3.573486328125,-1.471435546875
0.1725,-2.872802734375,3.293212890625,-0.790771484375
0.173,-3.353271484375,3.333251953125,-0.390380859375
0.1735,-3.553466796875,2.652587890625,0.450439453125
0.174,-3.873779296875,2.412353515625,1.010986328125
0.1745,-3.873779296875,1.691650390625,1.731689453125
0.175,-3.793701171875,1.131103515625,2.252197265625
0.1755,-3.553466796875,0.250244140625,2.812744140625
0.176,-3.353271484375,-0.390380859375,3.173095703125
0.1765,-2.792724609375,-1.311279296875,3.453369140625
0.177,-2.432373046875,-1.871826171875,3.653564453125
0.1775,-1.791748046875,-2.512451171875,3.653564453125
0.178,-1.151123046875,-2.872802734375,3.373291015625
0.1785,-0.590576171875,-3.433349609375,3.373291015625
0.179,0.450439453125,-3.673583984375,2.652587890625
0.1795,1.131103515625,-4.033935546875,2.332275390625
0.18,1.731689453125,-3.993896484375,1.691650390625
0.1805,2.172119140625,-3.993896484375,1.291259765625
0.181,2.532470703125,-3.673583984375,0.610595703125
0.1815,2.852783203125,-3.553466796875,0.170166015625
0.182,3.093017578125,-2.912841796875,-0.710693359375
0.1825,3.333251953125,-2.592529296875,-1.231201171875
0.183,3.333251953125,-1.951904296875,-1.871826171875
0.1835,3.052978515625,-1.271240234375,-2.272216796875
0.184,2.932861328125,-0.590576171875,-2.832763671875
0.1845,2.492431640625,0.130126953125,-3.072998046875
0.185,2.172119140625,0.810791015625,-3.433349609375
0.1855,1.691650390625,1.291259765625,-3.473388671875
0.186,1.171142578125,1.931884765625,-3.473388671875
0.1865,0.490478515625,2.292236328125,-3.193115234375
0.187,0.010009765625,2.812744140625,-3.153076171875
0.1875,-0.990966796875,3.052978515625,-2.432373046875
0.188,-1.591552734375,3.373291015625,-2.192138671875
