wavelength,x,y,z
0.0,1.451416015625,-22.932373046875,20.830322265625
0.0005,7.337158203125,-25.735107421875,17.827392578125
0.001,13.182861328125,-28.738037109375,15.024658203125
0.0015,17.026611328125,-28.257568359375,10.540283203125
0.002,19.589111328125,-27.096435546875,6.896728515625
0.0025,21.470947265625,-23.412841796875,1.331298828125
0.003,24.353759765625,-20.770263671875,-4.234130859375
0.0035,26.555908203125,-16.966552734375,-10.079833984375
0.004,28.878173828125,-14.444091796875,-14.764404296875
0.0045,27.997314453125,-10.400146484375,-17.847412109375
0.005,24.994384765625,-4.914794921875,-20.209716796875
0.0055,21.470947265625,0.490478515625,-21.891357421875
0.006,18.628173828125,6.496337890625,-25.014404296875
0.0065,15.344970703125,12.622314453125,-27.897216796875
0.007,11.381103515625,16.746337890625,-27.897216796875
0.0075,7.697509765625,19.188720703125,-26.776123046875
0.008,1.331298828125,21.631103515625,-22.812255859375
0.0085,-4.314208984375,24.353759765625,-19.969482421875
0.009,-10.199951171875,26.756103515625,-16.526123046875
0.0095,-15.084716796875,29.438720703125,-14.404052734375
0.01,-18.768310546875,28.437744140625,-9.559326171875
0.0105,-21.290771484375,26.115478515625,-4.754638671875
0.011,-23.052490234375,22.311767578125,0.890869140625
0.0115,-26.135498046875,19.388916015625,6.776611328125
0.012,-28.217529296875,15.625244140625,12.582275390625
0.0125,-29.298583984375,12.101806640625,16.946533203125
0.013,-28.017333984375,8.458251953125,19.228759765625
0.0135,-24.453857421875,2.532470703125,21.470947265625
0.014,-21.130615234375,-3.113037109375,23.552978515625
0.0145,-17.847412109375,-9.319091796875,26.435791015625
0.015,-15.485107421875,-14.444091796875,29.278564453125
0.0155,-10.640380859375,-18.447998046875,28.357666015625
0.016,-6.196044921875,-20.650146484375,26.155517578125
0.0165,0.250244140625,-22.932373046875,22.071533203125
0.017,6.296142578125,-26.175537109375,19.228759765625
0.0175,12.302001953125,-28.217529296875,15.224853515625
0.018,16.786376953125,-29.979248046875,12.542236328125
0.0185,19.829345703125,-28.257568359375,7.857666015625
0.019,22.311767578125,-25.374755859375,2.452392578125
0.0195,24.273681640625,-21.651123046875,-3.273193359375
0.02,27.276611328125,-18.367919921875,-9.439208984375
0.0205,29.438720703125,-15.324951171875,-14.484130859375
0.021,29.278564453125,-11.040771484375,-18.528076171875
0.0215,27.356689453125,-7.197021484375,-20.249755859375
0.022,23.192626953125,-0.590576171875,-22.572021484375
0.0225,19.989501953125,5.495361328125,-25.374755859375
0.023,16.065673828125,11.821533203125,-27.697021484375
0.0235,13.823486328125,16.305908203125,-29.979248046875
0.024,8.298095703125,19.949462890625,-28.057373046875
0.0245,3.052978515625,22.231689453125,-25.094482421875
0.025,-3.273193359375,24.433837890625,-21.090576171875
0.0255,-9.639404296875,27.797119140625,-18.167724609375
0.026,-15.044677734375,29.398681640625,-14.283935546875
0.0265,-19.088623046875,29.839111328125,-10.640380859375
0.027,-21.410888671875,27.877197265625,-6.396240234375
0.0275,-23.853271484375,24.273681640625,-0.310302734375
0.028,-26.095458984375,20.630126953125,5.575439453125
0.0285,-28.778076171875,16.786376953125,11.861572265625
0.029,-30.699951171875,14.464111328125,16.025634765625
0.0295,-29.458740234375,9.138916015625,19.989501953125
0.03,-26.736083984375,4.734619140625,21.510986328125
0.0305,-22.572021484375,-1.911865234375,23.833251953125
0.031,-19.529052734375,-8.318115234375,27.116455078125
0.0315,-15.324951171875,-14.163818359375,28.718017578125
0.032,-12.522216796875,-18.047607421875,29.839111328125
0.0325,-7.357177734375,-20.810302734375,27.396728515625
0.033,-1.591552734375,-23.092529296875,24.033447265625
0.0335,4.494384765625,-25.374755859375,20.149658203125
0.034,11.220947265625,-28.497802734375,16.746337890625
0.0345,15.425048828125,-30.059326171875,14.023681640625
0.035,19.749267578125,-29.618896484375,9.259033203125
0.0355,21.430908203125,-26.936279296875,4.894775390625
0.036,23.993408203125,-23.092529296875,-1.591552734375
0.0365,26.756103515625,-19.729248046875,-7.597412109375
0.037,28.758056640625,-15.645263671875,-13.523193359375
0.0375,30.079345703125,-13.122802734375,-17.246826171875
0.038,27.917236328125,-7.877685546875,-20.169677734375
0.0385,24.954345703125,-3.193115234375,-21.811279296875
0.039,20.950439453125,3.093017578125,-23.893310546875
0.0395,17.867431640625,9.779541015625,-27.416748046875
0.04,14.384033203125,14.624267578125,-28.778076171875
0.0405,10.580322265625,18.668212890625,-29.058349609375
0.041,5.535400390625,20.750244140625,-26.095458984375
0.0415,-0.910888671875,23.352783203125,-22.451904296875
0.042,-6.756591796875,25.915283203125,-19.088623046875
0.0425,-13.202880859375,28.597900390625,-15.364990234375
0.043,-16.926513671875,29.799072265625,-12.802490234375
0.0435,-20.489990234375,28.157470703125,-7.557373046875
0.044,-22.011474609375,25.354736328125,-3.273193359375
0.0445,-24.373779296875,21.551025390625,2.932861328125
0.045,-27.576904296875,18.307861328125,9.259033203125
0.0455,-28.938232421875,14.584228515625,14.223876953125
0.046,-29.779052734375,11.701416015625,17.867431640625
0.0465,-27.056396484375,6.696533203125,19.989501953125
0.047,-23.853271484375,1.211181640625,22.071533203125
0.0475,-20.209716796875,-4.834716796875,24.353759765625
0.048,-16.966552734375,-11.521240234375,27.797119140625
0.0485,-14.243896484375,-15.405029296875,28.878173828125
0.049,-9.359130859375,-19.248779296875,27.957275390625
0.0495,-4.794677734375,-20.810302734375,24.794189453125
0.05,1.731689453125,-23.452880859375,21.150634765625
0.0505,7.817626953125,-26.495849609375,18.067626953125
0.051,13.703369140625,-28.457763671875,14.223876953125
0.0515,17.026611328125,-29.218505859375,11.581298828125
0.052,20.069580078125,-26.936279296875,6.296142578125
0.0525,21.911376953125,-24.173583984375,1.611572265625
0.053,24.233642578125,-20.570068359375,-4.314208984375
0.0535,27.677001953125,-17.366943359375,-10.760498046875
0.054,28.637939453125,-14.404052734375,-14.604248046875
0.0545,28.677978515625,-10.440185546875,-18.447998046875
0.055,25.474853515625,-5.715576171875,-19.889404296875
0.0555,22.071533203125,0.450439453125,-22.451904296875
0.056,18.708251953125,6.536376953125,-25.054443359375
0.0565,15.184814453125,12.902587890625,-27.897216796875
0.057,12.462158203125,16.305908203125,-28.577880859375
0.0575,7.056884765625,19.589111328125,-26.575927734375
0.058,2.332275390625,21.310791015625,-23.532958984375
0.0585,-4.033935546875,24.073486328125,-20.009521484375
0.059,-10.520263671875,27.556884765625,-16.966552734375
0.0595,-15.004638671875,28.758056640625,-13.723388671875
0.06,-18.648193359375,29.238525390625,-10.440185546875
0.0605,-20.890380859375,25.995361328125,-5.074951171875
0.061,-23.332763671875,22.992431640625,0.490478515625
0.0615,-25.614990234375,19.348876953125,6.376220703125
0.062,-28.858154296875,15.865478515625,12.902587890625
0.0625,-29.218505859375,12.702392578125,16.345947265625
0.063,-28.177490234375,8.097900390625,19.669189453125
0.0635,-24.894287109375,3.653564453125,20.790283203125
0.064,-21.571044921875,-2.632568359375,23.593017578125
0.0645,-18.087646484375,-9.158935546875,26.595947265625
0.065,-14.884521484375,-14.604248046875,28.718017578125
0.0655,-12.001708984375,-17.887451171875,29.078369140625
0.066,-5.915771484375,-20.650146484375,25.875244140625
0.0665,-0.630615234375,-22.732177734375,22.712158203125
0.067,5.575439453125,-25.414794921875,19.228759765625
0.0675,12.422119140625,-28.818115234375,15.905517578125
0.068,16.345947265625,-29.298583984375,12.382080078125
0.0685,19.789306640625,-28.778076171875,8.378173828125
0.069,21.551025390625,-25.334716796875,3.133056640625
0.0695,24.313720703125,-22.171630859375,-2.792724609375
0.07,26.635986328125,-18.447998046875,-8.798583984375
0.0705,29.438720703125,-15.124755859375,-14.764404296875
0.071,29.438720703125,-12.001708984375,-17.647216796875
0.0715,27.116455078125,-6.716552734375,-20.570068359375
0.072,23.633056640625,-1.751708984375,-21.891357421875
0.0725,20.189697265625,4.734619140625,-24.774169921875
0.073,16.746337890625,11.541259765625,-28.137451171875
0.0735,13.262939453125,15.985595703125,-29.138427734375
0.074,9.659423828125,19.388916015625,-28.858154296875
0.0745,3.253173828125,21.751220703125,-24.814208984375
0.075,-2.632568359375,24.353759765625,-21.731201171875
0.0755,-8.678466796875,26.756103515625,-18.087646484375
0.076,-15.044677734375,29.919189453125,-14.804443359375
0.0765,-18.447998046875,29.398681640625,-10.880615234375
0.077,-21.651123046875,27.957275390625,-6.236083984375
0.0775,-23.052490234375,24.313720703125,-1.231201171875
0.078,-25.895263671875,21.030517578125,4.934814453125
0.0785,-28.417724609375,17.146728515625,11.220947265625
0.079,-30.179443359375,14.063720703125,15.985595703125
0.0795,-30.059326171875,10.540283203125,19.148681640625
0.08,-26.415771484375,4.334228515625,21.591064453125
0.0805,-23.012451171875,-1.111083984375,23.432861328125
0.081,-19.529052734375,-7.397216796875,26.155517578125
0.0815,-16.285888671875,-14.083740234375,29.478759765625
0.082,-12.081787109375,-17.847412109375,29.158447265625
0.0825,-8.037841796875,-20.770263671875,28.037353515625
0.083,-2.072021484375,-22.572021484375,23.953369140625
0.0835,4.053955078125,-25.494873046875,20.830322265625
0.084,10.219970703125,-27.737060546875,16.946533203125
0.0845,15.625244140625,-30.179443359375,14.063720703125
0.085,19.028564453125,-29.779052734375,10.099853515625
0.0855,21.951416015625,-26.896240234375,4.334228515625
0.086,23.552978515625,-23.372802734375,-0.910888671875
0.0865,26.395751953125,-20.049560546875,-6.956787109375
0.087,29.238525390625,-16.446044921875,-13.242919921875
0.0875,29.598876953125,-12.522216796875,-17.447021484375
0.088,28.878173828125,-9.078857421875,-19.929443359375
0.0885,24.834228515625,-3.032958984375,-21.811279296875
0.089,21.711181640625,2.692626953125,-24.293701171875
0.0895,17.827392578125,8.938720703125,-26.656005859375
0.09,15.064697265625,14.864501953125,-29.739013671875
0.0905,10.620361328125,18.347900390625,-28.778076171875
0.091,5.415283203125,21.270751953125,-26.495849609375
0.0915,-0.430419921875,22.992431640625,-22.451904296875
0.092,-6.436279296875,26.075439453125,-19.569091796875
0.0925,-12.642333984375,28.437744140625,-15.725341796875
0.093,-17.206787109375,29.759033203125,-12.482177734375
0.0935,-20.009521484375,28.918212890625,-8.838623046875
0.094,-22.572021484375,25.314697265625,-2.672607421875
0.0945,-24.533935546875,22.031494140625,2.652587890625
0.095,-27.016357421875,18.468017578125,8.578369140625
0.0955,-30.019287109375,15.465087890625,14.464111328125
0.096,-29.418701171875,11.140869140625,17.987548828125
0.0965,-27.977294921875,7.177001953125,20.349853515625
0.097,-23.853271484375,1.331298828125,21.951416015625
0.0975,-21.090576171875,-4.634521484375,24.954345703125
0.098,-17.046630859375,-10.880615234375,27.196533203125
0.0985,-14.564208984375,-15.765380859375,29.558837890625
0.099,-10.199951171875,-18.968505859375,28.477783203125
0.0995,-4.154052734375,-21.651123046875,25.074462890625
0.1,1.411376953125,-23.492919921875,21.470947265625
0.1005,7.417236328125,-26.495849609375,18.468017578125
0.101,13.503173828125,-29.138427734375,15.064697265625
0.1015,17.627197265625,-28.978271484375,10.740478515625
0.102,20.069580078125,-28.017333984375,7.297119140625
0.1025,22.231689453125,-24.213623046875,1.331298828125
0.103,24.794189453125,-21.210693359375,-4.194091796875
0.1035,26.916259765625,-17.406982421875,-10.039794921875
0.104,29.598876953125,-15.124755859375,-14.884521484375
0.1045,28.517822265625,-10.560302734375,-18.207763671875
0.105,25.995361328125,-5.515380859375,-20.489990234375
0.1055,22.031494140625,0.130126953125,-22.211669921875
0.106,19.308837890625,6.256103515625,-25.454833984375
0.1065,15.505126953125,12.422119140625,-27.697021484375
0.107,12.021728515625,16.786376953125,-28.577880859375
0.1075,8.137939453125,19.268798828125,-27.216552734375
0.108,1.771728515625,21.911376953125,-23.452880859375
0.1085,-3.873779296875,24.193603515625,-20.289794921875
0.109,-9.839599609375,26.876220703125,-16.966552734375
0.1095,-14.764404296875,29.438720703125,-14.684326171875
0.11,-18.648193359375,28.557861328125,-9.799560546875
0.1105,-20.850341796875,26.595947265625,-5.635498046875
0.111,-22.812255859375,22.712158203125,0.250244140625
0.1115,-25.815185546875,19.869384765625,6.055908203125
0.112,-27.737060546875,15.945556640625,11.781494140625
0.1125,-29.458740234375,12.982666015625,16.305908203125
0.113,-28.017333984375,8.858642578125,18.868408203125
0.1135,-24.934326171875,3.253173828125,21.110595703125
0.114,-21.410888671875,-2.152099609375,22.952392578125
0.1145,-18.447998046875,-8.358154296875,26.115478515625
0.115,-15.605224609375,-13.723388671875,28.557861328125
0.1155,-11.240966796875,-17.687255859375,28.197509765625
0.116,-7.197021484375,-19.889404296875,26.315673828125
0.1165,-0.710693359375,-22.251708984375,22.351806640625
0.117,5.094970703125,-25.174560546875,19.509033203125
0.1175,11.060791015625,-27.376708984375,15.705322265625
0.118,15.585205078125,-29.498779296875,13.343017578125
0.1185,18.908447265625,-27.937255859375,8.378173828125
0.119,21.310791015625,-25.414794921875,3.493408203125
0.1195,23.152587890625,-21.731201171875,-2.112060546875
0.12,26.355712890625,-18.768310546875,-8.117919921875
0.1205,28.237548828125,-15.405029296875,-13.322998046875
0.121,28.758056640625,-11.721435546875,-17.326904296875
0.1215,26.956298828125,-7.997802734375,-19.208740234375
0.122,23.272705078125,-1.711669921875,-21.571044921875
0.1225,19.949462890625,4.053955078125,-23.933349609375
0.123,16.546142578125,10.380126953125,-26.776123046875
0.1235,14.464111328125,14.784423828125,-29.098388671875
0.124,9.138916015625,18.788330078125,-27.697021484375
0.1245,4.334228515625,20.870361328125,-25.014404296875
0.125,-2.031982421875,23.192626953125,-21.130615234375
0.1255,-8.117919921875,26.555908203125,-18.407958984375
0.126,-13.723388671875,28.197509765625,-14.484130859375
0.1265,-17.687255859375,29.158447265625,-11.401123046875
0.127,-20.249755859375,27.276611328125,-6.996826171875
0.1275,-22.652099609375,24.233642578125,-1.471435546875
0.128,-24.654052734375,20.590087890625,4.134033203125
0.1285,-27.616943359375,17.226806640625,10.420166015625
0.129,-29.458740234375,14.744384765625,14.664306640625
0.1295,-29.018310546875,9.939697265625,18.628173828125
0.13,-26.415771484375,5.815673828125,20.149658203125
0.1305,-22.531982421875,-0.750732421875,22.672119140625
0.131,-19.529052734375,-6.836669921875,25.675048828125
0.1315,-15.565185546875,-12.882568359375,27.797119140625
0.132,-13.162841796875,-16.766357421875,29.198486328125
0.1325,-7.957763671875,-19.729248046875,26.996337890625
0.133,-2.752685546875,-21.931396484375,23.993408203125
0.1335,3.293212890625,-24.093505859375,20.229736328125
0.134,9.819580078125,-27.576904296875,17.186767578125
0.1345,14.384033203125,-28.938232421875,13.943603515625
0.135,18.548095703125,-29.178466796875,9.979736328125
0.1355,20.429931640625,-26.615966796875,5.575439453125
0.136,23.032470703125,-23.132568359375,-0.590576171875
0.1365,25.474853515625,-19.729248046875,-6.316162109375
0.137,27.917236328125,-16.045654296875,-12.442138671875
0.1375,29.318603515625,-13.643310546875,-16.085693359375
0.138,27.677001953125,-8.478271484375,-19.368896484375
0.1385,24.794189453125,-4.114013671875,-20.730224609375
0.139,20.870361328125,2.212158203125,-23.052490234375
0.1395,17.947509765625,8.698486328125,-26.455810546875
0.14,14.303955078125,13.903564453125,-28.017333984375
0.1405,11.260986328125,17.627197265625,-28.697998046875
0.141,6.015869140625,20.029541015625,-25.895263671875
0.1415,0.050048828125,22.592041015625,-22.531982421875
0.142,-5.755615234375,24.914306640625,-19.088623046875
0.1425,-12.201904296875,27.997314453125,-15.685302734375
0.143,-15.925537109375,29.158447265625,-13.122802734375
0.1435,-19.689208984375,28.157470703125,-8.358154296875
0.144,-21.130615234375,25.354736328125,-4.114013671875
0.1445,-23.693115234375,21.631103515625,2.212158203125
0.145,-26.575927734375,18.387939453125,8.258056640625
0.1455,-28.497802734375,14.664306640625,13.703369140625
0.146,-29.378662109375,12.101806640625,17.026611328125
0.1465,-26.976318359375,7.056884765625,19.509033203125
0.147,-23.973388671875,2.092041015625,21.350830078125
0.1475,-20.289794921875,-3.953857421875,23.593017578125
0.148,-17.286865234375,-10.600341796875,27.196533203125
0.1485,-14.524169921875,-14.604248046875,28.357666015625
0.149,-10.239990234375,-18.568115234375,28.117431640625
0.1495,-5.395263671875,-20.169677734375,24.834228515625
0.15,1.010986328125,-23.012451171875,21.430908203125
0.1505,6.896728515625,-25.655029296875,18.187744140625
0.151,13.102783203125,-28.217529296875,14.544189453125
0.1515,16.506103515625,-28.898193359375,11.821533203125
0.152,19.709228515625,-27.096435546875,6.776611328125
0.1525,21.270751953125,-24.373779296875,2.492431640625
0.153,23.793212890625,-20.810302734375,-3.673583984375
0.1535,27.076416015625,-17.727294921875,-9.999755859375
0.154,28.237548828125,-14.524169921875,-14.123779296875
0.1545,28.677978515625,-11.240966796875,-17.727294921875
0.155,25.554931640625,-6.156005859375,-19.489013671875
0.1555,22.311767578125,-0.350341796875,-21.971435546875
0.156,18.788330078125,5.735595703125,-24.413818359375
0.1565,15.585205078125,12.342041015625,-27.737060546875
0.157,12.662353515625,15.905517578125,-28.337646484375
0.1575,7.777587890625,19.308837890625,-26.896240234375
0.158,3.012939453125,20.950439453125,-23.773193359375
0.1585,-3.513427734375,23.913330078125,-20.369873046875
0.159,-9.719482421875,27.036376953125,-17.246826171875
0.1595,-14.764404296875,28.718017578125,-13.923583984375
0.16,-18.127685546875,29.278564453125,-11.000732421875
0.1605,-20.730224609375,26.315673828125,-5.515380859375
0.161,-22.932373046875,23.312744140625,-0.350341796875
0.1615,-25.334716796875,19.589111328125,5.735595703125
0.162,-28.778076171875,16.385986328125,12.302001953125
0.1625,-29.178466796875,13.022705078125,15.985595703125
0.163,-28.537841796875,8.978759765625,19.308837890625
0.1635,-25.174560546875,4.093994140625,20.630126953125
0.164,-22.011474609375,-2.272216796875,23.593017578125
0.1645,-18.367919921875,-8.598388671875,26.235595703125
0.165,-15.124755859375,-14.564208984375,28.958251953125
0.1655,-12.201904296875,-17.687255859375,29.158447265625
0.166,-6.436279296875,-20.690185546875,26.475830078125
0.1665,-1.231201171875,-22.572021484375,23.112548828125
0.167,5.175048828125,-25.454833984375,19.709228515625
0.1675,11.861572265625,-28.738037109375,16.265869140625
0.168,16.225830078125,-29.538818359375,12.742431640625
0.1685,19.509033203125,-29.338623046875,9.138916015625
0.169,21.671142578125,-25.775146484375,3.493408203125
0.1695,24.353759765625,-22.692138671875,-2.432373046875
0.17,26.595947265625,-18.728271484375,-8.438232421875
0.1705,29.638916015625,-15.405029296875,-14.684326171875
0.171,29.358642578125,-11.881591796875,-17.727294921875
0.1715,27.636962890625,-7.277099609375,-20.570068359375
0.172,23.993408203125,-2.272216796875,-21.771240234375
0.1725,20.670166015625,4.334228515625,-24.854248046875
0.173,16.906494140625,11.020751953125,-27.737060546875
0.1735,13.743408203125,15.825439453125,-29.338623046875
0.174,10.179931640625,19.188720703125,-29.178466796875
0.1745,3.613525390625,21.711181640625,-25.214599609375
0.175,-2.112060546875,24.153564453125,-21.971435546875
0.1755,-8.238037109375,26.796142578125,-18.447998046875
0.176,-14.684326171875,29.839111328125,-15.164794921875
0.1765,-18.247802734375,29.358642578125,-10.960693359375
0.177,-21.290771484375,28.357666015625,-6.996826171875
0.1775,-22.852294921875,24.593994140625,-1.751708984375
0.178,-25.815185546875,21.470947265625,4.454345703125
0.1785,-28.017333984375,17.427001953125,10.580322265625
0.179,-30.299560546875,14.384033203125,15.745361328125
0.1795,-29.939208984375,10.820556640625,18.788330078125
0.18,-26.776123046875,5.054931640625,21.350830078125
