wavelength,x,y,z
0.0,0.9259033203125,-18.132690429688,16.981567382812
0.0005,3.9688720703125,-19.894409179688,15.900512695312
0.001,6.7315673828125,-20.655151367188,14.058715820312
0.0015,9.4542236328125,-20.134643554688,10.975708007812
0.002,13.257934570312,-19.213745117188,6.5714111328125
0.0025,16.461059570312,-18.132690429688,2.4073486328125
0.003,19.343872070312,-16.731323242188,-1.8768310546875
0.0035,20.464965820312,-15.089721679688,-4.3592529296875
0.004,20.464965820312,-12.527221679688,-7.1219482421875
0.0045,20.224731445312,-9.4041748046875,-10.004760742188
0.005,19.343872070312,-4.4393310546875,-14.128784179688
0.0055,18.062622070312,-0.2752685546875,-17.091674804688
0.006,17.021606445312,2.9278564453125,-19.173706054688
0.0065,15.179809570312,5.7305908203125,-20.174682617188
0.007,12.056762695312,8.2930908203125,-19.734252929688
0.0075,7.6124267578125,12.096801757812,-19.093627929688
0.008,2.8077392578125,15.500122070312,-17.892456054688
0.0085,-1.8768310546875,18.302856445312,-16.370971679688
0.009,-4.5194091796875,19.504028320312,-15.089721679688
0.0095,-7.1219482421875,19.784301757812,-13.007690429688
0.01,-9.8846435546875,19.423950195312,-10.084838867188
0.0105,-13.808471679688,18.302856445312,-5.1600341796875
0.011,-16.931518554688,17.101684570312,-1.0360107421875
0.0115,-19.253784179688,15.980590820312,2.4073486328125
0.012,-20.054565429688,14.218872070312,4.9298095703125
0.0125,-19.814331054688,11.296020507812,7.6124267578125
0.013,-19.534057617188,7.6925048828125,10.895629882812
0.0135,-18.693237304688,3.3282470703125,14.539184570312
0.014,-17.411987304688,-0.9959716796875,17.542114257812
0.0145,-16.090698242188,-3.7186279296875,18.983520507812
0.015,-14.288940429688,-6.2010498046875,19.704223632812
0.0155,-11.045776367188,-8.9637451171875,19.263793945312
0.016,-5.9207763671875,-12.887573242188,18.182739257812
0.0165,-1.4764404296875,-16.010620117188,17.061645507812
0.017,2.5274658203125,-18.573120117188,15.900512695312
0.0175,5.0499267578125,-19.494018554688,14.419067382812
0.018,7.6925048828125,-19.293823242188,11.896606445312
0.0185,10.775512695312,-18.973510742188,8.7735595703125
0.019,14.379028320312,-17.932495117188,4.1290283203125
0.0195,17.462036132812,-16.651245117188,-0.1551513671875
0.02,19.183715820312,-15.530151367188,-2.8778076171875
0.0205,19.744262695312,-13.448120117188,-5.4403076171875
0.021,19.423950195312,-10.485229492188,-8.1629638671875
0.0215,18.823364257812,-6.1209716796875,-12.006713867188
0.022,18.062622070312,-2.1971435546875,-15.129760742188
0.0225,17.021606445312,1.6466064453125,-17.932495117188
0.023,15.420043945312,4.2891845703125,-18.933471679688
0.0235,13.057739257812,6.8516845703125,-19.213745117188
0.024,9.4542236328125,10.054809570312,-18.933471679688
0.0245,4.2091064453125,13.818481445312,-17.612182617188
0.025,-0.2752685546875,16.781372070312,-16.370971679688
0.0255,-3.3983154296875,18.703247070312,-15.329956054688
0.026,-5.9207763671875,19.303833007812,-13.648315429688
0.0265,-8.5233154296875,19.063598632812,-10.725463867188
0.027,-12.126831054688,18.382934570312,-6.9217529296875
0.0275,-15.450073242188,17.301879882812,-2.6776123046875
0.028,-18.332885742188,16.020629882812,1.4464111328125
0.0285,-19.453979492188,14.659301757812,3.8887939453125
0.029,-19.774291992188,12.296997070312,6.5313720703125
0.0295,-19.494018554688,9.0938720703125,9.4942626953125
0.03,-18.653198242188,4.4493408203125,13.378051757812
0.0305,-17.612182617188,0.4854736328125,16.340942382812
0.031,-16.811401367188,-2.9578857421875,18.703247070312
0.0315,-14.769409179688,-5.4403076171875,19.383911132812
0.032,-11.886596679688,-8.0428466796875,19.223754882812
0.0325,-7.8026123046875,-11.686401367188,18.783325195312
0.033,-2.7176513671875,-15.169799804688,17.341918945312
0.0335,1.6466064453125,-17.972534179688,15.980590820312
0.034,4.3292236328125,-19.253784179688,14.899536132812
0.0345,6.9718017578125,-19.734252929688,12.857543945312
0.035,9.8946533203125,-19.173706054688,9.6544189453125
0.0355,13.578247070312,-18.252807617188,5.2901611328125
0.036,16.741333007812,-17.171752929688,1.2061767578125
0.0365,19.263793945312,-15.970581054688,-2.5574951171875
0.037,19.864379882812,-14.128784179688,-4.9197998046875
0.0375,19.864379882812,-11.326049804688,-7.7225341796875
0.038,19.504028320312,-7.5623779296875,-11.165893554688
0.0385,18.543090820312,-3.1981201171875,-14.689331054688
0.039,17.341918945312,0.8458251953125,-17.572143554688
0.0395,16.220825195312,3.8487548828125,-19.253784179688
0.04,14.018676757812,6.4512939453125,-19.734252929688
0.0405,10.495239257812,9.3341064453125,-19.253784179688
0.041,5.8106689453125,13.137817382812,-18.493041992188
0.0415,0.9659423828125,16.461059570312,-17.211791992188
0.042,-3.0780029296875,18.903442382812,-15.890502929688
0.0425,-5.4803466796875,19.664184570312,-14.449096679688
0.043,-8.2830810546875,19.824340820312,-12.006713867188
0.0435,-11.646362304688,19.183715820312,-8.1629638671875
0.044,-15.129760742188,18.062622070312,-3.7186279296875
0.0445,-18.212768554688,16.821411132812,0.5255126953125
0.045,-20.254760742188,15.620239257812,3.8487548828125
0.0455,-20.494995117188,13.297973632812,6.2911376953125
0.046,-20.374877929688,10.094848632812,9.2940673828125
0.0465,-19.694213867188,5.6905517578125,13.097778320312
0.047,-18.653198242188,1.3663330078125,16.380981445312
0.0475,-17.331909179688,-2.5975341796875,19.023559570312
0.048,-15.730346679688,-5.2000732421875,20.104614257812
0.0485,-13.247924804688,-7.9227294921875,20.384887695312
0.049,-8.9637451171875,-11.326049804688,19.624145507812
0.0495,-4.0789794921875,-14.849487304688,18.302856445312
0.05,0.6856689453125,-17.892456054688,16.941528320312
0.0505,4.4893798828125,-20.014526367188,15.660278320312
0.051,6.7716064453125,-20.254760742188,13.658325195312
0.0515,9.6143798828125,-20.174682617188,10.935668945312
0.052,13.418090820312,-19.293823242188,6.5313720703125
0.0525,16.701293945312,-18.012573242188,2.0469970703125
0.053,19.463989257812,-16.651245117188,-1.9569091796875
0.0535,20.785278320312,-15.089721679688,-4.8397216796875
0.054,20.825317382812,-12.527221679688,-7.5623779296875
0.0545,20.464965820312,-8.6834716796875,-10.925659179688
0.055,19.504028320312,-4.3192138671875,-14.409057617188
0.0555,18.422973632812,0.0450439453125,-17.652221679688
0.056,16.941528320312,3.6885986328125,-19.894409179688
0.0565,14.779418945312,6.1710205078125,-20.254760742188
0.057,12.096801757812,8.9737548828125,-20.454956054688
0.0575,7.0118408203125,12.977661132812,-19.534057617188
0.058,2.1671142578125,16.180786132812,-18.012573242188
0.0585,-2.1971435546875,18.903442382812,-16.370971679688
0.059,-5.4002685546875,20.505004882812,-15.329956054688
0.0595,-7.9627685546875,20.384887695312,-12.847534179688
0.06,-10.925659179688,19.984497070312,-9.6444091796875
0.0605,-14.769409179688,19.023559570312,-5.0399169921875
0.061,-18.052612304688,17.622192382812,-0.4354248046875
0.0615,-20.374877929688,16.180786132812,3.2882080078125
0.062,-21.135620117188,14.218872070312,5.9307861328125
0.0625,-21.135620117188,11.376098632812,8.8135986328125
0.063,-20.494995117188,6.8917236328125,12.657348632812
0.0635,-19.293823242188,2.6475830078125,15.820434570312
0.064,-18.092651367188,-1.5565185546875,18.703247070312
0.0645,-16.651245117188,-4.9598388671875,20.705200195312
0.065,-14.048706054688,-7.4022216796875,20.585083007812
0.0655,-10.925659179688,-10.285034179688,20.424926757812
0.066,-5.6004638671875,-14.288940429688,19.263793945312
0.0665,-0.5155029296875,-17.452026367188,17.622192382812
0.067,3.3282470703125,-19.694213867188,16.300903320312
0.0675,6.1710205078125,-20.815307617188,14.739379882812
0.068,8.9737548828125,-20.575073242188,12.016723632812
0.0685,12.457153320312,-19.854370117188,7.9327392578125
0.069,15.780395507812,-18.733276367188,3.7286376953125
0.0695,18.983520507812,-17.331909179688,-0.8358154296875
0.07,20.865356445312,-15.890502929688,-3.9989013671875
0.0705,21.025512695312,-13.448120117188,-6.6815185546875
0.071,20.945434570312,-10.525268554688,-9.6444091796875
0.0715,20.184692382812,-5.5604248046875,-13.808471679688
0.072,18.983520507812,-1.3162841796875,-16.891479492188
0.0725,17.662231445312,2.4073486328125,-19.253784179688
0.073,16.060668945312,5.4503173828125,-20.815307617188
0.0735,13.057739257812,8.1729736328125,-20.575073242188
0.074,9.0538330078125,11.656372070312,-20.054565429688
0.0745,4.1290283203125,15.299926757812,-18.933471679688
0.075,-1.0360107421875,18.503051757812,-17.331909179688
0.0755,-4.4793701171875,20.344848632812,-15.970581054688
0.076,-7.0819091796875,20.785278320312,-14.048706054688
0.0765,-9.9647216796875,20.625122070312,-11.286010742188
0.077,-14.048706054688,19.504028320312,-6.2811279296875
0.0775,-17.171752929688,18.302856445312,-1.9569091796875
0.078,-20.014526367188,16.981567382812,2.2071533203125
0.0785,-21.576049804688,15.339965820312,5.2901611328125
0.079,-21.335815429688,12.337036132812,7.9727783203125
0.0795,-21.135620117188,8.9337158203125,11.255981445312
0.08,-20.214721679688,4.0889892578125,15.219848632812
0.0805,-18.893432617188,-0.5955810546875,18.543090820312
0.081,-17.331909179688,-4.0789794921875,20.464965820312
0.0815,-15.530151367188,-6.8416748046875,21.425903320312
0.082,-12.327026367188,-9.6444091796875,21.185668945312
0.0825,-7.0418701171875,-13.728393554688,20.144653320312
0.083,-2.2772216796875,-16.891479492188,18.703247070312
0.0835,2.5274658203125,-19.894409179688,17.221801757812
0.084,5.8106689453125,-21.415893554688,15.660278320312
0.0845,8.5333251953125,-21.175659179688,12.977661132812
0.085,11.536254882812,-21.015502929688,10.054809570312
0.0855,15.700317382812,-19.774291992188,4.7296142578125
0.086,19.063598632812,-18.252807617188,-0.1151123046875
0.0865,21.185668945312,-16.811401367188,-3.5584716796875
0.087,22.146606445312,-14.769409179688,-6.4412841796875
0.0875,21.746215820312,-11.526245117188,-9.3240966796875
0.088,21.145629882812,-7.0819091796875,-13.287963867188
0.0885,20.104614257812,-2.7176513671875,-16.571166992188
0.089,18.743286132812,1.8468017578125,-19.774291992188
0.0895,16.861450195312,5.0899658203125,-21.576049804688
0.09,14.379028320312,7.8927001953125,-21.495971679688
0.0905,11.055786132812,10.935668945312,-21.375854492188
0.091,4.9698486328125,15.380004882812,-19.894409179688
0.0915,0.1251220703125,18.422973632812,-18.252807617188
0.092,-3.8387451171875,20.745239257812,-16.931518554688
0.0925,-6.9617919921875,21.826293945312,-15.169799804688
0.093,-9.8846435546875,21.225708007812,-11.886596679688
0.0935,-13.207885742188,20.585083007812,-8.1629638671875
0.094,-16.891479492188,19.504028320312,-3.1580810546875
0.0945,-20.214721679688,17.622192382812,1.6866455078125
0.095,-21.776245117188,16.020629882812,4.7696533203125
0.0955,-22.176635742188,13.578247070312,7.6124267578125
0.096,-21.816284179688,10.415161132812,10.455200195312
0.0965,-20.855346679688,5.1300048828125,14.739379882812
0.097,-19.534057617188,0.8458251953125,17.742309570312
0.0975,-18.132690429688,-3.1981201171875,20.464965820312
0.098,-16.370971679688,-6.2811279296875,21.786254882812
0.0985,-13.167846679688,-8.9637451171875,21.345825195312
0.099,-9.5643310546875,-12.246948242188,21.065551757812
0.0995,-3.7186279296875,-16.290893554688,19.504028320312
0.1,1.5665283203125,-19.373901367188,17.622192382812
0.1005,4.8096923828125,-21.015502929688,16.300903320312
0.101,7.6925048828125,-21.776245117188,14.298950195312
0.1015,10.695434570312,-21.135620117188,10.975708007812
0.102,14.499145507812,-20.134643554688,6.3311767578125
0.1025,17.782348632812,-18.933471679688,1.9268798828125
0.103,20.745239257812,-17.331909179688,-2.5975341796875
0.1035,21.826293945312,-15.530151367188,-5.4403076171875
0.104,21.746215820312,-12.567260742188,-8.3231201171875
0.1045,21.465942382812,-9.2840576171875,-11.366088867188
0.105,20.505004882812,-4.1190185546875,-15.690307617188
0.1055,19.063598632812,0.5255126953125,-18.733276367188
0.106,17.702270507812,3.8887939453125,-20.775268554688
0.1065,15.660278320312,6.8917236328125,-21.776245117188
0.107,12.016723632812,9.8546142578125,-21.175659179688
0.1075,7.2921142578125,13.778442382812,-20.494995117188
0.108,2.2071533203125,17.301879882812,-19.213745117188
0.1085,-2.9178466796875,20.344848632812,-17.331909179688
0.109,-5.8406982421875,21.465942382812,-15.850463867188
0.1095,-8.6834716796875,21.666137695312,-13.448120117188
0.11,-11.846557617188,21.185668945312,-10.004760742188
0.1105,-16.010620117188,19.864379882812,-4.6395263671875
0.111,-19.293823242188,18.342895507812,0.0450439453125
0.1115,-21.736206054688,16.901489257812,3.8487548828125
0.112,-22.456909179688,14.739379882812,6.6915283203125
0.1125,-22.096557617188,11.255981445312,9.8546142578125
0.113,-21.536010742188,7.1719970703125,13.418090820312
0.1135,-20.494995117188,2.2471923828125,17.061645507812
0.114,-18.893432617188,-2.3973388671875,20.304809570312
0.1145,-17.131713867188,-5.4803466796875,21.706176757812
0.115,-14.889526367188,-8.3231201171875,22.346801757812
0.1155,-10.885620117188,-11.486206054688,21.626098632812
0.116,-5.2000732421875,-15.610229492188,20.224731445312
0.1165,-0.2352294921875,-18.813354492188,18.703247070312
0.117,4.3292236328125,-21.455932617188,17.061645507812
0.1175,7.1319580078125,-22.136596679688,15.099731445312
0.118,10.295043945312,-21.856323242188,12.016723632812
0.1185,13.698364257812,-21.175659179688,8.2130126953125
0.119,17.462036132812,-19.734252929688,3.0479736328125
0.1195,20.665161132812,-17.972534179688,-1.7967529296875
0.12,22.346801757812,-16.411010742188,-5.0399169921875
0.1205,22.747192382812,-13.968627929688,-7.9227294921875
0.121,22.146606445312,-10.204956054688,-11.125854492188
0.1215,21.185668945312,-5.3602294921875,-15.089721679688
0.122,20.024536132812,-0.9158935546875,-18.292846679688
0.1225,18.463012695312,3.5684814453125,-21.135620117188
0.123,16.220825195312,6.4512939453125,-21.936401367188
0.1235,13.418090820312,9.3741455078125,-22.056518554688
0.124,9.0137939453125,12.897583007812,-21.375854492188
0.1245,3.2481689453125,16.781372070312,-19.654174804688
0.125,-1.6766357421875,19.784301757812,-17.972534179688
0.1255,-5.3201904296875,21.706176757812,-16.531127929688
0.126,-8.0828857421875,22.026489257812,-14.248901367188
0.1265,-11.245971679688,21.425903320312,-10.765502929688
0.127,-14.889526367188,20.464965820312,-6.4012451171875
0.1275,-18.372924804688,19.023559570312,-1.5565185546875
0.128,-21.295776367188,17.261840820312,3.0880126953125
0.1285,-22.296752929688,15.380004882812,5.8907470703125
0.129,-22.456909179688,12.617309570312,8.8936767578125
0.1295,-21.936401367188,8.6134033203125,12.176879882812
0.13,-20.775268554688,3.6885986328125,16.100708007812
0.1305,-19.333862304688,-0.7156982421875,19.143676757812
0.131,-17.972534179688,-4.5594482421875,21.586059570312
0.1315,-15.570190429688,-7.2420654296875,21.946411132812
0.132,-12.246948242188,-10.204956054688,21.626098632812
0.1325,-7.5623779296875,-13.968627929688,20.825317382812
0.133,-1.9969482421875,-17.492065429688,19.063598632812
0.1335,2.8477783203125,-20.254760742188,17.301879882812
0.134,5.8106689453125,-21.616088867188,15.860473632812
0.1345,8.6934814453125,-21.776245117188,13.458129882812
0.135,11.896606445312,-21.015502929688,9.6544189453125
0.1355,15.660278320312,-19.894409179688,4.9698486328125
0.136,18.943481445312,-18.453002929688,0.3653564453125
0.1365,21.465942382812,-16.971557617188,-3.6785888671875
0.137,21.866333007812,-14.769409179688,-6.2410888671875
0.1375,21.826293945312,-11.686401367188,-9.3641357421875
0.138,21.185668945312,-7.3621826171875,-13.007690429688
0.1385,20.104614257812,-2.6776123046875,-16.611206054688
0.139,18.583129882812,1.6065673828125,-19.413940429688
0.1395,17.221801757812,4.8497314453125,-21.215698242188
0.14,14.699340820312,7.6524658203125,-21.576049804688
0.1405,10.735473632812,10.815551757812,-20.935424804688
0.141,5.7305908203125,14.819458007812,-19.654174804688
0.1415,0.6055908203125,18.062622070312,-18.453002929688
0.142,-3.7186279296875,20.545043945312,-16.811401367188
0.1425,-6.3612060546875,21.265747070312,-15.129760742188
0.143,-9.3240966796875,21.265747070312,-12.447143554688
0.1435,-12.967651367188,20.464965820312,-8.2030029296875
0.144,-16.411010742188,19.183715820312,-3.5584716796875
0.1445,-19.534057617188,17.662231445312,0.9259033203125
0.145,-21.776245117188,16.220825195312,4.4893798828125
0.1455,-21.816284179688,13.658325195312,7.0919189453125
0.146,-21.616088867188,10.295043945312,10.295043945312
0.1465,-20.815307617188,5.7305908203125,14.138793945312
0.147,-19.694213867188,1.1260986328125,17.622192382812
0.1475,-18.092651367188,-3.0379638671875,20.224731445312
0.148,-16.370971679688,-5.8406982421875,21.305786132812
0.1485,-13.688354492188,-8.6834716796875,21.626098632812
0.149,-8.8035888671875,-12.166870117188,20.665161132812
0.1495,-4.0389404296875,-15.850463867188,19.343872070312
0.15,0.9659423828125,-19.013549804688,17.822387695312
0.1505,4.8497314453125,-21.175659179688,16.380981445312
0.151,7.4122314453125,-21.335815429688,14.138793945312
0.1515,10.455200195312,-21.175659179688,11.296020507812
0.152,14.379028320312,-20.294799804688,6.5714111328125
0.1525,17.662231445312,-18.933471679688,1.9268798828125
0.153,20.665161132812,-17.291870117188,-2.3172607421875
0.1535,21.906372070312,-15.730346679688,-5.4403076171875
0.154,21.946411132812,-12.847534179688,-8.2830810546875
0.1545,21.505981445312,-8.8436279296875,-11.846557617188
0.155,20.505004882812,-4.2391357421875,-15.410034179688
0.1555,19.343872070312,0.2852783203125,-18.733276367188
0.156,17.742309570312,4.1290283203125,-21.095581054688
0.1565,15.540161132812,6.8516845703125,-21.455932617188
0.157,12.417114257812,9.7344970703125,-21.536010742188
0.1575,7.0518798828125,13.938598632812,-20.494995117188
0.158,2.0469970703125,17.181762695312,-18.893432617188
0.1585,-2.5174560546875,19.984497070312,-17.371948242188
0.159,-5.9207763671875,21.626098632812,-15.930541992188
0.1595,-8.6033935546875,21.425903320312,-13.207885742188
0.16,-11.766479492188,20.985473632812,-9.8446044921875
0.1605,-15.810424804688,19.904418945312,-4.9598388671875
0.161,-19.213745117188,18.302856445312,-0.1551513671875
0.1615,-21.495971679688,16.701293945312,3.6885986328125
0.162,-22.136596679688,14.659301757812,6.4512939453125
0.1625,-22.136596679688,11.656372070312,9.4542236328125
0.163,-21.455932617188,6.8917236328125,13.498168945312
0.1635,-20.214721679688,2.5274658203125,16.741333007812
0.164,-18.893432617188,-1.8367919921875,19.784301757812
0.1645,-17.452026367188,-5.3201904296875,21.826293945312
0.165,-14.529174804688,-7.8426513671875,21.626098632812
0.1655,-11.245971679688,-10.925659179688,21.425903320312
0.166,-5.6805419921875,-15.089721679688,20.144653320312
0.1665,-0.3553466796875,-18.332885742188,18.382934570312
0.167,3.6885986328125,-20.615112304688,16.861450195312
0.1675,6.6114501953125,-21.696166992188,15.259887695312
0.168,9.5743408203125,-21.415893554688,12.337036132812
0.1685,13.017700195312,-20.575073242188,8.1329345703125
0.169,16.581176757812,-19.413940429688,3.6885986328125
0.1695,19.704223632812,-17.972534179688,-1.0760498046875
0.17,21.706176757812,-16.370971679688,-4.5194091796875
0.1705,21.746215820312,-13.808471679688,-7.0819091796875
0.171,21.786254882812,-10.685424804688,-10.164916992188
0.1715,20.825317382812,-5.6405029296875,-14.409057617188
0.172,19.584106445312,-1.2362060546875,-17.492065429688
0.1725,18.222778320312,2.5274658203125,-20.014526367188
0.173,16.541137695312,5.7706298828125,-21.495971679688
0.1735,13.418090820312,8.5333251953125,-21.215698242188
0.174,9.2139892578125,12.016723632812,-20.655151367188
0.1745,4.2091064453125,15.700317382812,-19.453979492188
0.175,-1.0360107421875,18.943481445312,-17.812377929688
0.1755,-4.5194091796875,20.785278320312,-16.370971679688
0.176,-7.1619873046875,21.225708007812,-14.328979492188
0.1765,-9.9647216796875,21.145629882812,-11.526245117188
0.177,-14.288940429688,19.984497070312,-6.4012451171875
0.1775,-17.452026367188,18.623168945312,-2.1170654296875
0.178,-20.254760742188,17.301879882812,2.0469970703125
