wavelength,x,y,z
0.0,13.177856445312,11.015747070312,-24.258666992188
0.0005,8.6534423828125,14.258911132812,-23.097534179688
0.001,5.2100830078125,17.421997070312,-22.817260742188
0.0015,0.2852783203125,19.704223632812,-20.254760742188
0.002,-4.1190185546875,22.426879882812,-18.653198242188
0.0025,-8.5233154296875,22.667114257812,-14.569213867188
0.003,-13.247924804688,23.547973632812,-10.845581054688
0.0035,-16.090698242188,22.707153320312,-7.2020263671875
0.004,-19.574096679688,21.706176757812,-2.6375732421875
0.0045,-21.415893554688,19.584106445312,1.2862548828125
0.005,-23.257690429688,17.261840820312,5.6104736328125
0.0055,-23.497924804688,13.297973632812,9.7745361328125
0.006,-23.057495117188,8.9337158203125,13.818481445312
0.0065,-22.817260742188,6.0509033203125,16.501098632812
0.007,-20.775268554688,0.8858642578125,19.584106445312
0.0075,-19.213745117188,-3.2381591796875,22.146606445312
0.008,-15.530151367188,-7.6824951171875,22.867309570312
0.0085,-12.166870117188,-12.166870117188,23.948364257812
0.009,-7.6824951171875,-15.289916992188,22.546997070312
0.0095,-3.5985107421875,-18.453002929688,21.706176757812
0.01,1.0059814453125,-20.374877929688,19.223754882812
0.0105,5.5704345703125,-23.017456054688,17.381958007812
0.011,9.9747314453125,-22.777221679688,12.817504882812
0.0115,14.218872070312,-23.297729492188,9.1339111328125
0.012,17.061645507812,-22.577026367188,5.6905517578125
0.0125,20.304809570312,-21.135620117188,0.9659423828125
0.013,22.106567382812,-19.013549804688,-3.0780029296875
0.0135,23.307739257812,-15.970581054688,-7.3221435546875
0.014,23.628051757812,-12.286987304688,-11.406127929688
0.0145,22.747192382812,-7.8826904296875,-15.009643554688
0.015,22.266723632812,-4.6795654296875,-17.732299804688
0.0155,20.024536132812,0.2852783203125,-20.454956054688
0.016,18.302856445312,4.8096923828125,-23.217651367188
0.0165,13.778442382812,9.2139892578125,-23.137573242188
0.017,10.735473632812,13.177856445312,-24.058471679688
0.0175,6.3311767578125,16.180786132812,-22.737182617188
0.018,1.9268798828125,19.263793945312,-21.375854492188
0.0185,-2.3973388671875,21.065551757812,-18.933471679688
0.019,-7.3221435546875,23.347778320312,-16.451049804688
0.0195,-11.606323242188,23.067504882812,-11.886596679688
0.02,-15.530151367188,23.067504882812,-8.0428466796875
0.0205,-18.252807617188,22.266723632812,-4.5594482421875
0.021,-21.095581054688,20.464965820312,0.1251220703125
0.0215,-22.937377929688,18.222778320312,4.2491455078125
0.022,-23.337768554688,14.379028320312,8.5733642578125
0.0225,-23.818237304688,11.015747070312,12.497192382812
0.023,-22.657104492188,6.4112548828125,15.940551757812
0.0235,-21.856323242188,2.8077392578125,18.783325195312
0.024,-19.654174804688,-1.8768310546875,21.225708007812
0.0245,-17.452026367188,-6.8016357421875,23.908325195312
0.025,-12.527221679688,-11.085815429688,23.267700195312
0.0255,-9.4041748046875,-14.809448242188,23.828247070312
0.026,-4.9598388671875,-17.572143554688,22.226684570312
0.0265,-0.1551513671875,-20.575073242188,20.464965820312
0.027,4.0489501953125,-22.176635742188,18.062622070312
0.0275,9.4141845703125,-23.938354492188,14.539184570312
0.028,13.257934570312,-23.618041992188,10.455200195312
0.0285,17.221801757812,-23.177612304688,6.1309814453125
0.029,19.784301757812,-22.056518554688,2.4473876953125
0.0295,22.386840820312,-20.054565429688,-2.2371826171875
0.03,24.068481445312,-17.452026367188,-6.6414794921875
0.0305,23.828247070312,-12.887573242188,-11.005737304688
0.031,24.348754882812,-9.8446044921875,-14.609252929688
0.0315,22.707153320312,-4.9598388671875,-17.932495117188
0.032,21.465942382812,-0.8358154296875,-20.815307617188
0.0325,19.183715820312,3.5284423828125,-22.817260742188
0.033,15.980590820312,9.0538330078125,-25.179565429688
0.0335,11.055786132812,12.897583007812,-24.178588867188
0.034,7.5723876953125,16.661254882812,-24.338745117188
0.0345,2.8878173828125,19.263793945312,-22.336791992188
0.035,-2.1170654296875,22.226684570312,-20.374877929688
0.0355,-6.2811279296875,23.507934570312,-17.612182617188
0.036,-11.886596679688,24.629028320312,-13.207885742188
0.0365,-15.329956054688,24.268676757812,-9.4842529296875
0.037,-19.293823242188,23.347778320312,-4.5994873046875
0.0375,-21.616088867188,21.746215820312,-0.6756591796875
0.038,-23.858276367188,19.504028320312,3.8487548828125
0.0385,-25.099487304688,16.220825195312,8.4932861328125
0.039,-24.418823242188,11.255981445312,12.777465820312
0.0395,-24.699096679688,8.1729736328125,16.260864257812
0.04,-22.737182617188,2.8878173828125,19.544067382812
0.0405,-21.135620117188,-1.6365966796875,22.426879882812
0.041,-18.533081054688,-5.7606201171875,23.908325195312
0.0415,-14.729370117188,-11.406127929688,25.710083007812
0.042,-9.8846435546875,-14.769409179688,24.348754882812
0.0425,-5.8006591796875,-18.573120117188,24.028442382812
0.043,-0.8358154296875,-20.895385742188,21.505981445312
0.0435,4.0889892578125,-23.698120117188,19.504028320312
0.044,8.4532470703125,-24.418823242188,15.980590820312
0.0445,13.778442382812,-25.019409179688,11.336059570312
0.045,16.941528320312,-24.578979492188,7.7725830078125
0.0455,20.945434570312,-23.257690429688,2.4874267578125
0.046,23.027465820312,-21.175659179688,-1.7166748046875
0.0465,24.829223632812,-18.773315429688,-5.9608154296875
0.047,25.670043945312,-15.009643554688,-10.725463867188
0.0475,24.629028320312,-9.9647216796875,-14.769409179688
0.048,24.629028320312,-6.8016357421875,-18.012573242188
0.0485,22.226684570312,-1.3563232421875,-21.095581054688
0.049,20.545043945312,3.1280517578125,-23.858276367188
0.0495,17.061645507812,7.4923095703125,-24.699096679688
0.05,13.057739257812,12.897583007812,-26.060424804688
0.0505,8.4932861328125,16.060668945312,-24.659057617188
0.051,3.9688720703125,19.784301757812,-23.858276367188
0.0515,-0.8758544921875,21.706176757812,-21.095581054688
0.052,-5.6405029296875,24.388793945312,-19.213745117188
0.0525,-10.325073242188,24.709106445312,-14.849487304688
0.053,-15.129760742188,24.829223632812,-10.204956054688
0.0535,-18.092651367188,24.388793945312,-6.9217529296875
0.054,-21.736206054688,22.627075195312,-1.4364013671875
0.0545,-23.658081054688,20.464965820312,2.6876220703125
0.055,-24.899291992188,17.582153320312,6.8917236328125
0.0555,-25.619995117188,13.578247070312,11.656372070312
0.056,-24.378784179688,8.6134033203125,15.420043945312
0.0565,-24.178588867188,5.1700439453125,18.663208007812
0.057,-21.576049804688,-0.1951904296875,21.465942382812
0.0575,-20.054565429688,-4.6395263671875,24.348754882812
0.058,-15.810424804688,-9.0838623046875,24.548950195312
0.0585,-11.886596679688,-13.928588867188,25.469848632812
0.059,-7.6024169921875,-16.891479492188,24.188598632812
0.0595,-2.5574951171875,-20.494995117188,22.747192382812
0.06,2.1671142578125,-22.296752929688,19.984497070312
0.0605,6.8516845703125,-24.699096679688,17.862426757812
0.061,11.656372070312,-24.859252929688,13.177856445312
0.0615,15.980590820312,-24.458862304688,8.6134033203125
0.062,18.943481445312,-24.098510742188,5.3302001953125
0.0625,22.306762695312,-22.056518554688,-0.1551513671875
0.063,24.388793945312,-19.894409179688,-4.5194091796875
0.0635,24.909301757812,-16.290893554688,-8.6033935546875
0.064,25.630004882812,-12.487182617188,-13.207885742188
0.0645,24.188598632812,-7.7225341796875,-16.691284179688
0.065,23.668090820312,-3.9188232421875,-19.934448242188
0.0655,20.985473632812,1.3262939453125,-22.496948242188
0.066,19.183715820312,6.2110595703125,-25.459838867188
0.0665,14.098754882812,10.815551757812,-25.019409179688
0.067,10.335083007812,15.179809570312,-25.619995117188
0.0675,6.2110595703125,18.062622070312,-24.378784179688
0.068,0.8858642578125,21.505981445312,-22.577026367188
0.0685,-3.8387451171875,23.347778320312,-19.814331054688
0.069,-8.9237060546875,25.269653320312,-16.811401367188
0.0695,-13.528198242188,25.269653320312,-12.246948242188
0.07,-17.532104492188,24.468872070312,-7.5223388671875
0.0705,-20.494995117188,23.828247070312,-3.9588623046875
0.071,-23.417846679688,21.546020507812,1.3663330078125
0.0715,-25.539916992188,19.063598632812,6.0108642578125
0.072,-25.259643554688,14.539184570312,10.375122070312
0.0725,-25.980346679688,10.935668945312,14.699340820312
0.073,-24.298706054688,5.9708251953125,17.982543945312
0.0735,-23.337768554688,1.6466064453125,21.345825195312
0.074,-20.535034179688,-3.3582763671875,23.588012695312
0.0745,-18.092651367188,-8.5633544921875,26.310668945312
0.075,-12.727416992188,-12.887573242188,25.309692382812
0.0755,-8.8436279296875,-16.971557617188,25.469848632812
0.076,-4.4393310546875,-19.614135742188,23.788208007812
0.0765,1.2462158203125,-22.937377929688,21.586059570312
0.077,5.8507080078125,-24.578979492188,18.703247070312
0.0775,11.255981445312,-25.820190429688,14.579223632812
0.078,15.259887695312,-25.700073242188,10.535278320312
0.0785,19.263793945312,-24.538940429688,5.4503173828125
0.079,22.066528320312,-23.457885742188,1.5665283203125
0.0795,24.588989257812,-20.935424804688,-3.5584716796875
0.08,26.510864257812,-18.092651367188,-8.4031982421875
0.0805,25.589965820312,-12.967651367188,-12.727416992188
0.081,26.110473632812,-9.6444091796875,-16.611206054688
0.0815,24.068481445312,-4.6395263671875,-19.694213867188
0.082,22.627075195312,0.1651611328125,-22.937377929688
0.0825,19.784301757812,4.8497314453125,-24.739135742188
0.083,16.300903320312,10.615356445312,-26.981323242188
0.0835,11.255981445312,14.379028320312,-25.780151367188
0.084,7.0518798828125,18.302856445312,-25.419799804688
0.0845,2.6075439453125,20.745239257812,-23.537963867188
0.085,-2.9178466796875,23.748168945312,-21.135620117188
0.0855,-7.5623779296875,25.229614257812,-18.092651367188
0.086,-13.127807617188,25.790161132812,-13.127807617188
0.0865,-16.611206054688,25.589965820312,-9.6444091796875
0.087,-20.454956054688,24.068481445312,-4.2391357421875
0.0875,-22.897338867188,22.667114257812,-0.3153076171875
0.088,-24.979370117188,20.104614257812,4.3692626953125
0.0885,-26.540893554688,16.621215820312,9.4542236328125
0.089,-25.299682617188,11.336059570312,13.538208007812
0.0895,-25.619995117188,7.9727783203125,17.261840820312
0.09,-23.537963867188,3.0880126953125,20.144653320312
0.0905,-21.936401367188,-1.7967529296875,23.427856445312
0.091,-18.893432617188,-6.2410888671875,24.789184570312
0.0915,-14.769409179688,-11.886596679688,26.390747070312
0.092,-10.365112304688,-15.129760742188,25.229614257812
0.0925,-5.6405029296875,-19.013549804688,24.348754882812
0.093,-1.3162841796875,-21.135620117188,22.226684570312
0.0935,3.8887939453125,-23.978393554688,19.984497070312
0.094,8.8135986328125,-25.219604492188,16.461059570312
0.0945,13.898559570312,-25.139526367188,11.336059570312
0.095,17.141723632812,-25.179565429688,8.2530517578125
0.0955,20.865356445312,-23.417846679688,2.7677001953125
0.096,23.227661132812,-21.776245117188,-1.3563232421875
0.0965,24.829223632812,-19.213745117188,-5.6405029296875
0.097,26.190551757812,-15.450073242188,-10.805541992188
0.0975,24.789184570312,-10.445190429688,-14.529174804688
0.098,24.829223632812,-6.9217529296875,-18.052612304688
0.0985,22.667114257812,-2.1170654296875,-20.695190429688
0.099,21.105590820312,2.6876220703125,-23.898315429688
0.0995,17.542114257812,7.3721923828125,-24.979370117188
0.1,13.137817382812,12.737426757812,-25.980346679688
0.1005,9.2540283203125,15.820434570312,-25.139526367188
0.101,4.1290283203125,19.544067382812,-23.858276367188
0.1015,-0.1951904296875,21.546020507812,-21.656127929688
0.102,-4.9998779296875,24.148559570312,-19.494018554688
0.1025,-10.244995117188,25.229614257812,-15.410034179688
0.103,-14.889526367188,24.669067382812,-10.325073242188
0.1035,-17.972534179688,24.709106445312,-7.3621826171875
0.104,-21.455932617188,22.747192382812,-1.9168701171875
0.1045,-23.778198242188,20.945434570312,2.3272705078125
0.105,-24.739135742188,17.822387695312,6.4512939453125
0.1055,-25.940307617188,13.898559570312,11.616333007812
0.106,-24.498901367188,9.0538330078125,15.179809570312
0.1065,-24.258666992188,5.2501220703125,18.703247070312
0.107,-21.936401367188,0.4454345703125,21.185668945312
0.1075,-20.414916992188,-4.3192138671875,24.348754882812
0.108,-16.170776367188,-9.0438232421875,24.909301757812
0.1085,-11.806518554688,-13.928588867188,25.349731445312
0.109,-8.1629638671875,-16.811401367188,24.669067382812
0.1095,-2.5574951171875,-20.454956054688,22.747192382812
0.11,1.9268798828125,-22.416870117188,20.384887695312
0.1105,6.5313720703125,-24.538940429688,17.982543945312
0.111,11.816528320312,-25.339721679688,13.578247070312
0.1115,15.900512695312,-24.378784179688,8.6534423828125
0.112,19.103637695312,-24.378784179688,5.4503173828125
0.1125,22.186645507812,-22.096557617188,0.0450439453125
0.113,24.629028320312,-20.214721679688,-4.3592529296875
0.1135,24.829223632812,-16.451049804688,-8.4832763671875
0.114,25.830200195312,-12.487182617188,-13.408081054688
0.1145,24.348754882812,-8.0028076171875,-16.531127929688
0.115,23.628051757812,-3.6385498046875,-20.134643554688
0.1155,21.105590820312,1.1260986328125,-22.376831054688
0.116,19.223754882812,5.9708251953125,-25.339721679688
0.1165,14.379028320312,10.855590820312,-25.339721679688
0.117,10.094848632812,15.179809570312,-25.339721679688
0.1175,6.5714111328125,17.942504882812,-24.659057617188
0.118,0.8458251953125,21.305786132812,-22.336791992188
0.1185,-3.6785888671875,23.307739257812,-19.934448242188
0.119,-8.4832763671875,24.789184570312,-16.691284179688
0.1195,-13.488159179688,25.509887695312,-12.527221679688
0.12,-17.171752929688,24.148559570312,-7.5623779296875
0.1205,-20.254760742188,23.708129882812,-4.0789794921875
0.121,-22.857299804688,21.265747070312,1.0860595703125
0.1215,-25.339721679688,19.183715820312,5.6104736328125
0.122,-24.859252929688,14.659301757812,9.7745361328125
0.1225,-25.619995117188,10.815551757812,14.419067382812
0.123,-24.098510742188,6.5313720703125,17.301879882812
0.1235,-22.897338867188,1.7667236328125,20.905395507812
0.124,-20.374877929688,-2.8778076171875,22.947387695312
0.1245,-17.932495117188,-7.8826904296875,25.469848632812
0.125,-13.167846679688,-12.327026367188,25.229614257812
0.1255,-8.6834716796875,-16.330932617188,24.629028320312
0.126,-5.1199951171875,-18.853393554688,23.668090820312
0.1265,0.6856689453125,-21.936401367188,21.105590820312
0.127,5.2100830078125,-24.058471679688,18.823364257812
0.1275,10.255004882812,-24.699096679688,14.459106445312
0.128,14.579223632812,-25.379760742188,10.935668945312
0.1285,18.062622070312,-23.858276367188,5.9708251953125
0.129,21.105590820312,-23.097534179688,2.0870361328125
0.1295,23.347778320312,-20.535034179688,-2.8377685546875
0.13,25.589965820312,-18.092651367188,-7.4822998046875
0.1305,24.629028320312,-13.167846679688,-11.566284179688
0.131,25.109497070312,-9.5242919921875,-15.730346679688
0.1315,23.628051757812,-5.6004638671875,-18.252807617188
0.132,21.986450195312,-0.4354248046875,-21.736206054688
0.1325,19.504028320312,4.0889892578125,-23.698120117188
0.133,15.980590820312,9.4141845703125,-25.459838867188
0.1335,11.816528320312,13.378051757812,-25.299682617188
0.134,7.1319580078125,17.021606445312,-24.298706054688
0.1345,3.5684814453125,19.383911132812,-23.097534179688
0.135,-1.9569091796875,22.186645507812,-20.535034179688
0.1355,-6.6014404296875,24.348754882812,-18.172729492188
0.136,-11.686401367188,24.308715820312,-13.087768554688
0.1365,-15.450073242188,24.909301757812,-10.084838867188
0.137,-18.613159179688,23.227661132812,-5.2401123046875
0.1375,-21.576049804688,22.066528320312,-1.1561279296875
0.138,-23.417846679688,19.584106445312,3.3282470703125
0.1385,-25.299682617188,16.621215820312,8.2930908203125
0.139,-24.338745117188,11.816528320312,12.176879882812
0.1395,-24.378784179688,7.9727783203125,16.100708007812
0.14,-23.057495117188,4.3292236328125,18.463012695312
0.1405,-21.215698242188,-0.9959716796875,21.866333007812
0.141,-18.733276367188,-5.3602294921875,23.788208007812
0.1415,-14.449096679688,-10.605346679688,24.749145507812
0.142,-11.045776367188,-14.048706054688,24.829223632812
0.1425,-6.0809326171875,-17.532104492188,23.307739257812
0.143,-2.1571044921875,-19.894409179688,21.786254882812
0.1435,2.8477783203125,-22.376831054688,19.423950195312
0.144,7.9327392578125,-24.498901367188,16.621215820312
0.1445,12.537231445312,-23.898315429688,11.376098632812
0.145,16.100708007812,-24.418823242188,8.4532470703125
0.1455,19.103637695312,-22.777221679688,3.7686767578125
0.146,22.026489257812,-21.255737304688,-0.6356201171875
0.1465,23.547973632812,-18.653198242188,-4.8397216796875
0.147,24.949340820312,-15.169799804688,-9.8045654296875
0.1475,24.108520507812,-10.845581054688,-13.408081054688
0.148,23.668090820312,-6.8016357421875,-17.011596679688
0.1485,22.186645507812,-3.0780029296875,-19.293823242188
0.149,20.384887695312,1.9669189453125,-22.456909179688
0.1495,17.341918945312,6.8116455078125,-24.298706054688
0.15,12.697387695312,11.696411132812,-24.498901367188
0.1505,9.7745361328125,14.859497070312,-24.739135742188
0.151,4.6094970703125,18.182739257812,-22.937377929688
0.1515,0.4454345703125,20.545043945312,-21.135620117188
0.152,-4.0789794921875,22.667114257812,-18.933471679688
0.1525,-9.6043701171875,24.508911132812,-15.410034179688
0.153,-13.728393554688,23.588012695312,-10.445190429688
0.1535,-17.131713867188,23.788208007812,-7.3221435546875
0.154,-19.894409179688,22.066528320312,-2.7576904296875
0.1545,-22.617065429688,20.424926757812,1.6866455078125
0.155,-23.698120117188,17.421997070312,5.8106689453125
0.1555,-24.619018554688,13.418090820312,10.815551757812
0.156,-24.018432617188,9.5343017578125,14.138793945312
0.1565,-23.137573242188,5.1700439453125,17.662231445312
0.157,-21.455932617188,1.2061767578125,19.984497070312
0.1575,-19.734252929688,-3.5184326171875,22.907348632812
0.158,-16.130737304688,-8.6434326171875,24.388793945312
0.1585,-11.366088867188,-12.967651367188,23.988403320312
0.159,-8.4832763671875,-15.930541992188,24.108520507812
0.1595,-3.0780029296875,-19.013549804688,21.826293945312
0.16,1.3262939453125,-21.455932617188,19.984497070312
0.1605,5.6104736328125,-23.137573242188,17.421997070312
0.161,11.215942382812,-24.659057617188,13.418090820312
0.1615,14.739379882812,-23.578002929688,8.8936767578125
0.162,18.262817382812,-23.417846679688,5.3302001953125
0.1625,20.745239257812,-21.455932617188,0.9259033203125
0.163,23.387817382812,-19.694213867188,-3.6785888671875
0.1635,23.948364257812,-16.170776367188,-7.8026123046875
0.164,24.388793945312,-11.926635742188,-12.567260742188
0.1645,23.868286132812,-8.6033935546875,-15.450073242188
0.165,22.466918945312,-3.7186279296875,-18.933471679688
0.1655,20.625122070312,0.4053955078125,-21.135620117188
0.166,18.543090820312,4.9698486328125,-23.618041992188
0.1665,14.459106445312,10.214965820312,-24.859252929688
0.167,9.8145751953125,14.058715820312,-23.978393554688
0.1675,6.7716064453125,16.981567382812,-23.898315429688
0.168,1.5264892578125,19.704223632812,-21.415893554688
0.1685,-2.9979248046875,22.266723632812,-19.614135742188
0.169,-7.3221435546875,23.187622070312,-16.330932617188
0.1695,-12.687377929688,24.388793945312,-12.286987304688
0.17,-15.770385742188,23.307739257812,-8.1229248046875
0.1705,-19.213745117188,22.707153320312,-4.0789794921875
0.171,-21.215698242188,20.625122070312,0.1651611328125
0.1715,-23.738159179688,18.663208007812,4.6094970703125
0.172,-23.858276367188,14.619262695312,8.8536376953125
0.1725,-23.978393554688,10.295043945312,13.297973632812
0.173,-23.578002929688,7.2921142578125,15.940551757812
0.1735,-21.776245117188,2.2071533203125,19.263793945312
0.174,-19.934448242188,-1.9569091796875,21.626098632812
0.1745,-17.331909179688,-6.4012451171875,23.347778320312
0.175,-13.448120117188,-11.326049804688,24.468872070312
0.1755,-8.8035888671875,-14.729370117188,23.187622070312
0.176,-5.4002685546875,-17.652221679688,22.747192382812
0.1765,-0.3553466796875,-20.014526367188,20.144653320312
0.177,4.1290283203125,-22.737182617188,18.543090820312
0.1775,8.6134033203125,-23.017456054688,14.298950195312
0.178,13.257934570312,-23.858276367188,10.695434570312
