wavelength,x,y,z
0.0,-1.951904296875,-3.273193359375,4.614501953125
0.0005,-1.271240234375,-3.673583984375,4.214111328125
0.001,-0.510498046875,-4.394287109375,4.134033203125
0.0015,0.370361328125,-4.594482421875,3.533447265625
0.002,1.051025390625,-4.914794921875,3.253173828125
0.0025,2.292236328125,-5.034912109375,2.092041015625
0.003,3.133056640625,-5.114990234375,1.451416015625
0.0035,3.573486328125,-4.674560546875,0.530517578125
0.004,4.134033203125,-4.594482421875,-0.110107421875
0.0045,4.214111328125,-3.833740234375,-0.950927734375
0.005,4.454345703125,-3.433349609375,-1.511474609375
0.0055,4.614501953125,-2.352294921875,-2.752685546875
0.006,4.414306640625,-1.671630859375,-3.193115234375
0.0065,4.134033203125,-0.630615234375,-3.913818359375
0.007,3.573486328125,0.290283203125,-4.314208984375
0.0075,3.012939453125,1.171142578125,-4.554443359375
0.008,2.252197265625,2.172119140625,-4.754638671875
0.0085,1.371337890625,3.173095703125,-4.914794921875
0.009,0.450439453125,3.493408203125,-4.354248046875
0.0095,-0.310302734375,4.214111328125,-4.314208984375
0.01,-1.271240234375,4.414306640625,-3.513427734375
0.0105,-1.991943359375,4.654541015625,-3.032958984375
0.011,-3.353271484375,4.814697265625,-1.791748046875
0.0115,-4.033935546875,4.654541015625,-0.990966796875
0.012,-4.474365234375,4.093994140625,0.010009765625
0.0125,-4.914794921875,3.893798828125,0.610595703125
0.013,-4.914794921875,3.093017578125,1.411376953125
0.0135,-4.954833984375,2.452392578125,2.052001953125
0.014,-5.155029296875,1.411376953125,3.253173828125
0.0145,-4.594482421875,0.530517578125,3.573486328125
0.015,-4.354248046875,-0.390380859375,4.214111328125
0.0155,-3.713623046875,-1.311279296875,4.494384765625
0.016,-3.153076171875,-2.072021484375,4.614501953125
0.0165,-2.192138671875,-3.193115234375,4.654541015625
0.017,-1.351318359375,-3.993896484375,4.734619140625
0.0175,-0.390380859375,-4.234130859375,4.013916015625
0.018,0.130126953125,-4.834716796875,4.053955078125
0.0185,1.131103515625,-4.914794921875,3.133056640625
0.019,1.811767578125,-5.114990234375,2.652587890625
0.0195,3.173095703125,-5.275146484375,1.531494140625
0.02,3.573486328125,-4.954833984375,0.770751953125
0.0205,4.093994140625,-4.554443359375,-0.110107421875
0.021,4.414306640625,-4.234130859375,-0.670654296875
0.0215,4.494384765625,-3.553466796875,-1.431396484375
0.022,4.494384765625,-2.752685546875,-2.232177734375
0.0225,4.734619140625,-1.951904296875,-3.273193359375
0.023,4.013916015625,-0.950927734375,-3.553466796875
0.0235,3.973876953125,-0.150146484375,-4.314208984375
0.024,3.133056640625,0.890869140625,-4.394287109375
0.0245,2.692626953125,1.571533203125,-4.754638671875
0.025,1.651611328125,2.692626953125,-4.794677734375
0.0255,0.970947265625,3.453369140625,-4.674560546875
0.026,0.010009765625,3.813720703125,-4.073974609375
0.0265,-0.670654296875,4.414306640625,-4.073974609375
0.027,-1.751708984375,4.494384765625,-3.072998046875
0.0275,-2.512451171875,4.654541015625,-2.552490234375
0.028,-3.833740234375,4.814697265625,-1.391357421875
0.0285,-4.154052734375,4.334228515625,-0.590576171875
0.029,-4.674560546875,4.093994140625,0.170166015625
0.0295,-4.874755859375,3.533447265625,0.930908203125
0.03,-4.954833984375,2.852783203125,1.691650390625
0.0305,-4.994873046875,1.971923828125,2.532470703125
0.031,-5.114990234375,1.131103515625,3.493408203125
0.0315,-4.274169921875,0.010009765625,3.773681640625
0.032,-4.314208984375,-0.710693359375,4.494384765625
0.0325,-3.233154296875,-1.871826171875,4.454345703125
0.033,-2.792724609375,-2.552490234375,4.654541015625
0.0335,-1.751708984375,-3.593505859375,4.734619140625
0.034,-0.910888671875,-4.114013671875,4.374267578125
0.0345,-0.110107421875,-4.474365234375,3.933837890625
0.035,0.610595703125,-4.914794921875,3.693603515625
0.0355,1.651611328125,-4.994873046875,2.692626953125
0.036,2.412353515625,-5.074951171875,2.052001953125
0.0365,3.493408203125,-5.155029296875,1.131103515625
0.037,3.693603515625,-4.474365234375,0.250244140625
0.0375,4.174072265625,-4.474365234375,-0.310302734375
0.038,4.214111328125,-3.633544921875,-1.151123046875
0.0385,4.374267578125,-3.113037109375,-1.791748046875
0.039,4.374267578125,-2.192138671875,-2.712646484375
0.0395,4.334228515625,-1.431396484375,-3.393310546875
0.04,3.653564453125,-0.350341796875,-3.713623046875
0.0405,3.653564453125,0.210205078125,-4.354248046875
0.041,2.612548828125,1.291259765625,-4.354248046875
0.0415,2.252197265625,1.971923828125,-4.554443359375
0.042,1.251220703125,3.052978515625,-4.634521484375
0.0425,0.410400390625,3.453369140625,-4.154052734375
0.043,-0.310302734375,3.973876953125,-3.993896484375
0.0435,-1.151123046875,4.294189453125,-3.473388671875
0.044,-2.112060546875,4.454345703125,-2.672607421875
0.0445,-2.952880859375,4.534423828125,-1.951904296875
0.045,-3.873779296875,4.574462890625,-1.111083984375
0.0455,-4.114013671875,3.893798828125,-0.230224609375
0.046,-4.674560546875,3.973876953125,0.290283203125
0.0465,-4.714599609375,2.972900390625,1.291259765625
0.047,-4.874755859375,2.532470703125,1.931884765625
0.0475,-4.834716796875,1.531494140625,2.852783203125
0.048,-4.634521484375,0.690673828125,3.453369140625
0.0485,-4.033935546875,-0.390380859375,3.853759765625
0.049,-3.873779296875,-1.151123046875,4.334228515625
0.0495,-2.752685546875,-2.232177734375,4.414306640625
0.05,-2.312255859375,-2.832763671875,4.534423828125
0.0505,-1.391357421875,-3.753662109375,4.494384765625
0.051,-0.510498046875,-4.033935546875,3.893798828125
0.0515,0.050048828125,-4.554443359375,3.853759765625
0.052,1.171142578125,-4.794677734375,2.972900390625
0.0525,1.931884765625,-4.874755859375,2.332275390625
0.053,2.772705078125,-4.834716796875,1.491455078125
0.0535,3.453369140625,-4.754638671875,0.770751953125
0.054,3.613525390625,-4.154052734375,0.010009765625
0.0545,4.053955078125,-4.154052734375,-0.510498046875
0.055,4.053955078125,-3.072998046875,-1.471435546875
0.0555,4.174072265625,-2.672607421875,-1.991943359375
0.056,4.214111328125,-1.911865234375,-3.072998046875
0.0565,3.853759765625,-0.990966796875,-3.353271484375
0.057,3.493408203125,-0.150146484375,-3.873779296875
0.0575,3.012939453125,0.690673828125,-4.114013671875
0.058,2.252197265625,1.651611328125,-4.314208984375
0.0585,1.771728515625,2.292236328125,-4.354248046875
0.059,0.930908203125,3.093017578125,-4.354248046875
0.0595,0.050048828125,3.373291015625,-3.793701171875
0.06,-0.510498046875,4.013916015625,-3.873779296875
0.0605,-1.671630859375,4.093994140625,-2.792724609375
0.061,-2.352294921875,4.374267578125,-2.392333984375
0.0615,-3.233154296875,4.334228515625,-1.431396484375
0.062,-3.793701171875,4.134033203125,-0.790771484375
0.0625,-4.114013671875,3.693603515625,0.010009765625
0.063,-4.474365234375,3.493408203125,0.570556640625
0.0635,-4.554443359375,2.532470703125,1.571533203125
0.064,-4.594482421875,1.971923828125,2.052001953125
0.0645,-4.714599609375,1.131103515625,3.052978515625
0.065,-4.114013671875,0.130126953125,3.413330078125
0.0655,-3.993896484375,-0.630615234375,4.093994140625
0.066,-3.193115234375,-1.631591796875,4.214111328125
0.0665,-2.592529296875,-2.512451171875,4.494384765625
0.067,-1.791748046875,-3.113037109375,4.334228515625
0.0675,-1.031005859375,-3.833740234375,4.214111328125
0.068,-0.190185546875,-4.033935546875,3.653564453125
0.0685,0.410400390625,-4.594482421875,3.573486328125
0.069,1.691650390625,-4.674560546875,2.372314453125
0.0695,2.252197265625,-4.834716796875,1.931884765625
0.07,3.052978515625,-4.674560546875,1.051025390625
0.0705,3.413330078125,-4.354248046875,0.370361328125
0.071,3.733642578125,-4.033935546875,-0.270263671875
0.0715,3.853759765625,-3.513427734375,-0.950927734375
0.072,4.134033203125,-2.752685546875,-1.871826171875
0.0725,3.973876953125,-2.152099609375,-2.352294921875
0.073,3.893798828125,-1.511474609375,-3.193115234375
0.0735,3.333251953125,-0.390380859375,-3.393310546875
0.074,3.333251953125,0.250244140625,-3.993896484375
0.0745,2.292236328125,1.331298828125,-3.993896484375
0.075,1.971923828125,1.971923828125,-4.314208984375
0.0755,1.131103515625,2.612548828125,-4.114013671875
0.076,0.450439453125,3.173095703125,-3.953857421875
0.0765,-0.310302734375,3.493408203125,-3.553466796875
0.077,-0.990966796875,3.893798828125,-3.273193359375
0.0775,-2.112060546875,4.053955078125,-2.272216796875
0.078,-2.632568359375,4.134033203125,-1.871826171875
0.0785,-3.433349609375,4.053955078125,-1.031005859375
0.079,-3.713623046875,3.653564453125,-0.350341796875
0.0795,-4.154052734375,3.573486328125,0.250244140625
0.08,-4.194091796875,2.732666015625,1.010986328125
0.0805,-4.514404296875,2.252197265625,1.811767578125
0.081,-4.354248046875,1.331298828125,2.372314453125
0.0815,-4.394287109375,0.770751953125,3.133056640625
0.082,-3.753662109375,-0.310302734375,3.493408203125
0.0825,-3.713623046875,-0.910888671875,4.013916015625
0.083,-2.632568359375,-2.072021484375,4.093994140625
0.0835,-2.272216796875,-2.592529296875,4.334228515625
0.084,-1.391357421875,-3.273193359375,4.053955078125
0.0845,-0.670654296875,-3.793701171875,3.813720703125
0.085,0.010009765625,-4.154052734375,3.533447265625
0.0855,0.930908203125,-4.434326171875,2.892822265625
0.086,1.931884765625,-4.674560546875,2.092041015625
0.0865,2.452392578125,-4.514404296875,1.531494140625
0.087,3.133056640625,-4.514404296875,0.810791015625
0.0875,3.333251953125,-3.993896484375,0.130126953125
0.088,3.733642578125,-3.873779296875,-0.390380859375
0.0885,3.773681640625,-2.912841796875,-1.391357421875
0.089,3.973876953125,-2.552490234375,-1.991943359375
0.0895,3.733642578125,-1.631591796875,-2.592529296875
0.09,3.653564453125,-0.990966796875,-3.193115234375
0.0905,3.093017578125,0.010009765625,-3.513427734375
0.091,2.852783203125,0.610595703125,-3.873779296875
0.0915,1.971923828125,1.691650390625,-4.033935546875
0.092,1.571533203125,2.092041015625,-4.073974609375
0.0925,0.770751953125,2.812744140625,-3.953857421875
0.093,0.130126953125,3.173095703125,-3.593505859375
0.0935,-0.590576171875,3.653564453125,-3.433349609375
0.094,-1.591552734375,3.813720703125,-2.552490234375
0.0945,-2.432373046875,4.053955078125,-2.031982421875
0.095,-2.872802734375,3.853759765625,-1.311279296875
0.0955,-3.513427734375,3.853759765625,-0.790771484375
0.096,-3.793701171875,3.333251953125,0.010009765625
0.0965,-4.114013671875,3.173095703125,0.490478515625
0.097,-4.234130859375,2.252197265625,1.491455078125
0.0975,-4.354248046875,1.891845703125,2.052001953125
0.098,-4.194091796875,0.970947265625,2.732666015625
0.0985,-3.913818359375,0.210205078125,3.213134765625
0.099,-3.553466796875,-0.630615234375,3.693603515625
0.0995,-3.032958984375,-1.471435546875,3.933837890625
0.1,-2.392333984375,-2.432373046875,4.174072265625
0.1005,-1.791748046875,-2.832763671875,3.973876953125
0.101,-1.071044921875,-3.553466796875,3.973876953125
0.1015,-0.310302734375,-3.833740234375,3.533447265625
0.102,0.410400390625,-4.354248046875,3.333251953125
0.1025,1.571533203125,-4.474365234375,2.292236328125
0.103,2.252197265625,-4.634521484375,1.811767578125
0.1035,2.772705078125,-4.314208984375,0.970947265625
0.104,3.253173828125,-4.314208984375,0.450439453125
0.1045,3.493408203125,-3.793701171875,-0.350341796875
0.105,3.693603515625,-3.393310546875,-0.950927734375
0.1055,3.973876953125,-2.552490234375,-1.911865234375
0.106,3.813720703125,-1.991943359375,-2.312255859375
0.1065,3.773681640625,-1.151123046875,-3.072998046875
0.107,3.253173828125,-0.310302734375,-3.393310546875
0.1075,3.012939453125,0.490478515625,-3.833740234375
0.108,2.212158203125,1.411376953125,-3.993896484375
0.1085,1.651611328125,2.252197265625,-4.274169921875
0.109,0.930908203125,2.612548828125,-3.873779296875
0.1095,0.290283203125,3.293212890625,-3.913818359375
0.11,-0.590576171875,3.533447265625,-3.353271484375
0.1105,-1.271240234375,3.933837890625,-3.032958984375
0.111,-2.512451171875,4.134033203125,-1.991943359375
0.1115,-3.032958984375,4.093994140625,-1.431396484375
0.112,-3.553466796875,3.813720703125,-0.670654296875
0.1125,-3.953857421875,3.573486328125,-0.070068359375
0.113,-4.154052734375,3.093017578125,0.610595703125
0.1135,-4.314208984375,2.492431640625,1.331298828125
0.114,-4.594482421875,1.811767578125,2.332275390625
0.1145,-4.154052734375,0.970947265625,2.692626953125
0.115,-4.154052734375,0.210205078125,3.453369140625
0.1155,-3.513427734375,-0.710693359375,3.693603515625
0.116,-3.233154296875,-1.431396484375,4.093994140625
0.1165,-2.312255859375,-2.512451171875,4.214111328125
0.117,-1.751708984375,-3.153076171875,4.254150390625
0.1175,-0.910888671875,-3.553466796875,3.813720703125
0.118,-0.350341796875,-4.114013671875,3.813720703125
0.1185,0.530517578125,-4.314208984375,3.173095703125
0.119,1.291259765625,-4.634521484375,2.652587890625
0.1195,2.532470703125,-4.834716796875,1.731689453125
0.12,2.932861328125,-4.554443359375,0.970947265625
0.1205,3.493408203125,-4.434326171875,0.330322265625
0.121,3.693603515625,-3.993896484375,-0.350341796875
0.1215,3.973876953125,-3.553466796875,-0.990966796875
0.122,4.013916015625,-2.712646484375,-1.831787109375
0.1225,4.214111328125,-2.072021484375,-2.672607421875
0.123,3.693603515625,-1.111083984375,-3.072998046875
0.1235,3.733642578125,-0.430419921875,-3.793701171875
0.124,2.932861328125,0.570556640625,-3.873779296875
0.1245,2.652587890625,1.251220703125,-4.274169921875
0.125,1.651611328125,2.412353515625,-4.434326171875
0.1255,1.010986328125,2.932861328125,-4.314208984375
0.126,0.210205078125,3.413330078125,-3.913818359375
0.1265,-0.470458984375,3.893798828125,-3.793701171875
0.127,-1.391357421875,4.134033203125,-3.072998046875
0.1275,-2.272216796875,4.334228515625,-2.392333984375
0.128,-3.473388671875,4.494384765625,-1.471435546875
0.1285,-3.793701171875,3.973876953125,-0.630615234375
0.129,-4.394287109375,3.973876953125,0.010009765625
0.1295,-4.514404296875,3.333251953125,0.770751953125
0.13,-4.714599609375,2.852783203125,1.451416015625
0.1305,-4.794677734375,1.851806640625,2.452392578125
0.131,-4.834716796875,1.131103515625,3.213134765625
0.1315,-4.154052734375,0.050048828125,3.573486328125
0.132,-4.114013671875,-0.670654296875,4.214111328125
0.1325,-3.153076171875,-1.751708984375,4.294189453125
0.133,-2.712646484375,-2.432373046875,4.494384765625
0.1335,-1.671630859375,-3.553466796875,4.614501953125
0.134,-0.790771484375,-3.993896484375,4.134033203125
0.1345,-0.150146484375,-4.434326171875,3.893798828125
0.135,0.690673828125,-4.794677734375,3.453369140625
0.1355,1.611572265625,-4.874755859375,2.652587890625
0.136,2.532470703125,-5.034912109375,1.851806640625
0.1365,3.453369140625,-5.114990234375,1.010986328125
0.137,3.653564453125,-4.394287109375,0.130126953125
0.1375,4.174072265625,-4.394287109375,-0.350341796875
0.138,4.134033203125,-3.473388671875,-1.231201171875
0.1385,4.334228515625,-2.992919921875,-1.831787109375
0.139,4.414306640625,-2.072021484375,-2.872802734375
0.1395,4.174072265625,-1.271240234375,-3.353271484375
0.14,3.653564453125,-0.270263671875,-3.833740234375
0.1405,3.493408203125,0.450439453125,-4.314208984375
0.141,2.572509765625,1.451416015625,-4.394287109375
0.1415,2.052001953125,2.212158203125,-4.554443359375
0.142,1.131103515625,3.253173828125,-4.714599609375
0.1425,0.210205078125,3.573486328125,-4.114013671875
0.143,-0.390380859375,4.134033203125,-4.073974609375
0.1435,-1.431396484375,4.454345703125,-3.313232421875
0.144,-2.312255859375,4.534423828125,-2.632568359375
0.1445,-3.313232421875,4.614501953125,-1.791748046875
0.145,-4.154052734375,4.614501953125,-0.910888671875
0.1455,-4.354248046875,3.933837890625,0.050048828125
0.146,-4.954833984375,3.973876953125,0.570556640625
0.1465,-4.954833984375,2.852783203125,1.651611328125
0.147,-5.034912109375,2.292236328125,2.252197265625
0.1475,-5.114990234375,1.291259765625,3.333251953125
0.148,-4.634521484375,0.330322265625,3.853759765625
0.1485,-4.114013671875,-0.710693359375,4.294189453125
0.149,-3.713623046875,-1.591552734375,4.694580078125
0.1495,-2.632568359375,-2.712646484375,4.734619140625
0.15,-1.991943359375,-3.353271484375,4.694580078125
0.1505,-0.990966796875,-4.314208984375,4.654541015625
0.151,-0.070068359375,-4.514404296875,3.893798828125
0.1515,0.530517578125,-4.994873046875,3.853759765625
0.152,1.771728515625,-5.195068359375,2.732666015625
0.1525,2.532470703125,-5.195068359375,2.052001953125
0.153,3.373291015625,-5.114990234375,1.091064453125
0.1535,3.973876953125,-4.874755859375,0.330322265625
0.154,4.093994140625,-4.154052734375,-0.470458984375
0.1545,4.454345703125,-3.993896484375,-0.990966796875
0.155,4.414306640625,-2.872802734375,-2.072021484375
0.1555,4.414306640625,-2.352294921875,-2.552490234375
0.156,4.454345703125,-1.431396484375,-3.513427734375
0.1565,3.813720703125,-0.470458984375,-3.793701171875
0.157,3.533447265625,0.330322265625,-4.314208984375
0.1575,2.852783203125,1.291259765625,-4.514404296875
0.158,2.052001953125,2.252197265625,-4.634521484375
0.1585,1.411376953125,2.852783203125,-4.554443359375
0.159,0.570556640625,3.653564453125,-4.514404296875
0.1595,-0.390380859375,3.853759765625,-3.833740234375
0.16,-0.950927734375,4.454345703125,-3.873779296875
0.1605,-2.272216796875,4.494384765625,-2.632568359375
0.161,-2.912841796875,4.614501953125,-2.152099609375
0.1615,-3.833740234375,4.534423828125,-1.151123046875
0.162,-4.314208984375,4.254150390625,-0.350341796875
0.1625,-4.634521484375,3.813720703125,0.370361328125
0.163,-4.914794921875,3.413330078125,1.091064453125
0.1635,-5.034912109375,2.412353515625,2.172119140625
0.164,-4.914794921875,1.731689453125,2.732666015625
0.1645,-4.994873046875,0.810791015625,3.693603515625
0.165,-4.194091796875,-0.310302734375,3.973876953125
0.1655,-4.114013671875,-1.071044921875,4.574462890625
0.166,-3.072998046875,-2.272216796875,4.694580078125
0.1665,-2.352294921875,-3.113037109375,4.814697265625
0.167,-1.471435546875,-3.713623046875,4.534423828125
0.1675,-0.630615234375,-4.434326171875,4.414306640625
0.168,0.290283203125,-4.674560546875,3.693603515625
0.1685,0.970947265625,-5.155029296875,3.533447265625
0.169,2.372314453125,-5.195068359375,2.172119140625
0.1695,2.892822265625,-5.155029296875,1.651611328125
0.17,3.693603515625,-4.954833984375,0.690673828125
0.1705,3.973876953125,-4.514404296875,-0.070068359375
0.171,4.294189453125,-4.114013671875,-0.750732421875
0.1715,4.414306640625,-3.393310546875,-1.551513671875
0.172,4.494384765625,-2.512451171875,-2.512451171875
0.1725,4.214111328125,-1.751708984375,-2.952880859375
0.173,4.214111328125,-0.910888671875,-3.753662109375
0.1735,3.373291015625,0.130126953125,-3.953857421875
0.174,3.253173828125,0.770751953125,-4.434326171875
0.1745,2.132080078125,1.931884765625,-4.474365234375
0.175,1.691650390625,2.572509765625,-4.594482421875
0.1755,0.770751953125,3.213134765625,-4.314208984375
0.176,0.010009765625,3.693603515625,-4.114013671875
0.1765,-0.790771484375,3.973876953125,-3.553466796875
0.177,-1.551513671875,4.334228515625,-3.193115234375
0.1775,-2.752685546875,4.494384765625,-2.072021484375
0.178,-3.233154296875,4.414306640625,-1.551513671875
0.1785,-3.993896484375,4.334228515625,-0.670654296875
0.179,-4.274169921875,3.773681640625,0.090087890625
0.1795,-4.674560546875,3.573486328125,0.650634765625
0.18,-4.754638671875,2.692626953125,1.611572265625
0.1805,-4.954833984375,2.052001953125,2.452392578125
0.181,-4.634521484375,1.171142578125,2.972900390625
0.1815,-4.634521484375,0.370361328125,3.773681640625
0.182,-3.833740234375,-0.750732421875,4.053955078125
0.1825,-3.713623046875,-1.431396484375,4.534423828125
0.183,-2.512451171875,-2.712646484375,4.574462890625
0.1835,-2.031982421875,-3.233154296875,4.654541015625
0.184,-1.031005859375,-3.993896484375,4.334228515625
0.1845,-0.270263671875,-4.474365234375,4.013916015625
0.185,0.570556640625,-4.794677734375,3.493408203125
0.1855,1.531494140625,-4.994873046875,2.852783203125
0.186,2.692626953125,-5.155029296875,1.891845703125
0.1865,3.093017578125,-4.834716796875,1.171142578125
0.187,3.773681640625,-4.794677734375,0.370361328125
0.1875,3.893798828125,-4.073974609375,-0.430419921875
0.188,4.214111328125,-3.833740234375,-0.990966796875
