wavelength,x,y,z
0.0,3.98388671875,-5.90576171875,0.02001953125
0.0005,2.94287109375,-6.14599609375,1.14111328125
0.001,1.58154296875,-6.38623046875,2.70263671875
0.0015,0.30029296875,-6.46630859375,4.02392578125
0.002,-0.66064453125,-6.42626953125,4.98486328125
0.0025,-1.38134765625,-6.38623046875,5.74560546875
0.003,-2.46240234375,-5.66552734375,6.26611328125
0.0035,-3.86376953125,-4.34423828125,6.58642578125
0.004,-5.10498046875,-2.98291015625,6.78662109375
0.0045,-5.82568359375,-1.66162109375,6.54638671875
0.005,-6.26611328125,-0.70068359375,6.30615234375
0.0055,-6.26611328125,0.26025390625,5.74560546875
0.006,-6.06591796875,1.34130859375,4.78466796875
0.0065,-5.82568359375,2.74267578125,3.42333984375
0.007,-5.50537109375,3.98388671875,2.10205078125
0.0075,-5.06494140625,4.86474609375,0.98095703125
0.008,-4.62451171875,5.42529296875,0.14013671875
0.0085,-3.78369140625,5.62548828125,-0.86083984375
0.009,-2.50244140625,5.74560546875,-2.22216796875
0.0095,-1.14111328125,5.90576171875,-3.78369140625
0.01,0.22021484375,5.82568359375,-4.90478515625
0.0105,0.98095703125,5.74560546875,-5.70556640625
0.011,1.74169921875,5.50537109375,-6.30615234375
0.0115,2.86279296875,4.54443359375,-6.70654296875
0.012,4.22412109375,3.14306640625,-6.90673828125
0.0125,5.26513671875,1.66162109375,-6.90673828125
0.013,5.82568359375,0.50048828125,-6.54638671875
0.0135,6.06591796875,-0.46044921875,-6.30615234375
0.014,5.90576171875,-1.30126953125,-5.62548828125
0.0145,5.62548828125,-2.54248046875,-4.42431640625
0.015,5.38525390625,-3.86376953125,-3.06298828125
0.0155,5.02490234375,-4.98486328125,-1.78173828125
0.016,4.58447265625,-5.74560546875,-0.78076171875
0.0165,4.10400390625,-6.26611328125,0.14013671875
0.017,3.18310546875,-6.38623046875,1.06103515625
0.0175,1.74169921875,-6.50634765625,2.50244140625
0.018,0.38037109375,-6.54638671875,3.98388671875
0.0185,-0.78076171875,-6.42626953125,4.98486328125
0.019,-1.42138671875,-6.46630859375,5.74560546875
0.0195,-2.30224609375,-6.02587890625,6.30615234375
0.02,-3.58349609375,-4.82470703125,6.62646484375
0.0205,-4.86474609375,-3.46337890625,6.86669921875
0.021,-5.78564453125,-2.10205078125,6.70654296875
0.0215,-6.26611328125,-0.98095703125,6.42626953125
0.022,-6.38623046875,-0.18017578125,6.10595703125
0.0225,-6.18603515625,0.86083984375,5.30517578125
0.023,-5.90576171875,2.10205078125,4.02392578125
0.0235,-5.70556640625,3.46337890625,2.74267578125
0.024,-5.26513671875,4.50439453125,1.50146484375
0.0245,-4.90478515625,5.14501953125,0.62060546875
0.025,-4.22412109375,5.46533203125,-0.38037109375
0.0255,-3.18310546875,5.62548828125,-1.46142578125
0.026,-1.82177734375,5.82568359375,-2.94287109375
0.0265,-0.50048828125,5.82568359375,-4.34423828125
0.027,0.58056640625,5.78564453125,-5.26513671875
0.0275,1.22119140625,5.74560546875,-5.98583984375
0.028,2.22216796875,5.10498046875,-6.42626953125
0.0285,3.54345703125,3.86376953125,-6.74658203125
0.029,4.74462890625,2.50244140625,-6.90673828125
0.0295,5.50537109375,1.14111328125,-6.70654296875
0.03,5.90576171875,0.22021484375,-6.46630859375
0.0305,5.94580078125,-0.74072265625,-6.02587890625
0.031,5.74560546875,-1.78173828125,-5.10498046875
0.0315,5.50537109375,-3.14306640625,-3.82373046875
0.032,5.26513671875,-4.46435546875,-2.46240234375
0.0325,4.82470703125,-5.42529296875,-1.30126953125
0.033,4.50439453125,-6.10595703125,-0.50048828125
0.0335,3.66357421875,-6.34619140625,0.50048828125
0.034,2.42236328125,-6.38623046875,1.82177734375
0.0345,1.06103515625,-6.58642578125,3.42333984375
0.035,-0.34033203125,-6.50634765625,4.62451171875
0.0355,-1.14111328125,-6.50634765625,5.46533203125
0.036,-1.90185546875,-6.34619140625,6.14599609375
0.0365,-3.06298828125,-5.42529296875,6.62646484375
0.037,-4.46435546875,-3.98388671875,6.90673828125
0.0375,-5.58544921875,-2.58251953125,6.90673828125
0.038,-6.18603515625,-1.30126953125,6.58642578125
0.0385,-6.46630859375,-0.46044921875,6.34619140625
0.039,-6.38623046875,0.62060546875,5.66552734375
0.0395,-6.10595703125,1.86181640625,4.46435546875
0.04,-5.90576171875,3.18310546875,3.14306640625
0.0405,-5.46533203125,4.38427734375,1.78173828125
0.041,-5.02490234375,5.10498046875,0.70068359375
0.0415,-4.50439453125,5.62548828125,-0.26025390625
0.042,-3.54345703125,5.82568359375,-1.22119140625
0.0425,-2.10205078125,5.90576171875,-2.70263671875
0.043,-0.66064453125,6.02587890625,-4.22412109375
0.0435,0.50048828125,5.86572265625,-5.26513671875
0.044,1.22119140625,5.86572265625,-6.02587890625
0.0445,2.06201171875,5.38525390625,-6.54638671875
0.045,3.34326171875,4.14404296875,-6.86669921875
0.0455,4.62451171875,2.74267578125,-7.02685546875
0.046,5.54541015625,1.30126953125,-6.86669921875
0.0465,5.94580078125,0.26025390625,-6.54638671875
0.047,6.06591796875,-0.70068359375,-6.14599609375
0.0475,5.90576171875,-1.62158203125,-5.38525390625
0.048,5.58544921875,-2.90283203125,-4.06396484375
0.0485,5.30517578125,-4.30419921875,-2.70263671875
0.049,4.86474609375,-5.26513671875,-1.50146484375
0.0495,4.46435546875,-5.94580078125,-0.58056640625
0.05,3.86376953125,-6.26611328125,0.38037109375
0.0505,2.78271484375,-6.38623046875,1.42138671875
0.051,1.42138671875,-6.50634765625,2.90283203125
0.0515,0.06005859375,-6.46630859375,4.22412109375
0.052,-0.94091796875,-6.42626953125,5.10498046875
0.0525,-1.58154296875,-6.38623046875,5.86572265625
0.053,-2.54248046875,-5.74560546875,6.34619140625
0.0535,-3.86376953125,-4.50439453125,6.62646484375
0.054,-5.02490234375,-3.18310546875,6.74658203125
0.0545,-5.74560546875,-1.86181640625,6.50634765625
0.055,-6.18603515625,-0.94091796875,6.34619140625
0.0555,-6.22607421875,0.02001953125,5.90576171875
0.056,-6.02587890625,0.98095703125,5.02490234375
0.0565,-5.78564453125,2.18212890625,3.82373046875
0.057,-5.50537109375,3.46337890625,2.50244140625
0.0575,-5.14501953125,4.34423828125,1.38134765625
0.058,-4.78466796875,5.10498046875,0.58056640625
0.0585,-4.10400390625,5.42529296875,-0.38037109375
0.059,-2.94287109375,5.54541015625,-1.58154296875
0.0595,-1.70166015625,5.74560546875,-3.06298828125
0.06,-0.46044921875,5.70556640625,-4.26416015625
0.0605,0.50048828125,5.74560546875,-5.14501953125
0.061,1.18115234375,5.66552734375,-5.86572265625
0.0615,2.22216796875,4.94482421875,-6.30615234375
0.062,3.54345703125,3.70361328125,-6.58642578125
0.0625,4.62451171875,2.30224609375,-6.66650390625
0.063,5.30517578125,1.14111328125,-6.46630859375
0.0635,5.70556640625,0.30029296875,-6.34619140625
0.064,5.70556640625,-0.66064453125,-5.78564453125
0.0645,5.46533203125,-1.78173828125,-4.82470703125
0.065,5.30517578125,-3.06298828125,-3.66357421875
0.0655,4.98486328125,-4.26416015625,-2.42236328125
0.066,4.66455078125,-5.10498046875,-1.34130859375
0.0665,4.34423828125,-5.70556640625,-0.58056640625
0.067,3.54345703125,-5.94580078125,0.46044921875
0.0675,2.30224609375,-6.10595703125,1.74169921875
0.068,1.06103515625,-6.26611328125,3.18310546875
0.0685,0.02001953125,-6.26611328125,4.22412109375
0.069,-0.82080078125,-6.38623046875,5.10498046875
0.0695,-1.66162109375,-6.10595703125,5.74560546875
0.07,-2.86279296875,-5.10498046875,6.10595703125
0.0705,-4.10400390625,-3.90380859375,6.38623046875
0.071,-5.06494140625,-2.58251953125,6.38623046875
0.0715,-5.62548828125,-1.54150390625,6.18603515625
0.072,-5.82568359375,-0.74072265625,5.98583984375
0.0725,-5.78564453125,0.14013671875,5.38525390625
0.073,-5.62548828125,1.26123046875,4.30419921875
0.0735,-5.46533203125,2.54248046875,3.18310546875
0.074,-5.10498046875,3.58349609375,2.06201171875
0.0745,-4.86474609375,4.38427734375,1.14111328125
0.075,-4.38427734375,4.86474609375,0.34033203125
0.0755,-3.54345703125,5.10498046875,-0.66064453125
0.076,-2.38232421875,5.30517578125,-1.98193359375
0.0765,-1.18115234375,5.38525390625,-3.26318359375
0.077,-0.26025390625,5.42529296875,-4.22412109375
0.0775,0.50048828125,5.58544921875,-5.10498046875
0.078,1.34130859375,5.14501953125,-5.62548828125
0.0785,2.50244140625,4.18408203125,-5.98583984375
0.079,3.66357421875,3.06298828125,-6.26611328125
0.0795,4.50439453125,1.86181640625,-6.10595703125
0.08,5.02490234375,0.98095703125,-6.10595703125
0.0805,5.22509765625,0.14013671875,-5.86572265625
0.081,5.18505859375,-0.78076171875,-5.26513671875
0.0815,5.06494140625,-1.90185546875,-4.34423828125
0.082,4.90478515625,-3.02294921875,-3.22314453125
0.0825,4.62451171875,-3.98388671875,-2.22216796875
0.083,4.50439453125,-4.82470703125,-1.42138671875
0.0835,3.98388671875,-5.26513671875,-0.62060546875
0.084,3.14306640625,-5.54541015625,0.50048828125
0.0845,2.10205078125,-5.82568359375,1.78173828125
0.085,0.98095703125,-5.90576171875,2.94287109375
0.0855,0.18017578125,-6.10595703125,3.94384765625
0.086,-0.66064453125,-6.18603515625,4.78466796875
0.0865,-1.58154296875,-5.70556640625,5.38525390625
0.087,-2.82275390625,-4.74462890625,5.74560546875
0.0875,-3.94384765625,-3.54345703125,5.94580078125
0.088,-4.74462890625,-2.46240234375,5.90576171875
0.0885,-5.26513671875,-1.70166015625,5.94580078125
0.089,-5.42529296875,-0.98095703125,5.62548828125
0.0895,-5.42529296875,0.10009765625,4.90478515625
0.09,-5.34521484375,1.26123046875,4.10400390625
0.0905,-5.18505859375,2.38232421875,2.98291015625
0.091,-4.98486328125,3.34326171875,2.06201171875
0.0915,-4.74462890625,4.06396484375,1.30126953125
0.092,-4.22412109375,4.50439453125,0.46044921875
0.0925,-3.22314453125,4.78466796875,-0.78076171875
0.093,-2.22216796875,5.10498046875,-2.06201171875
0.0935,-1.22119140625,5.18505859375,-3.14306640625
0.094,-0.50048828125,5.46533203125,-4.14404296875
0.0945,0.38037109375,5.38525390625,-4.86474609375
0.095,1.42138671875,4.70458984375,-5.38525390625
0.0955,2.62255859375,3.78369140625,-5.74560546875
0.096,3.62353515625,2.62255859375,-5.86572265625
0.0965,4.34423828125,1.58154296875,-5.90576171875
0.097,4.78466796875,0.82080078125,-5.90576171875
0.0975,4.90478515625,0.06005859375,-5.54541015625
0.098,4.86474609375,-0.94091796875,-4.78466796875
0.0985,4.82470703125,-2.10205078125,-3.86376953125
0.099,4.62451171875,-3.14306640625,-2.86279296875
0.0995,4.50439453125,-4.02392578125,-2.02197265625
0.1,4.22412109375,-4.66455078125,-1.26123046875
0.1005,3.62353515625,-5.10498046875,-0.38037109375
0.101,2.70263671875,-5.46533203125,0.90087890625
0.1015,1.62158203125,-5.70556640625,2.18212890625
0.102,0.78076171875,-5.90576171875,3.18310546875
0.1025,0.06005859375,-6.10595703125,4.14404296875
0.103,-0.94091796875,-5.90576171875,4.86474609375
0.1035,-2.06201171875,-5.10498046875,5.34521484375
0.104,-3.22314453125,-4.10400390625,5.74560546875
0.1045,-4.14404296875,-3.02294921875,5.74560546875
0.105,-4.82470703125,-2.14208984375,5.82568359375
0.1055,-5.18505859375,-1.38134765625,5.70556640625
0.106,-5.26513671875,-0.50048828125,5.22509765625
0.1065,-5.22509765625,0.62060546875,4.46435546875
0.107,-5.14501953125,1.82177734375,3.46337890625
0.1075,-4.98486328125,2.82275390625,2.50244140625
0.108,-4.86474609375,3.70361328125,1.66162109375
0.1085,-4.46435546875,4.18408203125,0.90087890625
0.109,-3.62353515625,4.54443359375,-0.26025390625
0.1095,-2.70263671875,4.98486328125,-1.50146484375
0.11,-1.62158203125,5.10498046875,-2.70263671875
0.1105,-0.82080078125,5.30517578125,-3.70361328125
0.111,0.02001953125,5.42529296875,-4.54443359375
0.1115,0.98095703125,5.02490234375,-5.14501953125
0.112,2.18212890625,4.10400390625,-5.62548828125
0.1125,3.30322265625,2.94287109375,-5.86572265625
0.113,4.14404296875,1.86181640625,-5.86572265625
0.1135,4.66455078125,1.10107421875,-5.94580078125
0.114,4.90478515625,0.34033203125,-5.62548828125
0.1145,4.90478515625,-0.66064453125,-4.98486328125
0.115,4.86474609375,-1.82177734375,-4.14404296875
0.1155,4.74462890625,-2.94287109375,-3.06298828125
0.116,4.54443359375,-3.86376953125,-2.18212890625
0.1165,4.42431640625,-4.66455078125,-1.42138671875
0.117,3.86376953125,-5.10498046875,-0.58056640625
0.1175,2.86279296875,-5.42529296875,0.70068359375
0.118,1.90185546875,-5.74560546875,1.98193359375
0.1185,0.90087890625,-5.86572265625,3.06298828125
0.119,0.14013671875,-6.10595703125,4.06396484375
0.1195,-0.78076171875,-5.98583984375,4.82470703125
0.12,-1.90185546875,-5.26513671875,5.38525390625
0.1205,-3.14306640625,-4.30419921875,5.74560546875
0.121,-4.14404296875,-3.14306640625,5.86572265625
0.1215,-4.86474609375,-2.14208984375,5.82568359375
0.122,-5.26513671875,-1.34130859375,5.78564453125
0.1225,-5.38525390625,-0.58056640625,5.38525390625
0.123,-5.26513671875,0.62060546875,4.50439453125
0.1235,-5.26513671875,1.78173828125,3.54345703125
0.124,-5.06494140625,2.86279296875,2.54248046875
0.1245,-4.86474609375,3.70361328125,1.66162109375
0.125,-4.50439453125,4.30419921875,0.86083984375
0.1255,-3.78369140625,4.62451171875,-0.18017578125
0.126,-2.74267578125,4.98486328125,-1.42138671875
0.1265,-1.62158203125,5.18505859375,-2.74267578125
0.127,-0.78076171875,5.30517578125,-3.70361328125
0.1275,0.06005859375,5.50537109375,-4.62451171875
0.128,0.98095703125,5.14501953125,-5.26513671875
0.1285,2.14208984375,4.22412109375,-5.70556640625
0.129,3.34326171875,3.14306640625,-6.06591796875
0.1295,4.18408203125,1.94189453125,-6.02587890625
0.13,4.82470703125,1.10107421875,-6.02587890625
0.1305,5.06494140625,0.30029296875,-5.74560546875
0.131,5.10498046875,-0.66064453125,-5.18505859375
0.1315,4.98486328125,-1.78173828125,-4.26416015625
0.132,4.86474609375,-3.02294921875,-3.18310546875
0.1325,4.62451171875,-3.98388671875,-2.18212890625
0.133,4.50439453125,-4.82470703125,-1.34130859375
0.1335,3.94384765625,-5.26513671875,-0.58056640625
0.134,3.02294921875,-5.54541015625,0.66064453125
0.1345,1.94189453125,-5.90576171875,1.98193359375
0.135,0.86083984375,-5.94580078125,3.18310546875
0.1355,0.06005859375,-6.14599609375,4.14404296875
0.136,-0.82080078125,-6.14599609375,4.98486328125
0.1365,-1.86181640625,-5.62548828125,5.58544921875
0.137,-3.18310546875,-4.50439453125,5.94580078125
0.1375,-4.34423828125,-3.22314453125,6.10595703125
0.138,-5.06494140625,-2.06201171875,6.02587890625
0.1385,-5.50537109375,-1.26123046875,5.98583984375
0.139,-5.62548828125,-0.46044921875,5.54541015625
0.1395,-5.50537109375,0.70068359375,4.66455078125
0.14,-5.42529296875,1.94189453125,3.66357421875
0.1405,-5.22509765625,3.10302734375,2.50244140625
0.141,-4.94482421875,3.98388671875,1.54150390625
0.1415,-4.62451171875,4.62451171875,0.74072265625
0.142,-3.90380859375,4.98486328125,-0.30029296875
0.1425,-2.74267578125,5.18505859375,-1.58154296875
0.143,-1.58154296875,5.42529296875,-2.98291015625
0.1435,-0.58056640625,5.46533203125,-4.02392578125
0.144,0.30029296875,5.62548828125,-4.94482421875
0.1445,1.14111328125,5.30517578125,-5.62548828125
0.145,2.30224609375,4.34423828125,-6.10595703125
0.1455,3.58349609375,3.18310546875,-6.38623046875
0.146,4.62451171875,1.94189453125,-6.38623046875
0.1465,5.18505859375,0.90087890625,-6.26611328125
0.147,5.50537109375,0.06005859375,-6.06591796875
0.1475,5.46533203125,-0.98095703125,-5.42529296875
0.148,5.30517578125,-2.14208984375,-4.30419921875
0.1485,5.10498046875,-3.50341796875,-3.06298828125
0.149,4.82470703125,-4.50439453125,-1.98193359375
0.1495,4.50439453125,-5.30517578125,-1.06103515625
0.15,4.02392578125,-5.74560546875,-0.26025390625
0.1505,3.06298828125,-6.02587890625,0.98095703125
0.151,1.78173828125,-6.26611328125,2.42236328125
0.1515,0.46044921875,-6.26611328125,3.78369140625
0.152,-0.50048828125,-6.34619140625,4.74462890625
0.1525,-1.22119140625,-6.38623046875,5.50537109375
0.153,-2.26220703125,-5.78564453125,6.06591796875
0.1535,-3.70361328125,-4.50439453125,6.42626953125
0.154,-4.86474609375,-3.18310546875,6.62646484375
0.1545,-5.62548828125,-1.86181640625,6.42626953125
0.155,-6.06591796875,-0.94091796875,6.26611328125
0.1555,-6.10595703125,0.02001953125,5.78564453125
0.156,-5.98583984375,1.14111328125,4.86474609375
0.1565,-5.74560546875,2.46240234375,3.58349609375
0.157,-5.50537109375,3.74365234375,2.30224609375
0.1575,-5.10498046875,4.54443359375,1.22119140625
0.158,-4.70458984375,5.22509765625,0.34033203125
0.1585,-3.90380859375,5.50537109375,-0.62060546875
0.159,-2.66259765625,5.62548828125,-1.94189453125
0.1595,-1.30126953125,5.82568359375,-3.46337890625
0.16,0.02001953125,5.74560546875,-4.62451171875
0.1605,0.70068359375,5.74560546875,-5.42529296875
0.161,1.50146484375,5.50537109375,-6.14599609375
0.1615,2.58251953125,4.62451171875,-6.58642578125
0.162,4.02392578125,3.26318359375,-6.82666015625
0.1625,5.10498046875,1.86181640625,-6.82666015625
0.163,5.70556640625,0.66064453125,-6.54638671875
0.1635,5.94580078125,-0.30029296875,-6.34619140625
0.164,5.86572265625,-1.18115234375,-5.66552734375
0.1645,5.62548828125,-2.38232421875,-4.50439453125
0.165,5.42529296875,-3.70361328125,-3.18310546875
0.1655,5.06494140625,-4.86474609375,-1.94189453125
0.166,4.58447265625,-5.62548828125,-0.90087890625
0.1665,4.14404296875,-6.14599609375,0.02001953125
0.167,3.26318359375,-6.38623046875,0.98095703125
0.1675,1.86181640625,-6.46630859375,2.46240234375
0.168,0.50048828125,-6.54638671875,3.94384765625
0.1685,-0.66064453125,-6.50634765625,4.94482421875
0.169,-1.38134765625,-6.54638671875,5.74560546875
0.1695,-2.26220703125,-6.10595703125,6.30615234375
0.17,-3.58349609375,-4.86474609375,6.70654296875
0.1705,-4.86474609375,-3.50341796875,6.90673828125
0.171,-5.78564453125,-2.06201171875,6.74658203125
0.1715,-6.26611328125,-0.98095703125,6.42626953125
0.172,-6.42626953125,0.02001953125,6.10595703125
0.1725,-6.26611328125,0.94091796875,5.30517578125
0.173,-6.02587890625,2.26220703125,4.02392578125
0.1735,-5.74560546875,3.58349609375,2.66259765625
0.174,-5.30517578125,4.58447265625,1.42138671875
0.1745,-4.86474609375,5.26513671875,0.50048828125
0.175,-4.22412109375,5.66552734375,-0.50048828125
0.1755,-3.14306640625,5.78564453125,-1.58154296875
0.176,-1.74169921875,5.94580078125,-3.14306640625
0.1765,-0.34033203125,5.90576171875,-4.50439453125
0.177,0.66064453125,5.74560546875,-5.38525390625
0.1775,1.30126953125,5.74560546875,-6.14599609375
0.178,2.30224609375,5.10498046875,-6.58642578125
0.1785,3.70361328125,3.78369140625,-6.86669921875
0.179,4.90478515625,2.38232421875,-7.02685546875
0.1795,5.62548828125,1.06103515625,-6.70654296875
0.18,5.98583984375,0.06005859375,-6.42626953125
0.1805,6.02587890625,-0.90087890625,-5.98583984375
0.181,5.82568359375,-1.94189453125,-5.06494140625
0.1815,5.58544921875,-3.34326171875,-3.70361328125
0.182,5.26513671875,-4.62451171875,-2.38232421875
0.1825,4.82470703125,-5.46533203125,-1.22119140625
0.183,4.46435546875,-6.10595703125,-0.38037109375
0.1835,3.62353515625,-6.38623046875,0.66064453125
0.184,2.38232421875,-6.50634765625,1.94189453125
0.1845,0.98095703125,-6.70654296875,3.50341796875
0.185,-0.38037109375,-6.58642578125,4.66455078125
0.1855,-1.22119140625,-6.58642578125,5.50537109375
0.186,-1.94189453125,-6.34619140625,6.18603515625
0.1865,-3.06298828125,-5.46533203125,6.66650390625
0.187,-4.50439453125,-3.98388671875,6.90673828125
0.1875,-5.62548828125,-2.58251953125,6.90673828125
0.188,-6.18603515625,-1.30126953125,6.54638671875
0.1885,-6.46630859375,-0.50048828125,6.34619140625
0.189,-6.38623046875,0.62060546875,5.66552734375
0.1895,-6.14599609375,1.82177734375,4.50439453125
0.19,-5.90576171875,3.18310546875,3.18310546875
0.1905,-5.50537109375,4.34423828125,1.86181640625
0.191,-5.06494140625,5.10498046875,0.78076171875
0.1915,-4.54443359375,5.66552734375,-0.18017578125
0.192,-3.66357421875,5.86572265625,-1.14111328125
0.1925,-2.18212890625,5.94580078125,-2.66259765625
0.193,-0.82080078125,6.02587890625,-4.14404296875
0.1935,0.42041015625,5.82568359375,-5.18505859375
0.194,1.14111328125,5.90576171875,-5.94580078125
0.1945,1.98193359375,5.46533203125,-6.54638671875
0.195,3.30322265625,4.30419921875,-6.86669921875
0.1955,4.62451171875,2.86279296875,-7.06689453125
0.196,5.54541015625,1.42138671875,-6.90673828125
0.1965,5.98583984375,0.30029296875,-6.54638671875
0.197,6.10595703125,-0.62060546875,-6.26611328125
0.1975,5.94580078125,-1.58154296875,-5.46533203125
0.198,5.66552734375,-2.86279296875,-4.14404296875
0.1985,5.38525390625,-4.22412109375,-2.74267578125
0.199,4.90478515625,-5.22509765625,-1.50146484375
0.1995,4.54443359375,-5.90576171875,-0.62060546875
