wavelength,x,y,z
0.0,20.60009765625,-4.38427734375,-15.43505859375
0.0005,19.03857421875,-0.26025390625,-18.07763671875
0.001,16.67626953125,3.58349609375,-19.55908203125
0.0015,14.71435546875,6.82666015625,-20.84033203125
0.002,11.67138671875,9.94970703125,-21.00048828125
0.0025,7.14697265625,13.79345703125,-20.39990234375
0.003,3.10302734375,16.59619140625,-19.31884765625
0.0035,-1.86181640625,18.87841796875,-16.95654296875
0.004,-5.50537109375,20.23974609375,-14.87451171875
0.0045,-8.46826171875,20.47998046875,-12.39208984375
0.005,-11.51123046875,20.84033203125,-9.98974609375
0.0055,-15.43505859375,19.87939453125,-5.18505859375
0.006,-17.99755859375,18.03759765625,-0.98095703125
0.0065,-19.75927734375,15.95556640625,2.86279296875
0.007,-21.08056640625,13.79345703125,6.30615234375
0.0075,-21.08056640625,10.71044921875,9.46923828125
0.008,-21.00048828125,7.02685546875,13.11279296875
0.0085,-20.31982421875,3.18310546875,16.19580078125
0.009,-18.43798828125,-1.26123046875,18.83837890625
0.0095,-16.07568359375,-4.98486328125,20.19970703125
0.01,-13.83349609375,-7.86767578125,20.96044921875
0.0105,-10.99072265625,-10.95068359375,21.28076171875
0.011,-5.70556640625,-15.07470703125,20.19970703125
0.0115,-1.38134765625,-17.63720703125,18.55810546875
0.012,2.94287109375,-19.43896484375,16.39599609375
0.0125,6.50634765625,-20.76025390625,14.39404296875
0.013,9.70947265625,-20.64013671875,11.39111328125
0.0135,12.83251953125,-20.64013671875,8.46826171875
0.014,16.35595703125,-19.71923828125,4.14404296875
0.0145,18.91845703125,-17.43701171875,-0.62060546875
0.015,20.31982421875,-15.27490234375,-4.14404296875
0.0155,21.12060546875,-12.87255859375,-7.34716796875
0.016,21.28076171875,-9.94970703125,-10.43017578125
0.0165,20.64013671875,-5.46533203125,-14.43408203125
0.017,19.59912109375,-1.90185546875,-16.99658203125
0.0175,17.63720703125,2.34228515625,-19.19873046875
0.018,15.35498046875,5.94580078125,-20.56005859375
0.0185,12.31201171875,8.98876953125,-20.64013671875
0.019,9.34912109375,12.19189453125,-20.96044921875
0.0195,4.14404296875,15.99560546875,-19.71923828125
0.02,-0.74072265625,18.35791015625,-17.43701171875
0.0205,-4.30419921875,19.71923828125,-15.47509765625
0.021,-7.62744140625,20.80029296875,-13.47314453125
0.0215,-10.83056640625,20.64013671875,-10.43017578125
0.022,-14.27392578125,19.99951171875,-6.46630859375
0.0225,-17.15673828125,18.91845703125,-2.62255859375
0.023,-19.43896484375,16.51611328125,1.98193359375
0.0235,-20.47998046875,14.27392578125,5.30517578125
0.024,-20.96044921875,11.55126953125,8.46826171875
0.0245,-21.12060546875,8.66845703125,11.51123046875
0.025,-20.35986328125,4.10400390625,15.39501953125
0.0255,-18.71826171875,0.06005859375,17.79736328125
0.026,-16.63623046875,-3.62353515625,19.39892578125
0.0265,-14.59423828125,-6.90673828125,20.80029296875
0.027,-11.27099609375,-9.94970703125,20.56005859375
0.0275,-7.54736328125,-13.39306640625,20.31982421875
0.028,-3.02294921875,-16.51611328125,19.11865234375
0.0285,1.98193359375,-18.67822265625,16.55615234375
0.029,5.18505859375,-19.71923828125,14.59423828125
0.0295,8.30810546875,-20.39990234375,12.43212890625
0.03,11.27099609375,-20.39990234375,9.66943359375
0.0305,14.99462890625,-19.35888671875,5.10498046875
0.031,17.47705078125,-17.79736328125,1.18115234375
0.0315,19.31884765625,-15.71533203125,-2.74267578125
0.032,20.23974609375,-13.51318359375,-5.86572265625
0.0325,20.23974609375,-10.55029296875,-8.94873046875
0.033,20.27978515625,-7.38720703125,-12.11181640625
0.0335,19.59912109375,-3.54345703125,-15.39501953125
0.034,17.63720703125,0.82080078125,-17.67724609375
0.0345,15.59521484375,4.06396484375,-18.83837890625
0.035,13.51318359375,7.10693359375,-19.99951171875
0.0355,10.47021484375,10.06982421875,-19.95947265625
0.036,5.82568359375,13.79345703125,-19.11865234375
0.0365,1.86181640625,16.39599609375,-17.91748046875
0.037,-2.62255859375,18.35791015625,-15.67529296875
0.0375,-5.62548828125,19.27880859375,-13.83349609375
0.038,-8.70849609375,19.55908203125,-11.23095703125
0.0385,-11.63134765625,19.67919921875,-8.66845703125
0.039,-15.07470703125,18.63818359375,-4.34423828125
0.0395,-17.43701171875,16.67626953125,0.02001953125
0.04,-18.91845703125,14.79443359375,3.18310546875
0.0405,-19.87939453125,12.63232421875,6.26611328125
0.041,-19.91943359375,9.74951171875,9.26904296875
0.0415,-19.55908203125,5.90576171875,12.83251953125
0.042,-18.87841796875,2.42236328125,15.67529296875
0.0425,-16.91650390625,-1.78173828125,17.91748046875
0.043,-14.91455078125,-4.82470703125,18.99853515625
0.0435,-12.59228515625,-7.82763671875,19.71923828125
0.044,-9.58935546875,-10.95068359375,19.87939453125
0.0445,-4.62451171875,-14.59423828125,18.71826171875
0.045,-0.34033203125,-16.87646484375,16.87646484375
0.0455,3.42333984375,-18.55810546875,15.07470703125
0.046,6.46630859375,-19.47900390625,13.19287109375
0.0465,9.58935546875,-19.51904296875,10.35009765625
0.047,12.83251953125,-19.23876953125,7.06689453125
0.0475,15.87548828125,-18.19775390625,3.14306640625
0.048,18.07763671875,-15.99560546875,-1.34130859375
0.0485,19.15869140625,-14.07373046875,-4.26416015625
0.049,19.87939453125,-11.63134765625,-7.38720703125
0.0495,19.91943359375,-8.78857421875,-10.43017578125
0.05,19.27880859375,-4.58447265625,-14.03369140625
0.0505,18.07763671875,-0.98095703125,-16.43603515625
0.051,16.15576171875,2.94287109375,-18.35791015625
0.0515,14.07373046875,5.98583984375,-19.35888671875
0.052,11.19091796875,9.02880859375,-19.59912109375
0.0525,7.70751953125,12.47216796875,-19.67919921875
0.053,3.06298828125,15.75537109375,-18.43798828125
0.0535,-1.62158203125,17.79736328125,-16.07568359375
0.054,-4.70458984375,19.07861328125,-14.43408203125
0.0545,-7.86767578125,19.87939453125,-12.31201171875
0.055,-10.99072265625,19.79931640625,-9.34912109375
0.0555,-14.43408203125,19.07861328125,-5.38525390625
0.056,-17.11669921875,17.63720703125,-1.42138671875
0.0565,-19.19873046875,15.39501953125,2.86279296875
0.057,-19.87939453125,13.23291015625,5.74560546875
0.0575,-20.35986328125,10.35009765625,9.02880859375
0.058,-20.27978515625,7.06689453125,12.35205078125
0.0585,-19.51904296875,3.06298828125,15.67529296875
0.059,-17.63720703125,-1.10107421875,17.87744140625
0.0595,-15.67529296875,-4.58447265625,19.47900390625
0.06,-13.43310546875,-7.62744140625,20.35986328125
0.0605,-10.14990234375,-10.75048828125,20.19970703125
0.061,-6.02587890625,-14.23388671875,19.67919921875
0.0615,-1.34130859375,-17.15673828125,18.11767578125
0.062,3.26318359375,-18.95849609375,15.67529296875
0.0625,6.10595703125,-19.79931640625,13.79345703125
0.063,9.42919921875,-20.31982421875,11.35107421875
0.0635,12.63232421875,-19.99951171875,8.02783203125
0.064,15.87548828125,-18.95849609375,3.86376953125
0.0645,18.23779296875,-17.11669921875,-0.34033203125
0.065,19.95947265625,-14.91455078125,-4.22412109375
0.0655,20.47998046875,-12.51220703125,-7.14697265625
0.066,20.60009765625,-9.38916015625,-10.39013671875
0.0665,20.15966796875,-5.62548828125,-13.79345703125
0.067,19.19873046875,-1.70166015625,-16.75634765625
0.0675,16.91650390625,2.54248046875,-18.67822265625
0.068,14.87451171875,5.62548828125,-19.75927734375
0.0685,12.43212890625,8.74853515625,-20.47998046875
0.069,8.66845703125,12.15185546875,-20.19970703125
0.0695,4.26416015625,15.35498046875,-19.19873046875
0.07,-0.34033203125,17.79736328125,-17.31689453125
0.0705,-4.50439453125,19.55908203125,-15.11474609375
0.071,-7.26708984375,19.99951171875,-13.03271484375
0.0715,-10.47021484375,20.35986328125,-10.39013671875
0.072,-13.95361328125,19.79931640625,-6.58642578125
0.0725,-16.87646484375,18.43798828125,-2.46240234375
0.073,-18.95849609375,16.23583984375,1.78173828125
0.0735,-20.35986328125,14.11376953125,5.18505859375
0.074,-20.80029296875,11.51123046875,8.34814453125
0.0745,-20.84033203125,8.18798828125,11.79150390625
0.075,-20.15966796875,4.22412109375,15.03466796875
0.0755,-18.75830078125,0.18017578125,17.79736328125
0.076,-16.47607421875,-4.02392578125,19.71923828125
0.0765,-14.23388671875,-6.90673828125,20.39990234375
0.077,-11.59130859375,-10.06982421875,20.96044921875
0.0775,-7.30712890625,-13.79345703125,20.47998046875
0.078,-2.70263671875,-16.67626953125,18.99853515625
0.0785,1.86181640625,-18.71826171875,16.75634765625
0.079,5.62548828125,-20.27978515625,14.79443359375
0.0795,8.58837890625,-20.52001953125,12.31201171875
0.08,11.79150390625,-20.60009765625,9.42919921875
0.0805,15.31494140625,-19.91943359375,5.30517578125
0.081,18.11767578125,-18.11767578125,0.82080078125
0.0815,19.99951171875,-15.83544921875,-3.38330078125
0.082,20.84033203125,-13.51318359375,-6.42626953125
0.0825,21.20068359375,-10.63037109375,-9.74951171875
0.083,20.88037109375,-6.70654296875,-13.43310546875
0.0835,20.03955078125,-2.94287109375,-16.27587890625
0.084,18.19775390625,1.30126953125,-18.55810546875
0.0845,15.95556640625,5.14501953125,-20.35986328125
0.085,13.31298828125,8.06787109375,-20.64013671875
0.0855,10.43017578125,11.19091796875,-21.00048828125
0.086,5.62548828125,15.07470703125,-20.19970703125
0.0865,0.90087890625,17.79736328125,-18.43798828125
0.087,-3.42333984375,19.47900390625,-15.99560546875
0.0875,-6.70654296875,20.64013671875,-14.19384765625
0.088,-9.90966796875,20.80029296875,-11.39111328125
0.0885,-13.27294921875,20.43994140625,-7.90771484375
0.089,-16.35595703125,19.51904296875,-4.02392578125
0.0895,-18.95849609375,17.39697265625,0.70068359375
0.09,-20.64013671875,15.07470703125,4.62451171875
0.0905,-21.12060546875,12.51220703125,7.62744140625
0.091,-21.52099609375,9.66943359375,10.91064453125
0.0915,-20.88037109375,5.18505859375,14.83447265625
0.092,-19.71923828125,1.30126953125,17.59716796875
0.0925,-17.55712890625,-2.74267578125,19.47900390625
0.093,-15.51513671875,-6.38623046875,21.12060546875
0.0935,-12.51220703125,-9.42919921875,21.16064453125
0.094,-8.98876953125,-12.75244140625,21.08056640625
0.0945,-4.46435546875,-16.15576171875,20.15966796875
0.095,0.74072265625,-18.75830078125,17.83740234375
0.0955,4.74462890625,-20.19970703125,15.51513671875
0.096,7.78759765625,-20.96044921875,13.43310546875
0.0965,10.99072265625,-21.24072265625,10.75048828125
0.097,14.75439453125,-20.35986328125,6.26611328125
0.0975,17.55712890625,-19.07861328125,2.38232421875
0.098,19.79931640625,-16.83642578125,-2.06201171875
0.0985,21.20068359375,-14.55419921875,-5.74560546875
0.099,21.28076171875,-11.55126953125,-8.86865234375
0.0995,21.48095703125,-8.54833984375,-12.15185546875
0.1,20.72021484375,-4.18408203125,-15.75537109375
0.1005,19.11865234375,0.14013671875,-18.43798828125
0.101,16.71630859375,3.98388671875,-19.87939453125
0.1015,14.59423828125,7.22705078125,-21.12060546875
0.102,11.51123046875,10.39013671875,-21.24072265625
0.1025,6.98681640625,14.19384765625,-20.64013671875
0.103,2.86279296875,16.99658203125,-19.47900390625
0.1035,-2.26220703125,19.31884765625,-16.99658203125
0.104,-5.90576171875,20.60009765625,-14.87451171875
0.1045,-8.94873046875,20.80029296875,-12.31201171875
0.105,-11.95166015625,21.12060546875,-9.78955078125
0.1055,-15.87548828125,20.03955078125,-4.98486328125
0.106,-18.47802734375,18.23779296875,-0.66064453125
0.1065,-20.23974609375,15.99560546875,3.26318359375
0.107,-21.48095703125,13.75341796875,6.74658203125
0.1075,-21.48095703125,10.55029296875,9.94970703125
0.108,-21.32080078125,6.90673828125,13.59326171875
0.1085,-20.56005859375,3.02294921875,16.67626953125
0.109,-18.59814453125,-1.54150390625,19.31884765625
0.1095,-16.19580078125,-5.30517578125,20.68017578125
0.11,-13.79345703125,-8.30810546875,21.40087890625
0.1105,-10.91064453125,-11.47119140625,21.72119140625
0.111,-5.54541015625,-15.55517578125,20.56005859375
0.1115,-1.18115234375,-18.07763671875,18.91845703125
0.112,3.34326171875,-19.95947265625,16.55615234375
0.1125,6.90673828125,-21.28076171875,14.47412109375
0.113,10.22998046875,-21.12060546875,11.31103515625
0.1135,13.39306640625,-21.08056640625,8.34814453125
0.114,16.95654296875,-19.99951171875,3.90380859375
0.1145,19.51904296875,-17.67724609375,-1.02099609375
0.115,20.92041015625,-15.39501953125,-4.58447265625
0.1155,21.76123046875,-12.91259765625,-7.94775390625
0.116,21.80126953125,-9.86962890625,-11.07080078125
0.1165,21.20068359375,-5.26513671875,-15.11474609375
0.117,20.11962890625,-1.62158203125,-17.71728515625
0.1175,17.95751953125,2.86279296875,-19.99951171875
0.118,15.59521484375,6.42626953125,-21.28076171875
0.1185,12.39208984375,9.62939453125,-21.40087890625
0.119,9.38916015625,12.87255859375,-21.68115234375
0.1195,3.94384765625,16.79638671875,-20.31982421875
0.12,-1.06103515625,19.19873046875,-17.95751953125
0.1205,-4.90478515625,20.56005859375,-15.83544921875
0.121,-8.30810546875,21.60107421875,-13.71337890625
0.1215,-11.67138671875,21.40087890625,-10.39013671875
0.122,-15.11474609375,20.76025390625,-6.38623046875
0.1225,-18.15771484375,19.51904296875,-2.30224609375
0.123,-20.56005859375,16.95654296875,2.66259765625
0.1235,-21.60107421875,14.55419921875,6.06591796875
0.124,-22.08154296875,11.55126953125,9.54931640625
0.1245,-22.16162109375,8.58837890625,12.67236328125
0.125,-21.28076171875,3.74365234375,16.67626953125
0.1255,-19.55908203125,-0.50048828125,19.15869140625
0.126,-17.31689453125,-4.50439453125,20.96044921875
0.1265,-15.07470703125,-7.98779296875,22.16162109375
0.127,-11.35107421875,-11.27099609375,21.88134765625
0.1275,-7.50732421875,-14.75439453125,21.64111328125
0.128,-2.54248046875,-18.11767578125,20.31982421875
0.1285,2.82275390625,-20.39990234375,17.39697265625
0.129,6.26611328125,-21.40087890625,15.23486328125
0.1295,9.74951171875,-22.04150390625,12.71240234375
0.13,12.95263671875,-21.84130859375,9.58935546875
0.1305,16.79638671875,-20.68017578125,4.70458984375
0.131,19.47900390625,-18.95849609375,0.46044921875
0.1315,21.48095703125,-16.47607421875,-4.10400390625
0.132,22.28173828125,-13.95361328125,-7.38720703125
0.1325,22.28173828125,-10.43017578125,-10.95068359375
0.133,22.08154296875,-7.06689453125,-14.19384765625
0.1335,21.16064453125,-2.58251953125,-17.75732421875
0.134,18.87841796875,2.06201171875,-20.11962890625
0.1345,16.39599609375,5.62548828125,-21.28076171875
0.135,14.03369140625,9.06884765625,-22.36181640625
0.1355,10.22998046875,12.43212890625,-21.96142578125
0.136,5.26513671875,15.99560546875,-21.08056640625
0.1365,0.82080078125,18.91845703125,-19.47900390625
0.137,-4.34423828125,20.92041015625,-16.67626953125
0.1375,-7.42724609375,21.64111328125,-14.43408203125
0.138,-11.03076171875,21.88134765625,-11.39111328125
0.1385,-14.15380859375,21.64111328125,-8.26806640625
0.139,-17.79736328125,20.23974609375,-3.38330078125
0.1395,-20.19970703125,17.95751953125,1.30126953125
0.14,-21.76123046875,15.59521484375,5.14501953125
0.1405,-22.44189453125,12.95263671875,8.46826171875
0.141,-22.28173828125,9.34912109375,12.03173828125
0.1415,-21.72119140625,5.30517578125,15.55517578125
0.142,-20.56005859375,1.22119140625,18.55810546875
0.1425,-18.19775390625,-3.54345703125,20.80029296875
0.143,-15.63525390625,-6.86669921875,21.64111328125
0.1435,-12.91259765625,-10.10986328125,22.28173828125
0.144,-9.18896484375,-13.51318359375,21.92138671875
0.1445,-3.86376953125,-17.15673828125,20.47998046875
0.145,0.74072265625,-19.51904296875,18.43798828125
0.1455,5.18505859375,-21.16064453125,16.03564453125
0.146,8.34814453125,-21.76123046875,13.71337890625
0.1465,11.87158203125,-21.68115234375,10.31005859375
0.147,15.11474609375,-21.16064453125,6.78662109375
0.1475,18.39794921875,-19.71923828125,2.22216796875
0.148,20.64013671875,-17.11669921875,-2.62255859375
0.1485,21.72119140625,-14.75439453125,-5.98583984375
0.149,22.28173828125,-11.99169921875,-9.34912109375
0.1495,22.08154296875,-8.42822265625,-12.79248046875
0.15,21.20068359375,-4.02392578125,-16.35595703125
0.1505,19.67919921875,0.02001953125,-18.87841796875
0.151,17.31689453125,4.34423828125,-20.88037109375
0.1515,14.75439453125,7.54736328125,-21.56103515625
0.152,11.59130859375,10.91064453125,-21.80126953125
0.1525,7.58740234375,14.43408203125,-21.52099609375
0.153,2.58251953125,17.79736328125,-19.99951171875
0.1535,-2.42236328125,19.87939453125,-17.31689453125
0.154,-6.02587890625,21.12060546875,-15.31494140625
0.1545,-9.30908203125,21.64111328125,-12.79248046875
0.155,-12.67236328125,21.44091796875,-9.42919921875
0.1555,-16.11572265625,20.56005859375,-5.30517578125
0.156,-18.95849609375,18.83837890625,-0.82080078125
0.1565,-21.08056640625,16.27587890625,3.82373046875
0.157,-21.76123046875,13.79345703125,6.94677734375
0.1575,-22.16162109375,10.75048828125,10.47021484375
0.158,-21.84130859375,6.94677734375,14.03369140625
0.1585,-20.88037109375,2.66259765625,17.35693359375
0.159,-18.83837890625,-1.66162109375,19.55908203125
0.1595,-16.59619140625,-5.58544921875,21.28076171875
0.16,-14.03369140625,-8.70849609375,21.92138671875
0.1605,-10.43017578125,-12.03173828125,21.72119140625
0.161,-6.06591796875,-15.51513671875,21.08056640625
0.1615,-1.02099609375,-18.55810546875,19.23876953125
0.162,3.74365234375,-20.31982421875,16.55615234375
0.1625,6.90673828125,-21.16064453125,14.43408203125
0.163,10.31005859375,-21.64111328125,11.75146484375
0.1635,13.75341796875,-21.12060546875,8.06787109375
0.164,16.99658203125,-20.03955078125,3.90380859375
0.1645,19.51904296875,-17.95751953125,-0.66064453125
0.165,21.32080078125,-15.55517578125,-4.82470703125
0.1655,21.76123046875,-12.91259765625,-7.86767578125
0.166,21.92138671875,-9.70947265625,-11.35107421875
0.1665,21.36083984375,-5.62548828125,-14.91455078125
0.167,20.23974609375,-1.54150390625,-17.95751953125
0.1675,17.87744140625,2.86279296875,-19.87939453125
0.168,15.67529296875,6.18603515625,-21.12060546875
0.1685,12.91259765625,9.46923828125,-21.72119140625
0.169,8.94873046875,12.91259765625,-21.32080078125
0.1695,4.50439453125,16.27587890625,-20.27978515625
0.17,-0.54052734375,18.91845703125,-18.23779296875
0.1705,-4.86474609375,20.64013671875,-15.83544921875
0.171,-7.82763671875,21.04052734375,-13.59326171875
0.1715,-11.11083984375,21.36083984375,-10.87060546875
0.172,-14.75439453125,20.64013671875,-6.70654296875
0.1725,-17.71728515625,19.27880859375,-2.50244140625
0.173,-19.87939453125,16.99658203125,1.94189453125
0.1735,-21.40087890625,14.75439453125,5.66552734375
0.174,-21.72119140625,11.91162109375,8.82861328125
0.1745,-21.76123046875,8.42822265625,12.43212890625
0.175,-21.00048828125,4.34423828125,15.75537109375
0.1755,-19.55908203125,0.10009765625,18.63818359375
0.176,-17.15673828125,-4.18408203125,20.47998046875
0.1765,-14.79443359375,-7.26708984375,21.28076171875
0.177,-12.11181640625,-10.51025390625,21.80126953125
0.1775,-7.50732421875,-14.27392578125,21.16064453125
0.178,-3.06298828125,-17.19677734375,19.75927734375
0.1785,1.78173828125,-19.35888671875,17.43701171875
0.179,5.74560546875,-20.96044921875,15.35498046875
0.1795,8.78857421875,-21.16064453125,12.75244140625
0.18,12.03173828125,-21.32080078125,9.90966796875
0.1805,15.75537109375,-20.52001953125,5.58544921875
0.181,18.59814453125,-18.71826171875,1.06103515625
0.1815,20.47998046875,-16.35595703125,-3.18310546875
0.182,21.52099609375,-14.07373046875,-6.54638671875
0.1825,21.80126953125,-11.07080078125,-9.86962890625
0.183,21.56103515625,-7.02685546875,-13.71337890625
0.1835,20.68017578125,-3.26318359375,-16.63623046875
0.184,18.83837890625,1.06103515625,-19.15869140625
0.1845,16.51611328125,5.10498046875,-20.88037109375
0.185,13.75341796875,8.14794921875,-21.20068359375
0.1855,10.95068359375,11.35107421875,-21.64111328125
0.186,5.82568359375,15.43505859375,-20.76025390625
0.1865,1.14111328125,18.15771484375,-18.99853515625
0.187,-3.34326171875,19.91943359375,-16.63623046875
0.1875,-6.86669921875,21.24072265625,-14.63427734375
0.188,-10.10986328125,21.32080078125,-11.67138671875
0.1885,-13.51318359375,21.08056640625,-8.30810546875
0.189,-16.83642578125,20.15966796875,-4.22412109375
0.1895,-19.51904296875,17.95751953125,0.66064453125
0.19,-21.16064453125,15.55517578125,4.66455078125
0.1905,-21.76123046875,12.95263671875,7.82763671875
0.191,-22.12158203125,9.98974609375,11.15087890625
0.1915,-21.48095703125,5.38525390625,15.23486328125
