wavelength,x,y,z
0.0,-20.374877929688,13.378051757812,6.0909423828125
0.0005,-20.374877929688,10.134887695312,9.2139892578125
0.001,-20.174682617188,6.3712158203125,12.857543945312
0.0015,-19.494018554688,2.5675048828125,15.980590820312
0.002,-17.652221679688,-1.5965576171875,18.382934570312
0.0025,-15.570190429688,-4.8797607421875,19.624145507812
0.003,-13.127807617188,-8.0028076171875,20.344848632812
0.0035,-10.084838867188,-11.085815429688,20.464965820312
0.004,-4.9598388671875,-15.009643554688,19.383911132812
0.0045,-0.6356201171875,-17.452026367188,17.742309570312
0.005,3.2882080078125,-19.173706054688,15.820434570312
0.0055,6.4512939453125,-20.214721679688,13.938598632812
0.006,9.7745361328125,-20.134643554688,10.735473632812
0.0065,12.937622070312,-19.894409179688,7.5323486328125
0.007,16.180786132812,-18.933471679688,3.4884033203125
0.0075,18.543090820312,-16.771362304688,-0.9959716796875
0.008,19.704223632812,-14.889526367188,-3.9989013671875
0.0085,20.424926757812,-12.527221679688,-7.1219482421875
0.009,20.384887695312,-9.4842529296875,-10.164916992188
0.0095,19.864379882812,-5.2000732421875,-14.008666992188
0.01,18.823364257812,-1.4764404296875,-16.651245117188
0.0105,17.021606445312,2.4874267578125,-18.653198242188
0.011,14.899536132812,5.6905517578125,-19.934448242188
0.0115,11.816528320312,8.8936767578125,-20.054565429688
0.012,8.5333251953125,12.176879882812,-20.214721679688
0.0125,3.7686767578125,15.740356445312,-19.133666992188
0.013,-0.9959716796875,17.982543945312,-16.931518554688
0.0135,-4.1590576171875,19.303833007812,-15.249877929688
0.014,-7.4022216796875,20.224731445312,-13.207885742188
0.0145,-10.605346679688,20.064575195312,-10.004760742188
0.015,-14.128784179688,19.463989257812,-6.0408935546875
0.0155,-16.971557617188,18.262817382812,-2.1571044921875
0.016,-19.093627929688,16.100708007812,2.0469970703125
0.0165,-20.014526367188,14.098754882812,4.9698486328125
0.017,-20.454956054688,11.215942382812,8.2530517578125
0.0175,-20.454956054688,8.0528564453125,11.376098632812
0.018,-19.854370117188,3.8087158203125,15.139770507812
0.0185,-18.212768554688,-0.2352294921875,17.542114257812
0.019,-16.370971679688,-3.7987060546875,19.263793945312
0.0195,-14.248901367188,-6.9617919921875,20.424926757812
0.02,-10.845581054688,-10.164916992188,20.264770507812
0.0205,-6.9617919921875,-13.568237304688,19.904418945312
0.021,-2.3572998046875,-16.731323242188,18.703247070312
0.0215,2.4073486328125,-18.813354492188,16.300903320312
0.022,5.3702392578125,-19.814331054688,14.499145507812
0.0225,8.6534423828125,-20.414916992188,12.096801757812
0.023,11.816528320312,-20.214721679688,8.8936767578125
0.0235,15.380004882812,-19.293823242188,4.6094970703125
0.024,17.942504882812,-17.652221679688,0.5655517578125
0.0245,19.744262695312,-15.690307617188,-3.2781982421875
0.025,20.464965820312,-13.448120117188,-6.2410888671875
0.0255,20.545043945312,-10.244995117188,-9.6444091796875
0.026,20.384887695312,-6.7215576171875,-12.967651367188
0.0265,19.664184570312,-2.5975341796875,-16.290893554688
0.027,17.622192382812,1.6065673828125,-18.493041992188
0.0275,15.660278320312,4.8497314453125,-19.814331054688
0.028,13.177856445312,8.1729736328125,-20.695190429688
0.0285,9.5343017578125,11.496215820312,-20.494995117188
0.029,5.0899658203125,14.979614257812,-19.694213867188
0.0295,0.6055908203125,17.742309570312,-18.132690429688
0.03,-3.7987060546875,19.584106445312,-15.890502929688
0.0305,-6.6815185546875,20.264770507812,-13.928588867188
0.031,-10.124877929688,20.545043945312,-11.005737304688
0.0315,-13.448120117188,20.184692382812,-7.4422607421875
0.032,-16.771362304688,19.063598632812,-3.1981201171875
0.0325,-19.013549804688,16.941528320312,1.1260986328125
0.033,-20.494995117188,14.979614257812,4.5294189453125
0.0335,-21.055541992188,12.417114257812,7.6524658203125
0.034,-21.015502929688,8.9737548828125,11.095825195312
0.0345,-20.494995117188,5.0499267578125,14.579223632812
0.035,-19.453979492188,0.9659423828125,17.622192382812
0.0355,-17.291870117188,-3.2381591796875,19.624145507812
0.036,-15.129760742188,-6.2811279296875,20.505004882812
0.0365,-12.327026367188,-9.6043701171875,21.105590820312
0.037,-8.3231201171875,-13.087768554688,20.745239257812
0.0375,-3.5985107421875,-16.370971679688,19.463989257812
0.038,1.0460205078125,-18.573120117188,17.381958007812
0.0385,4.8897705078125,-20.254760742188,15.380004882812
0.039,7.8927001953125,-20.735229492188,13.057739257812
0.0395,11.215942382812,-20.695190429688,10.014770507812
0.04,14.699340820312,-20.134643554688,6.0509033203125
0.0405,17.662231445312,-18.733276367188,1.7667236328125
0.041,19.704223632812,-16.531127929688,-2.5174560546875
0.0415,20.745239257812,-14.449096679688,-5.4803466796875
0.042,21.185668945312,-11.526245117188,-8.8035888671875
0.0425,20.985473632812,-7.8026123046875,-12.327026367188
0.043,20.224731445312,-3.8787841796875,-15.530151367188
0.0435,18.703247070312,0.2452392578125,-18.132690429688
0.044,16.661254882812,4.2091064453125,-20.094604492188
0.0445,14.098754882812,7.2120361328125,-20.655151367188
0.045,11.095825195312,10.495239257812,-20.975463867188
0.0455,6.7315673828125,14.218872070312,-20.454956054688
0.046,2.0469970703125,17.261840820312,-19.013549804688
0.0465,-2.4373779296875,19.143676757812,-16.651245117188
0.047,-5.7606201171875,20.464965820312,-14.889526367188
0.0475,-9.0037841796875,20.785278320312,-12.246948242188
0.048,-12.367065429688,20.505004882812,-8.8436279296875
0.0485,-15.770385742188,19.744262695312,-4.8397216796875
0.049,-18.573120117188,17.942504882812,-0.4354248046875
0.0495,-20.374877929688,15.740356445312,3.6485595703125
0.05,-21.015502929688,13.418090820312,6.5313720703125
0.0505,-21.335815429688,10.455200195312,9.9346923828125
0.051,-21.015502929688,6.3311767578125,13.738403320312
0.0515,-20.054565429688,2.3673095703125,16.781372070312
0.052,-18.092651367188,-1.7166748046875,18.903442382812
0.0525,-16.170776367188,-5.4403076171875,20.745239257812
0.053,-13.328002929688,-8.4832763671875,21.065551757812
0.0535,-9.9647216796875,-11.806518554688,21.065551757812
0.054,-5.5203857421875,-15.369995117188,20.304809570312
0.0545,-0.5155029296875,-18.252807617188,18.422973632812
0.055,3.7686767578125,-19.894409179688,16.140747070312
0.0555,6.7716064453125,-20.815307617188,14.218872070312
0.056,10.214965820312,-21.135620117188,11.376098632812
0.0565,13.778442382812,-20.575073242188,7.3721923828125
0.057,16.821411132812,-19.574096679688,3.4884033203125
0.0575,19.263793945312,-17.612182617188,-0.9959716796875
0.058,20.985473632812,-15.410034179688,-4.6795654296875
0.0585,21.185668945312,-12.687377929688,-7.7225341796875
0.059,21.465942382812,-9.5643310546875,-11.045776367188
0.0595,20.905395507812,-5.2801513671875,-14.849487304688
0.06,19.704223632812,-1.1160888671875,-17.852416992188
0.0605,17.462036132812,2.9278564453125,-19.614135742188
0.061,15.500122070312,6.3311767578125,-21.095581054688
0.0615,12.296997070312,9.6544189453125,-21.335815429688
0.062,8.1729736328125,13.297973632812,-20.975463867188
0.0625,3.9688720703125,16.461059570312,-20.014526367188
0.063,-1.1561279296875,19.063598632812,-17.892456054688
0.0635,-5.0799560546875,20.625122070312,-15.690307617188
0.064,-8.1229248046875,21.065551757812,-13.328002929688
0.0645,-11.446166992188,21.345825195312,-10.565307617188
0.065,-15.410034179688,20.464965820312,-5.9207763671875
0.0655,-18.252807617188,18.983520507812,-1.7166748046875
0.066,-20.214721679688,16.901489257812,2.4073486328125
0.0665,-21.736206054688,14.739379882812,5.9708251953125
0.067,-21.776245117188,11.536254882812,9.2139892578125
0.0675,-21.776245117188,7.9727783203125,12.857543945312
0.068,-21.135620117188,3.8487548828125,16.340942382812
0.0685,-19.494018554688,-0.7156982421875,19.223754882812
0.069,-17.051635742188,-4.6795654296875,20.825317382812
0.0695,-14.769409179688,-7.8426513671875,21.786254882812
0.07,-11.646362304688,-11.245971679688,22.106567382812
0.0705,-6.5614013671875,-15.249877929688,21.265747070312
0.071,-2.1971435546875,-18.092651367188,19.864379882812
0.0715,2.6876220703125,-20.254760742188,17.502075195312
0.072,6.4512939453125,-21.736206054688,15.380004882812
0.0725,9.7745361328125,-21.776245117188,12.296997070312
0.073,13.057739257812,-21.856323242188,9.3341064453125
0.0735,16.941528320312,-20.855346679688,4.6094970703125
0.074,19.824340820312,-18.773315429688,-0.1951904296875
0.0745,21.345825195312,-16.531127929688,-3.9588623046875
0.075,22.426879882812,-14.128784179688,-7.3621826171875
0.0755,22.426879882812,-10.765502929688,-10.765502929688
0.076,22.026489257812,-6.4012451171875,-14.809448242188
0.0765,21.105590820312,-2.5174560546875,-17.772338867188
0.077,19.103637695312,2.0469970703125,-20.334838867188
0.0775,16.661254882812,6.0108642578125,-21.856323242188
0.078,13.538208007812,9.2540283203125,-22.096557617188
0.0785,10.455200195312,12.617309570312,-22.456909179688
0.079,4.8497314453125,16.781372070312,-21.255737304688
0.0795,0.0450439453125,19.463989257812,-19.293823242188
0.08,-4.1990966796875,21.105590820312,-17.011596679688
0.0805,-7.8826904296875,22.386840820312,-14.889526367188
0.081,-11.446166992188,22.066528320312,-11.286010742188
0.0815,-14.889526367188,21.706176757812,-7.6024169921875
0.082,-18.372924804688,20.625122070312,-3.1981201171875
0.0825,-20.975463867188,18.182739257812,1.8468017578125
0.083,-22.256713867188,15.820434570312,5.4102783203125
0.0835,-22.857299804688,12.937622070312,8.8135986328125
0.084,-22.897338867188,9.6544189453125,12.176879882812
0.0845,-22.136596679688,4.7296142578125,16.461059570312
0.085,-20.655151367188,0.6055908203125,19.143676757812
0.0855,-18.533081054688,-3.6785888671875,21.265747070312
0.086,-16.170776367188,-7.4422607421875,22.747192382812
0.0865,-12.407104492188,-10.885620117188,22.466918945312
0.087,-8.9637451171875,-14.208862304688,22.466918945312
0.0875,-3.5985107421875,-18.012573242188,21.145629882812
0.088,1.8067626953125,-20.494995117188,18.543090820312
0.0885,5.4903564453125,-21.816284179688,16.300903320312
0.089,9.0538330078125,-22.697143554688,13.938598632812
0.0895,12.537231445312,-22.456909179688,10.375122070312
0.09,16.421020507812,-21.415893554688,5.7305908203125
0.0905,19.343872070312,-20.014526367188,1.5665283203125
0.091,21.546020507812,-17.572143554688,-3.0780029296875
0.0915,22.546997070312,-15.169799804688,-6.4813232421875
0.092,22.667114257812,-11.766479492188,-10.044799804688
0.0925,22.707153320312,-8.5233154296875,-13.287963867188
0.093,21.826293945312,-3.7186279296875,-17.331909179688
0.0935,19.864379882812,0.8858642578125,-19.894409179688
0.094,17.582153320312,4.7296142578125,-21.455932617188
0.0945,15.219848632812,8.3331298828125,-22.777221679688
0.095,11.255981445312,11.816528320312,-22.456909179688
0.0955,6.8516845703125,15.540161132812,-21.896362304688
0.096,2.2071533203125,18.703247070312,-20.615112304688
0.0965,-3.1981201171875,21.025512695312,-17.892456054688
0.097,-6.6014404296875,22.026489257812,-15.690307617188
0.0975,-10.204956054688,22.426879882812,-12.807495117188
0.098,-13.608276367188,22.346801757812,-9.5242919921875
0.0985,-17.572143554688,21.065551757812,-4.4393310546875
0.099,-20.254760742188,19.143676757812,0.1651611328125
0.0995,-22.016479492188,16.781372070312,4.2091064453125
0.1,-22.977416992188,14.298950195312,7.6124267578125
0.1005,-22.777221679688,10.535278320312,11.215942382812
0.101,-22.536987304688,6.7315673828125,14.779418945312
0.1015,-21.656127929688,2.2872314453125,18.342895507812
0.102,-19.293823242188,-2.4373779296875,20.785278320312
0.1025,-16.851440429688,-6.0809326171875,22.026489257812
0.103,-14.288940429688,-9.5643310546875,23.027465820312
0.1035,-10.445190429688,-13.007690429688,22.707153320312
0.104,-5.1199951171875,-16.971557617188,21.505981445312
0.1045,-0.4754638671875,-19.734252929688,19.784301757812
0.105,4.3692626953125,-21.736206054688,17.301879882812
0.1055,7.7725830078125,-22.577026367188,14.939575195312
0.106,11.536254882812,-22.496948242188,11.456176757812
0.1065,14.859497070312,-22.176635742188,8.0528564453125
0.107,18.503051757812,-20.815307617188,3.1680908203125
0.1075,20.985473632812,-18.412963867188,-1.7166748046875
0.108,22.266723632812,-16.170776367188,-5.2401123046875
0.1085,23.027465820312,-13.408081054688,-8.6834716796875
0.109,22.707153320312,-9.6444091796875,-12.206909179688
0.1095,22.066528320312,-5.2801513671875,-15.970581054688
0.11,20.865356445312,-1.0760498046875,-18.973510742188
0.1105,18.543090820312,3.5684814453125,-21.255737304688
0.111,15.980590820312,7.0518798828125,-22.216674804688
0.1115,12.777465820312,10.615356445312,-22.657104492188
0.112,8.9337158203125,14.138793945312,-22.456909179688
0.1125,3.5284423828125,17.862426757812,-21.015502929688
0.113,-1.4764404296875,20.264770507812,-18.733276367188
0.1135,-5.4403076171875,21.826293945312,-16.651245117188
0.114,-8.8836669921875,22.546997070312,-14.088745117188
0.1145,-12.567260742188,22.266723632812,-10.405151367188
0.115,-16.090698242188,21.626098632812,-6.4012451171875
0.1155,-19.373901367188,20.144653320312,-1.7967529296875
0.116,-21.616088867188,17.542114257812,3.0479736328125
0.1165,-22.536987304688,15.179809570312,6.2911376953125
0.117,-23.057495117188,12.096801757812,9.9346923828125
0.1175,-22.777221679688,8.2530517578125,13.498168945312
0.118,-21.856323242188,3.6485595703125,17.261840820312
0.1185,-20.174682617188,-0.6756591796875,19.864379882812
0.119,-17.932495117188,-4.9598388671875,21.946411132812
0.1195,-15.249877929688,-8.3231201171875,22.707153320312
0.12,-11.566284179688,-11.846557617188,22.667114257812
0.1205,-7.4022216796875,-15.490112304688,22.266723632812
0.121,-2.0770263671875,-18.933471679688,20.545043945312
0.1215,3.0079345703125,-21.015502929688,17.822387695312
0.122,6.4112548828125,-22.096557617188,15.820434570312
0.1225,9.9747314453125,-22.657104492188,13.097778320312
0.123,13.578247070312,-22.136596679688,9.2139892578125
0.1235,17.101684570312,-21.175659179688,4.9298095703125
0.124,19.944458007812,-19.373901367188,0.3653564453125
0.1245,21.906372070312,-16.931518554688,-4.1590576171875
0.125,22.466918945312,-14.409057617188,-7.2020263671875
0.1255,22.707153320312,-10.965698242188,-10.845581054688
0.126,22.306762695312,-7.0018310546875,-14.449096679688
0.1265,21.305786132812,-2.5574951171875,-17.932495117188
0.127,19.103637695312,1.8868408203125,-20.094604492188
0.1275,17.021606445312,5.6104736328125,-21.776245117188
0.128,14.138793945312,9.0137939453125,-22.456909179688
0.1285,10.174926757812,12.497192382812,-22.136596679688
0.129,5.7706298828125,16.060668945312,-21.415893554688
0.1295,0.7257080078125,19.183715820312,-19.614135742188
0.13,-3.9989013671875,21.025512695312,-17.051635742188
0.1305,-7.0819091796875,21.786254882812,-14.929565429688
0.131,-10.685424804688,22.106567382812,-11.966674804688
0.1315,-14.288940429688,21.465942382812,-7.9627685546875
0.132,-17.572143554688,20.344848632812,-3.5985107421875
0.1325,-19.934448242188,18.182739257812,0.8057861328125
0.133,-21.696166992188,15.940551757812,4.7696533203125
0.1335,-22.056518554688,13.177856445312,7.8526611328125
0.134,-22.096557617188,9.6944580078125,11.376098632812
0.1345,-21.576049804688,5.6104736328125,15.019653320312
0.135,-20.454956054688,1.2862548828125,18.222778320312
0.1355,-18.132690429688,-3.0379638671875,20.184692382812
0.136,-16.050659179688,-6.2811279296875,21.385864257812
0.1365,-13.207885742188,-9.6444091796875,22.026489257812
0.137,-8.9637451171875,-13.247924804688,21.505981445312
0.1375,-4.4393310546875,-16.491088867188,20.384887695312
0.138,0.4454345703125,-19.053588867188,18.382934570312
0.1385,4.6495361328125,-20.815307617188,16.180786132812
0.139,7.6124267578125,-21.215698242188,13.818481445312
0.1395,10.975708007812,-21.455932617188,10.935668945312
0.14,14.739379882812,-20.775268554688,6.7716064453125
0.1405,17.742309570312,-19.373901367188,2.4874267578125
0.141,19.824340820312,-17.251831054688,-1.7567138671875
0.1415,21.145629882812,-15.209838867188,-5.0799560546875
0.142,21.505981445312,-12.327026367188,-8.3231201171875
0.1425,21.385864257812,-8.6434326171875,-11.926635742188
0.143,20.785278320312,-4.7596435546875,-15.249877929688
0.1435,19.423950195312,-0.5155029296875,-18.092651367188
0.144,17.221801757812,3.6485595703125,-20.054565429688
0.1445,14.859497070312,6.6114501953125,-20.815307617188
0.145,12.016723632812,9.9346923828125,-21.375854492188
0.1455,7.4522705078125,13.778442382812,-20.815307617188
0.146,3.0079345703125,16.821411132812,-19.534057617188
0.1465,-1.5565185546875,18.943481445312,-17.331909179688
0.147,-5.2000732421875,20.545043945312,-15.530151367188
0.1475,-8.3231201171875,20.785278320312,-12.847534179688
0.148,-11.686401367188,20.785278320312,-9.6844482421875
0.1485,-15.289916992188,20.144653320312,-5.6405029296875
0.149,-18.172729492188,18.422973632812,-1.2362060546875
0.1495,-19.974487304688,16.260864257812,2.8077392578125
0.15,-20.895385742188,14.098754882812,5.8106689453125
0.1505,-21.295776367188,11.175903320312,9.1739501953125
0.151,-21.015502929688,7.0518798828125,13.017700195312
0.1515,-20.254760742188,3.2882080078125,16.060668945312
0.152,-18.573120117188,-0.7957763671875,18.463012695312
0.1525,-16.611206054688,-4.7196044921875,20.384887695312
0.153,-13.968627929688,-7.7225341796875,20.785278320312
0.1535,-10.925659179688,-10.925659179688,21.105590820312
0.154,-6.2811279296875,-14.729370117188,20.424926757812
0.1545,-1.4364013671875,-17.652221679688,18.703247070312
0.155,2.7276611328125,-19.333862304688,16.501098632812
0.1555,6.0108642578125,-20.615112304688,14.739379882812
0.156,9.2540283203125,-20.855346679688,11.896606445312
0.1565,12.857543945312,-20.374877929688,8.1329345703125
0.157,15.980590820312,-19.694213867188,4.4493408203125
0.1575,18.543090820312,-17.772338867188,0.0850830078125
0.158,20.264770507812,-15.650268554688,-3.7987060546875
0.1585,20.665161132812,-13.127807617188,-6.7215576171875
0.159,21.025512695312,-10.285034179688,-9.9647216796875
0.1595,20.545043945312,-5.9207763671875,-13.848510742188
0.16,19.504028320312,-2.0369873046875,-16.811401367188
0.1605,17.582153320312,1.8468017578125,-18.653198242188
0.161,15.740356445312,5.3702392578125,-20.374877929688
0.1615,12.697387695312,8.4532470703125,-20.575073242188
0.162,9.0938720703125,11.896606445312,-20.494995117188
0.1625,4.9698486328125,15.259887695312,-19.774291992188
0.163,0.0050048828125,17.942504882812,-17.772338867188
0.1635,-3.8387451171875,19.463989257812,-15.690307617188
0.164,-6.7615966796875,20.184692382812,-13.728393554688
0.1645,-10.004760742188,20.505004882812,-11.045776367188
0.165,-13.808471679688,19.744262695312,-6.6815185546875
0.1655,-16.531127929688,18.623168945312,-2.9578857421875
0.166,-18.613159179688,16.701293945312,1.0059814453125
0.1665,-20.214721679688,14.779418945312,4.4893798828125
0.167,-20.374877929688,11.976684570312,7.4122314453125
0.1675,-20.575073242188,8.8936767578125,10.775512695312
0.168,-20.174682617188,4.8096923828125,14.379028320312
0.1685,-18.773315429688,0.6856689453125,17.221801757812
0.169,-16.771362304688,-3.0379638671875,18.823364257812
0.1695,-14.929565429688,-6.0809326171875,20.104614257812
0.17,-12.126831054688,-9.1639404296875,20.464965820312
0.1705,-7.7225341796875,-12.847534179688,19.904418945312
0.171,-3.7586669921875,-15.690307617188,18.943481445312
0.1715,0.8858642578125,-18.012573242188,16.941528320312
0.172,4.4493408203125,-19.534057617188,15.099731445312
0.1725,7.2921142578125,-19.814331054688,12.737426757812
0.173,10.375122070312,-20.174682617188,10.214965820312
0.1735,14.218872070312,-19.413940429688,5.8106689453125
0.174,16.861450195312,-17.892456054688,1.7667236328125
0.1745,18.583129882812,-16.050659179688,-1.7967529296875
0.175,19.904418945312,-14.128784179688,-4.8797607421875
0.1755,19.984497070312,-11.286010742188,-7.9627685546875
0.176,19.904418945312,-7.5623779296875,-11.606323242188
0.1765,19.504028320312,-4.1190185546875,-14.649291992188
0.177,17.942504882812,0.0050048828125,-17.251831054688
0.1775,16.020629882812,3.5684814453125,-18.933471679688
0.178,13.698364257812,6.5313720703125,-19.534057617188
