wavelength,x,y,z
0.0,18.352905273438,-23.207641601562,-1.0260009765625
0.0005,21.475952148438,-21.285766601562,-5.6304931640625
0.001,22.997436523438,-18.563110351562,-9.1138916015625
0.0015,24.198608398438,-15.159790039062,-12.917602539062
0.002,23.838256835938,-10.995727539062,-15.560180664062
0.0025,23.117553710938,-6.6715087890625,-18.082641601562
0.003,22.076538085938,-3.4683837890625,-19.163696289062
0.0035,19.674194335938,2.0169677734375,-20.805297851562
0.004,17.351928710938,6.5413818359375,-21.966430664062
0.0045,12.387084960938,11.346069335938,-20.805297851562
0.005,9.4241943359375,15.069702148438,-20.765258789062
0.0055,4.6595458984375,18.112670898438,-18.362915039062
0.006,0.2552490234375,20.635131835938,-15.920532226562
0.0065,-4.3092041015625,22.396850585938,-12.637329101562
0.007,-9.4742431640625,24.358764648438,-9.0338134765625
0.0075,-13.398071289062,23.357788085938,-4.1890869140625
0.008,-17.041625976562,23.517944335938,-0.7857666015625
0.0085,-19.243774414062,22.036499023438,2.6976318359375
0.009,-22.126586914062,19.874389648438,7.1019287109375
0.0095,-23.407836914062,16.951538085938,10.585327148438
0.01,-23.968383789062,12.707397460938,14.389038085938
0.0105,-23.848266601562,9.2640380859375,16.711303710938
0.011,-22.807250976562,4.8197021484375,18.953491210938
0.0115,-21.485961914062,1.4163818359375,19.874389648438
0.012,-19.243774414062,-3.4283447265625,21.195678710938
0.0125,-16.521118164062,-8.4732666015625,22.316772460938
0.013,-11.396118164062,-12.757446289062,20.675170898438
0.0135,-8.5933837890625,-16.200805664062,20.555053710938
0.014,-3.9488525390625,-18.763305664062,17.912475585938
0.0145,0.8157958984375,-21.485961914062,15.349975585938
0.015,4.8197021484375,-22.767211914062,12.146850585938
0.0155,10.265014648438,-24.368774414062,8.0228271484375
0.016,13.548217773438,-23.487915039062,3.8988037109375
0.0165,17.311889648438,-23.407836914062,0.2152099609375
0.017,19.273803710938,-21.766235351562,-3.1881103515625
0.0175,21.956420898438,-19.684204101562,-7.3521728515625
0.018,23.197631835938,-16.521118164062,-10.875610351562
0.0185,23.117553710938,-11.996704101562,-14.278930664062
0.019,23.357788085938,-9.2340087890625,-16.360961914062
0.0195,21.796264648438,-4.5093994140625,-18.402954101562
0.02,20.314819335938,-0.6656494140625,-19.564086914062
0.0205,18.152709960938,3.8187255859375,-20.645141601562
0.021,14.749389648438,9.2640380859375,-21.646118164062
0.0215,9.9447021484375,13.027709960938,-19.844360351562
0.022,6.9818115234375,16.511108398438,-19.564086914062
0.0225,2.4974365234375,18.713256835938,-16.641235351562
0.023,-2.3072509765625,21.596069335938,-14.158813476562
0.0235,-6.3912353515625,22.557006835938,-10.635375976562
0.024,-11.796508789062,23.718139648438,-6.2711181640625
0.0245,-14.719360351562,22.997436523438,-2.7877197265625
0.025,-18.322875976562,22.356811523438,1.3363037109375
0.0255,-20.284790039062,20.474975585938,4.7796630859375
0.026,-22.607055664062,18.352905273438,8.6634521484375
0.0265,-23.608032226562,14.589233398438,12.547241210938
0.027,-23.167602539062,9.9046630859375,15.750366210938
0.0275,-23.527954101562,7.3421630859375,17.632202148438
0.028,-21.526000976562,2.4173583984375,19.353881835938
0.0285,-20.044555664062,-1.7066650390625,20.755249023438
0.029,-17.562133789062,-5.8306884765625,21.275756835938
0.0295,-13.718383789062,-11.516235351562,22.076538085938
0.03,-9.0738525390625,-14.759399414062,19.994506835938
0.0305,-5.6705322265625,-18.202758789062,19.273803710938
0.031,-0.9459228515625,-20.164672851562,15.950561523438
0.0315,3.5384521484375,-22.807250976562,13.588256835938
0.032,7.9827880859375,-23.247680664062,9.3441162109375
0.0325,12.827514648438,-24.048461914062,5.1400146484375
0.033,15.590209960938,-23.567993164062,1.9368896484375
0.0335,19.073608398438,-22.086547851562,-2.6275634765625
0.034,20.955444335938,-20.044555664062,-6.0308837890625
0.0345,22.757202148438,-17.722290039062,-9.4342041015625
0.035,23.517944335938,-13.718383789062,-13.317993164062
0.0355,22.677124023438,-9.1939697265625,-15.920532226562
0.036,22.917358398438,-6.5914306640625,-17.722290039062
0.0365,20.354858398438,-1.5465087890625,-19.083618164062
0.037,18.953491210938,2.5775146484375,-20.525024414062
0.0375,15.670288085938,6.8216552734375,-20.484985351562
0.038,11.866577148438,12.106811523438,-20.965454101562
0.0385,7.7025146484375,15.029663085938,-19.043579101562
0.039,3.7786865234375,18.312866210938,-17.682250976562
0.0395,-0.6256103515625,19.994506835938,-14.479125976562
0.04,-4.7896728515625,22.396850585938,-12.196899414062
0.0405,-9.5543212890625,22.637084960938,-7.5523681640625
0.041,-13.758422851562,22.797241210938,-3.5484619140625
0.0415,-16.401000976562,22.717163085938,-0.8258056640625
0.042,-19.484008789062,20.675170898438,3.8587646484375
0.0425,-21.325805664062,18.793334960938,7.1820068359375
0.043,-22.446899414062,15.910522460938,10.425170898438
0.0435,-23.327758789062,11.906616210938,14.308959960938
0.044,-22.366821289062,7.6224365234375,16.631225585938
0.0445,-22.446899414062,4.8197021484375,18.432983398438
0.045,-19.964477539062,0.0550537109375,19.594116210938
0.0455,-18.763305664062,-3.9488525390625,21.195678710938
0.046,-14.759399414062,-8.3931884765625,20.515014648438
0.0465,-11.075805664062,-13.157836914062,20.795288085938
0.047,-7.3922119140625,-15.960571289062,19.233764648438
0.0475,-2.7076416015625,-19.163696289062,17.111694335938
0.048,1.4163818359375,-20.765258789062,14.148803710938
0.0485,5.5804443359375,-22.807250976562,11.546264648438
0.049,10.345092773438,-23.127563476562,6.9818115234375
0.0495,14.148803710938,-22.847290039062,2.8978271484375
0.05,16.911499023438,-22.807250976562,0.2952880859375
0.0505,19.794311523438,-20.484985351562,-4.4693603515625
0.051,21.716186523438,-18.563110351562,-7.7525634765625
0.0515,22.276733398438,-15.079711914062,-11.035766601562
0.052,23.117553710938,-11.476196289062,-14.479125976562
0.0525,21.996459960938,-7.3121337890625,-16.521118164062
0.053,21.435913085938,-3.8287353515625,-18.322875976562
0.0535,19.033569335938,0.8157958984375,-19.403930664062
0.054,17.472045898438,5.1800537109375,-21.085571289062
0.0545,12.827514648438,9.6644287109375,-20.004516601562
0.055,9.2640380859375,13.948608398438,-19.884399414062
0.0555,5.8607177734375,16.511108398438,-18.362915039062
0.056,0.6956787109375,19.594116210938,-15.680297851562
0.0565,-3.2681884765625,21.115600585938,-12.797485351562
0.057,-7.8726806640625,22.677124023438,-9.3541259765625
0.0575,-12.236938476562,22.957397460938,-5.3101806640625
0.058,-15.760375976562,22.276733398438,-1.1461181640625
0.0585,-18.242797851562,21.756225585938,1.7767333984375
0.059,-20.845336914062,19.353881835938,6.2611083984375
0.0595,-22.767211914062,17.031616210938,9.7445068359375
0.06,-22.567016601562,12.707397460938,13.027709960938
0.0605,-23.407836914062,9.5042724609375,16.030639648438
0.061,-22.126586914062,5.4202880859375,17.792358398438
0.0615,-21.005493164062,1.4564208984375,19.514038085938
0.062,-18.723266601562,-2.8677978515625,20.354858398438
0.0625,-16.441040039062,-7.7125244140625,21.676147460938
0.063,-11.756469726562,-11.836547851562,20.354858398438
0.0635,-8.0728759765625,-15.720336914062,19.834350585938
0.064,-4.7095947265625,-17.922485351562,17.952514648438
0.0645,0.6956787109375,-20.885375976562,15.029663085938
0.065,4.5794677734375,-22.286743164062,12.106811523438
0.0655,9.4642333984375,-23.167602539062,7.8226318359375
0.066,13.067749023438,-23.487915039062,4.5394287109375
0.0665,16.511108398438,-22.486938476562,0.2952880859375
0.067,18.833374023438,-21.445922851562,-2.8277587890625
0.0675,21.075561523438,-19.043579101562,-6.9117431640625
0.068,22.917358398438,-16.441040039062,-10.515258789062
0.0685,22.116577148438,-11.876586914062,-13.438110351562
0.069,22.877319335938,-8.9937744140625,-16.080688476562
0.0695,21.395874023438,-5.0699462890625,-17.482055664062
0.07,19.914428710938,-0.6256103515625,-19.243774414062
0.0705,17.672241210938,3.4984130859375,-19.964477539062
0.071,14.469116210938,8.6634521484375,-20.805297851562
0.0715,10.425170898438,12.307006835938,-19.684204101562
0.072,6.5413818359375,15.990600585938,-18.723266601562
0.0725,3.2181396484375,17.792358398438,-16.641235351562
0.073,-1.9468994140625,20.555053710938,-13.798461914062
0.0735,-6.1109619140625,22.076538085938,-10.795532226562
0.074,-10.875610351562,22.436889648438,-6.1109619140625
0.0745,-14.078735351562,22.917358398438,-3.3482666015625
0.075,-17.321899414062,21.636108398438,0.9759521484375
0.0755,-19.604125976562,20.274780273438,4.2991943359375
0.076,-21.526000976562,17.872436523438,7.9827880859375
0.0765,-23.127563476562,14.629272460938,12.026733398438
0.077,-22.286743164062,10.104858398438,14.749389648438
0.0775,-22.927368164062,7.1820068359375,17.231811523438
0.078,-21.245727539062,3.4583740234375,18.272827148438
0.0785,-19.804321289062,-1.2261962890625,20.194702148438
0.079,-17.321899414062,-5.3101806640625,20.755249023438
0.0795,-13.438110351562,-10.635375976562,21.115600585938
0.08,-9.8746337890625,-13.838500976562,20.154663085938
0.0805,-5.6304931640625,-17.522094726562,18.713256835938
0.081,-1.7867431640625,-19.283813476562,16.110717773438
0.0815,2.8577880859375,-21.846313476562,13.468139648438
0.082,7.7025146484375,-23.207641601562,9.7445068359375
0.0825,12.026733398438,-22.967407226562,5.1800537109375
0.083,15.149780273438,-23.527954101562,2.5775146484375
0.0835,18.152709960938,-21.726196289062,-1.9468994140625
0.084,20.635131835938,-20.124633789062,-5.5103759765625
0.0845,22.036499023438,-17.522094726562,-8.8336181640625
0.085,23.397827148438,-13.838500976562,-12.997680664062
0.0855,22.396850585938,-9.5943603515625,-15.239868164062
0.086,22.597045898438,-6.3912353515625,-17.642211914062
0.0865,20.394897460938,-2.1871337890625,-18.523071289062
0.087,18.913452148438,2.4173583984375,-20.364868164062
0.0875,15.670288085938,7.0218505859375,-20.645141601562
0.088,11.426147460938,12.026733398438,-20.525024414062
0.0885,8.3031005859375,14.829467773438,-19.644165039062
0.089,3.6185302734375,18.232788085938,-17.562133789062
0.0895,-0.5054931640625,20.074584960938,-14.759399414062
0.09,-4.6695556640625,22.076538085938,-12.036743164062
0.0905,-10.074829101562,23.397827148438,-7.7525634765625
0.091,-13.798461914062,22.557006835938,-3.2681884765625
0.0915,-16.841430664062,23.117553710938,-0.7457275390625
0.092,-19.524047851562,20.715209960938,3.9388427734375
0.0925,-21.926391601562,18.953491210938,7.5423583984375
0.093,-22.687133789062,15.750366210938,10.785522460938
0.0935,-23.768188476562,11.706420898438,14.869506835938
0.094,-22.807250976562,7.8226318359375,16.751342773438
0.0945,-22.567016601562,4.1790771484375,19.033569335938
0.095,-20.164672851562,-0.1051025390625,19.794311523438
0.0955,-18.763305664062,-4.3892822265625,21.395874023438
0.096,-14.759399414062,-9.2740478515625,21.235717773438
0.0965,-10.395141601562,-13.838500976562,20.555053710938
0.097,-7.6324462890625,-16.601196289062,19.874389648438
0.0975,-2.2672119140625,-19.684204101562,16.951538085938
0.098,1.9368896484375,-21.526000976562,14.188842773438
0.0985,5.9007568359375,-22.927368164062,11.185913085938
0.099,11.225952148438,-24.168579101562,6.9017333984375
0.0995,14.549194335938,-22.927368164062,2.5374755859375
0.1,17.752319335938,-23.247680664062,-0.2652587890625
0.1005,20.194702148438,-20.605102539062,-4.8297119140625
0.101,22.476928710938,-18.803344726562,-8.3531494140625
0.1015,22.717163085938,-15.039672851562,-11.516235351562
0.102,23.517944335938,-11.155883789062,-15.199829101562
0.1025,22.597045898438,-7.5924072265625,-16.841430664062
0.103,21.636108398438,-3.2281494140625,-19.003540039062
0.1035,19.233764648438,1.0960693359375,-19.764282226562
0.104,17.472045898438,5.4202880859375,-21.165649414062
0.1045,13.187866210938,10.425170898438,-20.805297851562
0.105,8.8236083984375,14.469116210938,-19.644165039062
0.1055,6.1009521484375,17.071655273438,-19.083618164062
0.106,0.4954833984375,19.994506835938,-15.680297851562
0.1065,-3.6285400390625,21.956420898438,-13.077758789062
0.107,-7.9527587890625,22.757202148438,-9.2340087890625
0.1075,-12.837524414062,23.918334960938,-5.3902587890625
0.108,-15.960571289062,22.557006835938,-1.1060791015625
0.1085,-19.043579101562,22.276733398438,2.2171630859375
0.109,-21.205688476562,19.514038085938,6.5013427734375
0.1095,-23.407836914062,17.432006835938,10.144897460938
0.11,-23.087524414062,12.907592773438,13.388061523438
0.1105,-23.768188476562,9.1439208984375,16.711303710938
0.111,-22.967407226562,5.9007568359375,18.112670898438
0.1115,-21.405883789062,1.1361083984375,20.154663085938
0.112,-19.083618164062,-3.1480712890625,20.875366210938
0.1125,-16.601196289062,-7.7125244140625,21.916381835938
0.113,-12.437133789062,-12.477172851562,21.275756835938
0.1135,-7.7926025390625,-16.200805664062,19.874389648438
0.114,-4.8297119140625,-18.643188476562,18.633178710938
0.1145,0.9759521484375,-21.365844726562,15.109741210938
0.115,5.0999755859375,-23.367797851562,12.467163085938
0.1155,9.7445068359375,-23.447875976562,7.7025146484375
0.116,13.868530273438,-24.488891601562,4.5394287109375
0.1165,17.031616210938,-23.127563476562,0.2552490234375
0.117,19.954467773438,-22.086547851562,-3.4283447265625
0.1175,21.916381835938,-19.283813476562,-7.5123291015625
0.118,23.918334960938,-16.841430664062,-11.195922851562
0.1185,23.117553710938,-12.196899414062,-14.118774414062
0.119,23.557983398438,-8.5533447265625,-17.041625976562
0.1195,22.476928710938,-5.2701416015625,-18.202758789062
0.12,20.474975585938,0.0150146484375,-20.164672851562
0.1205,18.072631835938,4.2191162109375,-20.885375976562
0.121,14.509155273438,9.2239990234375,-21.285766601562
0.1215,10.825561523438,13.267944335938,-20.805297851562
0.122,6.1409912109375,16.871459960938,-19.083618164062
0.1225,2.8177490234375,19.193725585938,-17.201782226562
0.123,-2.6676025390625,21.636108398438,-13.758422851562
0.1235,-7.0718994140625,23.638061523438,-10.875610351562
0.124,-11.796508789062,23.197631835938,-5.7105712890625
0.1245,-15.400024414062,23.958374023438,-2.8277587890625
0.125,-18.322875976562,22.516967773438,1.3363037109375
0.1255,-21.085571289062,20.995483398438,5.2200927734375
0.126,-22.647094726562,18.072631835938,8.9837646484375
0.1265,-24.288696289062,14.829467773438,12.987670898438
0.127,-23.487915039062,10.305053710938,15.710327148438
0.1275,-23.567993164062,6.5814208984375,18.392944335938
0.128,-22.286743164062,3.2982177734375,19.273803710938
0.1285,-20.204711914062,-1.9468994140625,21.115600585938
0.129,-17.722290039062,-6.3912353515625,21.796264648438
0.1295,-13.277954101562,-11.436157226562,21.435913085938
0.13,-10.114868164062,-14.919555664062,21.075561523438
0.1305,-5.2701416015625,-18.362915039062,18.953491210938
0.131,-1.2662353515625,-20.525024414062,16.591186523438
0.1315,3.5384521484375,-22.567016601562,13.348022460938
0.132,8.5433349609375,-24.448852539062,9.8646240234375
0.1325,12.747436523438,-23.608032226562,4.8597412109375
0.133,16.230834960938,-24.208618164062,1.9368896484375
0.1335,18.913452148438,-22.446899414062,-2.1871337890625
0.134,21.676147460938,-20.645141601562,-6.2310791015625
0.1345,22.837280273438,-17.722290039062,-9.5543212890625
0.135,23.998413085938,-13.918579101562,-13.598266601562
0.1355,23.317749023438,-9.9947509765625,-15.840454101562
0.136,22.917358398438,-5.9508056640625,-18.282836914062
0.1365,21.155639648438,-2.3072509765625,-19.123657226562
0.137,19.193725585938,2.5775146484375,-20.765258789062
0.1375,16.150756835938,7.3822021484375,-21.485961914062
0.138,11.306030273438,12.186889648438,-20.525024414062
0.1385,8.5833740234375,15.390014648438,-20.204711914062
0.139,3.6585693359375,18.553100585938,-17.682250976562
0.1395,-0.6656494140625,20.795288085938,-15.119750976562
0.14,-4.8297119140625,22.276733398438,-12.036743164062
0.1405,-10.315063476562,24.038452148438,-7.9927978515625
0.141,-13.838500976562,22.957397460938,-3.4283447265625
0.1415,-17.442016601562,23.357788085938,-0.3052978515625
0.142,-19.724243164062,21.275756835938,3.7386474609375
0.1425,-22.366821289062,19.393920898438,7.6624755859375
0.143,-23.127563476562,16.070678710938,10.985717773438
0.1435,-23.808227539062,11.746459960938,14.949584960938
0.144,-23.447875976562,8.4632568359375,16.951538085938
0.1445,-22.687133789062,4.0989990234375,19.233764648438
0.145,-20.765258789062,0.2152099609375,20.074584960938
0.1455,-18.883422851562,-4.2291259765625,21.315795898438
0.146,-15.359985351562,-9.4742431640625,21.916381835938
0.1465,-10.435180664062,-13.718383789062,20.555053710938
0.147,-7.7525634765625,-16.841430664062,20.314819335938
0.1475,-2.5074462890625,-19.684204101562,17.191772460938
0.148,1.9368896484375,-22.046508789062,14.669311523438
0.1485,5.8206787109375,-22.967407226562,11.265991210938
0.149,11.386108398438,-24.448852539062,7.0618896484375
0.1495,14.469116210938,-23.287719726562,2.8577880859375
0.15,18.192749023438,-23.367797851562,-0.6256103515625
0.1505,20.234741210938,-21.005493164062,-4.5894775390625
0.151,22.597045898438,-19.083618164062,-8.2730712890625
0.1515,23.077514648438,-15.400024414062,-11.636352539062
0.152,23.317749023438,-10.995727539062,-15.199829101562
0.1525,23.157592773438,-8.1129150390625,-16.921508789062
0.153,21.556030273438,-3.2281494140625,-19.083618164062
0.1535,19.674194335938,0.7757568359375,-20.004516601562
0.154,17.472045898438,5.0198974609375,-20.925415039062
0.1545,13.548217773438,10.465209960938,-21.285766601562
0.155,8.7835693359375,14.228881835938,-19.604125976562
0.1555,5.9407958984375,17.432006835938,-19.163696289062
0.156,0.7357177734375,19.754272460938,-15.720336914062
0.1565,-3.5484619140625,22.156616210938,-13.398071289062
0.157,-7.6324462890625,22.557006835938,-9.3541259765625
0.1575,-12.797485351562,23.758178710938,-5.2701416015625
0.158,-15.640258789062,22.757202148438,-1.5865478515625
0.1585,-19.163696289062,22.076538085938,2.4173583984375
0.159,-21.005493164062,19.754272460938,6.1009521484375
0.1595,-23.007446289062,17.552124023438,9.6644287109375
0.16,-23.247680664062,13.348022460938,13.187866210938
0.1605,-23.127563476562,8.9837646484375,16.390991210938
0.161,-23.167602539062,6.3411865234375,17.992553710938
0.1615,-21.125610351562,1.2161865234375,19.834350585938
0.162,-19.323852539062,-2.7076416015625,20.875366210938
0.1625,-16.601196289062,-6.9117431640625,21.155639648438
0.163,-12.757446289062,-12.076782226562,21.475952148438
0.1635,-8.1129150390625,-15.440063476562,19.594116210938
0.164,-4.7095947265625,-18.643188476562,18.633178710938
0.1645,0.3753662109375,-20.685180664062,15.109741210938
0.165,4.4593505859375,-23.047485351562,12.907592773438
0.1655,8.8636474609375,-22.967407226562,8.2230224609375
0.166,13.388061523438,-23.808227539062,4.4993896484375
0.1665,16.230834960938,-23.167602539062,1.1361083984375
0.167,19.514038085938,-21.726196289062,-3.2681884765625
0.1675,21.275756835938,-19.363891601562,-6.8717041015625
0.168,22.917358398438,-16.921508789062,-10.194946289062
0.1685,23.077514648438,-12.757446289062,-13.598266601562
0.169,22.597045898438,-8.5533447265625,-16.360961914062
0.1695,22.476928710938,-5.7906494140625,-17.922485351562
0.17,19.994506835938,-0.5855712890625,-19.484008789062
0.1705,18.432983398438,3.4984130859375,-20.725219726562
0.171,14.589233398438,7.9827880859375,-20.364868164062
0.1715,11.145874023438,12.627319335938,-20.645141601562
0.172,6.7415771484375,15.750366210938,-18.723266601562
0.1725,2.8577880859375,18.793334960938,-17.121704101562
0.173,-1.9468994140625,20.635131835938,-13.798461914062
0.1735,-6.0709228515625,22.877319335938,-11.356079101562
0.174,-10.595336914062,22.557006835938,-6.3912353515625
0.1745,-14.599243164062,22.917358398438,-2.7877197265625
0.175,-17.241821289062,22.396850585938,0.2952880859375
0.1755,-20.244750976562,20.434936523438,4.8197021484375
0.176,-21.926391601562,18.032592773438,8.2630615234375
0.1765,-22.927368164062,14.749389648438,11.706420898438
0.177,-23.167602539062,10.865600585938,14.869506835938
0.1775,-22.446899414062,6.6614990234375,17.311889648438
0.178,-22.046508789062,3.6986083984375,18.713256835938
