wavelength,x,y,z
0.0,-1.411376953125,-3.413330078125,4.274169921875
0.0005,-0.770751953125,-3.853759765625,3.993896484375
0.001,-0.170166015625,-4.334228515625,3.873779296875
0.0015,0.710693359375,-4.494384765625,3.233154296875
0.002,1.591552734375,-4.694580078125,2.552490234375
0.0025,2.552490234375,-4.814697265625,1.751708984375
0.003,3.393310546875,-4.974853515625,1.071044921875
0.0035,3.593505859375,-4.414306640625,0.350341796875
0.004,4.033935546875,-4.454345703125,-0.090087890625
0.0045,3.993896484375,-3.533447265625,-0.970947265625
0.005,4.154052734375,-3.052978515625,-1.611572265625
0.0055,4.314208984375,-2.092041015625,-2.692626953125
0.006,4.154052734375,-1.331298828125,-3.173095703125
0.0065,3.713623046875,-0.450439453125,-3.653564453125
0.007,3.353271484375,0.270263671875,-3.973876953125
0.0075,2.512451171875,1.271240234375,-4.093994140625
0.008,2.072021484375,2.031982421875,-4.334228515625
0.0085,1.111083984375,3.032958984375,-4.454345703125
0.009,0.270263671875,3.393310546875,-3.973876953125
0.0095,-0.290283203125,3.913818359375,-3.893798828125
0.01,-1.411376953125,4.114013671875,-2.972900390625
0.0105,-2.252197265625,4.354248046875,-2.412353515625
0.011,-3.173095703125,4.354248046875,-1.451416015625
0.0115,-3.853759765625,4.394287109375,-0.850830078125
0.012,-4.093994140625,3.873779296875,-0.130126953125
0.0125,-4.374267578125,3.713623046875,0.350341796875
0.013,-4.374267578125,2.712646484375,1.311279296875
0.0135,-4.494384765625,2.192138671875,1.951904296875
0.014,-4.614501953125,1.311279296875,2.912841796875
0.0145,-4.214111328125,0.510498046875,3.273193359375
0.015,-3.973876953125,-0.290283203125,3.793701171875
0.0155,-3.333251953125,-1.010986328125,3.873779296875
0.016,-2.572509765625,-1.971923828125,4.033935546875
0.0165,-1.931884765625,-2.772705078125,4.114013671875
0.017,-1.251220703125,-3.573486328125,4.194091796875
0.0175,-0.450439453125,-3.813720703125,3.713623046875
0.018,0.070068359375,-4.334228515625,3.673583984375
0.0185,1.271240234375,-4.374267578125,2.592529296875
0.019,1.951904296875,-4.694580078125,2.192138671875
0.0195,2.872802734375,-4.734619140625,1.311279296875
0.02,3.353271484375,-4.574462890625,0.750732421875
0.0205,3.593505859375,-4.254150390625,0.150146484375
0.021,3.833740234375,-3.893798828125,-0.370361328125
0.0215,3.913818359375,-3.093017578125,-1.291259765625
0.022,3.993896484375,-2.452392578125,-1.971923828125
0.0225,4.194091796875,-1.731689453125,-2.892822265625
0.023,3.553466796875,-0.810791015625,-3.173095703125
0.0235,3.513427734375,-0.210205078125,-3.693603515625
0.024,2.672607421875,0.790771484375,-3.773681640625
0.0245,2.232177734375,1.551513671875,-4.093994140625
0.025,1.351318359375,2.392333984375,-4.134033203125
0.0255,0.710693359375,3.113037109375,-4.134033203125
0.026,0.030029296875,3.353271484375,-3.653564453125
0.0265,-0.610595703125,3.873779296875,-3.533447265625
0.027,-1.811767578125,3.953857421875,-2.412353515625
0.0275,-2.532470703125,4.194091796875,-1.971923828125
0.028,-3.453369140625,4.234130859375,-1.131103515625
0.0285,-3.733642578125,3.913818359375,-0.570556640625
0.029,-4.093994140625,3.713623046875,0.030029296875
0.0295,-4.134033203125,3.072998046875,0.670654296875
0.03,-4.334228515625,2.432373046875,1.591552734375
0.0305,-4.294189453125,1.631591796875,2.272216796875
0.031,-4.494384765625,0.990966796875,3.072998046875
0.0315,-3.773681640625,0.070068359375,3.273193359375
0.032,-3.773681640625,-0.490478515625,3.753662109375
0.0325,-2.732666015625,-1.531494140625,3.753662109375
0.033,-2.372314453125,-2.252197265625,4.033935546875
0.0335,-1.531494140625,-3.052978515625,3.993896484375
0.034,-0.890869140625,-3.533447265625,3.913818359375
0.0345,-0.250244140625,-3.853759765625,3.513427734375
0.035,0.550537109375,-4.174072265625,3.113037109375
0.0355,1.631591796875,-4.414306640625,2.272216796875
0.036,2.312255859375,-4.494384765625,1.671630859375
0.0365,3.072998046875,-4.614501953125,1.031005859375
0.037,3.233154296875,-4.174072265625,0.470458984375
0.0375,3.633544921875,-4.134033203125,0.030029296875
0.038,3.673583984375,-3.253173828125,-0.850830078125
0.0385,3.913818359375,-2.812744140625,-1.611572265625
0.039,3.873779296875,-1.931884765625,-2.372314453125
0.0395,3.913818359375,-1.371337890625,-2.932861328125
0.04,3.233154296875,-0.450439453125,-3.213134765625
0.0405,3.193115234375,0.070068359375,-3.693603515625
0.041,2.192138671875,1.231201171875,-3.813720703125
0.0415,1.831787109375,1.951904296875,-4.053955078125
0.042,0.990966796875,2.712646484375,-4.013916015625
0.0425,0.350341796875,3.153076171875,-3.773681640625
0.043,-0.290283203125,3.553466796875,-3.533447265625
0.0435,-1.251220703125,3.793701171875,-2.852783203125
0.044,-2.252197265625,4.033935546875,-2.132080078125
0.0445,-2.892822265625,3.993896484375,-1.451416015625
0.045,-3.573486328125,4.154052734375,-0.890869140625
0.0455,-3.693603515625,3.553466796875,-0.210205078125
0.046,-4.053955078125,3.473388671875,0.270263671875
0.0465,-4.093994140625,2.512451171875,1.231201171875
0.047,-4.334228515625,2.072021484375,1.911865234375
0.0475,-4.254150390625,1.191162109375,2.672607421875
0.048,-4.093994140625,0.510498046875,3.113037109375
0.0485,-3.533447265625,-0.330322265625,3.393310546875
0.049,-3.333251953125,-1.051025390625,3.793701171875
0.0495,-2.372314453125,-2.052001953125,3.913818359375
0.05,-1.851806640625,-2.652587890625,3.993896484375
0.0505,-1.131103515625,-3.453369140625,3.993896484375
0.051,-0.490478515625,-3.693603515625,3.593505859375
0.0515,0.190185546875,-4.134033203125,3.393310546875
0.052,1.311279296875,-4.334228515625,2.472412109375
0.0525,2.232177734375,-4.614501953125,1.911865234375
0.053,2.832763671875,-4.494384765625,1.151123046875
0.0535,3.393310546875,-4.534423828125,0.670654296875
0.054,3.513427734375,-3.973876953125,0.030029296875
0.0545,3.793701171875,-3.733642578125,-0.530517578125
0.055,3.873779296875,-2.812744140625,-1.611572265625
0.0555,3.993896484375,-2.212158203125,-2.252197265625
0.056,3.953857421875,-1.411376953125,-3.052978515625
0.0565,3.513427734375,-0.650634765625,-3.333251953125
0.057,3.072998046875,0.150146484375,-3.693603515625
0.0575,2.472412109375,1.031005859375,-3.853759765625
0.058,1.791748046875,2.072021484375,-4.134033203125
0.0585,1.031005859375,2.632568359375,-3.973876953125
0.059,0.430419921875,3.353271484375,-4.013916015625
0.0595,-0.370361328125,3.513427734375,-3.413330078125
0.06,-1.010986328125,3.913818359375,-3.173095703125
0.0605,-2.292236328125,4.033935546875,-2.092041015625
0.061,-3.052978515625,4.234130859375,-1.491455078125
0.0615,-3.613525390625,3.993896484375,-0.690673828125
0.062,-3.973876953125,3.873779296875,-0.210205078125
0.0625,-4.053955078125,3.273193359375,0.470458984375
0.063,-4.174072265625,2.832763671875,1.031005859375
0.0635,-4.414306640625,1.951904296875,2.072021484375
0.064,-4.294189453125,1.231201171875,2.592529296875
0.0645,-4.294189453125,0.510498046875,3.353271484375
0.065,-3.693603515625,-0.370361328125,3.553466796875
0.0655,-3.373291015625,-0.970947265625,3.873779296875
0.066,-2.492431640625,-1.971923828125,3.953857421875
0.0665,-1.891845703125,-2.852783203125,4.194091796875
0.067,-1.131103515625,-3.373291015625,3.913818359375
0.0675,-0.570556640625,-4.013916015625,3.993896484375
0.068,0.310302734375,-4.134033203125,3.313232421875
0.0685,0.990966796875,-4.494384765625,2.952880859375
0.069,2.312255859375,-4.734619140625,1.911865234375
0.0695,2.952880859375,-4.734619140625,1.311279296875
0.07,3.553466796875,-4.614501953125,0.590576171875
0.0705,3.793701171875,-4.294189453125,0.030029296875
0.071,3.953857421875,-3.813720703125,-0.610595703125
0.0715,3.993896484375,-3.052978515625,-1.451416015625
0.072,4.354248046875,-2.372314453125,-2.532470703125
0.0725,3.953857421875,-1.411376953125,-3.012939453125
0.073,3.993896484375,-0.770751953125,-3.773681640625
0.0735,3.153076171875,0.310302734375,-3.813720703125
0.074,2.872802734375,0.990966796875,-4.134033203125
0.0745,1.871826171875,2.152099609375,-4.294189453125
0.075,1.151123046875,2.952880859375,-4.414306640625
0.0755,0.310302734375,3.473388671875,-4.013916015625
0.076,-0.290283203125,3.993896484375,-3.973876953125
0.0765,-1.251220703125,4.073974609375,-3.133056640625
0.077,-2.052001953125,4.354248046875,-2.532470703125
0.0775,-3.453369140625,4.594482421875,-1.451416015625
0.078,-3.853759765625,4.274169921875,-0.650634765625
0.0785,-4.414306640625,4.154052734375,-0.050048828125
0.079,-4.494384765625,3.553466796875,0.630615234375
0.0795,-4.574462890625,2.992919921875,1.231201171875
0.08,-4.574462890625,1.991943359375,2.112060546875
0.0805,-4.814697265625,1.271240234375,3.072998046875
0.081,-4.214111328125,0.270263671875,3.433349609375
0.0815,-4.174072265625,-0.290283203125,4.033935546875
0.082,-3.213134765625,-1.251220703125,3.993896484375
0.0825,-2.852783203125,-1.931884765625,4.234130859375
0.083,-1.811767578125,-3.093017578125,4.354248046875
0.0835,-1.131103515625,-3.693603515625,4.234130859375
0.084,-0.370361328125,-4.174072265625,3.993896484375
0.0845,0.310302734375,-4.494384765625,3.673583984375
0.085,1.231201171875,-4.654541015625,2.872802734375
0.0855,2.112060546875,-4.854736328125,2.232177734375
0.086,3.313232421875,-5.135009765625,1.311279296875
0.0865,3.673583984375,-4.654541015625,0.510498046875
0.087,4.154052734375,-4.734619140625,0.030029296875
0.0875,4.194091796875,-3.933837890625,-0.770751953125
0.088,4.394287109375,-3.493408203125,-1.411376953125
0.0885,4.474365234375,-2.452392578125,-2.532470703125
0.089,4.554443359375,-1.691650390625,-3.373291015625
0.0895,3.953857421875,-0.610595703125,-3.773681640625
0.09,3.873779296875,0.070068359375,-4.294189453125
0.0905,2.832763671875,1.151123046875,-4.294189453125
0.091,2.312255859375,1.911865234375,-4.494384765625
0.0915,1.271240234375,3.193115234375,-4.694580078125
0.092,0.390380859375,3.713623046875,-4.334228515625
0.0925,-0.330322265625,4.194091796875,-4.134033203125
0.093,-1.251220703125,4.514404296875,-3.533447265625
0.0935,-2.252197265625,4.554443359375,-2.612548828125
0.094,-3.173095703125,4.674560546875,-1.771728515625
0.0945,-4.294189453125,4.834716796875,-0.890869140625
0.095,-4.494384765625,4.154052734375,0.030029296875
0.0955,-4.934814453125,4.114013671875,0.510498046875
0.096,-4.814697265625,2.992919921875,1.431396484375
0.0965,-4.894775390625,2.432373046875,2.072021484375
0.097,-4.894775390625,1.311279296875,3.072998046875
0.0975,-4.774658203125,0.590576171875,3.753662109375
0.098,-4.134033203125,-0.450439453125,4.033935546875
0.0985,-3.853759765625,-1.091064453125,4.434326171875
0.099,-2.772705078125,-2.092041015625,4.354248046875
0.0995,-2.212158203125,-2.812744140625,4.474365234375
0.1,-1.251220703125,-3.893798828125,4.554443359375
0.1005,-0.370361328125,-4.214111328125,4.033935546875
0.101,0.190185546875,-4.694580078125,3.913818359375
0.1015,1.231201171875,-4.854736328125,3.072998046875
0.102,2.072021484375,-4.974853515625,2.392333984375
0.1025,3.072998046875,-5.054931640625,1.471435546875
0.103,3.873779296875,-5.135009765625,0.790771484375
0.1035,4.033935546875,-4.534423828125,0.030029296875
0.104,4.434326171875,-4.494384765625,-0.490478515625
0.1045,4.354248046875,-3.493408203125,-1.451416015625
0.105,4.474365234375,-2.932861328125,-2.052001953125
0.1055,4.594482421875,-1.851806640625,-3.173095703125
0.106,4.274169921875,-1.010986328125,-3.693603515625
0.1065,3.833740234375,-0.050048828125,-4.134033203125
0.107,3.353271484375,0.710693359375,-4.374267578125
0.1075,2.392333984375,1.791748046875,-4.494384765625
0.108,1.751708984375,2.552490234375,-4.614501953125
0.1085,0.830810546875,3.633544921875,-4.694580078125
0.109,-0.130126953125,3.913818359375,-4.093994140625
0.1095,-0.690673828125,4.474365234375,-4.013916015625
0.11,-1.931884765625,4.554443359375,-2.892822265625
0.1105,-2.812744140625,4.754638671875,-2.252197265625
0.111,-3.813720703125,4.754638671875,-1.251220703125
0.1115,-4.494384765625,4.634521484375,-0.490478515625
0.112,-4.614501953125,3.913818359375,0.310302734375
0.1125,-4.934814453125,3.713623046875,0.790771484375
0.113,-4.894775390625,2.552490234375,1.911865234375
0.1135,-4.854736328125,1.951904296875,2.552490234375
0.114,-4.974853515625,0.990966796875,3.593505859375
0.1145,-4.374267578125,0.030029296875,3.913818359375
0.115,-4.013916015625,-0.770751953125,4.314208984375
0.1155,-3.253173828125,-1.611572265625,4.394287109375
0.116,-2.372314453125,-2.652587890625,4.514404296875
0.1165,-1.611572265625,-3.373291015625,4.434326171875
0.117,-0.770751953125,-4.214111328125,4.474365234375
0.1175,0.070068359375,-4.414306640625,3.793701171875
0.118,0.630615234375,-4.854736328125,3.673583984375
0.1185,1.911865234375,-4.894775390625,2.432373046875
0.119,2.592529296875,-5.014892578125,1.911865234375
0.1195,3.553466796875,-4.974853515625,0.950927734375
0.12,3.953857421875,-4.814697265625,0.310302734375
0.1205,4.114013671875,-4.294189453125,-0.330322265625
0.121,4.234130859375,-3.893798828125,-0.970947265625
0.1215,4.354248046875,-2.892822265625,-1.931884765625
0.122,4.314208984375,-2.212158203125,-2.532470703125
0.1225,4.514404296875,-1.411376953125,-3.533447265625
0.123,3.713623046875,-0.410400390625,-3.693603515625
0.1235,3.593505859375,0.270263671875,-4.174072265625
0.124,2.592529296875,1.311279296875,-4.214111328125
0.1245,2.031982421875,2.192138671875,-4.494384765625
0.125,1.151123046875,2.992919921875,-4.414306640625
0.1255,0.390380859375,3.753662109375,-4.414306640625
0.126,-0.490478515625,3.993896484375,-3.773681640625
0.1265,-1.131103515625,4.434326171875,-3.573486328125
0.127,-2.452392578125,4.514404296875,-2.332275390625
0.1275,-3.133056640625,4.634521484375,-1.771728515625
0.128,-4.053955078125,4.514404296875,-0.890869140625
0.1285,-4.374267578125,4.154052734375,-0.170166015625
0.129,-4.614501953125,3.753662109375,0.470458984375
0.1295,-4.694580078125,3.113037109375,1.231201171875
0.13,-4.854736328125,2.272216796875,2.272216796875
0.1305,-4.654541015625,1.431396484375,2.832763671875
0.131,-4.814697265625,0.630615234375,3.713623046875
0.1315,-3.973876953125,-0.370361328125,3.873779296875
0.132,-3.813720703125,-0.970947265625,4.314208984375
0.1325,-2.612548828125,-2.172119140625,4.274169921875
0.133,-2.092041015625,-2.932861328125,4.474365234375
0.1335,-1.171142578125,-3.653564453125,4.234130859375
0.134,-0.450439453125,-4.214111328125,4.114013671875
0.1345,0.310302734375,-4.414306640625,3.513427734375
0.135,1.111083984375,-4.734619140625,3.072998046875
0.1355,2.312255859375,-4.854736328125,1.991943359375
0.136,2.912841796875,-4.854736328125,1.351318359375
0.1365,3.713623046875,-4.894775390625,0.630615234375
0.137,3.833740234375,-4.374267578125,0.030029296875
0.1375,4.114013671875,-4.093994140625,-0.490478515625
0.138,4.073974609375,-3.173095703125,-1.371337890625
0.1385,4.314208984375,-2.572509765625,-2.212158203125
0.139,4.114013671875,-1.651611328125,-2.852783203125
0.1395,4.154052734375,-1.010986328125,-3.533447265625
0.14,3.273193359375,0.030029296875,-3.693603515625
0.1405,3.193115234375,0.550537109375,-4.093994140625
0.141,2.072021484375,1.791748046875,-4.134033203125
0.1415,1.631591796875,2.432373046875,-4.374267578125
0.142,0.710693359375,3.193115234375,-4.214111328125
0.1425,0.030029296875,3.673583984375,-3.973876953125
0.143,-0.690673828125,3.953857421875,-3.533447265625
0.1435,-1.651611328125,4.194091796875,-2.852783203125
0.144,-2.812744140625,4.474365234375,-1.971923828125
0.1445,-3.333251953125,4.314208984375,-1.291259765625
0.145,-4.134033203125,4.354248046875,-0.610595703125
0.1455,-4.214111328125,3.713623046875,0.150146484375
0.146,-4.494384765625,3.553466796875,0.630615234375
0.1465,-4.534423828125,2.432373046875,1.671630859375
0.147,-4.734619140625,1.911865234375,2.432373046875
0.1475,-4.494384765625,0.950927734375,3.153076171875
0.148,-4.334228515625,0.270263671875,3.673583984375
0.1485,-3.573486328125,-0.690673828125,3.873779296875
0.149,-3.293212890625,-1.331298828125,4.154052734375
0.1495,-2.252197265625,-2.532470703125,4.234130859375
0.15,-1.651611328125,-3.093017578125,4.194091796875
0.1505,-0.890869140625,-3.853759765625,4.154052734375
0.151,-0.130126953125,-4.134033203125,3.713623046875
0.1515,0.590576171875,-4.454345703125,3.353271484375
0.152,1.631591796875,-4.614501953125,2.432373046875
0.1525,2.632568359375,-4.934814453125,1.631591796875
0.153,3.113037109375,-4.654541015625,0.950927734375
0.1535,3.713623046875,-4.614501953125,0.470458984375
0.154,3.713623046875,-3.973876953125,-0.290283203125
0.1545,3.953857421875,-3.693603515625,-0.730712890625
0.155,4.033935546875,-2.692626953125,-1.851806640625
0.1555,4.114013671875,-2.132080078125,-2.412353515625
0.156,3.953857421875,-1.251220703125,-3.173095703125
0.1565,3.593505859375,-0.490478515625,-3.493408203125
0.157,3.072998046875,0.350341796875,-3.773681640625
0.1575,2.552490234375,1.111083984375,-3.933837890625
0.158,1.791748046875,2.192138671875,-4.254150390625
0.1585,1.111083984375,2.632568359375,-4.053955078125
0.159,0.470458984375,3.393310546875,-4.134033203125
0.1595,-0.370361328125,3.553466796875,-3.493408203125
0.16,-1.010986328125,3.953857421875,-3.253173828125
0.1605,-2.252197265625,4.073974609375,-2.212158203125
0.161,-3.052978515625,4.314208984375,-1.611572265625
0.1615,-3.573486328125,4.033935546875,-0.810791015625
0.162,-4.013916015625,3.993896484375,-0.330322265625
0.1625,-4.093994140625,3.353271484375,0.390380859375
0.163,-4.254150390625,2.992919921875,0.910888671875
0.1635,-4.494384765625,2.072021484375,2.072021484375
0.164,-4.414306640625,1.431396484375,2.552490234375
0.1645,-4.334228515625,0.630615234375,3.313232421875
0.165,-3.813720703125,-0.210205078125,3.553466796875
0.1655,-3.453369140625,-0.930908203125,3.873779296875
0.166,-2.612548828125,-1.811767578125,3.953857421875
0.1665,-1.971923828125,-2.732666015625,4.234130859375
0.167,-1.251220703125,-3.213134765625,3.913818359375
0.1675,-0.690673828125,-3.853759765625,3.993896484375
0.168,0.150146484375,-4.093994140625,3.273193359375
0.1685,0.830810546875,-4.454345703125,2.992919921875
0.169,2.072021484375,-4.654541015625,1.951904296875
0.1695,2.712646484375,-4.654541015625,1.391357421875
0.17,3.273193359375,-4.494384765625,0.670654296875
0.1705,3.553466796875,-4.214111328125,0.230224609375
0.171,3.713623046875,-3.773681640625,-0.450439453125
0.1715,3.793701171875,-3.133056640625,-1.131103515625
0.172,4.114013671875,-2.452392578125,-2.132080078125
0.1725,3.793701171875,-1.651611328125,-2.572509765625
0.173,3.873779296875,-1.010986328125,-3.253173828125
0.1735,3.113037109375,-0.090087890625,-3.373291015625
0.174,2.872802734375,0.550537109375,-3.813720703125
0.1745,1.991943359375,1.591552734375,-3.893798828125
0.175,1.471435546875,2.352294921875,-4.134033203125
0.1755,0.710693359375,2.872802734375,-3.813720703125
0.176,0.190185546875,3.353271484375,-3.853759765625
0.1765,-0.690673828125,3.513427734375,-3.173095703125
0.177,-1.411376953125,3.873779296875,-2.812744140625
0.1775,-2.652587890625,4.154052734375,-1.811767578125
0.178,-3.173095703125,4.033935546875,-1.211181640625
0.1785,-3.773681640625,3.993896484375,-0.610595703125
0.179,-3.853759765625,3.553466796875,0.030029296875
0.1795,-4.134033203125,3.153076171875,0.630615234375
0.18,-4.174072265625,2.392333984375,1.431396484375
0.1805,-4.494384765625,1.791748046875,2.352294921875
0.181,-4.093994140625,0.950927734375,2.752685546875
0.1815,-4.174072265625,0.350341796875,3.393310546875
0.182,-3.333251953125,-0.610595703125,3.513427734375
0.1825,-3.133056640625,-1.251220703125,3.873779296875
0.183,-2.172119140625,-2.372314453125,3.993896484375
0.1835,-1.651611328125,-2.932861328125,4.033935546875
0.184,-0.930908203125,-3.573486328125,3.873779296875
0.1845,-0.290283203125,-3.933837890625,3.633544921875
0.185,0.550537109375,-4.174072265625,2.992919921875
0.1855,1.431396484375,-4.414306640625,2.432373046875
0.186,2.552490234375,-4.694580078125,1.591552734375
0.1865,2.912841796875,-4.414306640625,0.950927734375
0.187,3.473388671875,-4.494384765625,0.550537109375
0.1875,3.513427734375,-3.853759765625,-0.170166015625
0.188,3.793701171875,-3.533447265625,-0.770751953125
