wavelength,x,y,z
0.0,5.02490234375,0.50048828125,-5.94580078125
0.0005,4.98486328125,-0.62060546875,-5.26513671875
0.001,4.86474609375,-1.78173828125,-4.18408203125
0.0015,4.86474609375,-3.02294921875,-3.26318359375
0.002,4.62451171875,-3.94384765625,-2.22216796875
0.0025,4.34423828125,-4.74462890625,-1.34130859375
0.003,3.82373046875,-5.22509765625,-0.46044921875
0.0035,2.86279296875,-5.54541015625,0.82080078125
0.004,1.82177734375,-5.94580078125,2.18212890625
0.0045,0.78076171875,-6.10595703125,3.38330078125
0.005,0.02001953125,-6.26611328125,4.34423828125
0.0055,-0.90087890625,-6.22607421875,5.06494140625
0.006,-2.02197265625,-5.50537109375,5.66552734375
0.0065,-3.38330078125,-4.42431640625,6.14599609375
0.007,-4.42431640625,-3.38330078125,6.42626953125
0.0075,-5.14501953125,-2.26220703125,6.34619140625
0.008,-5.50537109375,-1.42138671875,6.18603515625
0.0085,-5.62548828125,-0.58056640625,5.66552734375
0.009,-5.50537109375,0.66064453125,4.78466796875
0.0095,-5.42529296875,1.94189453125,3.66357421875
0.01,-5.26513671875,3.18310546875,2.54248046875
0.0105,-4.94482421875,4.10400390625,1.46142578125
0.011,-4.54443359375,4.74462890625,0.66064453125
0.0115,-3.70361328125,5.02490234375,-0.50048828125
0.012,-2.54248046875,5.34521484375,-1.94189453125
0.0125,-1.46142578125,5.74560546875,-3.30322265625
0.013,-0.38037109375,5.70556640625,-4.38427734375
0.0135,0.42041015625,5.74560546875,-5.18505859375
0.014,1.30126953125,5.42529296875,-5.82568359375
0.0145,2.62255859375,4.46435546875,-6.34619140625
0.015,3.90380859375,3.18310546875,-6.70654296875
0.0155,4.82470703125,2.06201171875,-6.78662109375
0.016,5.34521484375,0.98095703125,-6.50634765625
0.0165,5.54541015625,0.10009765625,-6.26611328125
0.017,5.46533203125,-1.02099609375,-5.42529296875
0.0175,5.22509765625,-2.34228515625,-4.22412109375
0.018,5.14501953125,-3.54345703125,-3.14306640625
0.0185,4.82470703125,-4.62451171875,-1.94189453125
0.019,4.46435546875,-5.38525390625,-0.98095703125
0.0195,3.86376953125,-5.86572265625,0.02001953125
0.02,2.82275390625,-6.06591796875,1.18115234375
0.0205,1.50146484375,-6.34619140625,2.70263671875
0.021,0.34033203125,-6.54638671875,4.10400390625
0.0215,-0.62060546875,-6.46630859375,4.94482421875
0.022,-1.30126953125,-6.42626953125,5.66552734375
0.0225,-2.42236328125,-5.74560546875,6.22607421875
0.023,-3.82373046875,-4.46435546875,6.62646484375
0.0235,-4.94482421875,-3.34326171875,6.90673828125
0.024,-5.70556640625,-2.06201171875,6.74658203125
0.0245,-6.06591796875,-1.14111328125,6.46630859375
0.025,-6.10595703125,-0.30029296875,5.94580078125
0.0255,-5.90576171875,0.90087890625,4.98486328125
0.026,-5.70556640625,2.34228515625,3.66357421875
0.0265,-5.50537109375,3.58349609375,2.50244140625
0.027,-5.10498046875,4.50439453125,1.34130859375
0.0275,-4.62451171875,5.10498046875,0.46044921875
0.028,-3.86376953125,5.42529296875,-0.66064453125
0.0285,-2.62255859375,5.66552734375,-1.98193359375
0.029,-1.34130859375,5.94580078125,-3.54345703125
0.0295,-0.14013671875,5.90576171875,-4.70458984375
0.03,0.70068359375,5.90576171875,-5.50537109375
0.0305,1.42138671875,5.66552734375,-6.14599609375
0.031,2.70263671875,4.70458984375,-6.62646484375
0.0315,4.10400390625,3.34326171875,-6.94677734375
0.032,5.06494140625,2.26220703125,-7.06689453125
0.0325,5.62548828125,0.98095703125,-6.78662109375
0.033,5.86572265625,0.10009765625,-6.50634765625
0.0335,5.74560546875,-0.98095703125,-5.78564453125
0.034,5.58544921875,-2.14208984375,-4.66455078125
0.0345,5.34521484375,-3.50341796875,-3.34326171875
0.035,5.06494140625,-4.66455078125,-2.10205078125
0.0355,4.62451171875,-5.46533203125,-1.06103515625
0.036,4.14404296875,-6.02587890625,-0.18017578125
0.0365,3.18310546875,-6.22607421875,0.98095703125
0.037,1.78173828125,-6.46630859375,2.50244140625
0.0375,0.62060546875,-6.70654296875,3.90380859375
0.038,-0.62060546875,-6.54638671875,4.94482421875
0.0385,-1.30126953125,-6.54638671875,5.66552734375
0.039,-2.18212890625,-6.10595703125,6.26611328125
0.0395,-3.50341796875,-4.98486328125,6.70654296875
0.04,-4.82470703125,-3.66357421875,6.98681640625
0.0405,-5.66552734375,-2.50244140625,6.98681640625
0.041,-6.10595703125,-1.34130859375,6.58642578125
0.0415,-6.26611328125,-0.58056640625,6.26611328125
0.042,-6.06591796875,0.62060546875,5.38525390625
0.0425,-5.82568359375,1.94189453125,4.10400390625
0.043,-5.62548828125,3.18310546875,2.94287109375
0.0435,-5.26513671875,4.30419921875,1.70166015625
0.044,-4.82470703125,4.98486328125,0.66064453125
0.0445,-4.22412109375,5.46533203125,-0.30029296875
0.045,-3.18310546875,5.66552734375,-1.46142578125
0.0455,-1.74169921875,5.90576171875,-3.06298828125
0.046,-0.62060546875,6.06591796875,-4.38427734375
0.0465,0.50048828125,5.90576171875,-5.26513671875
0.047,1.14111328125,5.86572265625,-5.98583984375
0.0475,2.26220703125,5.10498046875,-6.46630859375
0.048,3.58349609375,3.90380859375,-6.86669921875
0.0485,4.74462890625,2.70263671875,-7.10693359375
0.049,5.46533203125,1.42138671875,-6.98681640625
0.0495,5.78564453125,0.38037109375,-6.66650390625
0.05,5.86572265625,-0.50048828125,-6.14599609375
0.0505,5.62548828125,-1.58154296875,-5.18505859375
0.051,5.42529296875,-2.98291015625,-3.82373046875
0.0515,5.22509765625,-4.22412109375,-2.66259765625
0.052,4.82470703125,-5.18505859375,-1.46142578125
0.0525,4.34423828125,-5.82568359375,-0.58056640625
0.053,3.58349609375,-6.18603515625,0.54052734375
0.0535,2.42236328125,-6.38623046875,1.82177734375
0.054,1.10107421875,-6.66650390625,3.34326171875
0.0545,-0.22021484375,-6.62646484375,4.58447265625
0.055,-1.02099609375,-6.54638671875,5.42529296875
0.0555,-1.74169921875,-6.38623046875,6.06591796875
0.056,-2.98291015625,-5.46533203125,6.54638671875
0.0565,-4.42431640625,-4.14404296875,6.90673828125
0.057,-5.42529296875,-3.02294921875,7.06689453125
0.0575,-6.02587890625,-1.78173828125,6.74658203125
0.058,-6.26611328125,-0.82080078125,6.46630859375
0.0585,-6.18603515625,0.22021484375,5.78564453125
0.059,-6.02587890625,1.42138671875,4.70458984375
0.0595,-5.74560546875,2.78271484375,3.38330078125
0.06,-5.46533203125,3.98388671875,2.10205078125
0.0605,-4.98486328125,4.82470703125,0.98095703125
0.061,-4.50439453125,5.38525390625,0.14013671875
0.0615,-3.54345703125,5.58544921875,-1.02099609375
0.062,-2.18212890625,5.82568359375,-2.54248046875
0.0625,-0.98095703125,6.06591796875,-3.98388671875
0.063,0.26025390625,5.90576171875,-4.98486328125
0.0635,0.94091796875,5.86572265625,-5.74560546875
0.064,1.78173828125,5.42529296875,-6.26611328125
0.0645,3.06298828125,4.34423828125,-6.70654296875
0.065,4.34423828125,3.02294921875,-6.98681640625
0.0655,5.14501953125,1.86181640625,-7.02685546875
0.066,5.66552734375,0.78076171875,-6.66650390625
0.0665,5.78564453125,0.02001953125,-6.34619140625
0.067,5.62548828125,-1.14111328125,-5.46533203125
0.0675,5.38525390625,-2.42236328125,-4.26416015625
0.068,5.22509765625,-3.62353515625,-3.14306640625
0.0685,4.86474609375,-4.66455078125,-1.94189453125
0.069,4.46435546875,-5.42529296875,-0.94091796875
0.0695,3.90380859375,-5.90576171875,0.02001953125
0.07,2.90283203125,-6.10595703125,1.14111328125
0.0705,1.58154296875,-6.38623046875,2.58251953125
0.071,0.46044921875,-6.50634765625,3.90380859375
0.0715,-0.62060546875,-6.42626953125,4.82470703125
0.072,-1.26123046875,-6.42626953125,5.54541015625
0.0725,-2.22216796875,-5.86572265625,6.06591796875
0.073,-3.54345703125,-4.74462890625,6.46630859375
0.0735,-4.70458984375,-3.66357421875,6.74658203125
0.074,-5.42529296875,-2.42236328125,6.66650390625
0.0745,-5.86572265625,-1.38134765625,6.42626953125
0.075,-5.94580078125,-0.62060546875,6.02587890625
0.0755,-5.78564453125,0.50048828125,5.18505859375
0.076,-5.62548828125,1.78173828125,3.98388671875
0.0765,-5.46533203125,3.06298828125,2.86279296875
0.077,-5.10498046875,3.98388671875,1.78173828125
0.0775,-4.74462890625,4.74462890625,0.86083984375
0.078,-4.06396484375,5.14501953125,-0.22021484375
0.0785,-3.02294921875,5.42529296875,-1.42138671875
0.079,-1.86181640625,5.74560546875,-2.82275390625
0.0795,-0.66064453125,5.74560546875,-4.06396484375
0.08,0.26025390625,5.78564453125,-4.98486328125
0.0805,0.94091796875,5.62548828125,-5.62548828125
0.081,2.06201171875,4.86474609375,-6.14599609375
0.0815,3.38330078125,3.70361328125,-6.54638671875
0.082,4.42431640625,2.70263671875,-6.74658203125
0.0825,5.06494140625,1.54150390625,-6.54638671875
0.083,5.42529296875,0.62060546875,-6.38623046875
0.0835,5.42529296875,-0.30029296875,-5.78564453125
0.084,5.30517578125,-1.38134765625,-4.90478515625
0.0845,5.14501953125,-2.62255859375,-3.82373046875
0.085,4.94482421875,-3.82373046875,-2.62255859375
0.0855,4.58447265625,-4.70458984375,-1.62158203125
0.086,4.22412109375,-5.30517578125,-0.78076171875
0.0865,3.46337890625,-5.66552734375,0.30029296875
0.087,2.34228515625,-5.94580078125,1.58154296875
0.0875,1.26123046875,-6.26611328125,2.94287109375
0.088,0.18017578125,-6.26611328125,3.98388671875
0.0885,-0.62060546875,-6.38623046875,4.82470703125
0.089,-1.42138671875,-6.10595703125,5.46533203125
0.0895,-2.58251953125,-5.26513671875,5.94580078125
0.09,-3.82373046875,-4.14404296875,6.34619140625
0.0905,-4.78466796875,-3.06298828125,6.46630859375
0.091,-5.30517578125,-1.98193359375,6.26611328125
0.0915,-5.62548828125,-1.22119140625,6.10595703125
0.092,-5.54541015625,-0.30029296875,5.42529296875
0.0925,-5.42529296875,0.90087890625,4.50439453125
0.093,-5.38525390625,2.06201171875,3.54345703125
0.0935,-5.10498046875,3.14306640625,2.42236328125
0.094,-4.78466796875,3.98388671875,1.42138671875
0.0945,-4.38427734375,4.54443359375,0.62060546875
0.095,-3.54345703125,4.86474609375,-0.50048828125
0.0955,-2.50244140625,5.18505859375,-1.78173828125
0.096,-1.46142578125,5.50537109375,-3.06298828125
0.0965,-0.58056640625,5.46533203125,-4.06396484375
0.097,0.26025390625,5.58544921875,-4.86474609375
0.0975,1.14111328125,5.14501953125,-5.46533203125
0.098,2.34228515625,4.34423828125,-5.90576171875
0.0985,3.46337890625,3.34326171875,-6.34619140625
0.099,4.30419921875,2.26220703125,-6.34619140625
0.0995,4.82470703125,1.30126953125,-6.26611328125
0.1,5.06494140625,0.58056640625,-5.98583984375
0.1005,5.02490234375,-0.50048828125,-5.30517578125
0.101,4.90478515625,-1.58154296875,-4.34423828125
0.1015,4.86474609375,-2.74267578125,-3.42333984375
0.102,4.62451171875,-3.74365234375,-2.42236328125
0.1025,4.38427734375,-4.50439453125,-1.58154296875
0.103,3.86376953125,-5.06494140625,-0.66064453125
0.1035,3.06298828125,-5.42529296875,0.50048828125
0.104,2.10205078125,-5.78564453125,1.78173828125
0.1045,1.06103515625,-6.02587890625,2.94287109375
0.105,0.22021484375,-6.14599609375,3.90380859375
0.1055,-0.58056640625,-6.22607421875,4.62451171875
0.106,-1.58154296875,-5.62548828125,5.26513671875
0.1065,-2.82275390625,-4.70458984375,5.74560546875
0.107,-3.82373046875,-3.78369140625,6.10595703125
0.1075,-4.54443359375,-2.74267578125,6.06591796875
0.108,-5.06494140625,-1.94189453125,6.02587890625
0.1085,-5.18505859375,-1.14111328125,5.62548828125
0.109,-5.18505859375,-0.18017578125,4.98486328125
0.1095,-5.14501953125,1.02099609375,4.14404296875
0.11,-5.06494140625,2.18212890625,3.14306640625
0.1105,-4.82470703125,3.10302734375,2.18212890625
0.111,-4.62451171875,3.86376953125,1.38134765625
0.1115,-3.98388671875,4.30419921875,0.46044921875
0.112,-3.14306640625,4.66455078125,-0.82080078125
0.1125,-2.30224609375,5.10498046875,-1.98193359375
0.113,-1.26123046875,5.22509765625,-3.14306640625
0.1135,-0.62060546875,5.42529296875,-4.02392578125
0.114,0.30029296875,5.34521484375,-4.74462890625
0.1145,1.34130859375,4.78466796875,-5.30517578125
0.115,2.54248046875,3.86376953125,-5.74560546875
0.1155,3.50341796875,2.90283203125,-6.02587890625
0.116,4.14404296875,1.94189453125,-6.02587890625
0.1165,4.58447265625,1.26123046875,-5.98583984375
0.117,4.66455078125,0.38037109375,-5.50537109375
0.1175,4.66455078125,-0.70068359375,-4.74462890625
0.118,4.74462890625,-1.78173828125,-4.02392578125
0.1185,4.62451171875,-2.86279296875,-3.10302734375
0.119,4.46435546875,-3.74365234375,-2.18212890625
0.1195,4.14404296875,-4.50439453125,-1.42138671875
0.12,3.54345703125,-4.94482421875,-0.46044921875
0.1205,2.66259765625,-5.38525390625,0.82080078125
0.121,1.78173828125,-5.78564453125,2.06201171875
0.1215,0.90087890625,-5.94580078125,3.06298828125
0.122,0.22021484375,-6.10595703125,3.98388671875
0.1225,-0.78076171875,-5.86572265625,4.74462890625
0.123,-1.94189453125,-5.14501953125,5.26513671875
0.1235,-3.06298828125,-4.34423828125,5.74560546875
0.124,-3.98388671875,-3.34326171875,5.90576171875
0.1245,-4.62451171875,-2.42236328125,5.90576171875
0.125,-4.94482421875,-1.66162109375,5.78564453125
0.1255,-5.06494140625,-0.78076171875,5.26513671875
0.126,-5.06494140625,0.34033203125,4.46435546875
0.1265,-5.10498046875,1.50146484375,3.66357421875
0.127,-4.94482421875,2.50244140625,2.70263671875
0.1275,-4.78466796875,3.34326171875,1.90185546875
0.128,-4.30419921875,3.98388671875,0.98095703125
0.1285,-3.54345703125,4.38427734375,-0.18017578125
0.129,-2.74267578125,4.86474609375,-1.42138671875
0.1295,-1.78173828125,5.10498046875,-2.62255859375
0.13,-0.98095703125,5.38525390625,-3.62353515625
0.1305,-0.26025390625,5.46533203125,-4.46435546875
0.131,0.94091796875,5.02490234375,-5.10498046875
0.1315,2.14208984375,4.14404296875,-5.62548828125
0.132,3.18310546875,3.22314453125,-6.02587890625
0.1325,3.98388671875,2.22216796875,-6.06591796875
0.133,4.50439453125,1.42138671875,-6.02587890625
0.1335,4.70458984375,0.58056640625,-5.70556640625
0.134,4.74462890625,-0.50048828125,-5.02490234375
0.1345,4.74462890625,-1.58154296875,-4.18408203125
0.135,4.70458984375,-2.74267578125,-3.22314453125
0.1355,4.50439453125,-3.70361328125,-2.26220703125
0.136,4.30419921875,-4.46435546875,-1.50146484375
0.1365,3.66357421875,-4.94482421875,-0.58056640625
0.137,2.74267578125,-5.34521484375,0.70068359375
0.1375,1.90185546875,-5.82568359375,1.98193359375
0.138,0.94091796875,-5.90576171875,3.06298828125
0.1385,0.22021484375,-6.10595703125,4.02392578125
0.139,-0.70068359375,-6.02587890625,4.74462890625
0.1395,-1.86181640625,-5.34521484375,5.30517578125
0.14,-3.10302734375,-4.34423828125,5.82568359375
0.1405,-4.10400390625,-3.34326171875,6.06591796875
0.141,-4.74462890625,-2.34228515625,5.98583984375
0.1415,-5.10498046875,-1.62158203125,5.90576171875
0.142,-5.14501953125,-0.74072265625,5.34521484375
0.1425,-5.14501953125,0.46044921875,4.50439453125
0.143,-5.18505859375,1.58154296875,3.70361328125
0.1435,-5.02490234375,2.70263671875,2.62255859375
0.144,-4.78466796875,3.54345703125,1.74169921875
0.1445,-4.42431640625,4.14404296875,0.90087890625
0.145,-3.66357421875,4.54443359375,-0.22021484375
0.1455,-2.66259765625,4.90478515625,-1.58154296875
0.146,-1.70166015625,5.34521484375,-2.82275390625
0.1465,-0.78076171875,5.42529296875,-3.82373046875
0.147,0.02001953125,5.54541015625,-4.62451171875
0.1475,0.98095703125,5.10498046875,-5.26513671875
0.148,2.26220703125,4.22412109375,-5.78564453125
0.1485,3.38330078125,3.26318359375,-6.22607421875
0.149,4.22412109375,2.18212890625,-6.26611328125
0.1495,4.78466796875,1.26123046875,-6.14599609375
0.15,4.98486328125,0.50048828125,-5.90576171875
0.1505,4.94482421875,-0.58056640625,-5.14501953125
0.151,4.82470703125,-1.78173828125,-4.14404296875
0.1515,4.82470703125,-2.94287109375,-3.18310546875
0.152,4.62451171875,-3.94384765625,-2.22216796875
0.1525,4.34423828125,-4.74462890625,-1.34130859375
0.153,3.74365234375,-5.18505859375,-0.46044921875
0.1535,2.82275390625,-5.54541015625,0.78076171875
0.154,1.82177734375,-5.90576171875,2.14208984375
0.1545,0.78076171875,-6.06591796875,3.34326171875
0.155,0.02001953125,-6.18603515625,4.22412109375
0.1555,-0.82080078125,-6.14599609375,4.98486328125
0.156,-1.94189453125,-5.46533203125,5.58544921875
0.1565,-3.26318359375,-4.38427734375,6.02587890625
0.157,-4.34423828125,-3.38330078125,6.34619140625
0.1575,-5.02490234375,-2.30224609375,6.26611328125
0.158,-5.38525390625,-1.50146484375,6.10595703125
0.1585,-5.46533203125,-0.62060546875,5.58544921875
0.159,-5.38525390625,0.54052734375,4.74462890625
0.1595,-5.34521484375,1.78173828125,3.70361328125
0.16,-5.18505859375,2.98291015625,2.58251953125
0.1605,-4.86474609375,3.86376953125,1.58154296875
0.161,-4.54443359375,4.50439453125,0.78076171875
0.1615,-3.78369140625,4.82470703125,-0.34033203125
0.162,-2.62255859375,5.18505859375,-1.70166015625
0.1625,-1.62158203125,5.62548828125,-3.06298828125
0.163,-0.58056640625,5.62548828125,-4.14404296875
0.1635,0.26025390625,5.74560546875,-4.98486328125
0.164,1.14111328125,5.38525390625,-5.66552734375
0.1645,2.42236328125,4.50439453125,-6.14599609375
0.165,3.74365234375,3.26318359375,-6.54638671875
0.1655,4.66455078125,2.14208984375,-6.70654296875
0.166,5.22509765625,1.10107421875,-6.42626953125
0.1665,5.42529296875,0.30029296875,-6.22607421875
0.167,5.34521484375,-0.82080078125,-5.42529296875
0.1675,5.18505859375,-2.10205078125,-4.26416015625
0.168,5.14501953125,-3.38330078125,-3.18310546875
0.1685,4.86474609375,-4.50439453125,-2.02197265625
0.169,4.50439453125,-5.26513671875,-1.06103515625
0.1695,3.90380859375,-5.78564453125,-0.22021484375
0.17,2.86279296875,-5.94580078125,1.10107421875
0.1705,1.58154296875,-6.26611328125,2.62255859375
0.171,0.46044921875,-6.46630859375,3.98388671875
0.1715,-0.58056640625,-6.42626953125,4.86474609375
0.172,-1.26123046875,-6.38623046875,5.58544921875
0.1725,-2.38232421875,-5.66552734375,6.14599609375
0.173,-3.82373046875,-4.42431640625,6.54638671875
0.1735,-4.94482421875,-3.26318359375,6.86669921875
0.174,-5.70556640625,-2.02197265625,6.70654296875
0.1745,-6.02587890625,-1.10107421875,6.42626953125
0.175,-6.02587890625,-0.26025390625,5.90576171875
0.1755,-5.82568359375,0.98095703125,4.86474609375
0.176,-5.62548828125,2.42236328125,3.54345703125
0.1765,-5.46533203125,3.58349609375,2.38232421875
0.177,-5.06494140625,4.50439453125,1.26123046875
0.1775,-4.58447265625,5.06494140625,0.34033203125
0.178,-3.78369140625,5.42529296875,-0.70068359375
0.1785,-2.50244140625,5.62548828125,-2.06201171875
0.179,-1.26123046875,5.90576171875,-3.58349609375
0.1795,0.02001953125,5.90576171875,-4.78466796875
0.18,0.78076171875,5.82568359375,-5.54541015625
0.1805,1.46142578125,5.62548828125,-6.10595703125
0.181,2.74267578125,4.62451171875,-6.58642578125
0.1815,4.10400390625,3.22314453125,-6.90673828125
0.182,5.10498046875,2.10205078125,-7.06689453125
0.1825,5.62548828125,0.94091796875,-6.70654296875
0.183,5.82568359375,0.10009765625,-6.38623046875
0.1835,5.70556640625,-0.98095703125,-5.70556640625
0.184,5.46533203125,-2.14208984375,-4.54443359375
0.1845,5.26513671875,-3.54345703125,-3.34326171875
0.185,4.98486328125,-4.66455078125,-2.06201171875
0.1855,4.54443359375,-5.50537109375,-1.02099609375
0.186,4.10400390625,-5.94580078125,-0.18017578125
0.1865,3.10302734375,-6.14599609375,0.94091796875
0.187,1.78173828125,-6.38623046875,2.42236328125
0.1875,0.62060546875,-6.58642578125,3.86376953125
0.188,-0.58056640625,-6.50634765625,4.82470703125
0.1885,-1.26123046875,-6.50634765625,5.58544921875
0.189,-2.10205078125,-6.06591796875,6.14599609375
0.1895,-3.42333984375,-4.94482421875,6.54638671875
0.19,-4.66455078125,-3.70361328125,6.86669921875
0.1905,-5.58544921875,-2.46240234375,6.86669921875
0.191,-6.02587890625,-1.42138671875,6.54638671875
0.1915,-6.14599609375,-0.62060546875,6.22607421875
0.192,-5.94580078125,0.50048828125,5.34521484375
0.1925,-5.74560546875,1.78173828125,4.14404296875
0.193,-5.62548828125,3.06298828125,2.98291015625
0.1935,-5.26513671875,4.10400390625,1.78173828125
0.194,-4.82470703125,4.86474609375,0.78076171875
0.1945,-4.22412109375,5.30517578125,-0.22021484375
0.195,-3.18310546875,5.50537109375,-1.30126953125
0.1955,-1.86181640625,5.78564453125,-2.86279296875
0.196,-0.70068359375,5.94580078125,-4.18408203125
0.1965,0.34033203125,5.90576171875,-5.10498046875
0.197,1.02099609375,5.82568359375,-5.82568359375
0.1975,2.06201171875,5.10498046875,-6.34619140625
0.198,3.46337890625,3.90380859375,-6.74658203125
0.1985,4.58447265625,2.78271484375,-7.02685546875
0.199,5.34521484375,1.54150390625,-6.90673828125
