wavelength,x,y,z
0.0,0.890869140625,6.015869140625,-6.916748046875
0.0005,-0.510498046875,6.376220703125,-6.075927734375
0.001,-1.391357421875,7.056884765625,-5.755615234375
0.0015,-3.193115234375,7.257080078125,-4.154052734375
0.002,-4.554443359375,7.657470703125,-3.153076171875
0.0025,-5.755615234375,7.497314453125,-1.751708984375
0.003,-6.676513671875,7.417236328125,-0.670654296875
0.0035,-6.716552734375,6.416259765625,0.490478515625
0.004,-7.156982421875,6.095947265625,1.291259765625
0.0045,-7.197021484375,4.334228515625,3.052978515625
0.005,-7.197021484375,3.453369140625,3.973876953125
0.0055,-7.156982421875,1.931884765625,5.415283203125
0.006,-6.396240234375,0.530517578125,6.055908203125
0.0065,-5.595458984375,-0.950927734375,6.536376953125
0.007,-4.554443359375,-2.272216796875,6.896728515625
0.0075,-3.072998046875,-4.033935546875,7.177001953125
0.008,-1.951904296875,-5.074951171875,6.936767578125
0.0085,-0.590576171875,-6.476318359375,6.896728515625
0.009,0.770751953125,-6.716552734375,5.775634765625
0.0095,1.851806640625,-7.397216796875,5.375244140625
0.01,3.893798828125,-7.517333984375,3.493408203125
0.0105,5.175048828125,-7.717529296875,2.412353515625
0.011,6.216064453125,-7.357177734375,0.930908203125
0.0115,6.976806640625,-7.076904296875,-0.190185546875
0.012,6.896728515625,-5.915771484375,-1.311279296875
0.0125,7.056884765625,-5.275146484375,-2.232177734375
0.013,7.177001953125,-3.473388671875,-4.073974609375
0.0135,6.896728515625,-2.432373046875,-4.834716796875
0.014,6.696533203125,-0.910888671875,-6.156005859375
0.0145,5.575439453125,0.650634765625,-6.436279296875
0.015,4.774658203125,1.931884765625,-6.836669921875
0.0155,3.413330078125,3.373291015625,-6.956787109375
0.016,2.172119140625,4.974853515625,-7.277099609375
0.0165,0.890869140625,5.775634765625,-6.716552734375
0.017,-0.470458984375,6.976806640625,-6.596435546875
0.0175,-1.631591796875,6.976806640625,-5.435302734375
0.018,-2.712646484375,7.617431640625,-4.874755859375
0.0185,-4.834716796875,7.697509765625,-2.872802734375
0.019,-5.795654296875,7.777587890625,-1.911865234375
0.0195,-6.716552734375,7.337158203125,-0.510498046875
0.02,-7.197021484375,6.896728515625,0.490478515625
0.0205,-7.156982421875,5.855712890625,1.531494140625
0.021,-7.237060546875,4.934814453125,2.532470703125
0.0215,-7.437255859375,3.453369140625,4.254150390625
0.022,-6.996826171875,2.252197265625,4.974853515625
0.0225,-6.916748046875,0.850830078125,6.216064453125
0.023,-5.595458984375,-0.710693359375,6.416259765625
0.0235,-4.994873046875,-1.871826171875,6.936767578125
0.024,-3.433349609375,-3.553466796875,7.016845703125
0.0245,-2.312255859375,-4.994873046875,7.297119140625
0.025,-0.950927734375,-5.835693359375,6.576416015625
0.0255,0.250244140625,-6.916748046875,6.496337890625
0.026,1.531494140625,-6.916748046875,5.255126953125
0.0265,2.692626953125,-7.437255859375,4.574462890625
0.027,4.894775390625,-7.717529296875,2.692626953125
0.0275,5.775634765625,-7.557373046875,1.571533203125
0.028,6.696533203125,-7.156982421875,0.290283203125
0.0285,6.936767578125,-6.476318359375,-0.750732421875
0.029,7.016845703125,-5.515380859375,-1.791748046875
0.0295,7.016845703125,-4.354248046875,-3.072998046875
0.03,7.337158203125,-2.952880859375,-4.714599609375
0.0305,6.576416015625,-1.591552734375,-5.395263671875
0.031,6.416259765625,-0.190185546875,-6.556396484375
0.0315,4.894775390625,1.411376953125,-6.516357421875
0.032,4.414306640625,2.492431640625,-7.036865234375
0.0325,2.652587890625,4.254150390625,-7.116943359375
0.033,1.571533203125,5.535400390625,-7.237060546875
0.0335,0.090087890625,6.336181640625,-6.516357421875
0.034,-0.990966796875,7.177001953125,-6.276123046875
0.0345,-2.312255859375,7.257080078125,-4.954833984375
0.035,-3.633544921875,7.697509765625,-4.033935546875
0.0355,-5.755615234375,8.017822265625,-2.232177734375
0.036,-6.436279296875,7.537353515625,-1.031005859375
0.0365,-7.237060546875,7.217041015625,0.170166015625
0.037,-7.237060546875,6.336181640625,1.131103515625
0.0375,-7.397216796875,5.415283203125,2.212158203125
0.038,-7.357177734375,3.933837890625,3.653564453125
0.0385,-7.637451171875,2.652587890625,5.175048828125
0.039,-6.636474609375,1.131103515625,5.735595703125
0.0395,-6.476318359375,-0.190185546875,6.776611328125
0.04,-4.914794921875,-1.711669921875,6.656494140625
0.0405,-4.314208984375,-2.872802734375,7.096923828125
0.041,-2.512451171875,-4.794677734375,7.217041015625
0.0415,-1.271240234375,-5.875732421875,6.976806640625
0.042,0.130126953125,-6.556396484375,6.416259765625
0.0425,1.131103515625,-7.076904296875,5.895751953125
0.043,2.572509765625,-7.277099609375,4.574462890625
0.0435,3.973876953125,-7.557373046875,3.453369140625
0.044,5.975830078125,-7.877685546875,1.771728515625
0.0445,6.416259765625,-7.116943359375,0.530517578125
0.045,7.096923828125,-6.916748046875,-0.510498046875
0.0455,6.896728515625,-5.715576171875,-1.591552734375
0.046,7.056884765625,-4.834716796875,-2.592529296875
0.0465,7.016845703125,-3.233154296875,-4.114013671875
0.047,7.136962890625,-2.072021484375,-5.435302734375
0.0475,6.095947265625,-0.470458984375,-5.955810546875
0.048,5.735595703125,0.690673828125,-6.676513671875
0.0485,4.214111328125,2.092041015625,-6.556396484375
0.049,3.533447265625,3.213134765625,-6.996826171875
0.0495,1.931884765625,5.094970703125,-7.197021484375
0.05,0.690673828125,5.935791015625,-6.676513671875
0.0505,-0.510498046875,6.736572265625,-6.316162109375
0.051,-1.631591796875,7.056884765625,-5.475341796875
0.0515,-3.032958984375,7.337158203125,-4.354248046875
0.052,-4.434326171875,7.577392578125,-3.113037109375
0.0525,-6.115966796875,7.817626953125,-1.671630859375
0.053,-6.436279296875,7.016845703125,-0.510498046875
0.0535,-7.116943359375,6.976806640625,0.370361328125
0.054,-6.916748046875,5.615478515625,1.531494140625
0.0545,-7.197021484375,4.814697265625,2.572509765625
0.055,-7.237060546875,3.253173828125,4.174072265625
0.0555,-7.156982421875,2.132080078125,5.215087890625
0.056,-6.276123046875,0.530517578125,5.895751953125
0.0565,-5.835693359375,-0.630615234375,6.536376953125
0.057,-4.474365234375,-2.192138671875,6.616455078125
0.0575,-3.593505859375,-3.433349609375,6.936767578125
0.058,-2.072021484375,-5.195068359375,7.177001953125
0.0585,-0.710693359375,-5.875732421875,6.496337890625
0.059,0.330322265625,-6.756591796875,6.336181640625
0.0595,1.811767578125,-6.996826171875,5.094970703125
0.06,3.213134765625,-7.357177734375,4.013916015625
0.0605,4.734619140625,-7.517333984375,2.572509765625
0.061,6.176025390625,-7.717529296875,1.331298828125
0.0615,6.416259765625,-6.716552734375,0.090087890625
0.062,6.976806640625,-6.556396484375,-0.710693359375
0.0625,6.816650390625,-4.994873046875,-2.192138671875
0.063,7.016845703125,-4.154052734375,-3.193115234375
0.0635,7.096923828125,-2.552490234375,-4.874755859375
0.064,6.656494140625,-1.231201171875,-5.755615234375
0.0645,5.735595703125,0.330322265625,-6.356201171875
0.065,4.974853515625,1.451416015625,-6.716552734375
0.0655,3.533447265625,3.093017578125,-6.916748046875
0.066,2.612548828125,4.294189453125,-7.076904296875
0.0665,1.131103515625,6.015869140625,-7.197021484375
0.067,-0.310302734375,6.416259765625,-6.236083984375
0.0675,-1.271240234375,7.177001953125,-6.035888671875
0.068,-2.952880859375,7.377197265625,-4.434326171875
0.0685,-4.234130859375,7.657470703125,-3.393310546875
0.069,-5.675537109375,7.657470703125,-1.951904296875
0.0695,-6.716552734375,7.577392578125,-0.830810546875
0.07,-6.836669921875,6.616455078125,0.370361328125
0.0705,-7.197021484375,6.256103515625,1.131103515625
0.071,-7.116943359375,4.614501953125,2.692626953125
0.0715,-7.156982421875,3.773681640625,3.613525390625
0.072,-7.277099609375,2.252197265625,5.215087890625
0.0725,-6.436279296875,0.810791015625,5.775634765625
0.073,-5.875732421875,-0.590576171875,6.416259765625
0.0735,-4.754638671875,-1.871826171875,6.576416015625
0.074,-3.553466796875,-3.353271484375,6.896728515625
0.0745,-2.392333984375,-4.514404296875,6.896728515625
0.075,-1.071044921875,-5.915771484375,6.896728515625
0.0755,0.290283203125,-6.276123046875,5.935791015625
0.076,1.211181640625,-6.996826171875,5.735595703125
0.0765,3.052978515625,-7.076904296875,3.933837890625
0.077,4.134033203125,-7.437255859375,3.133056640625
0.0775,5.615478515625,-7.357177734375,1.571533203125
0.078,6.296142578125,-7.076904296875,0.570556640625
0.0785,6.456298828125,-6.276123046875,-0.550537109375
0.079,6.696533203125,-5.715576171875,-1.391357421875
0.0795,6.816650390625,-4.194091796875,-2.952880859375
0.08,6.736572265625,-3.233154296875,-3.873779296875
0.0805,6.896728515625,-1.871826171875,-5.435302734375
0.081,5.815673828125,-0.390380859375,-5.795654296875
0.0815,5.415283203125,0.810791015625,-6.516357421875
0.082,4.053955078125,2.372314453125,-6.596435546875
0.0825,3.052978515625,3.813720703125,-6.996826171875
0.083,1.771728515625,4.974853515625,-6.916748046875
0.0835,0.490478515625,6.256103515625,-6.796630859375
0.084,-0.830810546875,6.536376953125,-5.795654296875
0.0845,-1.871826171875,7.297119140625,-5.475341796875
0.085,-3.873779296875,7.417236328125,-3.553466796875
0.0855,-4.914794921875,7.697509765625,-2.752685546875
0.086,-6.236083984375,7.577392578125,-1.271240234375
0.0865,-6.796630859375,7.096923828125,-0.270263671875
0.087,-6.996826171875,6.336181640625,0.850830078125
0.0875,-7.156982421875,5.415283203125,1.931884765625
0.088,-7.397216796875,3.973876953125,3.573486328125
0.0885,-7.076904296875,2.772705078125,4.494384765625
0.089,-7.197021484375,1.411376953125,5.935791015625
0.0895,-5.875732421875,-0.270263671875,6.176025390625
0.09,-5.435302734375,-1.351318359375,6.896728515625
0.0905,-3.793701171875,-3.153076171875,6.936767578125
0.091,-2.752685546875,-4.514404296875,7.257080078125
0.0915,-1.271240234375,-5.635498046875,6.856689453125
0.092,0.090087890625,-6.756591796875,6.656494140625
0.0925,1.291259765625,-6.916748046875,5.495361328125
0.093,2.532470703125,-7.557373046875,4.854736328125
0.0935,4.694580078125,-7.717529296875,2.892822265625
0.094,5.615478515625,-7.597412109375,1.851806640625
0.0945,6.736572265625,-7.397216796875,0.450439453125
0.095,7.016845703125,-6.596435546875,-0.710693359375
0.0955,7.096923828125,-5.755615234375,-1.671630859375
0.096,7.096923828125,-4.514404296875,-3.032958984375
0.0965,7.337158203125,-3.153076171875,-4.554443359375
0.097,6.736572265625,-1.791748046875,-5.355224609375
0.0975,6.656494140625,-0.430419921875,-6.636474609375
0.098,5.094970703125,1.291259765625,-6.556396484375
0.0985,4.654541015625,2.292236328125,-7.116943359375
0.099,2.732666015625,4.254150390625,-7.116943359375
0.0995,1.851806640625,5.415283203125,-7.357177734375
0.1,0.250244140625,6.416259765625,-6.716552734375
0.1005,-0.990966796875,7.297119140625,-6.396240234375
0.101,-2.192138671875,7.377197265625,-5.195068359375
0.1015,-3.553466796875,7.817626953125,-4.354248046875
0.102,-5.595458984375,8.057861328125,-2.472412109375
0.1025,-6.356201171875,7.697509765625,-1.311279296875
0.103,-7.357177734375,7.497314453125,0.010009765625
0.1035,-7.397216796875,6.536376953125,1.091064453125
0.104,-7.557373046875,5.775634765625,2.011962890625
0.1045,-7.477294921875,4.134033203125,3.493408203125
0.105,-7.717529296875,2.932861328125,4.934814453125
0.1055,-6.916748046875,1.451416015625,5.615478515625
0.106,-6.756591796875,0.130126953125,6.736572265625
0.1065,-5.155029296875,-1.511474609375,6.736572265625
0.107,-4.674560546875,-2.552490234375,7.217041015625
0.1075,-2.752685546875,-4.554443359375,7.337158203125
0.108,-1.671630859375,-5.635498046875,7.217041015625
0.1085,-0.150146484375,-6.556396484375,6.656494140625
0.109,0.970947265625,-7.197021484375,6.135986328125
0.1095,2.252197265625,-7.397216796875,5.014892578125
0.11,3.773681640625,-7.717529296875,3.813720703125
0.1105,5.775634765625,-8.037841796875,2.092041015625
0.111,6.376220703125,-7.397216796875,0.810791015625
0.1115,7.297119140625,-7.197021484375,-0.390380859375
0.112,7.096923828125,-5.955810546875,-1.471435546875
0.1125,7.337158203125,-5.275146484375,-2.432373046875
0.113,7.257080078125,-3.553466796875,-4.073974609375
0.1135,7.377197265625,-2.432373046875,-5.395263671875
0.114,6.456298828125,-0.710693359375,-6.075927734375
0.1145,6.095947265625,0.570556640625,-6.916748046875
0.115,4.534423828125,2.052001953125,-6.796630859375
0.1155,3.893798828125,3.173095703125,-7.237060546875
0.116,2.092041015625,5.255126953125,-7.437255859375
0.1165,0.930908203125,6.095947265625,-7.076904296875
0.117,-0.550537109375,7.016845703125,-6.556396484375
0.1175,-1.631591796875,7.417236328125,-5.795654296875
0.118,-2.952880859375,7.697509765625,-4.754638671875
0.1185,-4.554443359375,7.937744140625,-3.313232421875
0.119,-6.436279296875,8.258056640625,-1.751708984375
0.1195,-6.836669921875,7.377197265625,-0.470458984375
0.12,-7.677490234375,7.257080078125,0.610595703125
0.1205,-7.397216796875,5.855712890625,1.731689453125
0.121,-7.597412109375,5.054931640625,2.692626953125
0.1215,-7.637451171875,3.333251953125,4.494384765625
0.122,-7.557373046875,2.132080078125,5.615478515625
0.1225,-6.596435546875,0.490478515625,6.336181640625
0.123,-6.115966796875,-0.830810546875,7.056884765625
0.1235,-4.634521484375,-2.312255859375,6.976806640625
0.124,-3.713623046875,-3.553466796875,7.297119140625
0.1245,-1.991943359375,-5.555419921875,7.537353515625
0.125,-0.630615234375,-6.236083984375,6.776611328125
0.1255,0.570556640625,-7.156982421875,6.576416015625
0.126,1.851806640625,-7.317138671875,5.375244140625
0.1265,3.213134765625,-7.677490234375,4.334228515625
0.127,4.894775390625,-7.837646484375,2.732666015625
0.1275,6.496337890625,-7.997802734375,1.331298828125
0.128,6.736572265625,-6.956787109375,0.010009765625
0.1285,7.377197265625,-6.916748046875,-0.910888671875
0.129,7.096923828125,-5.395263671875,-2.192138671875
0.1295,7.297119140625,-4.514404296875,-3.193115234375
0.13,7.337158203125,-2.712646484375,-4.994873046875
0.1305,6.976806640625,-1.471435546875,-5.875732421875
0.131,6.095947265625,0.250244140625,-6.556396484375
0.1315,5.335205078125,1.411376953125,-6.916748046875
0.132,3.973876953125,2.852783203125,-6.996826171875
0.1325,2.932861328125,4.134033203125,-7.237060546875
0.133,1.411376953125,6.015869140625,-7.477294921875
0.1335,0.010009765625,6.536376953125,-6.556396484375
0.134,-1.031005859375,7.377197265625,-6.436279296875
0.1345,-2.592529296875,7.497314453125,-4.994873046875
0.135,-3.873779296875,7.857666015625,-3.993896484375
0.1355,-5.555419921875,7.977783203125,-2.392333984375
0.136,-6.836669921875,8.017822265625,-1.151123046875
0.1365,-7.076904296875,6.976806640625,0.250244140625
0.137,-7.597412109375,6.736572265625,0.970947265625
0.1375,-7.397216796875,5.135009765625,2.412353515625
0.138,-7.517333984375,4.334228515625,3.453369140625
0.1385,-7.717529296875,2.612548828125,5.295166015625
0.139,-7.036865234375,1.251220703125,5.975830078125
0.1395,-6.356201171875,-0.310302734375,6.736572265625
0.14,-5.315185546875,-1.591552734375,7.016845703125
0.1405,-4.033935546875,-3.193115234375,7.217041015625
0.141,-2.832763671875,-4.514404296875,7.297119140625
0.1415,-1.271240234375,-6.236083984375,7.417236328125
0.142,0.250244140625,-6.596435546875,6.376220703125
0.1425,1.171142578125,-7.437255859375,6.216064453125
0.143,3.052978515625,-7.557373046875,4.414306640625
0.1435,4.294189453125,-7.877685546875,3.453369140625
0.144,5.895751953125,-7.837646484375,1.771728515625
0.1445,6.896728515625,-7.717529296875,0.610595703125
0.145,7.056884765625,-6.716552734375,-0.710693359375
0.1455,7.377197265625,-6.236083984375,-1.591552734375
0.146,7.297119140625,-4.434326171875,-3.193115234375
0.1465,7.177001953125,-3.473388671875,-4.154052734375
0.147,7.377197265625,-1.791748046875,-5.875732421875
0.1475,6.376220703125,-0.310302734375,-6.356201171875
0.148,5.695556640625,1.091064453125,-6.996826171875
0.1485,4.414306640625,2.532470703125,-7.076904296875
0.149,3.093017578125,4.053955078125,-7.317138671875
0.1495,1.891845703125,5.295166015625,-7.277099609375
0.15,0.410400390625,6.736572265625,-7.237060546875
0.1505,-1.031005859375,7.056884765625,-6.115966796875
0.151,-1.991943359375,7.737548828125,-5.795654296875
0.1515,-3.993896484375,7.777587890625,-3.833740234375
0.152,-5.074951171875,8.017822265625,-2.952880859375
0.1525,-6.556396484375,7.897705078125,-1.311279296875
0.153,-7.197021484375,7.497314453125,-0.190185546875
0.1535,-7.357177734375,6.576416015625,0.930908203125
0.154,-7.597412109375,5.895751953125,1.931884765625
0.1545,-7.597412109375,4.254150390625,3.573486328125
0.155,-7.397216796875,3.173095703125,4.494384765625
0.1555,-7.557373046875,1.691650390625,6.055908203125
0.156,-6.276123046875,0.090087890625,6.416259765625
0.1565,-5.835693359375,-1.191162109375,7.096923828125
0.157,-4.234130859375,-2.872802734375,7.177001953125
0.1575,-3.153076171875,-4.354248046875,7.497314453125
0.158,-1.671630859375,-5.595458984375,7.177001953125
0.1585,-0.310302734375,-6.876708984375,7.056884765625
0.159,1.091064453125,-7.076904296875,5.895751953125
0.1595,2.212158203125,-7.797607421875,5.495361328125
0.16,4.334228515625,-7.837646484375,3.373291015625
0.1605,5.335205078125,-7.997802734375,2.412353515625
0.161,6.696533203125,-7.837646484375,0.890869140625
0.1615,7.177001953125,-7.197021484375,-0.390380859375
0.162,7.337158203125,-6.276123046875,-1.431396484375
0.1625,7.417236328125,-5.195068359375,-2.592529296875
0.163,7.577392578125,-3.633544921875,-4.314208984375
0.1635,7.177001953125,-2.352294921875,-5.155029296875
0.164,7.177001953125,-0.910888671875,-6.636474609375
0.1645,5.615478515625,0.890869140625,-6.716552734375
0.165,5.135009765625,2.052001953125,-7.357177734375
0.1655,3.293212890625,3.853759765625,-7.317138671875
0.166,2.292236328125,5.215087890625,-7.597412109375
0.1665,0.690673828125,6.336181640625,-7.076904296875
0.167,-0.710693359375,7.377197265625,-6.796630859375
0.1675,-1.951904296875,7.457275390625,-5.515380859375
0.168,-3.193115234375,8.017822265625,-4.874755859375
0.1685,-5.315185546875,8.097900390625,-2.832763671875
0.169,-6.115966796875,7.937744140625,-1.791748046875
0.1695,-7.277099609375,7.697509765625,-0.390380859375
0.17,-7.477294921875,6.896728515625,0.810791015625
0.1705,-7.637451171875,6.055908203125,1.771728515625
0.171,-7.557373046875,4.694580078125,3.093017578125
0.1715,-7.717529296875,3.373291015625,4.614501953125
0.172,-7.116943359375,1.931884765625,5.375244140625
0.1725,-7.076904296875,0.610595703125,6.656494140625
0.173,-5.515380859375,-1.071044921875,6.696533203125
0.1735,-5.114990234375,-2.112060546875,7.217041015625
0.174,-3.153076171875,-4.114013671875,7.217041015625
0.1745,-2.232177734375,-5.195068359375,7.377197265625
0.175,-0.630615234375,-6.276123046875,6.856689453125
0.1755,0.610595703125,-7.116943359375,6.456298828125
0.176,1.851806640625,-7.237060546875,5.295166015625
0.1765,3.173095703125,-7.717529296875,4.374267578125
0.177,5.255126953125,-7.997802734375,2.572509765625
0.1775,5.975830078125,-7.677490234375,1.451416015625
0.178,7.056884765625,-7.437255859375,0.170166015625
0.1785,7.056884765625,-6.396240234375,-0.990966796875
0.179,7.337158203125,-5.755615234375,-1.951904296875
0.1795,7.217041015625,-4.154052734375,-3.513427734375
0.18,7.497314453125,-2.992919921875,-4.874755859375
0.1805,6.696533203125,-1.431396484375,-5.635498046875
0.181,6.536376953125,0.010009765625,-6.756591796875
0.1815,4.934814453125,1.571533203125,-6.716552734375
0.182,4.494384765625,2.612548828125,-7.277099609375
0.1825,2.532470703125,4.694580078125,-7.357177734375
0.183,1.571533203125,5.695556640625,-7.317138671875
0.1835,0.010009765625,6.696533203125,-6.756591796875
0.184,-1.231201171875,7.377197265625,-6.196044921875
0.1845,-2.512451171875,7.497314453125,-5.114990234375
0.185,-4.033935546875,7.817626953125,-3.873779296875
0.1855,-5.955810546875,8.177978515625,-2.232177734375
0.186,-6.516357421875,7.537353515625,-0.990966796875
0.1865,-7.517333984375,7.417236328125,0.250244140625
0.187,-7.317138671875,6.216064453125,1.331298828125
0.1875,-7.557373046875,5.495361328125,2.292236328125
0.188,-7.517333984375,3.813720703125,3.933837890625
