wavelength,x,y,z
0.0,0.330322265625,-6.356201171875,3.973876953125
0.0005,-0.430419921875,-6.716552734375,4.974853515625
0.001,-1.311279296875,-6.276123046875,5.575439453125
0.0015,-2.552490234375,-5.275146484375,5.895751953125
0.002,-3.873779296875,-4.073974609375,6.336181640625
0.0025,-4.954833984375,-2.832763671875,6.416259765625
0.003,-5.595458984375,-1.871826171875,6.456298828125
0.0035,-5.755615234375,-1.151123046875,6.256103515625
0.004,-5.595458984375,-0.310302734375,5.495361328125
0.0045,-5.315185546875,0.930908203125,4.454345703125
0.005,-5.235107421875,2.252197265625,3.213134765625
0.0055,-5.074951171875,3.493408203125,2.011962890625
0.006,-4.874755859375,4.454345703125,1.171142578125
0.0065,-4.314208984375,4.854736328125,0.290283203125
0.007,-3.273193359375,5.014892578125,-0.830810546875
0.0075,-2.232177734375,5.415283203125,-2.272216796875
0.008,-0.990966796875,5.655517578125,-3.713623046875
0.0085,-0.230224609375,5.895751953125,-4.794677734375
0.009,0.610595703125,6.015869140625,-5.635498046875
0.0095,1.651611328125,5.255126953125,-6.156005859375
0.01,3.012939453125,4.093994140625,-6.476318359375
0.0105,4.294189453125,2.812744140625,-6.756591796875
0.011,5.135009765625,1.571533203125,-6.756591796875
0.0115,5.695556640625,0.730712890625,-6.756591796875
0.012,5.615478515625,0.010009765625,-6.276123046875
0.0125,5.335205078125,-1.151123046875,-5.275146484375
0.013,5.175048828125,-2.432373046875,-4.114013671875
0.0135,4.974853515625,-3.873779296875,-2.712646484375
0.014,4.734619140625,-4.994873046875,-1.551513671875
0.0145,4.494384765625,-5.755615234375,-0.710693359375
0.015,3.573486328125,-6.035888671875,0.330322265625
0.0155,2.372314453125,-6.115966796875,1.651611328125
0.016,1.051025390625,-6.436279296875,3.253173828125
0.0165,-0.190185546875,-6.676513671875,4.534423828125
0.017,-0.910888671875,-6.876708984375,5.575439453125
0.0175,-1.791748046875,-6.556396484375,6.216064453125
0.018,-3.032958984375,-5.395263671875,6.536376953125
0.0185,-4.354248046875,-4.073974609375,6.856689453125
0.019,-5.515380859375,-2.672607421875,6.936767578125
0.0195,-6.156005859375,-1.511474609375,6.776611328125
0.02,-6.396240234375,-0.750732421875,6.536376953125
0.0205,-6.115966796875,0.250244140625,5.775634765625
0.021,-5.715576171875,1.331298828125,4.494384765625
0.0215,-5.555419921875,2.812744140625,3.173095703125
0.022,-5.275146484375,4.134033203125,1.771728515625
0.0225,-4.954833984375,5.054931640625,0.770751953125
0.023,-4.434326171875,5.535400390625,-0.190185546875
0.0235,-3.273193359375,5.615478515625,-1.271240234375
0.024,-1.951904296875,5.815673828125,-2.792724609375
0.0245,-0.630615234375,5.935791015625,-4.314208984375
0.025,0.370361328125,6.095947265625,-5.355224609375
0.0255,1.051025390625,6.176025390625,-6.276123046875
0.026,2.132080078125,5.495361328125,-6.756591796875
0.0265,3.453369140625,4.134033203125,-6.916748046875
0.027,4.734619140625,2.812744140625,-7.197021484375
0.0275,5.655517578125,1.411376953125,-7.116943359375
0.028,6.135986328125,0.370361328125,-6.956787109375
0.0285,6.135986328125,-0.510498046875,-6.556396484375
0.029,5.775634765625,-1.471435546875,-5.515380859375
0.0295,5.415283203125,-2.712646484375,-4.154052734375
0.03,5.135009765625,-4.194091796875,-2.712646484375
0.0305,4.814697265625,-5.355224609375,-1.391357421875
0.031,4.494384765625,-6.156005859375,-0.510498046875
0.0315,3.693603515625,-6.436279296875,0.530517578125
0.032,2.412353515625,-6.436279296875,1.691650390625
0.0325,1.010986328125,-6.716552734375,3.333251953125
0.033,-0.350341796875,-6.756591796875,4.774658203125
0.0335,-1.231201171875,-6.876708984375,5.695556640625
0.034,-1.871826171875,-6.756591796875,6.456298828125
0.0345,-3.032958984375,-5.755615234375,6.816650390625
0.035,-4.354248046875,-4.354248046875,7.016845703125
0.0355,-5.515380859375,-2.952880859375,7.096923828125
0.036,-6.276123046875,-1.631591796875,6.896728515625
0.0365,-6.596435546875,-0.790771484375,6.776611328125
0.037,-6.436279296875,0.090087890625,6.135986328125
0.0375,-5.955810546875,1.131103515625,4.974853515625
0.038,-5.715576171875,2.492431640625,3.573486328125
0.0385,-5.395263671875,3.853759765625,2.172119140625
0.039,-5.034912109375,4.894775390625,0.970947265625
0.0395,-4.674560546875,5.575439453125,0.170166015625
0.04,-3.713623046875,5.735595703125,-0.950927734375
0.0405,-2.432373046875,5.735595703125,-2.232177734375
0.041,-1.071044921875,5.975830078125,-3.793701171875
0.0415,0.130126953125,6.055908203125,-5.074951171875
0.042,0.850830078125,6.256103515625,-5.995849609375
0.0425,1.691650390625,5.935791015625,-6.596435546875
0.043,2.932861328125,4.774658203125,-6.916748046875
0.0435,4.294189453125,3.413330078125,-7.197021484375
0.044,5.375244140625,1.971923828125,-7.197021484375
0.0445,6.015869140625,0.770751953125,-7.036865234375
0.045,6.216064453125,0.050048828125,-6.876708984375
0.0455,5.935791015625,-0.950927734375,-6.075927734375
0.046,5.495361328125,-2.031982421875,-4.834716796875
0.0465,5.295166015625,-3.513427734375,-3.393310546875
0.047,4.974853515625,-4.834716796875,-1.951904296875
0.0475,4.654541015625,-5.755615234375,-0.950927734375
0.048,4.174072265625,-6.356201171875,0.010009765625
0.0485,3.093017578125,-6.476318359375,1.091064453125
0.049,1.691650390625,-6.596435546875,2.612548828125
0.0495,0.290283203125,-6.756591796875,4.134033203125
0.05,-0.790771484375,-6.796630859375,5.255126953125
0.0505,-1.431396484375,-6.996826171875,6.176025390625
0.051,-2.432373046875,-6.276123046875,6.696533203125
0.0515,-3.793701171875,-4.994873046875,6.896728515625
0.052,-5.074951171875,-3.593505859375,7.136962890625
0.0525,-6.035888671875,-2.192138671875,7.056884765625
0.053,-6.516357421875,-1.151123046875,6.896728515625
0.0535,-6.556396484375,-0.390380859375,6.536376953125
0.054,-6.156005859375,0.690673828125,5.495361328125
0.0545,-5.795654296875,1.931884765625,4.134033203125
0.055,-5.595458984375,3.413330078125,2.692626953125
0.0555,-5.235107421875,4.614501953125,1.331298828125
0.056,-4.954833984375,5.455322265625,0.450439453125
0.0565,-4.154052734375,5.735595703125,-0.590576171875
0.057,-2.872802734375,5.735595703125,-1.791748046875
0.0575,-1.551513671875,6.055908203125,-3.393310546875
0.058,-0.230224609375,6.135986328125,-4.834716796875
0.0585,0.690673828125,6.256103515625,-5.835693359375
0.059,1.411376953125,6.216064453125,-6.596435546875
0.0595,2.612548828125,5.175048828125,-6.996826171875
0.06,3.973876953125,3.813720703125,-7.197021484375
0.0605,5.175048828125,2.372314453125,-7.357177734375
0.061,5.935791015625,1.010986328125,-7.116943359375
0.0615,6.336181640625,0.170166015625,-6.996826171875
0.062,6.135986328125,-0.790771484375,-6.356201171875
0.0625,5.695556640625,-1.871826171875,-5.114990234375
0.063,5.415283203125,-3.233154296875,-3.753662109375
0.0635,5.094970703125,-4.634521484375,-2.232177734375
0.064,4.694580078125,-5.675537109375,-1.031005859375
0.0645,4.334228515625,-6.396240234375,-0.230224609375
0.065,3.333251953125,-6.516357421875,0.890869140625
0.0655,1.931884765625,-6.556396484375,2.252197265625
0.066,0.610595703125,-6.716552734375,3.853759765625
0.0665,-0.710693359375,-6.716552734375,5.094970703125
0.067,-1.351318359375,-6.916748046875,6.015869140625
0.0675,-2.152099609375,-6.556396484375,6.576416015625
0.068,-3.393310546875,-5.355224609375,6.776611328125
0.0685,-4.634521484375,-3.993896484375,7.056884765625
0.069,-5.755615234375,-2.552490234375,7.056884765625
0.0695,-6.316162109375,-1.431396484375,6.816650390625
0.07,-6.476318359375,-0.670654296875,6.616455078125
0.0705,-6.236083984375,0.290283203125,5.815673828125
0.071,-5.755615234375,1.331298828125,4.614501953125
0.0715,-5.515380859375,2.692626953125,3.253173828125
0.072,-5.195068359375,4.013916015625,1.891845703125
0.0725,-4.954833984375,4.934814453125,0.890869140625
0.073,-4.474365234375,5.415283203125,0.050048828125
0.0735,-3.433349609375,5.495361328125,-1.111083984375
0.074,-2.192138671875,5.735595703125,-2.432373046875
0.0745,-0.830810546875,5.895751953125,-3.913818359375
0.075,0.210205078125,6.015869140625,-5.034912109375
0.0755,0.810791015625,6.256103515625,-5.955810546875
0.076,1.771728515625,5.695556640625,-6.476318359375
0.0765,3.012939453125,4.494384765625,-6.716552734375
0.077,4.254150390625,3.213134765625,-7.036865234375
0.0775,5.255126953125,1.851806640625,-6.996826171875
0.078,5.815673828125,0.890869140625,-6.916748046875
0.0785,5.935791015625,0.130126953125,-6.676513671875
0.079,5.655517578125,-0.870849609375,-5.755615234375
0.0795,5.375244140625,-2.031982421875,-4.634521484375
0.08,5.094970703125,-3.473388671875,-3.193115234375
0.0805,4.814697265625,-4.714599609375,-1.951904296875
0.081,4.614501953125,-5.635498046875,-1.031005859375
0.0815,3.973876953125,-6.075927734375,-0.190185546875
0.082,2.852783203125,-6.115966796875,1.051025390625
0.0825,1.611572265625,-6.396240234375,2.532470703125
0.083,0.330322265625,-6.476318359375,3.973876953125
0.0835,-0.590576171875,-6.716552734375,5.014892578125
0.084,-1.271240234375,-6.716552734375,5.815673828125
0.0845,-2.312255859375,-5.955810546875,6.256103515625
0.085,-3.553466796875,-4.794677734375,6.536376953125
0.0855,-4.794677734375,-3.473388671875,6.736572265625
0.086,-5.635498046875,-2.232177734375,6.656494140625
0.0865,-6.075927734375,-1.391357421875,6.616455078125
0.087,-6.035888671875,-0.670654296875,6.135986328125
0.0875,-5.635498046875,0.370361328125,5.175048828125
0.088,-5.475341796875,1.571533203125,4.053955078125
0.0885,-5.235107421875,2.892822265625,2.692626953125
0.089,-4.994873046875,3.973876953125,1.571533203125
0.0895,-4.794677734375,4.734619140625,0.810791015625
0.09,-3.993896484375,5.054931640625,-0.190185546875
0.0905,-2.912841796875,5.175048828125,-1.311279296875
0.091,-1.791748046875,5.535400390625,-2.752685546875
0.0915,-0.670654296875,5.695556640625,-4.033935546875
0.092,0.130126953125,6.015869140625,-5.074951171875
0.0925,0.850830078125,5.895751953125,-5.755615234375
0.093,1.971923828125,4.974853515625,-6.115966796875
0.0935,3.213134765625,3.853759765625,-6.476318359375
0.094,4.334228515625,2.612548828125,-6.636474609375
0.0945,5.094970703125,1.531494140625,-6.596435546875
0.095,5.455322265625,0.810791015625,-6.596435546875
0.0955,5.375244140625,0.050048828125,-6.075927734375
0.096,5.094970703125,-0.990966796875,-5.114990234375
0.0965,4.974853515625,-2.272216796875,-3.993896484375
0.097,4.734619140625,-3.593505859375,-2.712646484375
0.0975,4.574462890625,-4.634521484375,-1.831787109375
0.098,4.334228515625,-5.235107421875,-0.990966796875
0.0985,3.533447265625,-5.515380859375,0.010009765625
0.099,2.492431640625,-5.795654296875,1.291259765625
0.0995,1.291259765625,-6.075927734375,2.692626953125
0.1,0.330322265625,-6.316162109375,3.853759765625
0.1005,-0.390380859375,-6.636474609375,4.854736328125
0.101,-1.271240234375,-6.316162109375,5.455322265625
0.1015,-2.392333984375,-5.395263671875,5.815673828125
0.102,-3.593505859375,-4.354248046875,6.256103515625
0.1025,-4.634521484375,-3.113037109375,6.336181640625
0.103,-5.315185546875,-2.232177734375,6.416259765625
0.1035,-5.595458984375,-1.471435546875,6.296142578125
0.104,-5.435302734375,-0.710693359375,5.655517578125
0.1045,-5.275146484375,0.370361328125,4.734619140625
0.105,-5.195068359375,1.651611328125,3.613525390625
0.1055,-5.074951171875,2.852783203125,2.452392578125
0.106,-4.994873046875,3.853759765625,1.651611328125
0.1065,-4.514404296875,4.414306640625,0.810791015625
0.107,-3.593505859375,4.614501953125,-0.270263671875
0.1075,-2.712646484375,5.094970703125,-1.551513671875
0.108,-1.591552734375,5.375244140625,-2.872802734375
0.1085,-0.790771484375,5.735595703125,-3.993896484375
0.109,0.010009765625,5.895751953125,-4.914794921875
0.1095,0.970947265625,5.415283203125,-5.435302734375
0.11,2.172119140625,4.454345703125,-5.875732421875
0.1105,3.333251953125,3.373291015625,-6.236083984375
0.111,4.334228515625,2.212158203125,-6.276123046875
0.1115,4.934814453125,1.531494140625,-6.476318359375
0.112,5.054931640625,0.770751953125,-6.236083984375
0.1125,4.894775390625,-0.190185546875,-5.475341796875
0.113,4.814697265625,-1.311279296875,-4.634521484375
0.1135,4.734619140625,-2.632568359375,-3.473388671875
0.114,4.614501953125,-3.713623046875,-2.472412109375
0.1145,4.534423828125,-4.594482421875,-1.711669921875
0.115,3.973876953125,-4.994873046875,-0.870849609375
0.1155,3.052978515625,-5.315185546875,0.330322265625
0.116,2.092041015625,-5.755615234375,1.651611328125
0.1165,1.051025390625,-6.035888671875,2.932861328125
0.117,0.370361328125,-6.436279296875,3.973876953125
0.1175,-0.510498046875,-6.436279296875,4.814697265625
0.118,-1.551513671875,-5.755615234375,5.255126953125
0.1185,-2.712646484375,-4.834716796875,5.775634765625
0.119,-3.873779296875,-3.713623046875,6.055908203125
0.1195,-4.714599609375,-2.712646484375,6.135986328125
0.12,-5.195068359375,-2.072021484375,6.256103515625
0.1205,-5.235107421875,-1.351318359375,5.855712890625
0.121,-5.114990234375,-0.510498046875,5.094970703125
0.1215,-5.155029296875,0.770751953125,4.214111328125
0.122,-5.034912109375,2.092041015625,3.093017578125
0.1225,-4.994873046875,3.173095703125,2.212158203125
0.123,-4.754638671875,3.893798828125,1.451416015625
0.1235,-4.114013671875,4.334228515625,0.530517578125
0.124,-3.233154296875,4.734619140625,-0.750732421875
0.1245,-2.232177734375,5.135009765625,-2.112060546875
0.125,-1.351318359375,5.495361328125,-3.273193359375
0.1255,-0.670654296875,5.895751953125,-4.354248046875
0.126,0.330322265625,5.695556640625,-5.074951171875
0.1265,1.491455078125,4.814697265625,-5.515380859375
0.127,2.772705078125,3.893798828125,-6.035888671875
0.1275,3.853759765625,2.692626953125,-6.236083984375
0.128,4.614501953125,1.851806640625,-6.396240234375
0.1285,4.974853515625,1.131103515625,-6.396240234375
0.129,4.934814453125,0.290283203125,-5.795654296875
0.1295,4.814697265625,-0.830810546875,-4.994873046875
0.13,4.814697265625,-2.112060546875,-3.873779296875
0.1305,4.654541015625,-3.313232421875,-2.752685546875
0.131,4.614501953125,-4.354248046875,-1.951904296875
0.1315,4.214111328125,-4.914794921875,-1.151123046875
0.132,3.333251953125,-5.195068359375,0.010009765625
0.1325,2.372314453125,-5.715576171875,1.331298828125
0.133,1.291259765625,-5.955810546875,2.692626953125
0.1335,0.530517578125,-6.356201171875,3.853759765625
0.134,-0.310302734375,-6.516357421875,4.774658203125
0.1345,-1.311279296875,-5.955810546875,5.295166015625
0.135,-2.552490234375,-4.994873046875,5.735595703125
0.1355,-3.793701171875,-3.873779296875,6.095947265625
0.136,-4.714599609375,-2.752685546875,6.176025390625
0.1365,-5.275146484375,-2.031982421875,6.336181640625
0.137,-5.395263671875,-1.311279296875,5.975830078125
0.1375,-5.195068359375,-0.510498046875,5.175048828125
0.138,-5.155029296875,0.850830078125,4.294189453125
0.1385,-5.074951171875,2.172119140625,3.133056640625
0.139,-4.954833984375,3.253173828125,2.092041015625
0.1395,-4.794677734375,4.134033203125,1.331298828125
0.14,-4.154052734375,4.494384765625,0.450439453125
0.1405,-3.193115234375,4.774658203125,-0.790771484375
0.141,-2.192138671875,5.215087890625,-2.152099609375
0.1415,-1.191162109375,5.455322265625,-3.393310546875
0.142,-0.510498046875,5.895751953125,-4.514404296875
0.1425,0.450439453125,5.775634765625,-5.275146484375
0.143,1.531494140625,4.934814453125,-5.715576171875
0.1435,2.852783203125,3.893798828125,-6.156005859375
0.144,3.973876953125,2.692626953125,-6.356201171875
0.1445,4.774658203125,1.611572265625,-6.396240234375
0.145,5.175048828125,0.970947265625,-6.476318359375
0.1455,5.094970703125,0.170166015625,-5.955810546875
0.146,4.934814453125,-0.870849609375,-5.034912109375
0.1465,4.854736328125,-2.152099609375,-3.953857421875
0.147,4.694580078125,-3.473388671875,-2.712646484375
0.1475,4.614501953125,-4.514404296875,-1.831787109375
0.148,4.294189453125,-5.114990234375,-1.031005859375
0.1485,3.453369140625,-5.395263671875,0.050048828125
0.149,2.372314453125,-5.755615234375,1.331298828125
0.1495,1.251220703125,-6.035888671875,2.732666015625
0.15,0.330322265625,-6.356201171875,3.893798828125
0.1505,-0.390380859375,-6.596435546875,4.934814453125
0.151,-1.351318359375,-6.196044921875,5.495361328125
0.1515,-2.552490234375,-5.155029296875,5.895751953125
0.152,-3.873779296875,-4.073974609375,6.296142578125
0.1525,-4.834716796875,-2.872802734375,6.376220703125
0.153,-5.435302734375,-1.951904296875,6.416259765625
0.1535,-5.715576171875,-1.271240234375,6.216064453125
0.154,-5.475341796875,-0.390380859375,5.455322265625
0.1545,-5.315185546875,0.850830078125,4.454345703125
0.155,-5.195068359375,2.212158203125,3.253173828125
0.1555,-4.994873046875,3.373291015625,2.052001953125
0.156,-4.914794921875,4.294189453125,1.251220703125
0.1565,-4.314208984375,4.734619140625,0.410400390625
0.157,-3.313232421875,4.934814453125,-0.750732421875
0.1575,-2.272216796875,5.375244140625,-2.192138671875
0.158,-1.151123046875,5.615478515625,-3.553466796875
0.1585,-0.350341796875,5.895751953125,-4.634521484375
0.159,0.490478515625,5.935791015625,-5.475341796875
0.1595,1.611572265625,5.175048828125,-5.995849609375
0.16,2.932861328125,4.053955078125,-6.396240234375
0.1605,4.174072265625,2.812744140625,-6.676513671875
0.161,5.054931640625,1.571533203125,-6.676513671875
0.1615,5.495361328125,0.770751953125,-6.716552734375
0.162,5.495361328125,0.050048828125,-6.236083984375
0.1625,5.215087890625,-1.071044921875,-5.195068359375
0.163,5.094970703125,-2.392333984375,-4.033935546875
0.1635,4.934814453125,-3.793701171875,-2.712646484375
0.164,4.654541015625,-4.874755859375,-1.591552734375
0.1645,4.494384765625,-5.635498046875,-0.790771484375
0.165,3.533447265625,-5.915771484375,0.330322265625
0.1655,2.292236328125,-6.115966796875,1.611572265625
0.166,1.051025390625,-6.396240234375,3.173095703125
0.1665,0.010009765625,-6.556396484375,4.494384765625
0.167,-0.830810546875,-6.796630859375,5.455322265625
0.1675,-1.711669921875,-6.436279296875,6.095947265625
0.168,-2.992919921875,-5.275146484375,6.416259765625
0.1685,-4.354248046875,-4.033935546875,6.776611328125
0.169,-5.475341796875,-2.632568359375,6.856689453125
0.1695,-6.115966796875,-1.591552734375,6.696533203125
0.17,-6.276123046875,-0.790771484375,6.496337890625
0.1705,-6.035888671875,0.250244140625,5.695556640625
0.171,-5.635498046875,1.411376953125,4.414306640625
0.1715,-5.475341796875,2.852783203125,3.052978515625
0.172,-5.195068359375,4.134033203125,1.691650390625
0.1725,-4.914794921875,5.054931640625,0.730712890625
0.173,-4.314208984375,5.415283203125,-0.190185546875
0.1735,-3.153076171875,5.495361328125,-1.311279296875
0.174,-1.871826171875,5.775634765625,-2.872802734375
0.1745,-0.590576171875,5.935791015625,-4.354248046875
0.175,0.410400390625,6.055908203125,-5.355224609375
0.1755,1.131103515625,6.135986328125,-6.236083984375
0.176,2.212158203125,5.375244140625,-6.676513671875
0.1765,3.493408203125,3.973876953125,-6.916748046875
0.177,4.774658203125,2.612548828125,-7.116943359375
0.1775,5.615478515625,1.251220703125,-7.076904296875
0.178,6.055908203125,0.370361328125,-6.876708984375
0.1785,6.055908203125,-0.510498046875,-6.436279296875
0.179,5.655517578125,-1.471435546875,-5.395263671875
0.1795,5.335205078125,-2.792724609375,-4.033935546875
0.18,5.094970703125,-4.194091796875,-2.592529296875
0.1805,4.734619140625,-5.315185546875,-1.311279296875
0.181,4.454345703125,-6.115966796875,-0.510498046875
0.1815,3.653564453125,-6.356201171875,0.530517578125
0.182,2.332275390625,-6.396240234375,1.771728515625
0.1825,0.970947265625,-6.596435546875,3.413330078125
0.183,-0.390380859375,-6.676513671875,4.734619140625
0.1835,-1.151123046875,-6.836669921875,5.695556640625
0.184,-1.911865234375,-6.676513671875,6.416259765625
0.1845,-3.072998046875,-5.715576171875,6.776611328125
0.185,-4.394287109375,-4.354248046875,7.016845703125
0.1855,-5.595458984375,-2.912841796875,7.056884765625
0.186,-6.236083984375,-1.631591796875,6.896728515625
0.1865,-6.556396484375,-0.790771484375,6.776611328125
0.187,-6.356201171875,0.130126953125,6.095947265625
0.1875,-5.875732421875,1.171142578125,4.854736328125
0.188,-5.635498046875,2.572509765625,3.493408203125
