wavelength,x,y,z
0.0,20.66015625,-16.17578125,-3.603515625
0.0005,21.380859375,-13.8134765625,-6.88671875
0.001,21.5810546875,-10.810546875,-9.9296875
0.0015,21.1005859375,-6.2861328125,-13.93359375
0.002,20.33984375,-2.5625,-16.896484375
0.0025,18.73828125,1.5615234375,-19.37890625
0.003,16.736328125,5.365234375,-21.1806640625
0.0035,13.6533203125,8.248046875,-21.140625
0.004,10.4501953125,11.4912109375,-21.30078125
0.0045,5.60546875,15.375,-20.419921875
0.005,0.560546875,18.337890625,-18.6181640625
0.0055,-3.4033203125,20.01953125,-16.65625
0.006,-6.806640625,21.060546875,-14.494140625
0.0065,-9.8896484375,20.9404296875,-11.611328125
0.007,-13.6533203125,20.2197265625,-7.3671875
0.0075,-16.736328125,19.3388671875,-3.5634765625
0.008,-19.5791015625,17.5771484375,1.0810546875
0.0085,-21.220703125,15.455078125,4.8447265625
0.009,-21.4208984375,12.4921875,7.9677734375
0.0095,-21.701171875,9.4892578125,11.130859375
0.01,-21.060546875,4.96484375,15.0947265625
0.0105,-19.9794921875,0.8408203125,18.09765625
0.011,-18.0576171875,-2.962890625,20.0595703125
0.0115,-16.0556640625,-6.4462890625,21.5009765625
0.012,-12.6923828125,-9.4892578125,21.3408203125
0.0125,-8.6083984375,-13.052734375,20.9404296875
0.013,-4.244140625,-16.3359375,20.0595703125
0.0135,0.9208984375,-19.0986328125,17.9775390625
0.014,4.5244140625,-20.5,16.015625
0.0145,7.7275390625,-20.900390625,13.4130859375
0.015,10.7705078125,-21.060546875,10.73046875
0.0155,14.8544921875,-20.1396484375,5.92578125
0.016,17.8173828125,-18.9384765625,1.8818359375
0.0165,20.01953125,-17.0166015625,-2.1220703125
0.017,21.380859375,-14.7744140625,-5.7255859375
0.0175,21.3408203125,-11.5712890625,-8.8486328125
0.018,21.2607421875,-8.087890625,-12.2919921875
0.0185,20.7001953125,-4.083984375,-15.775390625
0.019,19.3388671875,0.400390625,-18.7783203125
0.0195,17.216796875,4.00390625,-20.3798828125
0.02,14.974609375,7.1669921875,-21.30078125
0.0205,12.01171875,10.3701171875,-21.380859375
0.021,6.7265625,14.25390625,-20.4599609375
0.0215,2.5625,17.1767578125,-19.4189453125
0.022,-2.2021484375,19.5791015625,-17.376953125
0.0225,-5.765625,20.8203125,-15.3349609375
0.023,-8.9287109375,20.740234375,-12.33203125
0.0235,-12.0517578125,20.740234375,-9.4091796875
0.024,-15.8955078125,19.859375,-4.8046875
0.0245,-18.978515625,18.0576171875,-0.16015625
0.025,-20.7001953125,16.1357421875,3.5634765625
0.0255,-21.7412109375,13.7333984375,6.9267578125
0.026,-21.6611328125,10.5302734375,10.0498046875
0.0265,-21.30078125,6.326171875,13.9736328125
0.027,-20.5400390625,2.5224609375,17.0166015625
0.0275,-18.978515625,-1.921875,19.859375
0.028,-16.736328125,-5.4853515625,21.220703125
0.0285,-13.8134765625,-8.6083984375,21.4609375
0.029,-10.7705078125,-11.6513671875,21.6611328125
0.0295,-5.2451171875,-15.7353515625,20.419921875
0.03,-0.6005859375,-18.5380859375,18.73828125
0.0305,3.4833984375,-20.3798828125,16.8564453125
0.031,7.0068359375,-21.4208984375,14.6142578125
0.0315,10.25,-21.1005859375,11.2109375
0.032,13.7333984375,-20.66015625,7.52734375
0.0325,17.216796875,-19.69921875,3.283203125
0.033,19.9794921875,-17.6572265625,-1.4814453125
0.0335,21.220703125,-15.4150390625,-4.8447265625
0.034,21.78125,-12.6123046875,-8.248046875
0.0345,21.701171875,-9.529296875,-11.291015625
0.035,21.060546875,-4.884765625,-15.294921875
0.0355,19.8994140625,-0.9208984375,-18.1376953125
0.036,18.2177734375,3.123046875,-20.4599609375
0.0365,15.85546875,6.646484375,-21.541015625
0.037,12.3720703125,9.7294921875,-21.4208984375
0.0375,8.80859375,13.0927734375,-21.30078125
0.038,3.8037109375,16.7763671875,-20.1396484375
0.0385,-1.4013671875,19.3388671875,-17.9375
0.039,-4.8447265625,20.7001953125,-16.015625
0.0395,-8.2080078125,21.380859375,-13.61328125
0.04,-11.5712890625,21.060546875,-10.25
0.0405,-15.1748046875,20.1796875,-5.765625
0.041,-18.2978515625,18.978515625,-1.681640625
0.0415,-20.8203125,16.896484375,2.802734375
0.042,-21.62109375,14.4541015625,6.0859375
0.0425,-21.78125,11.2109375,9.44921875
0.043,-21.7412109375,7.927734375,12.65234375
0.0435,-20.9404296875,3.5234375,16.3759765625
0.044,-19.298828125,-0.8408203125,19.138671875
0.0445,-17.376953125,-4.4443359375,20.8203125
0.045,-15.134765625,-7.6474609375,21.78125
0.0455,-11.451171875,-10.7705078125,21.380859375
0.046,-7.0068359375,-14.3740234375,20.7001953125
0.0465,-2.40234375,-17.5771484375,19.5791015625
0.047,2.5625,-19.939453125,17.296875
0.0475,5.7255859375,-20.7802734375,15.21484375
0.048,9.0087890625,-21.140625,12.4521484375
0.0485,12.171875,-20.8603515625,9.1689453125
0.049,15.8955078125,-19.7392578125,4.6044921875
0.0495,18.818359375,-18.1376953125,0.2802734375
0.05,20.740234375,-16.17578125,-3.5634765625
0.0505,21.4609375,-13.693359375,-6.7666015625
0.051,21.2607421875,-10.3701171875,-9.9697265625
0.0515,20.9404296875,-6.56640625,-13.373046875
0.052,20.33984375,-2.6025390625,-16.736328125
0.0525,18.5380859375,1.76171875,-19.3388671875
0.053,16.3359375,5.044921875,-20.5
0.0535,13.8935546875,8.1279296875,-21.220703125
0.054,10.2900390625,11.3310546875,-21.0205078125
0.0545,5.4453125,15.0546875,-19.939453125
0.055,0.880859375,17.9375,-18.5380859375
0.0555,-3.36328125,19.9794921875,-16.65625
0.056,-6.56640625,20.6201171875,-14.2939453125
0.0565,-9.8896484375,20.6201171875,-11.2509765625
0.057,-13.1728515625,20.2197265625,-7.767578125
0.0575,-16.65625,19.21875,-3.4833984375
0.058,-19.37890625,17.296875,1.12109375
0.0585,-20.7802734375,15.21484375,4.5244140625
0.059,-21.5009765625,12.6123046875,7.84765625
0.0595,-21.2607421875,9.12890625,11.0908203125
0.06,-20.7001953125,5.044921875,14.6943359375
0.0605,-19.859375,1.0810546875,17.7373046875
0.061,-18.017578125,-3.1630859375,20.1796875
0.0615,-15.615234375,-6.2861328125,20.9404296875
0.062,-12.65234375,-9.4892578125,21.2607421875
0.0625,-8.7685546875,-12.892578125,20.98046875
0.063,-3.8037109375,-16.416015625,19.69921875
0.0635,0.9208984375,-18.9384765625,17.77734375
0.064,4.6044921875,-20.66015625,16.015625
0.0645,7.8076171875,-21.1005859375,13.4931640625
0.065,11.130859375,-20.7802734375,10.169921875
0.0655,14.654296875,-20.1796875,6.166015625
0.066,17.9375,-18.9384765625,1.76171875
0.0665,20.33984375,-16.896484375,-2.642578125
0.067,21.2607421875,-14.4541015625,-5.765625
0.0675,21.62109375,-11.6513671875,-9.12890625
0.068,21.3408203125,-7.8076171875,-12.65234375
0.0685,20.6201171875,-3.7236328125,-16.015625
0.069,19.1787109375,0.560546875,-18.578125
0.0695,17.3369140625,4.32421875,-20.7802734375
0.07,14.734375,7.3671875,-21.30078125
0.0705,11.37109375,10.5302734375,-21.220703125
0.071,7.046875,14.173828125,-20.66015625
0.0715,2.162109375,17.45703125,-19.37890625
0.072,-2.5224609375,19.69921875,-17.1767578125
0.0725,-5.8056640625,20.7001953125,-15.21484375
0.073,-8.96875,21.060546875,-12.572265625
0.0735,-12.3720703125,20.5400390625,-8.80859375
0.074,-15.8154296875,19.69921875,-4.7646484375
0.0745,-18.8583984375,18.177734375,-0.3203125
0.075,-20.900390625,16.015625,3.84375
0.0755,-21.30078125,13.4931640625,6.966796875
0.076,-21.541015625,10.2900390625,10.2099609375
0.0765,-21.140625,6.326171875,13.7734375
0.077,-20.2998046875,2.2421875,17.0966796875
0.0775,-18.5380859375,-1.921875,19.37890625
0.078,-16.5361328125,-5.3251953125,20.9404296875
0.0785,-13.8935546875,-8.3681640625,21.3408203125
0.079,-10.08984375,-11.611328125,20.98046875
0.0795,-5.6455078125,-15.0546875,20.099609375
0.08,-0.80078125,-18.1376953125,18.5380859375
0.0805,3.5234375,-20.0595703125,16.4560546875
0.081,6.4462890625,-20.5,14.173828125
0.0815,9.609375,-20.740234375,11.53125
0.082,13.2529296875,-20.0595703125,7.4873046875
0.0825,16.416015625,-19.05859375,3.443359375
0.083,18.978515625,-17.296875,-0.80078125
0.0835,20.66015625,-15.294921875,-4.484375
0.084,20.8603515625,-12.5322265625,-7.447265625
0.0845,20.9404296875,-9.2490234375,-10.810546875
0.085,20.419921875,-5.4052734375,-14.1337890625
0.0855,19.4990234375,-1.28125,-17.376953125
0.086,17.5771484375,2.6826171875,-19.4990234375
0.0865,15.4150390625,5.7255859375,-20.3798828125
0.087,12.8525390625,8.8486328125,-20.900390625
0.0875,8.48828125,12.4521484375,-20.2998046875
0.088,4.2841796875,15.4951171875,-19.37890625
0.0885,-0.48046875,18.1376953125,-17.6572265625
0.089,-4.3642578125,19.9794921875,-15.775390625
0.0895,-7.20703125,20.1396484375,-13.3330078125
0.09,-10.2900390625,20.259765625,-10.5302734375
0.0905,-14.09375,19.5791015625,-6.3662109375
0.091,-17.216796875,18.3779296875,-2.0419921875
0.0915,-19.4189453125,16.49609375,2.001953125
0.092,-20.66015625,14.333984375,5.3251953125
0.0925,-20.98046875,11.53125,8.4482421875
0.093,-20.8203125,7.7275390625,12.0517578125
0.0935,-20.259765625,4.083984375,15.1748046875
0.094,-19.0986328125,0.0,18.177734375
0.0945,-17.13671875,-4.00390625,20.2197265625
0.095,-14.7744140625,-6.9267578125,20.580078125
0.0955,-11.931640625,-9.8896484375,20.98046875
0.096,-7.0869140625,-13.8134765625,20.2197265625
0.0965,-2.5224609375,-16.9365234375,18.8984375
0.097,1.841796875,-18.9384765625,16.9765625
0.0975,5.4052734375,-20.33984375,15.0947265625
0.098,8.328125,-20.419921875,12.3720703125
0.0985,11.6513671875,-20.1396484375,9.0087890625
0.099,15.0947265625,-19.5390625,5.0849609375
0.0995,18.2177734375,-17.9375,0.6005859375
0.1,20.099609375,-15.8955078125,-3.3232421875
0.1005,20.740234375,-13.453125,-6.40625
0.101,21.060546875,-10.650390625,-9.4091796875
0.1015,20.6201171875,-6.326171875,-13.4130859375
0.102,19.859375,-2.6826171875,-16.3759765625
0.1025,18.3779296875,1.3212890625,-18.818359375
0.103,16.4560546875,5.0849609375,-20.5
0.1035,13.4130859375,7.927734375,-20.580078125
0.104,10.3701171875,11.0107421875,-20.7802734375
0.1045,5.6455078125,14.734375,-20.01953125
0.105,0.7607421875,17.77734375,-18.2978515625
0.1055,-3.203125,19.5390625,-16.3759765625
0.106,-6.5263671875,20.4599609375,-14.25390625
0.1065,-9.5693359375,20.5400390625,-11.53125
0.107,-13.2529296875,19.859375,-7.3671875
0.1075,-16.3759765625,19.05859375,-3.603515625
0.108,-19.138671875,17.296875,0.880859375
0.1085,-20.8203125,15.1748046875,4.6044921875
0.109,-21.060546875,12.2919921875,7.6875
0.1095,-21.30078125,9.44921875,10.810546875
0.11,-20.7802734375,5.0048828125,14.734375
0.1105,-19.6591796875,0.9609375,17.77734375
0.111,-17.8173828125,-2.8828125,19.7392578125
0.1115,-15.8955078125,-6.2861328125,21.140625
0.112,-12.6923828125,-9.3291015625,21.1005859375
0.1125,-8.408203125,-12.7724609375,20.66015625
0.113,-4.2841796875,-16.095703125,19.8193359375
0.1135,0.880859375,-18.7783203125,17.77734375
0.114,4.484375,-20.259765625,15.85546875
0.1145,7.607421875,-20.580078125,13.3330078125
0.115,10.5703125,-20.8203125,10.6904296875
0.1155,14.654296875,-19.859375,5.8857421875
0.116,17.6171875,-18.578125,1.841796875
0.1165,19.8193359375,-16.81640625,-2.1220703125
0.117,21.140625,-14.57421875,-5.7255859375
0.1175,21.1005859375,-11.4111328125,-8.728515625
0.118,21.1005859375,-7.9677734375,-12.1318359375
0.1185,20.5,-4.0439453125,-15.53515625
0.119,19.1787109375,0.400390625,-18.578125
0.1195,17.0966796875,3.9638671875,-20.2197265625
0.12,14.734375,7.046875,-21.0205078125
0.1205,11.771484375,10.0498046875,-21.2607421875
0.121,6.6865234375,14.1337890625,-20.2998046875
0.1215,2.5224609375,17.0166015625,-19.21875
0.122,-2.1220703125,19.3388671875,-17.296875
0.1225,-5.6455078125,20.6201171875,-15.2548828125
0.123,-8.80859375,20.4599609375,-12.171875
0.1235,-11.8515625,20.4599609375,-9.3291015625
0.124,-15.6552734375,19.5791015625,-4.8447265625
0.1245,-18.658203125,17.857421875,-0.2001953125
0.125,-20.33984375,15.85546875,3.4033203125
0.1255,-21.2607421875,13.453125,6.7265625
0.126,-21.30078125,10.4501953125,9.8095703125
0.1265,-20.8603515625,6.2060546875,13.61328125
0.127,-20.2197265625,2.5224609375,16.65625
0.1275,-18.658203125,-1.8017578125,19.37890625
0.128,-16.4560546875,-5.365234375,20.8203125
0.1285,-13.61328125,-8.328125,20.9404296875
0.129,-10.73046875,-11.291015625,21.220703125
0.1295,-5.3251953125,-15.2548828125,20.01953125
0.13,-0.640625,-17.9775390625,18.2978515625
0.1305,3.1630859375,-19.8193359375,16.5361328125
0.131,6.646484375,-20.8203125,14.3740234375
0.1315,9.76953125,-20.5,11.1708984375
0.132,13.1728515625,-19.939453125,7.607421875
0.1325,16.49609375,-19.21875,3.5234375
0.133,19.2587890625,-17.3369140625,-1.1611328125
0.1335,20.4599609375,-15.1748046875,-4.4443359375
0.134,21.0205078125,-12.3720703125,-7.6474609375
0.1345,21.060546875,-9.609375,-10.5703125
0.135,20.419921875,-5.0048828125,-14.5341796875
0.1355,19.3388671875,-1.2412109375,-17.3369140625
0.136,17.7373046875,2.6025390625,-19.4990234375
0.1365,15.5751953125,5.9658203125,-20.8203125
0.137,12.2919921875,9.048828125,-20.6201171875
0.1375,8.80859375,12.3720703125,-20.5
0.138,4.1240234375,15.935546875,-19.5791015625
0.1385,-1.0009765625,18.6181640625,-17.4970703125
0.139,-4.2841796875,19.859375,-15.6953125
0.1395,-7.5673828125,20.5400390625,-13.4130859375
0.14,-10.6904296875,20.3798828125,-10.41015625
0.1405,-14.333984375,19.5390625,-6.005859375
0.141,-17.45703125,18.498046875,-1.9619140625
0.1415,-19.859375,16.576171875,2.2421875
0.142,-20.8203125,14.2939453125,5.4853515625
0.1425,-21.0205078125,11.2109375,8.7685546875
0.143,-21.0205078125,8.0478515625,11.931640625
0.1435,-20.419921875,3.84375,15.615234375
0.144,-18.9384765625,-0.5205078125,18.4580078125
0.1445,-17.056640625,-4.00390625,20.0595703125
0.145,-14.9345703125,-7.126953125,21.1806640625
0.1455,-11.4912109375,-10.169921875,20.8603515625
0.146,-6.9267578125,-13.853515625,20.1796875
0.1465,-2.5625,-17.0166015625,19.1787109375
0.147,2.2822265625,-19.4189453125,17.056640625
0.1475,5.4453125,-20.33984375,14.974609375
0.148,8.6884765625,-20.5400390625,12.2119140625
0.1485,11.8515625,-20.4599609375,9.1689453125
0.149,15.53515625,-19.458984375,4.6044921875
0.1495,18.498046875,-17.857421875,0.2802734375
0.15,20.33984375,-15.8955078125,-3.36328125
0.1505,21.140625,-13.4931640625,-6.7265625
0.151,21.0205078125,-10.25,-9.8896484375
0.1515,20.66015625,-6.486328125,-13.3330078125
0.152,20.099609375,-2.6025390625,-16.65625
0.1525,18.2978515625,1.8017578125,-19.37890625
0.153,16.1357421875,5.125,-20.4599609375
0.1535,13.61328125,8.248046875,-21.1005859375
0.154,10.2099609375,11.4111328125,-21.0205078125
0.1545,5.1650390625,15.0947265625,-19.859375
0.155,0.640625,17.9775390625,-18.41796875
0.1555,-3.603515625,19.9794921875,-16.49609375
0.156,-6.806640625,20.6201171875,-14.173828125
0.1565,-10.08984375,20.5400390625,-11.05078125
0.157,-13.4130859375,20.1796875,-7.607421875
0.1575,-16.896484375,19.21875,-3.2431640625
0.158,-19.619140625,17.216796875,1.5615234375
0.1585,-21.0205078125,15.0947265625,4.8046875
0.159,-21.6611328125,12.412109375,8.16796875
0.1595,-21.4609375,8.888671875,11.4912109375
0.16,-20.8203125,4.724609375,15.0546875
0.1605,-19.8994140625,0.7607421875,18.0576171875
0.161,-18.09765625,-3.5234375,20.5
0.1615,-15.5751953125,-6.56640625,21.2607421875
0.162,-12.5322265625,-9.76953125,21.4609375
0.1625,-8.6884765625,-13.2529296875,21.1806640625
0.163,-3.5634765625,-16.7763671875,19.859375
0.1635,1.28125,-19.21875,17.77734375
0.164,4.884765625,-20.740234375,15.935546875
0.1645,8.1279296875,-21.1806640625,13.4130859375
0.165,11.4111328125,-20.8203125,9.9697265625
0.1655,14.9345703125,-20.1796875,6.005859375
0.166,18.2177734375,-18.8984375,1.5615234375
0.1665,20.580078125,-16.7763671875,-2.9228515625
0.167,21.30078125,-14.3740234375,-6.0458984375
0.1675,21.7412109375,-11.451171875,-9.369140625
0.168,21.4208984375,-7.6875,-12.8525390625
0.1685,20.6201171875,-3.5634765625,-16.255859375
0.169,19.1787109375,0.6806640625,-18.8583984375
0.1695,17.296875,4.484375,-20.900390625
0.17,14.654296875,7.52734375,-21.380859375
0.1705,11.2109375,10.73046875,-21.220703125
0.171,6.966796875,14.25390625,-20.66015625
0.1715,2.0419921875,17.6171875,-19.37890625
0.172,-2.6826171875,19.779296875,-17.0966796875
0.1725,-5.845703125,20.7001953125,-15.0947265625
0.173,-9.048828125,21.060546875,-12.4521484375
0.1735,-12.4521484375,20.5,-8.728515625
0.174,-15.85546875,19.619140625,-4.64453125
0.1745,-18.8583984375,18.0576171875,-0.2802734375
0.175,-20.900390625,15.9755859375,3.9638671875
0.1755,-21.3408203125,13.29296875,7.046875
0.176,-21.541015625,10.169921875,10.2900390625
0.1765,-21.140625,6.166015625,13.8134765625
0.177,-20.3798828125,2.162109375,17.216796875
0.1775,-18.498046875,-2.08203125,19.4990234375
0.178,-16.5361328125,-5.4453125,20.98046875
0.1785,-13.853515625,-8.48828125,21.4609375
0.179,-9.9697265625,-11.8515625,21.060546875
0.1795,-5.525390625,-15.1748046875,20.1396484375
0.18,-0.6806640625,-18.2578125,18.578125
0.1805,3.68359375,-20.2197265625,16.49609375
0.181,6.6865234375,-20.66015625,14.173828125
0.1815,9.849609375,-20.900390625,11.4912109375
0.182,13.5732421875,-20.2998046875,7.3671875
0.1825,16.7763671875,-19.21875,3.2431640625
0.183,19.3388671875,-17.4970703125,-1.041015625
0.1835,20.900390625,-15.5751953125,-4.7646484375
0.184,21.30078125,-12.5322265625,-7.8076171875
0.1845,21.2607421875,-9.1689453125,-11.2509765625
0.185,20.7001953125,-5.205078125,-14.6142578125
0.1855,19.8193359375,-1.0009765625,-17.8974609375
0.186,17.77734375,3.0830078125,-20.01953125
0.1865,15.4951171875,6.1259765625,-20.8203125
0.187,12.7724609375,9.2490234375,-21.30078125
0.1875,8.2880859375,12.97265625,-20.7001953125
0.188,3.9638671875,16.095703125,-19.6591796875
0.1885,-0.80078125,18.6982421875,-17.8173828125
0.189,-4.7646484375,20.4599609375,-15.9755859375
0.1895,-7.7275390625,20.6201171875,-13.29296875
0.19,-10.890625,20.6201171875,-10.41015625
0.1905,-14.6142578125,19.9794921875,-6.1259765625
0.191,-17.8173828125,18.578125,-1.76171875
0.1915,-19.9794921875,16.65625,2.40234375
0.192,-21.1806640625,14.3740234375,5.765625
0.1925,-21.5009765625,11.451171875,8.96875
0.193,-21.1806640625,7.52734375,12.65234375
0.1935,-20.5400390625,3.68359375,15.6953125
0.194,-19.2587890625,-0.48046875,18.6181640625
0.1945,-17.2568359375,-4.4443359375,20.66015625
0.195,-14.57421875,-7.287109375,20.98046875
0.1955,-11.8115234375,-10.2900390625,21.30078125
0.196,-6.88671875,-14.173828125,20.4599609375
0.1965,-2.2421875,-17.296875,19.05859375
0.197,2.1220703125,-19.298828125,17.0966796875
0.1975,5.685546875,-20.66015625,15.1748046875
0.198,8.728515625,-20.66015625,12.2919921875
0.1985,12.091796875,-20.33984375,8.80859375
0.199,15.455078125,-19.69921875,4.96484375
0.1995,18.5380859375,-18.09765625,0.400390625
0.2,20.4599609375,-16.015625,-3.5634765625
0.2005,20.98046875,-13.4931640625,-6.6865234375
0.201,21.2607421875,-10.6103515625,-9.7294921875
0.2015,20.7802734375,-6.2861328125,-13.6533203125
0.202,19.9794921875,-2.5224609375,-16.65625
0.2025,18.41796875,1.521484375,-18.978515625
0.203,16.49609375,5.2451171875,-20.8603515625
0.2035,13.453125,8.087890625,-20.8203125
0.204,10.2099609375,11.2509765625,-20.8603515625
0.2045,5.6455078125,14.8544921875,-20.0595703125
0.205,0.640625,17.9375,-18.337890625
0.2055,-3.3232421875,19.69921875,-16.416015625
0.206,-6.5263671875,20.4599609375,-14.25390625
0.2065,-9.6494140625,20.6201171875,-11.5712890625
0.207,-13.4130859375,19.859375,-7.2470703125
0.2075,-16.4560546875,19.0185546875,-3.5634765625
0.208,-19.1787109375,17.296875,0.880859375
0.2085,-20.8603515625,15.134765625,4.6044921875
0.209,-21.0205078125,12.2919921875,7.6474609375
0.2095,-21.2607421875,9.3291015625,10.8505859375
0.21,-20.740234375,5.0048828125,14.6943359375
0.2105,-19.6591796875,0.9208984375,17.77734375
0.211,-17.857421875,-2.8427734375,19.69921875
0.2115,-15.8955078125,-6.166015625,21.060546875
0.212,-12.7724609375,-9.1689453125,21.1005859375
0.2125,-8.48828125,-12.8525390625,20.580078125
0.213,-4.2841796875,-15.775390625,19.859375
0.2135,0.6806640625,-18.73828125,17.8173828125
0.214,4.4443359375,-20.259765625,15.8955078125
0.2145,7.447265625,-20.5,13.3330078125
0.215,10.5302734375,-20.7001953125,10.73046875
0.2155,14.57421875,-19.8994140625,6.005859375
0.216,17.5771484375,-18.578125,1.8818359375
0.2165,19.69921875,-16.8564453125,-2.0419921875
0.217,21.060546875,-14.6142578125,-5.525390625
0.2175,21.0205078125,-11.53125,-8.6083984375
0.218,20.98046875,-7.9677734375,-12.1318359375
