wavelength,x,y,z
0.0,3.533447265625,-3.873779296875,0.490478515625
0.0005,3.693603515625,-3.273193359375,-0.310302734375
0.001,3.973876953125,-2.872802734375,-1.031005859375
0.0015,4.093994140625,-1.951904296875,-2.072021484375
0.002,4.013916015625,-1.311279296875,-2.552490234375
0.0025,3.733642578125,-0.510498046875,-3.113037109375
0.003,3.533447265625,0.090087890625,-3.553466796875
0.0035,3.133056640625,0.810791015625,-3.873779296875
0.004,2.572509765625,1.611572265625,-4.154052734375
0.0045,1.931884765625,2.492431640625,-4.354248046875
0.005,0.970947265625,2.892822265625,-3.833740234375
0.0055,0.290283203125,3.533447265625,-3.833740234375
0.006,-0.510498046875,3.813720703125,-3.273193359375
0.0065,-1.151123046875,4.134033203125,-2.952880859375
0.007,-2.072021484375,4.174072265625,-2.232177734375
0.0075,-2.632568359375,4.134033203125,-1.631591796875
0.008,-2.952880859375,3.773681640625,-0.950927734375
0.0085,-3.433349609375,3.653564453125,-0.390380859375
0.009,-3.593505859375,2.972900390625,0.410400390625
0.0095,-3.833740234375,2.452392578125,1.091064453125
0.01,-3.953857421875,1.651611328125,2.092041015625
0.0105,-3.673583984375,0.970947265625,2.492431640625
0.011,-3.553466796875,0.290283203125,3.052978515625
0.0115,-3.193115234375,-0.350341796875,3.413330078125
0.012,-2.832763671875,-1.111083984375,3.773681640625
0.0125,-2.152099609375,-1.951904296875,3.933837890625
0.013,-1.511474609375,-2.592529296875,3.973876953125
0.0135,-0.630615234375,-2.992919921875,3.533447265625
0.014,-0.030029296875,-3.593505859375,3.573486328125
0.0145,0.810791015625,-3.833740234375,3.012939453125
0.015,1.411376953125,-4.154052734375,2.692626953125
0.0155,2.292236328125,-4.234130859375,1.971923828125
0.016,2.692626953125,-4.033935546875,1.411376953125
0.0165,3.133056640625,-3.873779296875,0.770751953125
0.017,3.453369140625,-3.553466796875,0.130126953125
0.0175,3.693603515625,-3.072998046875,-0.630615234375
0.018,3.893798828125,-2.352294921875,-1.351318359375
0.0185,4.013916015625,-1.671630859375,-2.192138671875
0.019,3.693603515625,-0.950927734375,-2.592529296875
0.0195,3.773681640625,-0.390380859375,-3.233154296875
0.02,3.253173828125,0.370361328125,-3.553466796875
0.0205,2.932861328125,1.091064453125,-3.953857421875
0.021,2.252197265625,1.971923828125,-4.154052734375
0.0215,1.531494140625,2.532470703125,-4.033935546875
0.022,0.650634765625,3.052978515625,-3.713623046875
0.0225,0.010009765625,3.573486328125,-3.593505859375
0.023,-0.790771484375,3.813720703125,-3.072998046875
0.0235,-1.471435546875,4.093994140625,-2.632568359375
0.024,-2.272216796875,4.174072265625,-1.991943359375
0.0245,-2.592529296875,3.813720703125,-1.311279296875
0.025,-3.113037109375,3.773681640625,-0.790771484375
0.0255,-3.353271484375,3.173095703125,-0.030029296875
0.026,-3.713623046875,2.772705078125,0.690673828125
0.0265,-3.833740234375,1.971923828125,1.571533203125
0.027,-3.833740234375,1.371337890625,2.252197265625
0.0275,-3.393310546875,0.570556640625,2.652587890625
0.028,-3.473388671875,0.010009765625,3.213134765625
0.0285,-2.872802734375,-0.790771484375,3.493408203125
0.029,-2.472412109375,-1.431396484375,3.813720703125
0.0295,-1.751708984375,-2.312255859375,3.933837890625
0.03,-0.990966796875,-2.752685546875,3.653564453125
0.0305,-0.270263671875,-3.273193359375,3.493408203125
0.031,0.450439453125,-3.713623046875,3.213134765625
0.0315,1.211181640625,-3.913818359375,2.692626953125
0.032,1.891845703125,-4.073974609375,2.252197265625
0.0325,2.532470703125,-4.154052734375,1.651611328125
0.033,2.772705078125,-3.713623046875,0.970947265625
0.0335,3.253173828125,-3.793701171875,0.490478515625
0.034,3.453369140625,-3.032958984375,-0.310302734375
0.0345,3.733642578125,-2.632568359375,-0.950927734375
0.035,3.813720703125,-1.871826171875,-1.791748046875
0.0355,3.693603515625,-1.311279296875,-2.272216796875
0.036,3.493408203125,-0.590576171875,-2.752685546875
0.0365,3.453369140625,-0.030029296875,-3.233154296875
0.037,2.972900390625,0.690673828125,-3.553466796875
0.0375,2.532470703125,1.411376953125,-3.873779296875
0.038,1.931884765625,2.132080078125,-3.953857421875
0.0385,1.091064453125,2.532470703125,-3.593505859375
0.039,0.490478515625,3.173095703125,-3.633544921875
0.0395,-0.270263671875,3.453369140625,-3.193115234375
0.04,-0.910888671875,3.773681640625,-2.872802734375
0.0405,-1.631591796875,3.853759765625,-2.312255859375
0.041,-2.072021484375,3.813720703125,-1.871826171875
0.0415,-2.472412109375,3.533447265625,-1.271240234375
0.042,-2.952880859375,3.573486328125,-0.750732421875
0.0425,-3.193115234375,2.892822265625,0.090087890625
0.043,-3.513427734375,2.532470703125,0.730712890625
0.0435,-3.593505859375,1.851806640625,1.571533203125
0.044,-3.393310546875,1.251220703125,1.971923828125
0.0445,-3.393310546875,0.610595703125,2.612548828125
0.045,-3.153076171875,-0.030029296875,3.052978515625
0.0455,-2.792724609375,-0.790771484375,3.413330078125
0.046,-2.272216796875,-1.511474609375,3.613525390625
0.0465,-1.631591796875,-2.112060546875,3.653564453125
0.047,-0.870849609375,-2.592529296875,3.373291015625
0.0475,-0.310302734375,-3.233154296875,3.493408203125
0.048,0.490478515625,-3.553466796875,2.932861328125
0.0485,1.131103515625,-3.873779296875,2.692626953125
0.049,1.851806640625,-3.993896484375,2.092041015625
0.0495,2.212158203125,-3.873779296875,1.611572265625
0.05,2.692626953125,-3.673583984375,1.010986328125
0.0505,3.052978515625,-3.393310546875,0.450439453125
0.051,3.333251953125,-2.872802734375,-0.350341796875
0.0515,3.573486328125,-2.392333984375,-1.031005859375
0.052,3.693603515625,-1.791748046875,-1.791748046875
0.0525,3.453369140625,-1.151123046875,-2.192138671875
0.053,3.573486328125,-0.590576171875,-2.872802734375
0.0535,3.133056640625,0.170166015625,-3.193115234375
0.054,2.852783203125,0.890869140625,-3.593505859375
0.0545,2.212158203125,1.611572265625,-3.793701171875
0.055,1.571533203125,2.132080078125,-3.673583984375
0.0555,0.810791015625,2.652587890625,-3.473388671875
0.056,0.250244140625,3.173095703125,-3.473388671875
0.0565,-0.550537109375,3.413330078125,-2.912841796875
0.057,-1.151123046875,3.693603515625,-2.632568359375
0.0575,-1.791748046875,3.733642578125,-2.112060546875
0.058,-2.112060546875,3.533447265625,-1.551513671875
0.0585,-2.672607421875,3.573486328125,-1.031005859375
0.059,-2.952880859375,3.052978515625,-0.270263671875
0.0595,-3.233154296875,2.652587890625,0.450439453125
0.06,-3.433349609375,2.052001953125,1.251220703125
0.0605,-3.473388671875,1.531494140625,1.771728515625
0.061,-3.193115234375,0.810791015625,2.212158203125
0.0615,-3.313232421875,0.290283203125,2.852783203125
0.062,-2.792724609375,-0.510498046875,3.133056640625
0.0625,-2.512451171875,-1.151123046875,3.493408203125
0.063,-1.791748046875,-1.871826171875,3.533447265625
0.0635,-1.111083984375,-2.352294921875,3.373291015625
0.064,-0.470458984375,-2.912841796875,3.333251953125
0.0645,0.210205078125,-3.393310546875,3.093017578125
0.065,0.930908203125,-3.673583984375,2.692626953125
0.0655,1.531494140625,-3.873779296875,2.292236328125
0.066,2.052001953125,-3.873779296875,1.851806640625
0.0665,2.372314453125,-3.553466796875,1.251220703125
0.067,2.932861328125,-3.593505859375,0.730712890625
0.0675,3.133056640625,-2.912841796875,-0.070068359375
0.068,3.453369140625,-2.632568359375,-0.710693359375
0.0685,3.533447265625,-1.951904296875,-1.511474609375
0.069,3.493408203125,-1.431396484375,-1.951904296875
0.0695,3.373291015625,-0.710693359375,-2.552490234375
0.07,3.333251953125,-0.150146484375,-3.072998046875
0.0705,2.892822265625,0.610595703125,-3.393310546875
0.071,2.492431640625,1.291259765625,-3.713623046875
0.0715,1.851806640625,1.931884765625,-3.713623046875
0.072,1.051025390625,2.412353515625,-3.473388671875
0.0725,0.490478515625,3.052978515625,-3.553466796875
0.073,-0.310302734375,3.293212890625,-3.072998046875
0.0735,-0.950927734375,3.613525390625,-2.832763671875
0.074,-1.551513671875,3.733642578125,-2.272216796875
0.0745,-1.991943359375,3.693603515625,-1.791748046875
0.075,-2.432373046875,3.453369140625,-1.151123046875
0.0755,-2.912841796875,3.373291015625,-0.630615234375
0.076,-3.113037109375,2.652587890625,0.290283203125
0.0765,-3.433349609375,2.332275390625,0.930908203125
0.077,-3.473388671875,1.611572265625,1.651611328125
0.0775,-3.273193359375,1.010986328125,2.092041015625
0.078,-3.273193359375,0.410400390625,2.692626953125
0.0785,-2.912841796875,-0.270263671875,3.052978515625
0.079,-2.552490234375,-0.990966796875,3.413330078125
0.0795,-1.951904296875,-1.671630859375,3.533447265625
0.08,-1.311279296875,-2.272216796875,3.533447265625
0.0805,-0.590576171875,-2.792724609375,3.213134765625
0.081,0.010009765625,-3.393310546875,3.293212890625
0.0815,0.850830078125,-3.593505859375,2.612548828125
0.082,1.411376953125,-3.873779296875,2.452392578125
0.0825,1.971923828125,-3.873779296875,1.891845703125
0.083,2.372314453125,-3.673583984375,1.371337890625
0.0835,2.812744140625,-3.513427734375,0.770751953125
0.084,3.133056640625,-3.153076171875,0.090087890625
0.0845,3.333251953125,-2.552490234375,-0.670654296875
0.085,3.533447265625,-2.112060546875,-1.311279296875
0.0855,3.533447265625,-1.471435546875,-1.951904296875
0.086,3.333251953125,-0.830810546875,-2.392333984375
0.0865,3.413330078125,-0.270263671875,-3.032958984375
0.087,2.892822265625,0.490478515625,-3.313232421875
0.0875,2.572509765625,1.171142578125,-3.673583984375
0.088,1.931884765625,1.811767578125,-3.673583984375
0.0885,1.251220703125,2.292236328125,-3.553466796875
0.089,0.570556640625,2.772705078125,-3.353271484375
0.0895,-0.030029296875,3.213134765625,-3.273193359375
0.09,-0.830810546875,3.493408203125,-2.672607421875
0.0905,-1.311279296875,3.693603515625,-2.392333984375
0.091,-1.911865234375,3.693603515625,-1.871826171875
0.0915,-2.232177734375,3.453369140625,-1.311279296875
0.092,-2.752685546875,3.453369140625,-0.790771484375
0.0925,-2.952880859375,2.812744140625,0.010009765625
0.093,-3.273193359375,2.412353515625,0.650634765625
0.0935,-3.353271484375,1.851806640625,1.331298828125
0.094,-3.353271484375,1.291259765625,1.851806640625
0.0945,-3.153076171875,0.650634765625,2.292236328125
0.095,-3.153076171875,0.090087890625,2.852783203125
0.0955,-2.592529296875,-0.670654296875,3.173095703125
0.096,-2.272216796875,-1.311279296875,3.453369140625
0.0965,-1.591552734375,-1.991943359375,3.453369140625
0.097,-0.950927734375,-2.472412109375,3.293212890625
0.0975,-0.350341796875,-3.072998046875,3.213134765625
0.098,0.370361328125,-3.353271484375,2.892822265625
0.0985,1.091064453125,-3.633544921875,2.572509765625
0.099,1.571533203125,-3.753662109375,2.172119140625
0.0995,2.052001953125,-3.753662109375,1.771728515625
0.1,2.412353515625,-3.473388671875,1.131103515625
0.1005,2.932861328125,-3.473388671875,0.610595703125
0.101,3.093017578125,-2.712646484375,-0.270263671875
0.1015,3.453369140625,-2.512451171875,-0.830810546875
0.102,3.453369140625,-1.791748046875,-1.551513671875
0.1025,3.453369140625,-1.311279296875,-1.991943359375
0.103,3.333251953125,-0.630615234375,-2.592529296875
0.1035,3.213134765625,-0.030029296875,-3.072998046875
0.104,2.812744140625,0.730712890625,-3.433349609375
0.1045,2.292236328125,1.331298828125,-3.633544921875
0.105,1.651611328125,1.931884765625,-3.593505859375
0.1055,0.890869140625,2.452392578125,-3.393310546875
0.106,0.330322265625,3.093017578125,-3.473388671875
0.1065,-0.430419921875,3.333251953125,-2.872802734375
0.107,-1.031005859375,3.653564453125,-2.632568359375
0.1075,-1.551513671875,3.613525390625,-2.112060546875
0.108,-2.031982421875,3.613525390625,-1.671630859375
0.1085,-2.432373046875,3.373291015625,-1.031005859375
0.109,-2.872802734375,3.173095703125,-0.470458984375
0.1095,-3.072998046875,2.532470703125,0.410400390625
0.11,-3.353271484375,2.172119140625,1.010986328125
0.1105,-3.353271484375,1.531494140625,1.651611328125
0.111,-3.193115234375,0.930908203125,2.092041015625
0.1115,-3.193115234375,0.290283203125,2.692626953125
0.112,-2.792724609375,-0.390380859375,3.012939453125
0.1125,-2.432373046875,-1.111083984375,3.373291015625
0.113,-1.791748046875,-1.711669921875,3.333251953125
0.1135,-1.231201171875,-2.312255859375,3.333251953125
0.114,-0.510498046875,-2.712646484375,3.173095703125
0.1145,0.050048828125,-3.273193359375,3.173095703125
0.115,0.890869140625,-3.513427734375,2.532470703125
0.1155,1.371337890625,-3.753662109375,2.372314453125
0.116,1.931884765625,-3.713623046875,1.811767578125
0.1165,2.252197265625,-3.553466796875,1.331298828125
0.117,2.732666015625,-3.393310546875,0.730712890625
0.1175,3.012939453125,-2.952880859375,0.010009765625
0.118,3.293212890625,-2.512451171875,-0.670654296875
0.1185,3.453369140625,-1.991943359375,-1.271240234375
0.119,3.493408203125,-1.471435546875,-1.911865234375
0.1195,3.333251953125,-0.790771484375,-2.392333984375
0.12,3.333251953125,-0.270263671875,-2.992919921875
0.1205,2.812744140625,0.530517578125,-3.313232421875
0.121,2.532470703125,1.131103515625,-3.673583984375
0.1215,1.771728515625,1.771728515625,-3.553466796875
0.122,1.131103515625,2.372314453125,-3.513427734375
0.1225,0.490478515625,2.852783203125,-3.353271484375
0.123,-0.150146484375,3.293212890625,-3.153076171875
0.1235,-0.950927734375,3.533447265625,-2.632568359375
0.124,-1.431396484375,3.653564453125,-2.312255859375
0.1245,-1.951904296875,3.693603515625,-1.791748046875
0.125,-2.352294921875,3.453369140625,-1.231201171875
0.1255,-2.872802734375,3.333251953125,-0.630615234375
0.126,-3.072998046875,2.652587890625,0.290283203125
0.1265,-3.393310546875,2.252197265625,0.970947265625
0.127,-3.353271484375,1.611572265625,1.571533203125
0.1275,-3.353271484375,1.091064453125,2.052001953125
0.128,-3.153076171875,0.370361328125,2.572509765625
0.1285,-3.032958984375,-0.270263671875,3.093017578125
0.129,-2.432373046875,-1.111083984375,3.373291015625
0.1295,-1.991943359375,-1.751708984375,3.493408203125
0.13,-1.231201171875,-2.312255859375,3.453369140625
0.1305,-0.550537109375,-2.792724609375,3.293212890625
0.131,0.050048828125,-3.353271484375,3.173095703125
0.1315,0.890869140625,-3.553466796875,2.692626953125
0.132,1.571533203125,-3.833740234375,2.292236328125
0.1325,1.971923828125,-3.753662109375,1.771728515625
0.133,2.492431640625,-3.713623046875,1.291259765625
0.1335,2.772705078125,-3.353271484375,0.650634765625
0.134,3.253173828125,-3.193115234375,0.010009765625
0.1345,3.333251953125,-2.392333984375,-0.830810546875
0.135,3.613525390625,-2.031982421875,-1.431396484375
0.1355,3.453369140625,-1.311279296875,-2.031982421875
0.136,3.413330078125,-0.790771484375,-2.512451171875
0.1365,3.253173828125,-0.150146484375,-3.032958984375
0.137,2.932861328125,0.570556640625,-3.393310546875
0.1375,2.492431640625,1.291259765625,-3.793701171875
0.138,1.851806640625,1.891845703125,-3.633544921875
0.1385,1.131103515625,2.492431640625,-3.593505859375
0.139,0.370361328125,2.892822265625,-3.273193359375
0.1395,-0.150146484375,3.373291015625,-3.233154296875
0.14,-1.031005859375,3.573486328125,-2.592529296875
0.1405,-1.591552734375,3.813720703125,-2.272216796875
0.141,-1.991943359375,3.613525390625,-1.711669921875
0.1415,-2.472412109375,3.573486328125,-1.271240234375
0.142,-2.832763671875,3.213134765625,-0.590576171875
0.1425,-3.193115234375,2.892822265625,0.090087890625
0.143,-3.353271484375,2.212158203125,0.970947265625
0.1435,-3.473388671875,1.771728515625,1.491455078125
0.144,-3.353271484375,1.091064453125,2.092041015625
0.1445,-3.193115234375,0.450439453125,2.492431640625
0.145,-3.072998046875,-0.150146484375,3.052978515625
0.1455,-2.552490234375,-0.950927734375,3.333251953125
0.146,-2.112060546875,-1.591552734375,3.613525390625
0.1465,-1.391357421875,-2.112060546875,3.413330078125
0.147,-0.790771484375,-2.712646484375,3.453369140625
0.1475,-0.030029296875,-3.113037109375,3.133056640625
0.148,0.490478515625,-3.553466796875,3.012939453125
0.1485,1.331298828125,-3.713623046875,2.332275390625
0.149,1.771728515625,-3.833740234375,2.052001953125
0.1495,2.252197265625,-3.713623046875,1.451416015625
0.15,2.612548828125,-3.553466796875,0.970947265625
0.1505,3.052978515625,-3.233154296875,0.290283203125
0.151,3.253173828125,-2.712646484375,-0.390380859375
0.1515,3.533447265625,-2.232177734375,-1.151123046875
0.152,3.493408203125,-1.671630859375,-1.671630859375
0.1525,3.573486328125,-1.151123046875,-2.272216796875
0.153,3.253173828125,-0.470458984375,-2.712646484375
0.1535,3.253173828125,0.210205078125,-3.193115234375
0.154,2.612548828125,0.970947265625,-3.553466796875
0.1545,2.252197265625,1.571533203125,-3.713623046875
0.155,1.411376953125,2.132080078125,-3.553466796875
0.1555,0.810791015625,2.692626953125,-3.473388671875
0.156,0.130126953125,3.133056640625,-3.233154296875
0.1565,-0.510498046875,3.453369140625,-2.952880859375
0.157,-1.271240234375,3.693603515625,-2.472412109375
0.1575,-1.671630859375,3.653564453125,-2.072021484375
0.158,-2.232177734375,3.693603515625,-1.551513671875
0.1585,-2.552490234375,3.373291015625,-0.950927734375
0.159,-3.032958984375,3.173095703125,-0.310302734375
0.1595,-3.193115234375,2.452392578125,0.570556640625
0.16,-3.513427734375,2.052001953125,1.251220703125
0.1605,-3.233154296875,1.371337890625,1.771728515625
0.161,-3.353271484375,0.810791015625,2.332275390625
0.1615,-3.072998046875,0.210205078125,2.892822265625
0.162,-2.872802734375,-0.510498046875,3.253173828125
0.1625,-2.312255859375,-1.391357421875,3.533447265625
0.163,-1.711669921875,-1.951904296875,3.533447265625
0.1635,-0.990966796875,-2.592529296875,3.493408203125
0.164,-0.270263671875,-3.072998046875,3.293212890625
0.1645,0.370361328125,-3.553466796875,3.133056640625
0.165,1.171142578125,-3.793701171875,2.572509765625
0.1655,1.891845703125,-3.993896484375,2.172119140625
0.166,2.252197265625,-3.753662109375,1.571533203125
0.1665,2.732666015625,-3.793701171875,1.091064453125
0.167,3.052978515625,-3.273193359375,0.290283203125
0.1675,3.453369140625,-3.032958984375,-0.310302734375
0.168,3.613525390625,-2.192138671875,-1.311279296875
0.1685,3.773681640625,-1.671630859375,-1.831787109375
0.169,3.533447265625,-0.990966796875,-2.432373046875
0.1695,3.453369140625,-0.510498046875,-3.072998046875
0.17,3.173095703125,0.290283203125,-3.353271484375
0.1705,2.732666015625,1.010986328125,-3.713623046875
0.171,2.172119140625,1.851806640625,-3.993896484375
0.1715,1.371337890625,2.332275390625,-3.673583984375
0.172,0.650634765625,2.972900390625,-3.633544921875
0.1725,-0.070068359375,3.333251953125,-3.273193359375
0.173,-0.670654296875,3.693603515625,-3.032958984375
0.1735,-1.591552734375,3.853759765625,-2.352294921875
0.174,-2.192138671875,3.933837890625,-1.911865234375
0.1745,-2.552490234375,3.653564453125,-1.231201171875
0.175,-2.992919921875,3.653564453125,-0.750732421875
0.1755,-3.233154296875,3.052978515625,0.010009765625
0.176,-3.593505859375,2.612548828125,0.770751953125
0.1765,-3.833740234375,1.811767578125,1.851806640625
0.177,-3.593505859375,1.211181640625,2.212158203125
0.1775,-3.473388671875,0.490478515625,2.772705078125
0.178,-3.193115234375,-0.150146484375,3.173095703125
0.1785,-2.912841796875,-0.830810546875,3.573486328125
0.179,-2.272216796875,-1.671630859375,3.853759765625
0.1795,-1.631591796875,-2.432373046875,3.973876953125
0.18,-0.710693359375,-2.872802734375,3.533447265625
0.1805,-0.110107421875,-3.553466796875,3.573486328125
0.181,0.730712890625,-3.833740234375,3.052978515625
0.1815,1.411376953125,-4.114013671875,2.692626953125
0.182,2.372314453125,-4.274169921875,1.931884765625
0.1825,2.772705078125,-4.114013671875,1.411376953125
0.183,3.173095703125,-3.833740234375,0.690673828125
0.1835,3.573486328125,-3.593505859375,0.090087890625
0.184,3.773681640625,-2.912841796875,-0.710693359375
0.1845,3.893798828125,-2.512451171875,-1.551513671875
0.185,4.134033203125,-1.591552734375,-2.432373046875
0.1855,3.773681640625,-0.830810546875,-2.832763671875
0.186,3.733642578125,-0.150146484375,-3.393310546875
0.1865,3.253173828125,0.610595703125,-3.713623046875
0.187,2.852783203125,1.291259765625,-4.073974609375
0.1875,2.092041015625,2.252197265625,-4.234130859375
0.188,1.331298828125,2.852783203125,-4.154052734375
