wavelength,x,y,z
0.0,4.254150390625,-3.993896484375,-0.790771484375
0.0005,4.214111328125,-2.872802734375,-1.951904296875
0.001,4.294189453125,-2.352294921875,-2.512451171875
0.0015,4.134033203125,-1.271240234375,-3.313232421875
0.002,3.773681640625,-0.470458984375,-3.753662109375
0.0025,3.173095703125,0.450439453125,-4.033935546875
0.003,2.692626953125,1.211181640625,-4.274169921875
0.0035,1.771728515625,2.372314453125,-4.474365234375
0.004,1.131103515625,2.812744140625,-4.314208984375
0.0045,0.290283203125,3.653564453125,-4.274169921875
0.005,-0.510498046875,3.853759765625,-3.673583984375
0.0055,-1.151123046875,4.254150390625,-3.473388671875
0.006,-2.312255859375,4.334228515625,-2.392333984375
0.0065,-3.072998046875,4.494384765625,-1.791748046875
0.007,-3.673583984375,4.174072265625,-0.910888671875
0.0075,-4.194091796875,4.093994140625,-0.310302734375
0.008,-4.234130859375,3.453369140625,0.450439453125
0.0085,-4.474365234375,3.133056640625,0.930908203125
0.009,-4.554443359375,2.052001953125,2.052001953125
0.0095,-4.474365234375,1.491455078125,2.532470703125
0.01,-4.394287109375,0.570556640625,3.333251953125
0.0105,-3.873779296875,-0.310302734375,3.693603515625
0.011,-3.513427734375,-1.031005859375,4.013916015625
0.0115,-2.752685546875,-1.951904296875,4.134033203125
0.012,-2.031982421875,-2.912841796875,4.334228515625
0.0125,-1.271240234375,-3.353271484375,4.013916015625
0.013,-0.630615234375,-4.073974609375,4.053955078125
0.0135,0.170166015625,-4.194091796875,3.413330078125
0.014,0.810791015625,-4.634521484375,3.173095703125
0.0145,2.052001953125,-4.754638671875,2.092041015625
0.015,2.612548828125,-4.794677734375,1.571533203125
0.0155,3.213134765625,-4.554443359375,0.770751953125
0.016,3.453369140625,-4.514404296875,0.210205078125
0.0165,3.693603515625,-3.913818359375,-0.470458984375
0.017,3.853759765625,-3.393310546875,-1.031005859375
0.0175,4.053955078125,-2.552490234375,-2.031982421875
0.018,3.813720703125,-1.791748046875,-2.512451171875
0.0185,3.853759765625,-1.031005859375,-3.273193359375
0.019,3.173095703125,-0.150146484375,-3.473388671875
0.0195,3.012939453125,0.530517578125,-3.913818359375
0.02,2.052001953125,1.531494140625,-3.993896484375
0.0205,1.571533203125,2.252197265625,-4.234130859375
0.021,0.770751953125,2.812744140625,-3.913818359375
0.0215,0.170166015625,3.413330078125,-3.913818359375
0.022,-0.630615234375,3.573486328125,-3.353271484375
0.0225,-1.311279296875,3.933837890625,-3.032958984375
0.023,-2.432373046875,4.134033203125,-2.031982421875
0.0235,-2.912841796875,4.093994140625,-1.551513671875
0.024,-3.513427734375,3.933837890625,-0.910888671875
0.0245,-3.793701171875,3.533447265625,-0.270263671875
0.025,-4.033935546875,3.213134765625,0.330322265625
0.0255,-4.033935546875,2.532470703125,1.131103515625
0.026,-4.394287109375,1.931884765625,1.971923828125
0.0265,-4.073974609375,1.131103515625,2.492431640625
0.027,-4.154052734375,0.490478515625,3.173095703125
0.0275,-3.433349609375,-0.510498046875,3.373291015625
0.028,-3.353271484375,-1.031005859375,3.853759765625
0.0285,-2.352294921875,-2.192138671875,3.933837890625
0.029,-1.871826171875,-2.752685546875,4.013916015625
0.0295,-1.071044921875,-3.353271484375,3.813720703125
0.03,-0.510498046875,-3.833740234375,3.693603515625
0.0305,0.250244140625,-4.114013671875,3.213134765625
0.031,1.131103515625,-4.394287109375,2.692626953125
0.0315,2.212158203125,-4.674560546875,1.931884765625
0.032,2.612548828125,-4.434326171875,1.291259765625
0.0325,3.213134765625,-4.514404296875,0.690673828125
0.033,3.373291015625,-3.993896484375,-0.110107421875
0.0335,3.613525390625,-3.673583984375,-0.510498046875
0.034,3.653564453125,-2.792724609375,-1.391357421875
0.0345,3.853759765625,-2.272216796875,-2.072021484375
0.035,3.533447265625,-1.351318359375,-2.632568359375
0.0355,3.493408203125,-0.790771484375,-3.193115234375
0.036,2.812744140625,0.170166015625,-3.393310546875
0.0365,2.572509765625,0.810791015625,-3.753662109375
0.037,1.731689453125,1.891845703125,-3.993896484375
0.0375,1.171142578125,2.372314453125,-3.873779296875
0.038,0.490478515625,3.012939453125,-3.833740234375
0.0385,-0.190185546875,3.253173828125,-3.473388671875
0.039,-0.910888671875,3.653564453125,-3.153076171875
0.0395,-1.831787109375,3.813720703125,-2.352294921875
0.04,-2.752685546875,4.053955078125,-1.751708984375
0.0405,-3.072998046875,3.693603515625,-1.031005859375
0.041,-3.553466796875,3.853759765625,-0.630615234375
0.0415,-3.713623046875,3.173095703125,0.130126953125
0.042,-3.993896484375,2.932861328125,0.610595703125
0.0425,-4.114013671875,2.052001953125,1.651611328125
0.043,-4.194091796875,1.531494140625,2.212158203125
0.0435,-3.913818359375,0.610595703125,2.852783203125
0.044,-3.793701171875,0.010009765625,3.293212890625
0.0445,-3.193115234375,-0.910888671875,3.533447265625
0.045,-2.792724609375,-1.631591796875,3.813720703125
0.0455,-1.991943359375,-2.632568359375,4.093994140625
0.046,-1.311279296875,-3.072998046875,3.773681640625
0.0465,-0.790771484375,-3.753662109375,3.893798828125
0.047,0.050048828125,-3.993896484375,3.333251953125
0.0475,0.770751953125,-4.354248046875,3.012939453125
0.048,1.851806640625,-4.634521484375,2.052001953125
0.0485,2.652587890625,-4.714599609375,1.451416015625
0.049,3.052978515625,-4.354248046875,0.690673828125
0.0495,3.493408203125,-4.354248046875,0.290283203125
0.05,3.573486328125,-3.593505859375,-0.510498046875
0.0505,3.773681640625,-3.193115234375,-1.151123046875
0.051,3.973876953125,-2.312255859375,-2.192138671875
0.0515,3.693603515625,-1.551513671875,-2.632568359375
0.052,3.533447265625,-0.710693359375,-3.273193359375
0.0525,3.052978515625,0.050048828125,-3.553466796875
0.053,2.572509765625,0.810791015625,-3.793701171875
0.0535,1.891845703125,1.731689453125,-3.993896484375
0.054,1.211181640625,2.572509765625,-4.154052734375
0.0545,0.410400390625,2.932861328125,-3.673583984375
0.055,-0.070068359375,3.533447265625,-3.793701171875
0.0555,-0.990966796875,3.613525390625,-2.992919921875
0.056,-1.631591796875,3.853759765625,-2.672607421875
0.0565,-2.792724609375,4.013916015625,-1.711669921875
0.057,-3.273193359375,3.893798828125,-1.111083984375
0.0575,-3.713623046875,3.693603515625,-0.390380859375
0.058,-3.913818359375,3.493408203125,0.050048828125
0.0585,-3.993896484375,2.852783203125,0.770751953125
0.059,-4.154052734375,2.252197265625,1.451416015625
0.0595,-4.394287109375,1.531494140625,2.412353515625
0.06,-3.913818359375,0.690673828125,2.812744140625
0.0605,-3.993896484375,0.010009765625,3.493408203125
0.061,-3.273193359375,-0.830810546875,3.533447265625
0.0615,-2.952880859375,-1.551513671875,3.893798828125
0.062,-2.112060546875,-2.552490234375,4.053955078125
0.0625,-1.431396484375,-3.233154296875,4.093994140625
0.063,-0.670654296875,-3.673583984375,3.693603515625
0.0635,-0.190185546875,-4.234130859375,3.773681640625
0.064,0.850830078125,-4.434326171875,2.892822265625
0.0645,1.571533203125,-4.714599609375,2.492431640625
0.065,2.812744140625,-4.954833984375,1.451416015625
0.0655,3.173095703125,-4.554443359375,0.770751953125
0.066,3.693603515625,-4.434326171875,0.210205078125
0.0665,3.853759765625,-3.993896484375,-0.430419921875
0.067,3.973876953125,-3.313232421875,-1.231201171875
0.0675,4.053955078125,-2.552490234375,-2.031982421875
0.068,4.214111328125,-1.751708984375,-2.992919921875
0.0685,3.573486328125,-0.670654296875,-3.353271484375
0.069,3.573486328125,0.010009765625,-3.953857421875
0.0695,2.572509765625,0.970947265625,-3.993896484375
0.07,2.172119140625,1.731689453125,-4.274169921875
0.0705,1.211181640625,2.732666015625,-4.314208984375
0.071,0.410400390625,3.373291015625,-4.154052734375
0.0715,-0.310302734375,3.693603515625,-3.713623046875
0.072,-0.990966796875,4.053955078125,-3.473388671875
0.0725,-2.072021484375,4.134033203125,-2.432373046875
0.073,-2.752685546875,4.174072265625,-1.911865234375
0.0735,-3.753662109375,4.334228515625,-0.990966796875
0.074,-3.913818359375,3.773681640625,-0.270263671875
0.0745,-4.314208984375,3.693603515625,0.250244140625
0.075,-4.354248046875,2.892822265625,1.010986328125
0.0755,-4.434326171875,2.292236328125,1.691650390625
0.076,-4.394287109375,1.411376953125,2.532470703125
0.0765,-4.434326171875,0.690673828125,3.213134765625
0.077,-3.713623046875,-0.310302734375,3.533447265625
0.0775,-3.713623046875,-0.830810546875,3.973876953125
0.078,-2.712646484375,-1.871826171875,3.973876953125
0.0785,-2.312255859375,-2.512451171875,4.214111328125
0.079,-1.351318359375,-3.553466796875,4.214111328125
0.0795,-0.630615234375,-3.993896484375,3.933837890625
0.08,0.010009765625,-4.434326171875,3.733642578125
0.0805,0.930908203125,-4.754638671875,3.173095703125
0.081,1.931884765625,-4.954833984375,2.332275390625
0.0815,2.652587890625,-4.954833984375,1.691650390625
0.082,3.573486328125,-5.034912109375,0.890869140625
0.0825,3.733642578125,-4.434326171875,0.090087890625
0.083,4.174072265625,-4.394287109375,-0.350341796875
0.0835,4.174072265625,-3.353271484375,-1.351318359375
0.084,4.334228515625,-2.832763671875,-2.072021484375
0.0845,4.294189453125,-1.791748046875,-2.952880859375
0.085,4.134033203125,-0.990966796875,-3.673583984375
0.0855,3.453369140625,0.090087890625,-3.953857421875
0.086,3.173095703125,0.770751953125,-4.394287109375
0.0865,2.052001953125,2.011962890625,-4.434326171875
0.087,1.571533203125,2.652587890625,-4.554443359375
0.0875,0.530517578125,3.613525390625,-4.474365234375
0.088,-0.310302734375,3.893798828125,-3.993896484375
0.0885,-0.990966796875,4.254150390625,-3.713623046875
0.089,-2.072021484375,4.494384765625,-2.872802734375
0.0895,-3.072998046875,4.614501953125,-1.951904296875
0.09,-3.713623046875,4.454345703125,-1.151123046875
0.0905,-4.434326171875,4.414306640625,-0.350341796875
0.091,-4.514404296875,3.653564453125,0.450439453125
0.0915,-4.754638671875,3.493408203125,0.890869140625
0.092,-4.714599609375,2.252197265625,2.011962890625
0.0925,-4.754638671875,1.691650390625,2.572509765625
0.093,-4.554443359375,0.650634765625,3.413330078125
0.0935,-4.194091796875,-0.190185546875,3.893798828125
0.094,-3.633544921875,-1.071044921875,4.134033203125
0.0945,-3.193115234375,-1.791748046875,4.374267578125
0.095,-2.112060546875,-2.912841796875,4.494384765625
0.0955,-1.471435546875,-3.473388671875,4.334228515625
0.096,-0.630615234375,-4.354248046875,4.294189453125
0.0965,0.210205078125,-4.554443359375,3.693603515625
0.097,0.770751953125,-4.954833984375,3.493408203125
0.0975,1.971923828125,-5.034912109375,2.412353515625
0.098,2.812744140625,-5.155029296875,1.771728515625
0.0985,3.493408203125,-4.914794921875,0.850830078125
0.099,4.053955078125,-4.834716796875,0.210205078125
0.0995,4.134033203125,-4.114013671875,-0.590576171875
0.1,4.374267578125,-3.873779296875,-1.031005859375
0.1005,4.414306640625,-2.712646484375,-2.232177734375
0.101,4.374267578125,-2.112060546875,-2.752685546875
0.1015,4.254150390625,-1.111083984375,-3.673583984375
0.102,3.733642578125,-0.150146484375,-4.033935546875
0.1025,3.213134765625,0.690673828125,-4.354248046875
0.103,2.532470703125,1.571533203125,-4.514404296875
0.1035,1.651611328125,2.732666015625,-4.674560546875
0.104,0.890869140625,3.173095703125,-4.434326171875
0.1045,0.010009765625,4.013916015625,-4.434326171875
0.105,-0.870849609375,4.174072265625,-3.713623046875
0.1055,-1.471435546875,4.614501953125,-3.473388671875
0.106,-2.872802734375,4.734619140625,-2.232177734375
0.1065,-3.633544921875,4.734619140625,-1.551513671875
0.107,-4.194091796875,4.414306640625,-0.590576171875
0.1075,-4.714599609375,4.214111328125,0.130126953125
0.108,-4.714599609375,3.413330078125,0.890869140625
0.1085,-4.874755859375,3.012939453125,1.451416015625
0.109,-4.994873046875,1.851806640625,2.692626953125
0.1095,-4.674560546875,1.091064453125,3.133056640625
0.11,-4.554443359375,0.130126953125,3.933837890625
0.1105,-3.873779296875,-0.830810546875,4.134033203125
0.111,-3.433349609375,-1.551513671875,4.414306640625
0.1115,-2.552490234375,-2.592529296875,4.494384765625
0.112,-1.671630859375,-3.593505859375,4.614501953125
0.1125,-0.790771484375,-4.033935546875,4.134033203125
0.113,-0.110107421875,-4.754638671875,4.093994140625
0.1135,0.690673828125,-4.754638671875,3.373291015625
0.114,1.331298828125,-5.074951171875,3.052978515625
0.1145,2.732666015625,-5.195068359375,1.851806640625
0.115,3.333251953125,-5.074951171875,1.131103515625
0.1155,3.893798828125,-4.794677734375,0.290283203125
0.116,4.214111328125,-4.474365234375,-0.350341796875
0.1165,4.334228515625,-3.833740234375,-0.990966796875
0.117,4.334228515625,-3.193115234375,-1.671630859375
0.1175,4.534423828125,-2.272216796875,-2.792724609375
0.118,4.134033203125,-1.391357421875,-3.193115234375
0.1185,4.093994140625,-0.510498046875,-3.993896484375
0.119,3.213134765625,0.490478515625,-4.154052734375
0.1195,2.932861328125,1.131103515625,-4.514404296875
0.12,1.931884765625,2.252197265625,-4.514404296875
0.1205,1.211181640625,3.093017578125,-4.674560546875
0.121,0.290283203125,3.573486328125,-4.234130859375
0.1215,-0.430419921875,4.254150390625,-4.154052734375
0.122,-1.271240234375,4.334228515625,-3.353271484375
0.1225,-2.031982421875,4.614501953125,-2.912841796875
0.123,-3.393310546875,4.814697265625,-1.751708984375
0.1235,-3.913818359375,4.494384765625,-0.990966796875
0.124,-4.514404296875,4.254150390625,-0.150146484375
0.1245,-4.714599609375,3.813720703125,0.530517578125
0.125,-4.794677734375,3.173095703125,1.211181640625
0.1255,-4.794677734375,2.292236328125,2.011962890625
0.126,-4.994873046875,1.451416015625,3.052978515625
0.1265,-4.434326171875,0.490478515625,3.413330078125
0.127,-4.354248046875,-0.310302734375,4.134033203125
0.1275,-3.473388671875,-1.271240234375,4.134033203125
0.128,-3.153076171875,-1.951904296875,4.454345703125
0.1285,-1.991943359375,-3.193115234375,4.494384765625
0.129,-1.271240234375,-3.833740234375,4.414306640625
0.1295,-0.390380859375,-4.234130859375,3.973876953125
0.13,0.250244140625,-4.714599609375,3.853759765625
0.1305,1.091064453125,-4.794677734375,3.093017578125
0.131,1.931884765625,-4.994873046875,2.492431640625
0.1315,3.173095703125,-5.195068359375,1.411376953125
0.132,3.533447265625,-4.714599609375,0.610595703125
0.1325,4.093994140625,-4.674560546875,0.010009765625
0.133,4.093994140625,-3.993896484375,-0.630615234375
0.1335,4.214111328125,-3.553466796875,-1.271240234375
0.134,4.214111328125,-2.552490234375,-2.192138671875
0.1345,4.374267578125,-1.871826171875,-2.992919921875
0.135,3.773681640625,-0.830810546875,-3.433349609375
0.1355,3.733642578125,-0.150146484375,-3.993896484375
0.136,2.812744140625,0.770751953125,-4.073974609375
0.1365,2.492431640625,1.411376953125,-4.354248046875
0.137,1.451416015625,2.612548828125,-4.514404296875
0.1375,0.770751953125,3.173095703125,-4.234130859375
0.138,0.010009765625,3.733642578125,-4.033935546875
0.1385,-0.750732421875,4.053955078125,-3.673583984375
0.139,-1.551513671875,4.214111328125,-3.032958984375
0.1395,-2.432373046875,4.414306640625,-2.272216796875
0.14,-3.553466796875,4.614501953125,-1.431396484375
0.1405,-3.833740234375,4.013916015625,-0.630615234375
0.141,-4.434326171875,4.093994140625,-0.070068359375
0.1415,-4.354248046875,3.253173828125,0.690673828125
0.142,-4.554443359375,2.852783203125,1.291259765625
0.1425,-4.634521484375,1.851806640625,2.292236328125
0.143,-4.634521484375,1.211181640625,2.972900390625
0.1435,-4.114013671875,0.130126953125,3.453369140625
0.144,-3.993896484375,-0.510498046875,3.933837890625
0.1445,-3.153076171875,-1.431396484375,3.973876953125
0.145,-2.712646484375,-2.192138671875,4.214111328125
0.1455,-1.751708984375,-3.273193359375,4.374267578125
0.146,-0.990966796875,-3.673583984375,3.973876953125
0.1465,-0.350341796875,-4.274169921875,3.973876953125
0.147,0.490478515625,-4.474365234375,3.333251953125
0.1475,1.251220703125,-4.674560546875,2.852783203125
0.148,2.252197265625,-4.834716796875,1.931884765625
0.1485,3.173095703125,-4.954833984375,1.251220703125
0.149,3.373291015625,-4.354248046875,0.410400390625
0.1495,3.853759765625,-4.434326171875,0.010009765625
0.15,3.853759765625,-3.553466796875,-0.790771484375
0.1505,3.973876953125,-3.153076171875,-1.351318359375
0.151,4.093994140625,-2.192138671875,-2.432373046875
0.1515,3.853759765625,-1.431396484375,-2.912841796875
0.152,3.533447265625,-0.590576171875,-3.473388671875
0.1525,3.173095703125,0.130126953125,-3.753662109375
0.153,2.532470703125,0.930908203125,-3.953857421875
0.1535,1.931884765625,1.771728515625,-4.114013671875
0.154,1.211181640625,2.732666015625,-4.234130859375
0.1545,0.370361328125,3.052978515625,-3.753662109375
0.155,-0.070068359375,3.653564453125,-3.873779296875
0.1555,-0.990966796875,3.733642578125,-3.072998046875
0.156,-1.671630859375,4.053955078125,-2.712646484375
0.1565,-2.752685546875,4.174072265625,-1.791748046875
0.157,-3.353271484375,4.134033203125,-1.151123046875
0.1575,-3.713623046875,3.773681640625,-0.430419921875
0.158,-3.993896484375,3.693603515625,0.010009765625
0.1585,-4.114013671875,2.852783203125,0.770751953125
0.159,-4.234130859375,2.412353515625,1.411376953125
0.1595,-4.474365234375,1.571533203125,2.412353515625
0.16,-4.073974609375,0.770751953125,2.772705078125
0.1605,-3.993896484375,0.010009765625,3.453369140625
0.161,-3.393310546875,-0.790771484375,3.533447265625
0.1615,-2.952880859375,-1.471435546875,3.893798828125
0.162,-2.232177734375,-2.352294921875,4.013916015625
0.1625,-1.591552734375,-3.153076171875,4.093994140625
0.163,-0.790771484375,-3.553466796875,3.693603515625
0.1635,-0.350341796875,-4.073974609375,3.773681640625
0.164,0.650634765625,-4.194091796875,2.892822265625
0.1645,1.371337890625,-4.514404296875,2.532470703125
0.165,2.492431640625,-4.674560546875,1.611572265625
0.1655,2.852783203125,-4.434326171875,1.010986328125
0.166,3.293212890625,-4.314208984375,0.450439453125
0.1665,3.493408203125,-3.913818359375,-0.070068359375
0.167,3.653564453125,-3.353271484375,-0.870849609375
0.1675,3.733642578125,-2.672607421875,-1.591552734375
0.168,3.973876953125,-2.031982421875,-2.512451171875
0.1685,3.413330078125,-1.071044921875,-2.832763671875
0.169,3.453369140625,-0.510498046875,-3.513427734375
0.1695,2.652587890625,0.450439453125,-3.553466796875
0.17,2.372314453125,1.131103515625,-3.913818359375
0.1705,1.531494140625,2.052001953125,-3.993896484375
0.171,0.890869140625,2.692626953125,-3.913818359375
0.1715,0.210205078125,3.093017578125,-3.633544921875
0.172,-0.350341796875,3.533447265625,-3.553466796875
0.1725,-1.311279296875,3.693603515625,-2.712646484375
0.173,-2.031982421875,3.933837890625,-2.272216796875
0.1735,-2.992919921875,4.093994140625,-1.471435546875
0.174,-3.273193359375,3.693603515625,-0.790771484375
0.1745,-3.793701171875,3.693603515625,-0.350341796875
0.175,-3.793701171875,3.052978515625,0.330322265625
0.1755,-4.073974609375,2.612548828125,1.010986328125
0.176,-4.114013671875,1.771728515625,1.771728515625
0.1765,-4.274169921875,1.211181640625,2.532470703125
0.177,-3.713623046875,0.250244140625,2.852783203125
0.1775,-3.793701171875,-0.230224609375,3.493408203125
0.178,-2.872802734375,-1.191162109375,3.533447265625
0.1785,-2.592529296875,-1.911865234375,3.893798828125
0.179,-1.751708984375,-2.792724609375,3.933837890625
0.1795,-1.111083984375,-3.273193359375,3.773681640625
0.18,-0.510498046875,-3.793701171875,3.693603515625
0.1805,0.290283203125,-4.114013671875,3.213134765625
0.181,1.211181640625,-4.354248046875,2.532470703125
0.1815,1.971923828125,-4.514404296875,1.931884765625
0.182,2.772705078125,-4.634521484375,1.291259765625
0.1825,3.012939453125,-4.154052734375,0.570556640625
0.183,3.493408203125,-4.234130859375,0.210205078125
0.1835,3.533447265625,-3.393310546875,-0.630615234375
0.184,3.773681640625,-3.032958984375,-1.311279296875
0.1845,3.813720703125,-2.112060546875,-2.272216796875
0.185,3.773681640625,-1.471435546875,-2.872802734375
0.1855,3.253173828125,-0.510498046875,-3.193115234375
0.186,3.133056640625,0.130126953125,-3.673583984375
0.1865,2.252197265625,1.171142578125,-3.833740234375
0.187,1.851806640625,1.851806640625,-4.033935546875
0.1875,0.970947265625,2.732666015625,-4.114013671875
0.188,0.250244140625,3.133056640625,-3.713623046875
