wavelength,x,y,z
0.0,-24.473876953125,13.242919921875,10.880615234375
0.0005,-23.673095703125,8.678466796875,14.764404296875
0.001,-23.392822265625,5.675537109375,17.447021484375
0.0015,-20.670166015625,0.510498046875,19.929443359375
0.002,-18.828369140625,-4.334228515625,22.892333984375
0.0025,-14.544189453125,-9.098876953125,23.372802734375
0.003,-11.821533203125,-13.182861328125,24.734130859375
0.0035,-7.297119140625,-16.385986328125,23.452880859375
0.004,-2.572509765625,-19.348876953125,21.771240234375
0.0045,2.232177734375,-21.230712890625,18.968505859375
0.005,7.437255859375,-23.833251953125,16.526123046875
0.0055,11.641357421875,-24.193603515625,12.722412109375
0.006,15.765380859375,-24.193603515625,8.558349609375
0.0065,18.327880859375,-23.673095703125,5.595458984375
0.007,21.210693359375,-21.390869140625,0.350341796875
0.0075,23.292724609375,-18.828369140625,-4.414306640625
0.008,24.173583984375,-15.104736328125,-9.018798828125
0.0085,25.014404296875,-12.342041015625,-12.742431640625
0.009,23.693115234375,-7.537353515625,-16.345947265625
0.0095,22.812255859375,-3.973876953125,-18.908447265625
0.01,20.009521484375,1.151123046875,-21.190673828125
0.0105,17.607177734375,6.436279296875,-24.033447265625
0.011,13.122802734375,10.920654296875,-24.073486328125
0.0115,9.959716796875,14.804443359375,-24.834228515625
0.012,6.075927734375,17.366943359375,-23.512939453125
0.0125,0.870849609375,20.289794921875,-21.350830078125
0.013,-3.733642578125,22.051513671875,-18.628173828125
0.0135,-9.218994140625,24.173583984375,-15.385009765625
0.014,-12.782470703125,24.493896484375,-12.221923828125
0.0145,-16.946533203125,23.933349609375,-7.497314453125
0.015,-19.068603515625,23.012451171875,-4.414306640625
0.0155,-21.591064453125,20.570068359375,0.590576171875
0.016,-23.833251953125,17.807373046875,5.515380859375
0.0165,-23.953369140625,13.603271484375,10.079833984375
0.017,-24.874267578125,10.960693359375,13.683349609375
0.0175,-23.392822265625,6.476318359375,16.686279296875
0.018,-22.031494140625,2.432373046875,19.368896484375
0.0185,-19.388916015625,-2.332275390625,21.490966796875
0.019,-16.586181640625,-7.937744140625,24.213623046875
0.0195,-12.622314453125,-11.661376953125,24.013427734375
0.02,-8.738525390625,-15.665283203125,24.133544921875
0.0205,-4.974853515625,-17.787353515625,22.572021484375
0.021,0.510498046875,-20.750244140625,20.209716796875
0.0215,5.074951171875,-22.632080078125,17.607177734375
0.022,10.400146484375,-24.113525390625,13.803466796875
0.0225,13.603271484375,-24.513916015625,11.080810546875
0.023,17.527099609375,-23.633056640625,6.316162109375
0.0235,19.769287109375,-22.271728515625,2.712646484375
0.024,22.171630859375,-19.869384765625,-2.172119140625
0.0245,24.253662109375,-17.026611328125,-7.257080078125
0.025,23.973388671875,-12.782470703125,-11.220947265625
0.0255,24.654052734375,-9.739501953125,-14.984619140625
0.026,23.012451171875,-5.615478515625,-17.467041015625
0.0265,21.330810546875,-1.051025390625,-20.349853515625
0.027,18.528076171875,3.793701171875,-22.351806640625
0.0275,15.084716796875,9.479248046875,-24.634033203125
0.028,11.521240234375,12.802490234375,-24.353759765625
0.0285,7.237060546875,16.686279296875,-24.033447265625
0.029,3.433349609375,18.568115234375,-22.111572265625
0.0295,-1.851806640625,21.450927734375,-19.869384765625
0.03,-6.816650390625,23.332763671875,-16.866455078125
0.0305,-11.781494140625,24.213623046875,-12.822509765625
0.031,-15.104736328125,24.493896484375,-9.899658203125
0.0315,-18.427978515625,23.212646484375,-5.255126953125
0.032,-20.670166015625,21.450927734375,-1.371337890625
0.0325,-22.592041015625,18.928466796875,3.273193359375
0.033,-24.634033203125,15.645263671875,8.678466796875
0.0335,-23.993408203125,11.561279296875,12.121826171875
0.034,-24.353759765625,8.278076171875,15.885498046875
0.0345,-22.431884765625,3.993896484375,18.207763671875
0.035,-20.670166015625,-0.810791015625,21.250732421875
0.0355,-17.467041015625,-5.575439453125,22.772216796875
0.036,-13.983642578125,-11.020751953125,24.694091796875
0.0365,-10.380126953125,-14.103759765625,24.253662109375
0.037,-5.735595703125,-17.707275390625,23.292724609375
0.0375,-1.411376953125,-19.669189453125,20.970458984375
0.038,3.553466796875,-22.351806640625,18.848388671875
0.0385,8.798583984375,-24.033447265625,15.324951171875
0.039,12.922607421875,-24.273681640625,11.521240234375
0.0395,16.486083984375,-24.593994140625,8.318115234375
0.04,19.609130859375,-22.712158203125,3.233154296875
0.0405,21.811279296875,-20.830322265625,-0.890869140625
0.041,23.292724609375,-18.067626953125,-5.255126953125
0.0415,25.014404296875,-14.464111328125,-10.540283203125
0.042,24.093505859375,-10.340087890625,-13.783447265625
0.0425,24.053466796875,-6.896728515625,-17.226806640625
0.043,21.651123046875,-2.412353515625,-19.308837890625
0.0435,19.889404296875,2.512451171875,-22.391845703125
0.044,16.005615234375,7.517333984375,-23.512939453125
0.0445,12.562255859375,12.322021484375,-24.914306640625
0.045,8.878662109375,15.445068359375,-24.353759765625
0.0455,4.114013671875,18.568115234375,-22.752197265625
0.046,-0.330322265625,20.449951171875,-20.349853515625
0.0465,-5.054931640625,22.852294921875,-18.107666015625
0.047,-10.380126953125,24.373779296875,-14.384033203125
0.0475,-14.023681640625,23.973388671875,-10.380126953125
0.048,-17.306884765625,24.333740234375,-7.377197265625
0.0485,-19.869384765625,21.771240234375,-2.412353515625
0.049,-22.191650390625,19.849365234375,1.951904296875
0.0495,-23.192626953125,16.606201171875,6.276123046875
0.05,-24.754150390625,13.282958984375,11.200927734375
0.0505,-23.753173828125,9.038818359375,14.444091796875
0.051,-23.232666015625,5.435302734375,17.607177734375
0.0515,-20.790283203125,1.111083984375,19.489013671875
0.052,-18.948486328125,-3.813720703125,22.531982421875
0.0525,-15.064697265625,-8.698486328125,23.532958984375
0.053,-11.541259765625,-12.782470703125,24.093505859375
0.0535,-8.097900390625,-15.865478515625,23.773193359375
0.054,-2.852783203125,-18.748291015625,21.410888671875
0.0545,1.551513671875,-20.790283203125,19.248779296875
0.055,6.316162109375,-22.792236328125,16.566162109375
0.0555,11.080810546875,-24.313720703125,13.403076171875
0.056,14.564208984375,-23.512939453125,8.918701171875
0.0565,17.647216796875,-23.552978515625,6.115966796875
0.057,20.089599609375,-21.110595703125,1.151123046875
0.0575,22.692138671875,-19.148681640625,-3.493408203125
0.058,23.132568359375,-15.385009765625,-7.697509765625
0.0585,24.373779296875,-12.422119140625,-11.981689453125
0.059,23.452880859375,-8.458251953125,-15.064697265625
0.0595,22.371826171875,-4.214111328125,-18.227783203125
0.06,20.049560546875,0.110107421875,-20.189697265625
0.0605,17.647216796875,5.235107421875,-22.912353515625
0.061,13.923583984375,9.959716796875,-23.913330078125
0.0615,9.919677734375,13.843505859375,-23.833251953125
0.062,7.036865234375,16.486083984375,-23.552978515625
0.0625,1.511474609375,19.248779296875,-20.870361328125
0.063,-2.892822265625,21.490966796875,-18.908447265625
0.0635,-7.977783203125,22.932373046875,-15.385009765625
0.064,-12.021728515625,24.293701171875,-12.942626953125
0.0645,-15.745361328125,23.252685546875,-8.057861328125
0.065,-18.427978515625,22.732177734375,-4.774658203125
0.0655,-20.630126953125,20.249755859375,-0.130126953125
0.066,-23.232666015625,18.127685546875,4.754638671875
0.0665,-23.272705078125,13.963623046875,8.998779296875
0.067,-24.233642578125,10.800537109375,13.162841796875
0.0675,-23.312744140625,7.357177734375,15.725341796875
0.068,-21.591064453125,2.552490234375,18.848388671875
0.0685,-19.268798828125,-1.931884765625,20.930419921875
0.069,-16.345947265625,-7.177001953125,23.212646484375
0.0695,-13.182861328125,-11.220947265625,24.213623046875
0.07,-8.458251953125,-15.104736328125,23.372802734375
0.0705,-5.375244140625,-17.386962890625,22.572021484375
0.071,0.270263671875,-20.109619140625,19.809326171875
0.0715,4.954833984375,-22.672119140625,17.767333984375
0.072,9.959716796875,-23.312744140625,13.643310546875
0.0725,13.443115234375,-24.593994140625,11.240966796875
0.073,16.846435546875,-23.392822265625,6.716552734375
0.0735,19.609130859375,-22.071533203125,2.632568359375
0.074,21.651123046875,-19.509033203125,-2.052001953125
0.0745,24.053466796875,-16.946533203125,-7.056884765625
0.075,23.813232421875,-12.942626953125,-10.860595703125
0.0755,24.173583984375,-9.218994140625,-14.984619140625
0.076,23.092529296875,-6.095947265625,-17.026611328125
0.0765,20.970458984375,-0.890869140625,-20.109619140625
0.077,18.407958984375,3.873779296875,-22.351806640625
0.0775,14.644287109375,9.198974609375,-23.873291015625
0.078,11.921630859375,12.722412109375,-24.714111328125
0.0785,6.996826171875,16.365966796875,-23.432861328125
0.079,3.513427734375,18.488037109375,-22.111572265625
0.0795,-1.731689453125,20.970458984375,-19.509033203125
0.08,-7.056884765625,23.532958984375,-16.946533203125
0.0805,-11.461181640625,23.653076171875,-12.662353515625
0.081,-15.104736328125,24.413818359375,-9.779541015625
0.0815,-17.787353515625,23.092529296875,-5.775634765625
0.082,-20.510009765625,21.490966796875,-1.411376953125
0.0825,-22.431884765625,18.728271484375,3.353271484375
0.083,-24.353759765625,15.445068359375,8.558349609375
0.0835,-24.113525390625,11.921630859375,11.881591796875
0.084,-23.833251953125,7.757568359375,15.885498046875
0.0845,-22.552001953125,4.514404296875,17.767333984375
0.085,-20.349853515625,-0.770751953125,20.850341796875
0.0855,-17.547119140625,-5.815673828125,23.132568359375
0.086,-13.543212890625,-10.740478515625,24.053466796875
0.0865,-10.860595703125,-14.063720703125,24.654052734375
0.087,-5.855712890625,-17.266845703125,22.892333984375
0.0875,-1.571533203125,-19.549072265625,21.010498046875
0.088,3.353271484375,-21.871337890625,18.488037109375
0.0885,8.918701171875,-24.393798828125,15.525146484375
0.089,12.562255859375,-24.033447265625,11.561279296875
0.0895,16.526123046875,-24.433837890625,8.077880859375
0.09,18.888427734375,-22.712158203125,3.993896484375
0.0905,21.731201171875,-20.830322265625,-0.770751953125
0.091,23.292724609375,-17.867431640625,-5.375244140625
0.0915,24.734130859375,-14.223876953125,-10.500244140625
0.092,24.493896484375,-10.860595703125,-13.663330078125
0.0925,23.653076171875,-6.536376953125,-17.186767578125
0.093,21.931396484375,-2.852783203125,-19.108642578125
0.0935,19.689208984375,2.352294921875,-22.071533203125
0.094,16.245849609375,7.917724609375,-24.153564453125
0.0945,12.201904296875,12.241943359375,-24.473876953125
0.095,9.158935546875,15.645263671875,-24.874267578125
0.0955,4.314208984375,18.287841796875,-22.712158203125
0.096,-0.490478515625,20.810302734375,-20.469970703125
0.0965,-4.974853515625,22.692138671875,-18.027587890625
0.097,-10.780517578125,24.934326171875,-14.584228515625
0.0975,-14.063720703125,24.173583984375,-10.540283203125
0.098,-17.827392578125,24.333740234375,-7.016845703125
0.0985,-19.909423828125,22.171630859375,-2.692626953125
0.099,-22.712158203125,20.049560546875,2.272216796875
0.0995,-23.873291015625,16.686279296875,6.916748046875
0.1,-24.954345703125,12.962646484375,11.721435546875
0.1005,-24.714111328125,9.559326171875,14.924560546875
0.101,-23.352783203125,4.914794921875,18.167724609375
0.1015,-21.270751953125,0.910888671875,20.169677734375
0.102,-19.028564453125,-4.174072265625,22.932373046875
0.1025,-15.385009765625,-9.739501953125,24.934326171875
0.103,-11.220947265625,-13.543212890625,24.493896484375
0.1035,-7.857666015625,-16.946533203125,24.614013671875
0.104,-2.532470703125,-19.589111328125,21.811279296875
0.1045,2.392333984375,-22.151611328125,19.729248046875
0.105,7.116943359375,-23.673095703125,16.526123046875
0.1055,12.482177734375,-25.554931640625,13.282958984375
0.106,15.845458984375,-24.433837890625,8.838623046875
0.1065,19.248779296875,-24.153564453125,5.114990234375
0.107,21.290771484375,-21.711181640625,0.590576171875
0.1075,24.093505859375,-19.428955078125,-4.574462890625
0.108,24.774169921875,-15.505126953125,-9.299072265625
0.1085,25.334716796875,-11.781494140625,-13.583251953125
0.109,24.934326171875,-8.378173828125,-16.586181640625
0.1095,22.932373046875,-3.253173828125,-19.709228515625
0.11,20.690185546875,1.151123046875,-21.871337890625
0.1105,17.687255859375,6.396240234375,-24.073486328125
0.111,14.043701171875,11.761474609375,-25.875244140625
0.1115,9.359130859375,15.405029296875,-24.834228515625
0.112,6.236083984375,18.287841796875,-24.634033203125
0.1125,0.590576171875,20.730224609375,-21.470947265625
0.113,-4.334228515625,23.372802734375,-19.388916015625
0.1135,-9.339111328125,24.293701171875,-15.304931640625
0.114,-13.943603515625,25.855224609375,-12.382080078125
0.1145,-17.306884765625,24.614013671875,-7.817626953125
0.115,-20.429931640625,23.492919921875,-3.533447265625
0.1155,-22.191650390625,20.890380859375,0.950927734375
0.116,-24.754150390625,18.327880859375,6.115966796875
0.1165,-25.114501953125,14.083740234375,10.760498046875
0.117,-25.234619140625,10.039794921875,14.884521484375
0.1175,-24.674072265625,7.076904296875,17.366943359375
0.118,-22.151611328125,1.551513671875,20.409912109375
0.1185,-19.949462890625,-3.012939453125,22.692138671875
0.119,-16.385986328125,-8.177978515625,24.333740234375
0.1195,-13.383056640625,-12.782470703125,25.935302734375
0.12,-8.137939453125,-16.426025390625,24.333740234375
0.1205,-4.614501953125,-19.028564453125,23.412841796875
0.121,0.990966796875,-21.310791015625,20.289794921875
0.1215,5.995849609375,-24.193603515625,18.167724609375
0.122,10.840576171875,-24.433837890625,13.723388671875
0.1225,14.884521484375,-25.514892578125,10.800537109375
0.123,17.927490234375,-24.473876953125,6.796630859375
0.1235,21.010498046875,-22.672119140625,1.831787109375
0.124,22.812255859375,-20.029541015625,-2.652587890625
0.1245,24.974365234375,-17.146728515625,-7.737548828125
0.125,25.334716796875,-13.423095703125,-11.941650390625
0.1255,24.814208984375,-8.858642578125,-15.945556640625
0.126,24.093505859375,-6.095947265625,-18.147705078125
0.1265,21.370849609375,-0.490478515625,-20.990478515625
0.127,19.088623046875,4.474365234375,-23.633056640625
0.1275,14.804443359375,9.639404296875,-24.473876953125
0.128,12.201904296875,13.723388671875,-25.915283203125
0.1285,7.076904296875,16.966552734375,-24.233642578125
0.129,3.113037109375,19.529052734375,-22.792236328125
0.1295,-2.052001953125,21.651123046875,-19.909423828125
0.13,-7.537353515625,24.533935546875,-17.386962890625
0.1305,-11.941650390625,24.533935546875,-13.022705078125
0.131,-16.025634765625,25.054443359375,-9.499267578125
0.1315,-18.427978515625,24.053466796875,-6.135986328125
0.132,-21.390869140625,21.931396484375,-0.970947265625
0.1325,-23.312744140625,19.168701171875,3.793701171875
0.133,-24.834228515625,15.565185546875,8.958740234375
0.1335,-25.314697265625,12.402099609375,12.642333984375
0.134,-24.313720703125,7.557373046875,16.486083984375
0.1345,-23.312744140625,4.514404296875,18.608154296875
0.135,-20.670166015625,-1.010986328125,21.410888671875
0.1355,-18.107666015625,-6.296142578125,24.133544921875
0.136,-13.623291015625,-11.060791015625,24.413818359375
0.1365,-10.860595703125,-14.864501953125,25.414794921875
0.137,-6.055908203125,-17.747314453125,23.532958984375
0.1375,-1.251220703125,-20.429931640625,21.490966796875
0.138,3.553466796875,-22.311767578125,18.768310546875
0.1385,9.359130859375,-24.914306640625,15.685302734375
0.139,12.962646484375,-24.714111328125,11.921630859375
0.1395,17.286865234375,-24.754150390625,7.677490234375
0.14,19.288818359375,-23.352783203125,4.234130859375
0.1405,22.251708984375,-21.070556640625,-1.051025390625
0.141,24.053466796875,-18.187744140625,-5.815673828125
0.1415,24.974365234375,-14.143798828125,-10.820556640625
0.142,25.454833984375,-11.301025390625,-14.183837890625
0.1425,23.933349609375,-6.456298828125,-17.547119140625
0.143,22.451904296875,-2.812744140625,-19.709228515625
0.1435,19.849365234375,2.472412109375,-22.271728515625
0.144,16.646240234375,8.278076171875,-24.914306640625
0.1445,12.322021484375,12.362060546875,-24.714111328125
0.145,9.038818359375,16.125732421875,-25.234619140625
0.1455,4.634521484375,18.367919921875,-23.192626953125
0.146,-0.570556640625,21.210693359375,-20.950439453125
0.1465,-5.215087890625,23.012451171875,-18.147705078125
0.147,-11.020751953125,25.094482421875,-14.464111328125
0.1475,-14.183837890625,24.814208984375,-11.060791015625
0.148,-18.187744140625,24.373779296875,-6.696533203125
0.1485,-19.989501953125,22.572021484375,-3.052978515625
0.149,-22.672119140625,20.169677734375,2.112060546875
0.1495,-24.433837890625,16.926513671875,7.197021484375
0.15,-24.754150390625,12.722412109375,11.721435546875
0.1505,-25.194580078125,9.759521484375,15.164794921875
0.151,-23.352783203125,5.155029296875,18.007568359375
0.1515,-21.591064453125,0.990966796875,20.369873046875
0.152,-18.948486328125,-3.973876953125,22.692138671875
0.1525,-15.625244140625,-9.859619140625,25.134521484375
0.153,-11.461181640625,-13.302978515625,24.453857421875
0.1535,-7.737548828125,-17.066650390625,24.493896484375
0.154,-3.173095703125,-18.988525390625,22.011474609375
0.1545,2.031982421875,-21.871337890625,19.889404296875
0.155,6.916748046875,-23.472900390625,16.686279296875
0.1555,12.161865234375,-25.034423828125,13.082763671875
0.156,15.364990234375,-24.674072265625,9.559326171875
0.1565,18.848388671875,-23.793212890625,5.155029296875
0.157,20.810302734375,-21.791259765625,1.231201171875
0.1575,23.292724609375,-19.348876953125,-3.813720703125
0.158,24.814208984375,-15.825439453125,-9.018798828125
0.1585,24.614013671875,-11.781494140625,-12.822509765625
0.159,24.854248046875,-8.738525390625,-16.185791015625
0.1595,22.652099609375,-3.933837890625,-18.748291015625
0.16,20.810302734375,0.630615234375,-21.470947265625
0.1605,17.607177734375,5.555419921875,-23.192626953125
0.161,14.163818359375,11.160888671875,-25.434814453125
0.1615,9.959716796875,14.404052734375,-24.513916015625
0.162,6.236083984375,17.807373046875,-24.073486328125
0.1625,1.631591796875,19.609130859375,-21.430908203125
0.163,-3.453369140625,22.451904296875,-19.348876953125
0.1635,-8.578369140625,23.773193359375,-15.545166015625
0.164,-12.982666015625,24.734130859375,-12.181884765625
0.1645,-16.345947265625,24.533935546875,-8.698486328125
0.165,-19.348876953125,22.932373046875,-4.013916015625
0.1655,-21.270751953125,20.810302734375,0.070068359375
0.166,-23.352783203125,18.167724609375,4.794677734375
0.1665,-24.794189453125,14.484130859375,9.999755859375
0.167,-24.193603515625,10.320068359375,13.603271484375
0.1675,-24.273681640625,7.397216796875,16.646240234375
0.168,-21.751220703125,2.552490234375,18.968505859375
0.1685,-19.949462890625,-2.212158203125,21.851318359375
0.169,-16.345947265625,-7.056884765625,23.132568359375
0.1695,-13.383056640625,-11.981689453125,25.014404296875
0.17,-8.978759765625,-15.184814453125,24.013427734375
0.1705,-4.694580078125,-18.267822265625,22.772216796875
0.171,-0.130126953125,-20.109619140625,20.129638671875
0.1715,4.834716796875,-22.912353515625,18.087646484375
0.172,9.959716796875,-23.993408203125,14.163818359375
0.1725,13.843505859375,-24.313720703125,10.600341796875
0.173,16.966552734375,-24.353759765625,7.637451171875
0.1735,19.889404296875,-22.111572265625,2.392333984375
0.174,22.051513671875,-19.909423828125,-2.011962890625
0.1745,23.452880859375,-16.906494140625,-6.456298828125
0.175,24.934326171875,-13.623291015625,-11.301025390625
0.1755,23.933349609375,-9.138916015625,-14.784423828125
0.176,23.653076171875,-6.095947265625,-17.587158203125
0.1765,20.970458984375,-1.291259765625,-19.749267578125
0.177,19.008544921875,3.793701171875,-22.832275390625
0.1775,14.764404296875,8.678466796875,-23.633056640625
0.178,11.841552734375,13.082763671875,-24.954345703125
0.1785,7.877685546875,16.045654296875,-24.033447265625
0.179,3.153076171875,18.928466796875,-22.191650390625
0.1795,-1.371337890625,20.770263671875,-19.629150390625
0.18,-6.536376953125,23.292724609375,-17.066650390625
0.1805,-11.260986328125,24.293701171875,-13.423095703125
