wavelength,x,y,z
0.0,-9.6444091796875,22.106567382812,-12.967651367188
0.0005,-13.087768554688,21.626098632812,-9.2840576171875
0.001,-16.771362304688,20.505004882812,-4.6395263671875
0.0015,-19.814331054688,18.703247070312,0.0050048828125
0.002,-21.656127929688,16.741333007812,4.1290283203125
0.0025,-22.296752929688,14.218872070312,7.0518798828125
0.003,-22.376831054688,10.975708007812,10.214965820312
0.0035,-21.776245117188,6.5714111328125,14.258911132812
0.004,-20.655151367188,2.0469970703125,17.662231445312
0.0045,-18.733276367188,-2.2772216796875,20.104614257812
0.005,-16.811401367188,-5.7205810546875,21.546020507812
0.0055,-13.968627929688,-8.5233154296875,21.986450195312
0.006,-9.9647216796875,-12.407104492188,21.465942382812
0.0065,-4.9998779296875,-15.890502929688,20.424926757812
0.007,0.1651611328125,-18.973510742188,18.903442382812
0.0075,4.4893798828125,-21.135620117188,16.661254882812
0.008,7.2520751953125,-21.656127929688,14.659301757812
0.0085,10.575317382812,-22.096557617188,11.896606445312
0.009,14.338989257812,-21.375854492188,7.6925048828125
0.0095,17.662231445312,-20.094604492188,3.1680908203125
0.01,20.625122070312,-17.892456054688,-1.3563232421875
0.0105,22.026489257812,-15.970581054688,-4.8397216796875
0.011,22.146606445312,-13.448120117188,-8.1229248046875
0.0115,22.106567382812,-9.8045654296875,-11.446166992188
0.012,21.345825195312,-5.2401123046875,-15.249877929688
0.0125,20.104614257812,-0.7957763671875,-18.533081054688
0.013,18.022583007812,3.4083251953125,-20.575073242188
0.0135,15.740356445312,6.3712158203125,-21.736206054688
0.014,12.857543945312,9.7344970703125,-21.656127929688
0.0145,8.0528564453125,13.858520507812,-20.975463867188
0.015,3.2882080078125,17.141723632812,-19.774291992188
0.0155,-1.7967529296875,19.984497070312,-18.132690429688
0.016,-5.6405029296875,21.706176757812,-16.170776367188
0.0165,-8.4031982421875,21.866333007812,-13.848510742188
0.017,-11.726440429688,22.066528320312,-11.005737304688
0.0175,-15.890502929688,21.105590820312,-6.0809326171875
0.018,-19.213745117188,19.504028320312,-1.4364013671875
0.0185,-21.455932617188,17.502075195312,2.8477783203125
0.019,-22.577026367188,15.380004882812,6.3311767578125
0.0195,-22.617065429688,12.296997070312,9.2540283203125
0.02,-22.336791992188,8.1329345703125,13.217895507812
0.0205,-21.335815429688,3.7686767578125,16.661254882812
0.021,-19.854370117188,-0.9959716796875,19.784301757812
0.0215,-17.572143554688,-4.8797607421875,21.626098632812
0.022,-15.049682617188,-7.8826904296875,22.146606445312
0.0225,-11.966674804688,-11.165893554688,22.506958007812
0.023,-6.3612060546875,-15.650268554688,21.345825195312
0.0235,-1.3963623046875,-18.733276367188,19.704223632812
0.024,3.2081298828125,-21.095581054688,17.782348632812
0.0245,6.7716064453125,-22.456909179688,15.860473632812
0.025,9.8145751953125,-22.456909179688,12.937622070312
0.0255,13.297973632812,-22.336791992188,9.5343017578125
0.026,17.261840820312,-21.135620117188,4.8096923828125
0.0265,20.464965820312,-19.213745117188,-0.3953857421875
0.027,22.306762695312,-17.171752929688,-4.2391357421875
0.0275,22.867309570312,-14.729370117188,-7.2020263671875
0.028,22.987426757812,-11.486206054688,-10.565307617188
0.0285,22.346801757812,-6.4412841796875,-14.969604492188
0.029,21.065551757812,-2.2772216796875,-17.972534179688
0.0295,19.343872070312,2.2471923828125,-20.454956054688
0.03,17.021606445312,6.0509033203125,-22.096557617188
0.0305,13.818481445312,9.0938720703125,-22.256713867188
0.031,10.375122070312,12.577270507812,-22.336791992188
0.0315,4.6495361328125,16.861450195312,-21.055541992188
0.032,-0.6756591796875,19.904418945312,-19.093627929688
0.0325,-4.5994873046875,21.626098632812,-17.051635742188
0.033,-7.8426513671875,22.546997070312,-15.249877929688
0.0335,-11.165893554688,22.466918945312,-12.046752929688
0.034,-14.929565429688,21.826293945312,-7.6024169921875
0.0345,-18.292846679688,20.545043945312,-3.1580810546875
0.035,-21.295776367188,18.422973632812,1.9268798828125
0.0355,-22.697143554688,16.180786132812,5.4503173828125
0.036,-22.777221679688,13.378051757812,8.3731689453125
0.0365,-22.937377929688,10.134887695312,11.736450195312
0.037,-21.976440429688,4.8096923828125,16.140747070312
0.0375,-20.454956054688,0.4454345703125,18.943481445312
0.038,-18.533081054688,-3.5584716796875,21.105590820312
0.0385,-16.370971679688,-7.0819091796875,22.466918945312
0.039,-12.807495117188,-10.244995117188,22.226684570312
0.0395,-8.5233154296875,-14.008666992188,21.826293945312
0.04,-3.3983154296875,-17.652221679688,20.545043945312
0.0405,2.0469970703125,-20.655151367188,18.382934570312
0.041,5.6505126953125,-22.056518554688,16.300903320312
0.0415,8.6134033203125,-22.536987304688,14.098754882812
0.042,11.856567382812,-22.697143554688,11.135864257812
0.0425,16.180786132812,-21.335815429688,5.8907470703125
0.043,19.183715820312,-19.894409179688,1.5665283203125
0.0435,21.546020507812,-17.932495117188,-2.7176513671875
0.044,22.587036132812,-15.650268554688,-6.0408935546875
0.0445,22.426879882812,-12.367065429688,-9.1239013671875
0.045,22.346801757812,-8.7635498046875,-12.687377929688
0.0455,21.385864257812,-3.9188232421875,-16.851440429688
0.046,19.664184570312,0.8057861328125,-19.373901367188
0.0465,17.502075195312,4.3692626953125,-21.015502929688
0.047,15.219848632812,7.5723876953125,-21.976440429688
0.0475,11.776489257812,10.815551757812,-21.856323242188
0.048,6.3311767578125,15.099731445312,-20.895385742188
0.0485,1.7667236328125,18.142700195312,-19.534057617188
0.049,-3.1180419921875,20.745239257812,-17.331909179688
0.0495,-6.4412841796875,21.786254882812,-15.530151367188
0.05,-9.4041748046875,21.826293945312,-12.887573242188
0.0505,-12.527221679688,21.906372070312,-10.044799804688
0.051,-16.811401367188,20.585083007812,-4.6795654296875
0.0515,-19.734252929688,18.703247070312,0.1251220703125
0.052,-21.455932617188,16.821411132812,3.6485595703125
0.0525,-22.296752929688,14.539184570312,6.7315673828125
0.053,-22.056518554688,11.175903320312,9.8946533203125
0.0535,-21.656127929688,6.7716064453125,13.938598632812
0.054,-20.655151367188,2.5675048828125,17.141723632812
0.0545,-18.973510742188,-1.9969482421875,20.024536132812
0.055,-16.651245117188,-5.4403076171875,21.185668945312
0.0555,-14.088745117188,-8.4031982421875,21.626098632812
0.056,-10.805541992188,-11.686401367188,21.746215820312
0.0565,-4.8397216796875,-16.050659179688,20.344848632812
0.057,-0.1551513671875,-18.933471679688,18.703247070312
0.0575,3.8487548828125,-21.015502929688,16.901489257812
0.058,7.0518798828125,-21.776245117188,14.979614257812
0.0585,10.295043945312,-21.536010742188,11.696411132812
0.059,13.738403320312,-21.255737304688,8.1729736328125
0.0595,17.301879882812,-20.094604492188,3.5284423828125
0.06,20.224731445312,-17.972534179688,-1.4364013671875
0.0605,21.345825195312,-16.010620117188,-4.4793701171875
0.061,21.906372070312,-13.528198242188,-7.4422607421875
0.0615,21.786254882812,-10.325073242188,-10.565307617188
0.062,20.985473632812,-5.2801513671875,-14.889526367188
0.0625,19.744262695312,-1.2762451171875,-17.652221679688
0.063,18.142700195312,2.7677001953125,-20.054565429688
0.0635,15.820434570312,6.1309814453125,-21.135620117188
0.064,12.617309570312,9.2139892578125,-21.135620117188
0.0645,8.8936767578125,12.777465820312,-21.135620117188
0.065,3.4483642578125,16.701293945312,-19.894409179688
0.0655,-1.6766357421875,19.463989257812,-17.732299804688
0.066,-4.8397216796875,20.785278320312,-16.170776367188
0.0665,-7.8026123046875,21.546020507812,-14.128784179688
0.067,-10.925659179688,21.265747070312,-10.925659179688
0.0675,-14.889526367188,20.424926757812,-6.2811279296875
0.068,-17.972534179688,19.183715820312,-2.0770263671875
0.0685,-20.535034179688,17.181762695312,2.4473876953125
0.069,-21.295776367188,14.979614257812,5.2901611328125
0.0695,-21.495971679688,12.176879882812,8.2930908203125
0.07,-21.415893554688,8.9337158203125,11.536254882812
0.0705,-20.494995117188,3.9688720703125,15.620239257812
0.071,-18.893432617188,-0.4354248046875,18.302856445312
0.0715,-17.171752929688,-3.7586669921875,20.064575195312
0.072,-15.089721679688,-6.9217529296875,21.105590820312
0.0725,-11.566284179688,-10.044799804688,20.785278320312
0.073,-7.0418701171875,-13.968627929688,20.224731445312
0.0735,-2.2371826171875,-17.331909179688,19.063598632812
0.074,2.6475830078125,-19.734252929688,16.941528320312
0.0745,5.4503173828125,-20.575073242188,15.219848632812
0.075,8.4532470703125,-21.135620117188,12.937622070312
0.0755,11.616333007812,-21.015502929688,9.8946533203125
0.076,15.620239257812,-19.854370117188,4.9698486328125
0.0765,18.422973632812,-18.252807617188,0.6856689453125
0.077,20.344848632812,-16.531127929688,-2.9178466796875
0.0775,20.945434570312,-14.328979492188,-5.7205810546875
0.078,20.825317382812,-11.165893554688,-8.8436279296875
0.0785,20.585083007812,-7.4022216796875,-12.407104492188
0.079,19.744262695312,-3.0780029296875,-15.890502929688
0.0795,18.062622070312,1.3262939453125,-18.533081054688
0.08,16.140747070312,4.3292236328125,-19.654174804688
0.0805,13.898559570312,7.3721923828125,-20.494995117188
0.081,10.295043945312,10.615356445312,-20.374877929688
0.0815,5.0899658203125,14.619262695312,-19.293823242188
0.082,0.6456298828125,17.582153320312,-17.972534179688
0.0825,-3.5184326171875,19.704223632812,-16.170776367188
0.083,-6.2010498046875,20.344848632812,-14.369018554688
0.0835,-9.2840576171875,20.505004882812,-11.686401367188
0.084,-12.567260742188,20.264770507812,-8.3231201171875
0.0845,-16.170776367188,19.063598632812,-3.7186279296875
0.085,-18.893432617188,17.181762695312,0.8057861328125
0.0855,-20.214721679688,15.500122070312,3.8087158203125
0.086,-20.815307617188,13.177856445312,6.6514892578125
0.0865,-20.655151367188,9.9346923828125,9.7344970703125
0.087,-20.014526367188,5.5303955078125,13.578247070312
0.0875,-19.053588867188,1.5665283203125,16.661254882812
0.088,-17.492065429688,-2.5574951171875,19.103637695312
0.0885,-15.329956054688,-5.4002685546875,19.864379882812
0.089,-12.767456054688,-8.4031982421875,20.344848632812
0.0895,-8.9237060546875,-12.006713867188,20.144653320312
0.09,-3.6385498046875,-15.650268554688,18.783325195312
0.0905,0.9659423828125,-18.252807617188,17.101684570312
0.091,4.3292236328125,-19.894409179688,15.580200195312
0.0915,7.0518798828125,-20.494995117188,13.618286132812
0.092,10.174926757812,-20.454956054688,10.695434570312
0.0925,13.818481445312,-19.854370117188,6.6514892578125
0.093,16.941528320312,-18.573120117188,2.4073486328125
0.0935,19.383911132812,-16.691284179688,-1.8768310546875
0.094,20.144653320312,-14.769409179688,-4.5194091796875
0.0945,20.585083007812,-12.246948242188,-7.4422607421875
0.095,20.384887695312,-8.6834716796875,-10.845581054688
0.0955,19.504028320312,-4.2391357421875,-14.449096679688
0.096,18.222778320312,-0.3153076171875,-17.171752929688
0.0965,16.661254882812,3.2081298828125,-19.133666992188
0.097,14.338989257812,6.0909423828125,-19.734252929688
0.0975,11.376098632812,9.0538330078125,-19.854370117188
0.098,7.0518798828125,12.937622070312,-19.413940429688
0.0985,2.2071533203125,16.220825195312,-18.092651367188
0.099,-2.1971435546875,18.543090820312,-16.250854492188
0.0995,-4.9197998046875,19.544067382812,-14.769409179688
0.1,-7.7625732421875,20.104614257812,-12.687377929688
0.1005,-10.885620117188,19.864379882812,-9.5242919921875
0.101,-14.449096679688,18.943481445312,-5.2801513671875
0.1015,-17.331909179688,17.582153320312,-1.0360107421875
0.102,-19.413940429688,15.860473632812,2.6876220703125
0.1025,-19.894409179688,13.778442382812,5.1700439453125
0.103,-20.134643554688,11.015747070312,8.1329345703125
0.1035,-19.814331054688,7.1719970703125,11.696411132812
0.104,-18.933471679688,3.0880126953125,15.019653320312
0.1045,-17.452026367188,-0.9158935546875,17.462036132812
0.105,-15.890502929688,-3.8787841796875,18.943481445312
0.1055,-13.648315429688,-6.7615966796875,19.504028320312
0.106,-10.204956054688,-9.8846435546875,19.343872070312
0.1065,-5.7205810546875,-13.488159179688,18.583129882812
0.107,-1.1160888671875,-16.571166992188,17.261840820312
0.1075,2.8878173828125,-18.573120117188,15.540161132812
0.108,5.3302001953125,-19.213745117188,13.978637695312
0.1085,8.2930908203125,-19.734252929688,11.776489257812
0.109,11.736450195312,-19.333862304688,8.1329345703125
0.1095,14.979614257812,-18.372924804688,4.0889892578125
0.11,17.542114257812,-16.851440429688,0.1251220703125
0.1105,19.143676757812,-15.289916992188,-3.0780029296875
0.111,19.504028320312,-13.087768554688,-5.6004638671875
0.1115,19.544067382812,-10.084838867188,-8.6834716796875
0.112,19.063598632812,-6.0809326171875,-12.246948242188
0.1125,18.222778320312,-2.1170654296875,-15.410034179688
0.113,16.661254882812,1.6065673828125,-17.572143554688
0.1135,14.859497070312,4.2891845703125,-18.533081054688
0.114,12.577270507812,7.2520751953125,-19.213745117188
0.1145,8.4532470703125,10.855590820312,-18.773315429688
0.115,4.1290283203125,14.098754882812,-17.852416992188
0.1155,-0.2752685546875,16.861450195312,-16.411010742188
0.116,-3.6785888671875,18.583129882812,-14.969604492188
0.1165,-6.0408935546875,19.023559570312,-13.207885742188
0.117,-8.9237060546875,19.343872070312,-10.885620117188
0.1175,-12.607299804688,18.743286132812,-6.7615966796875
0.118,-15.650268554688,17.582153320312,-2.7576904296875
0.1185,-17.892456054688,16.020629882812,1.0460205078125
0.119,-19.013549804688,14.379028320312,3.7686767578125
0.1195,-19.373901367188,12.016723632812,6.4512939453125
0.12,-19.293823242188,8.5733642578125,9.8546142578125
0.1205,-18.653198242188,4.6895751953125,13.137817382812
0.121,-17.612182617188,0.7257080078125,16.020629882812
0.1215,-16.130737304688,-2.7977294921875,18.022583007812
0.122,-14.128784179688,-5.2401123046875,18.543090820312
0.1225,-11.686401367188,-8.0828857421875,19.063598632812
0.123,-7.0819091796875,-12.006713867188,18.463012695312
0.1235,-2.6776123046875,-15.049682617188,17.261840820312
0.124,1.2862548828125,-17.291870117188,15.780395507812
0.1245,4.2891845703125,-18.733276367188,14.419067382812
0.125,6.8917236328125,-19.053588867188,12.417114257812
0.1255,9.8946533203125,-19.093627929688,9.6143798828125
0.126,13.458129882812,-18.453002929688,5.6104736328125
0.1265,16.380981445312,-17.091674804688,1.4464111328125
0.127,18.302856445312,-15.570190429688,-1.9569091796875
0.1275,18.903442382812,-13.728393554688,-4.4393310546875
0.128,19.343872070312,-11.245971679688,-7.3221435546875
0.1285,19.023559570312,-7.2020263671875,-11.085815429688
0.129,18.262817382812,-3.5584716796875,-14.048706054688
0.1295,16.981567382812,0.2452392578125,-16.571166992188
0.13,15.460083007812,3.5284423828125,-18.292846679688
0.1305,13.057739257812,6.1710205078125,-18.573120117188
0.131,10.214965820312,9.2139892578125,-18.853393554688
0.1315,5.5704345703125,13.097778320312,-18.172729492188
0.132,1.0059814453125,16.060668945312,-16.731323242188
0.1325,-2.5975341796875,17.902465820312,-15.289916992188
0.133,-5.2000732421875,18.903442382812,-13.888549804688
0.1335,-8.0428466796875,19.223754882812,-11.606323242188
0.134,-11.526245117188,18.863403320312,-7.9227294921875
0.1345,-14.609252929688,18.062622070312,-4.1990966796875
0.135,-17.371948242188,16.541137695312,0.0450439453125
0.1355,-19.093627929688,14.939575195312,3.2882080078125
0.136,-19.373901367188,12.737426757812,5.7305908203125
0.1365,-19.734252929688,10.054809570312,8.7735595703125
0.137,-19.173706054688,5.5704345703125,12.737426757812
0.1375,-18.212768554688,1.6466064453125,15.660278320312
0.138,-16.731323242188,-1.8768310546875,17.702270507812
0.1385,-15.129760742188,-4.8397216796875,19.143676757812
0.139,-12.447143554688,-7.6824951171875,19.343872070312
0.1395,-8.4832763671875,-11.245971679688,19.063598632812
0.14,-4.1990966796875,-14.569213867188,18.222778320312
0.1405,0.6055908203125,-17.411987304688,16.621215820312
0.141,3.8487548828125,-18.973510742188,15.059692382812
0.1415,6.4112548828125,-19.534057617188,13.297973632812
0.142,9.3341064453125,-19.934448242188,11.015747070312
0.1425,13.418090820312,-19.093627929688,6.3311767578125
0.143,16.260864257812,-17.972534179688,2.4874267578125
0.1435,18.543090820312,-16.451049804688,-1.3563232421875
0.144,19.864379882812,-14.689331054688,-4.3592529296875
0.1445,19.864379882812,-12.046752929688,-7.0819091796875
0.145,19.944458007812,-8.6834716796875,-10.525268554688
0.1455,19.263793945312,-4.5194091796875,-14.088745117188
0.146,17.982543945312,-0.2752685546875,-17.011596679688
0.1465,16.260864257812,3.1280517578125,-18.573120117188
0.147,14.218872070312,5.8907470703125,-19.453979492188
0.1475,11.496215820312,8.8936767578125,-19.734252929688
0.148,6.3712158203125,13.017700195312,-18.893432617188
0.1485,2.2471923828125,15.860473632812,-17.812377929688
0.149,-1.9969482421875,18.262817382812,-16.170776367188
0.1495,-5.1199951171875,19.544067382812,-14.609252929688
0.15,-7.6824951171875,19.664184570312,-12.327026367188
0.1505,-10.565307617188,19.864379882812,-9.8045654296875
0.151,-14.529174804688,18.863403320312,-5.1199951171875
0.1515,-17.331909179688,17.261840820312,-0.7557373046875
0.152,-19.093627929688,15.660278320312,2.5274658203125
0.1525,-20.014526367188,13.658325195312,5.3702392578125
0.153,-19.974487304688,10.855590820312,8.1729736328125
0.1535,-19.654174804688,6.6915283203125,12.016723632812
0.154,-18.853393554688,3.0479736328125,14.939575195312
0.1545,-17.492065429688,-1.0760498046875,17.662231445312
0.155,-15.610229492188,-4.2791748046875,19.063598632812
0.1555,-13.247924804688,-6.9217529296875,19.383911132812
0.156,-10.485229492188,-9.9647216796875,19.704223632812
0.1565,-5.1199951171875,-14.048706054688,18.583129882812
0.157,-0.6756591796875,-16.771362304688,17.101684570312
0.1575,2.8477783203125,-18.573120117188,15.620239257812
0.158,5.7706298828125,-19.734252929688,14.098754882812
0.1585,8.6134033203125,-19.694213867188,11.416137695312
0.159,11.896606445312,-19.413940429688,8.0528564453125
0.1595,15.219848632812,-18.573120117188,4.0489501953125
0.16,17.982543945312,-16.811401367188,-0.3953857421875
0.1605,19.263793945312,-15.169799804688,-3.2381591796875
0.161,19.784301757812,-12.967651367188,-6.0008544921875
0.1615,19.864379882812,-10.285034179688,-8.9237060546875
0.162,19.263793945312,-5.4403076171875,-13.087768554688
0.1625,18.222778320312,-1.7567138671875,-15.690307617188
0.163,16.901489257812,1.8067626953125,-17.932495117188
0.1635,15.019653320312,4.9698486328125,-19.213745117188
0.164,12.136840820312,7.6925048828125,-19.173706054688
0.1645,8.7335205078125,11.055786132812,-19.213745117188
0.165,3.8487548828125,14.739379882812,-18.252807617188
0.1655,-0.9559326171875,17.502075195312,-16.451049804688
0.166,-3.8787841796875,18.823364257812,-15.009643554688
0.1665,-6.6815185546875,19.744262695312,-13.328002929688
0.167,-9.5242919921875,19.784301757812,-10.765502929688
0.1675,-13.408081054688,19.023559570312,-6.2811279296875
0.168,-16.330932617188,17.942504882812,-2.4373779296875
0.1685,-18.733276367188,16.300903320312,1.6065673828125
0.169,-19.774291992188,14.459106445312,4.4093017578125
0.1695,-19.934448242188,11.816528320312,7.0919189453125
0.17,-20.094604492188,8.8936767578125,10.295043945312
0.1705,-19.333862304688,4.2091064453125,14.218872070312
0.171,-17.972534179688,0.0850830078125,17.021606445312
0.1715,-16.370971679688,-3.1580810546875,18.663208007812
0.172,-14.529174804688,-6.1610107421875,19.864379882812
0.1725,-11.366088867188,-9.1239013671875,19.704223632812
0.173,-6.8416748046875,-12.967651367188,19.183715820312
0.1735,-2.3973388671875,-16.170776367188,18.062622070312
0.174,2.3673095703125,-18.733276367188,16.260864257812
0.1745,5.1300048828125,-19.694213867188,14.659301757812
0.175,8.0528564453125,-20.254760742188,12.457153320312
0.1755,11.095825195312,-20.294799804688,9.7344970703125
0.176,15.099731445312,-19.213745117188,4.8096923828125
0.1765,17.942504882812,-17.732299804688,0.5655517578125
0.177,19.784301757812,-16.090698242188,-2.8778076171875
0.1775,20.505004882812,-14.088745117188,-5.7205810546875
0.178,20.464965820312,-10.885620117188,-8.8035888671875
