wavelength,x,y,z
0.0,2.852783203125,3.973876953125,-6.236083984375
0.0005,3.933837890625,2.852783203125,-6.476318359375
0.001,4.654541015625,1.771728515625,-6.436279296875
0.0015,5.094970703125,0.970947265625,-6.316162109375
0.002,5.094970703125,0.170166015625,-5.835693359375
0.0025,5.014892578125,-0.870849609375,-5.074951171875
0.003,4.974853515625,-2.031982421875,-4.154052734375
0.0035,4.814697265625,-3.193115234375,-3.072998046875
0.004,4.614501953125,-4.194091796875,-2.031982421875
0.0045,4.294189453125,-4.874755859375,-1.231201171875
0.005,3.653564453125,-5.315185546875,-0.270263671875
0.0055,2.652587890625,-5.635498046875,1.010986328125
0.006,1.611572265625,-5.995849609375,2.372314453125
0.0065,0.690673828125,-6.156005859375,3.493408203125
0.007,-0.150146484375,-6.396240234375,4.454345703125
0.0075,-0.990966796875,-6.156005859375,5.094970703125
0.008,-2.072021484375,-5.435302734375,5.615478515625
0.0085,-3.353271484375,-4.514404296875,6.095947265625
0.009,-4.314208984375,-3.433349609375,6.256103515625
0.0095,-4.994873046875,-2.352294921875,6.216064453125
0.01,-5.275146484375,-1.591552734375,6.055908203125
0.0105,-5.355224609375,-0.710693359375,5.455322265625
0.011,-5.195068359375,0.330322265625,4.654541015625
0.0115,-5.235107421875,1.531494140625,3.773681640625
0.012,-5.114990234375,2.652587890625,2.732666015625
0.0125,-4.874755859375,3.533447265625,1.811767578125
0.013,-4.434326171875,4.134033203125,0.970947265625
0.0135,-3.713623046875,4.494384765625,0.010009765625
0.014,-2.832763671875,4.934814453125,-1.311279296875
0.0145,-1.831787109375,5.215087890625,-2.552490234375
0.015,-0.990966796875,5.415283203125,-3.593505859375
0.0155,-0.310302734375,5.575439453125,-4.514404296875
0.016,0.730712890625,5.215087890625,-5.114990234375
0.0165,1.851806640625,4.414306640625,-5.595458984375
0.017,3.012939453125,3.493408203125,-6.035888671875
0.0175,3.893798828125,2.532470703125,-6.156005859375
0.018,4.494384765625,1.611572265625,-6.156005859375
0.0185,4.774658203125,0.890869140625,-5.915771484375
0.019,4.814697265625,0.050048828125,-5.435302734375
0.0195,4.774658203125,-1.071044921875,-4.634521484375
0.02,4.774658203125,-2.232177734375,-3.753662109375
0.0205,4.614501953125,-3.273193359375,-2.752685546875
0.021,4.454345703125,-4.154052734375,-1.951904296875
0.0215,3.933837890625,-4.674560546875,-1.031005859375
0.022,3.213134765625,-5.034912109375,0.050048828125
0.0225,2.372314453125,-5.555419921875,1.291259765625
0.023,1.411376953125,-5.835693359375,2.532470703125
0.0235,0.650634765625,-6.115966796875,3.493408203125
0.024,-0.190185546875,-6.196044921875,4.334228515625
0.0245,-1.151123046875,-5.795654296875,4.934814453125
0.025,-2.312255859375,-4.994873046875,5.495361328125
0.0255,-3.473388671875,-4.033935546875,5.895751953125
0.026,-4.314208984375,-3.032958984375,5.975830078125
0.0265,-4.834716796875,-2.272216796875,6.015869140625
0.027,-4.994873046875,-1.471435546875,5.655517578125
0.0275,-4.994873046875,-0.590576171875,5.054931640625
0.028,-5.114990234375,0.570556640625,4.334228515625
0.0285,-5.074951171875,1.731689453125,3.413330078125
0.029,-4.954833984375,2.692626953125,2.492431640625
0.0295,-4.674560546875,3.533447265625,1.651611328125
0.03,-4.194091796875,4.053955078125,0.770751953125
0.0305,-3.393310546875,4.494384765625,-0.470458984375
0.031,-2.552490234375,4.974853515625,-1.671630859375
0.0315,-1.631591796875,5.255126953125,-2.832763671875
0.032,-0.950927734375,5.495361328125,-3.833740234375
0.0325,0.010009765625,5.375244140625,-4.594482421875
0.033,1.051025390625,4.814697265625,-5.155029296875
0.0335,2.252197265625,4.013916015625,-5.755615234375
0.034,3.333251953125,3.052978515625,-6.035888671875
0.0345,4.134033203125,2.092041015625,-6.115966796875
0.035,4.534423828125,1.291259765625,-6.035888671875
0.0355,4.734619140625,0.490478515625,-5.635498046875
0.036,4.694580078125,-0.550537109375,-4.954833984375
0.0365,4.774658203125,-1.671630859375,-4.154052734375
0.037,4.734619140625,-2.872802734375,-3.193115234375
0.0375,4.534423828125,-3.833740234375,-2.232177734375
0.038,4.214111328125,-4.514404296875,-1.391357421875
0.0385,3.533447265625,-4.954833984375,-0.390380859375
0.039,2.692626953125,-5.435302734375,0.930908203125
0.0395,1.731689453125,-5.795654296875,2.212158203125
0.04,0.890869140625,-6.075927734375,3.293212890625
0.0405,0.170166015625,-6.356201171875,4.214111328125
0.041,-0.950927734375,-5.955810546875,4.894775390625
0.0415,-2.112060546875,-5.114990234375,5.415283203125
0.042,-3.353271484375,-4.194091796875,5.935791015625
0.0425,-4.274169921875,-3.153076171875,6.095947265625
0.043,-4.874755859375,-2.232177734375,6.055908203125
0.0435,-5.114990234375,-1.471435546875,5.775634765625
0.044,-5.155029296875,-0.590576171875,5.175048828125
0.0445,-5.114990234375,0.610595703125,4.414306640625
0.045,-5.114990234375,1.771728515625,3.453369140625
0.0455,-4.994873046875,2.852783203125,2.412353515625
0.046,-4.754638671875,3.693603515625,1.571533203125
0.0465,-4.194091796875,4.174072265625,0.650634765625
0.047,-3.393310546875,4.494384765625,-0.470458984375
0.0475,-2.472412109375,5.014892578125,-1.791748046875
0.048,-1.511474609375,5.255126953125,-2.992919921875
0.0485,-0.710693359375,5.455322265625,-3.993896484375
0.049,0.130126953125,5.455322265625,-4.794677734375
0.0495,1.131103515625,4.974853515625,-5.355224609375
0.05,2.412353515625,4.013916015625,-5.875732421875
0.0505,3.533447265625,3.012939453125,-6.196044921875
0.051,4.334228515625,1.971923828125,-6.236083984375
0.0515,4.814697265625,1.171142578125,-6.196044921875
0.052,4.894775390625,0.370361328125,-5.755615234375
0.0525,4.814697265625,-0.670654296875,-4.994873046875
0.053,4.854736328125,-1.871826171875,-4.114013671875
0.0535,4.774658203125,-3.072998046875,-3.072998046875
0.054,4.534423828125,-4.033935546875,-2.072021484375
0.0545,4.294189453125,-4.794677734375,-1.271240234375
0.055,3.613525390625,-5.155029296875,-0.310302734375
0.0555,2.612548828125,-5.515380859375,0.970947265625
0.056,1.611572265625,-5.915771484375,2.372314453125
0.0565,0.690673828125,-6.156005859375,3.493408203125
0.057,0.010009765625,-6.396240234375,4.414306640625
0.0575,-0.990966796875,-6.115966796875,5.094970703125
0.058,-2.192138671875,-5.275146484375,5.615478515625
0.0585,-3.473388671875,-4.274169921875,6.135986328125
0.059,-4.514404296875,-3.193115234375,6.296142578125
0.0595,-5.114990234375,-2.152099609375,6.216064453125
0.06,-5.395263671875,-1.351318359375,6.015869140625
0.0605,-5.395263671875,-0.510498046875,5.375244140625
0.061,-5.275146484375,0.690673828125,4.494384765625
0.0615,-5.275146484375,1.931884765625,3.493408203125
0.062,-5.114990234375,3.052978515625,2.412353515625
0.0625,-4.834716796875,3.893798828125,1.491455078125
0.063,-4.354248046875,4.454345703125,0.610595703125
0.0635,-3.553466796875,4.774658203125,-0.510498046875
0.064,-2.472412109375,5.135009765625,-1.911865234375
0.0645,-1.431396484375,5.415283203125,-3.193115234375
0.065,-0.590576171875,5.575439453125,-4.194091796875
0.0655,0.210205078125,5.735595703125,-5.034912109375
0.066,1.251220703125,5.175048828125,-5.635498046875
0.0665,2.532470703125,4.174072265625,-6.115966796875
0.067,3.813720703125,3.093017578125,-6.516357421875
0.0675,4.654541015625,1.971923828125,-6.596435546875
0.068,5.135009765625,1.010986328125,-6.436279296875
0.0685,5.255126953125,0.210205078125,-6.075927734375
0.069,5.215087890625,-0.870849609375,-5.315185546875
0.0695,5.094970703125,-2.112060546875,-4.194091796875
0.07,5.054931640625,-3.393310546875,-3.072998046875
0.0705,4.814697265625,-4.514404296875,-1.951904296875
0.071,4.494384765625,-5.235107421875,-1.071044921875
0.0715,3.773681640625,-5.635498046875,0.010009765625
0.072,2.652587890625,-5.915771484375,1.251220703125
0.0725,1.451416015625,-6.356201171875,2.812744140625
0.073,0.370361328125,-6.476318359375,4.053955078125
0.0735,-0.550537109375,-6.556396484375,5.014892578125
0.074,-1.311279296875,-6.396240234375,5.735595703125
0.0745,-2.552490234375,-5.515380859375,6.216064453125
0.075,-3.993896484375,-4.274169921875,6.696533203125
0.0755,-5.114990234375,-3.032958984375,6.856689453125
0.076,-5.755615234375,-1.871826171875,6.696533203125
0.0765,-6.075927734375,-0.990966796875,6.416259765625
0.077,-5.955810546875,0.090087890625,5.655517578125
0.0775,-5.755615234375,1.291259765625,4.534423828125
0.078,-5.635498046875,2.652587890625,3.293212890625
0.0785,-5.395263671875,3.853759765625,2.052001953125
0.079,-4.994873046875,4.734619140625,1.010986328125
0.0795,-4.474365234375,5.215087890625,0.130126953125
0.08,-3.473388671875,5.415283203125,-1.031005859375
0.0805,-2.112060546875,5.575439453125,-2.552490234375
0.081,-0.950927734375,5.855712890625,-3.993896484375
0.0815,0.130126953125,5.895751953125,-5.034912109375
0.082,0.850830078125,5.895751953125,-5.795654296875
0.0825,1.771728515625,5.415283203125,-6.316162109375
0.083,3.093017578125,4.214111328125,-6.716552734375
0.0835,4.454345703125,2.932861328125,-7.036865234375
0.084,5.335205078125,1.651611328125,-7.036865234375
0.0845,5.775634765625,0.610595703125,-6.716552734375
0.085,5.815673828125,-0.310302734375,-6.356201171875
0.0855,5.695556640625,-1.311279296875,-5.435302734375
0.086,5.375244140625,-2.552490234375,-4.194091796875
0.0865,5.175048828125,-3.873779296875,-2.912841796875
0.087,4.934814453125,-4.994873046875,-1.751708984375
0.0875,4.494384765625,-5.715576171875,-0.790771484375
0.088,3.813720703125,-6.115966796875,0.250244140625
0.0885,2.692626953125,-6.276123046875,1.371337890625
0.089,1.371337890625,-6.556396484375,2.932861328125
0.0895,0.130126953125,-6.676513671875,4.334228515625
0.09,-0.830810546875,-6.596435546875,5.255126953125
0.0905,-1.471435546875,-6.596435546875,5.975830078125
0.091,-2.592529296875,-5.795654296875,6.416259765625
0.0915,-3.953857421875,-4.514404296875,6.776611328125
0.092,-5.155029296875,-3.313232421875,7.056884765625
0.0925,-5.915771484375,-2.072021484375,6.896728515625
0.093,-6.276123046875,-1.111083984375,6.616455078125
0.0935,-6.236083984375,-0.230224609375,6.015869140625
0.094,-6.035888671875,0.930908203125,5.094970703125
0.0945,-5.755615234375,2.252197265625,3.813720703125
0.095,-5.515380859375,3.533447265625,2.532470703125
0.0955,-5.195068359375,4.494384765625,1.371337890625
0.096,-4.754638671875,5.215087890625,0.450439453125
0.0965,-3.873779296875,5.415283203125,-0.630615234375
0.097,-2.712646484375,5.535400390625,-1.871826171875
0.0975,-1.431396484375,5.895751953125,-3.393310546875
0.098,-0.310302734375,5.895751953125,-4.674560546875
0.0985,0.610595703125,5.975830078125,-5.515380859375
0.099,1.331298828125,5.735595703125,-6.115966796875
0.0995,2.532470703125,4.854736328125,-6.596435546875
0.1,3.893798828125,3.533447265625,-6.996826171875
0.1005,4.974853515625,2.292236328125,-7.076904296875
0.101,5.615478515625,1.131103515625,-6.916748046875
0.1015,5.895751953125,0.250244140625,-6.676513671875
0.102,5.775634765625,-0.750732421875,-5.955810546875
0.1025,5.495361328125,-1.871826171875,-4.874755859375
0.103,5.415283203125,-3.233154296875,-3.633544921875
0.1035,5.094970703125,-4.514404296875,-2.352294921875
0.104,4.734619140625,-5.395263671875,-1.231201171875
0.1045,4.214111328125,-6.035888671875,-0.350341796875
0.105,3.293212890625,-6.276123046875,0.810791015625
0.1055,1.971923828125,-6.396240234375,2.252197265625
0.106,0.690673828125,-6.636474609375,3.813720703125
0.1065,-0.470458984375,-6.676513671875,4.894775390625
0.107,-1.191162109375,-6.716552734375,5.735595703125
0.1075,-2.072021484375,-6.276123046875,6.296142578125
0.108,-3.393310546875,-5.114990234375,6.656494140625
0.1085,-4.754638671875,-3.833740234375,7.056884765625
0.109,-5.715576171875,-2.552490234375,7.056884765625
0.1095,-6.196044921875,-1.391357421875,6.736572265625
0.11,-6.316162109375,-0.550537109375,6.336181640625
0.1105,-6.115966796875,0.570556640625,5.455322265625
0.111,-5.915771484375,1.771728515625,4.254150390625
0.1115,-5.715576171875,3.173095703125,2.932861328125
0.112,-5.395263671875,4.334228515625,1.731689453125
0.1125,-4.914794921875,5.094970703125,0.690673828125
0.113,-4.234130859375,5.455322265625,-0.350341796875
0.1135,-3.193115234375,5.655517578125,-1.511474609375
0.114,-1.791748046875,5.935791015625,-3.113037109375
0.1145,-0.510498046875,6.055908203125,-4.514404296875
0.115,0.450439453125,6.055908203125,-5.435302734375
0.1155,1.211181640625,5.935791015625,-6.196044921875
0.116,2.252197265625,5.215087890625,-6.636474609375
0.1165,3.653564453125,3.893798828125,-6.996826171875
0.117,4.854736328125,2.612548828125,-7.237060546875
0.1175,5.655517578125,1.371337890625,-7.116943359375
0.118,6.015869140625,0.370361328125,-6.796630859375
0.1185,5.975830078125,-0.630615234375,-6.276123046875
0.119,5.735595703125,-1.671630859375,-5.275146484375
0.1195,5.495361328125,-3.072998046875,-3.913818359375
0.12,5.215087890625,-4.354248046875,-2.592529296875
0.1205,4.854736328125,-5.395263671875,-1.391357421875
0.121,4.374267578125,-6.035888671875,-0.470458984375
0.1215,3.493408203125,-6.276123046875,0.610595703125
0.122,2.292236328125,-6.396240234375,1.931884765625
0.1225,0.930908203125,-6.676513671875,3.533447265625
0.123,-0.310302734375,-6.716552734375,4.734619140625
0.1235,-1.151123046875,-6.676513671875,5.575439453125
0.124,-1.871826171875,-6.396240234375,6.176025390625
0.1245,-3.072998046875,-5.475341796875,6.616455078125
0.125,-4.434326171875,-4.154052734375,6.936767578125
0.1255,-5.435302734375,-2.872802734375,7.056884765625
0.126,-6.075927734375,-1.711669921875,6.776611328125
0.1265,-6.276123046875,-0.830810546875,6.456298828125
0.127,-6.115966796875,0.170166015625,5.735595703125
0.1275,-5.835693359375,1.251220703125,4.654541015625
0.128,-5.635498046875,2.572509765625,3.373291015625
0.1285,-5.435302734375,3.733642578125,2.212158203125
0.129,-4.994873046875,4.614501953125,1.091064453125
0.1295,-4.514404296875,5.175048828125,0.250244140625
0.13,-3.593505859375,5.415283203125,-0.830810546875
0.1305,-2.392333984375,5.575439453125,-2.192138671875
0.131,-1.151123046875,5.815673828125,-3.593505859375
0.1315,-0.150146484375,5.815673828125,-4.674560546875
0.132,0.650634765625,5.895751953125,-5.515380859375
0.1325,1.451416015625,5.535400390625,-6.115966796875
0.133,2.652587890625,4.534423828125,-6.476318359375
0.1335,3.973876953125,3.373291015625,-6.876708984375
0.134,4.894775390625,2.212158203125,-6.916748046875
0.1345,5.455322265625,1.091064453125,-6.716552734375
0.135,5.695556640625,0.290283203125,-6.436279296875
0.1355,5.615478515625,-0.790771484375,-5.755615234375
0.136,5.215087890625,-1.951904296875,-4.674560546875
0.1365,5.215087890625,-3.193115234375,-3.553466796875
0.137,4.974853515625,-4.394287109375,-2.312255859375
0.1375,4.614501953125,-5.155029296875,-1.271240234375
0.138,4.053955078125,-5.715576171875,-0.390380859375
0.1385,3.173095703125,-5.955810546875,0.770751953125
0.139,1.931884765625,-6.276123046875,2.212158203125
0.1395,0.730712890625,-6.396240234375,3.573486328125
0.14,-0.310302734375,-6.476318359375,4.614501953125
0.1405,-0.990966796875,-6.556396484375,5.415283203125
0.141,-1.951904296875,-5.995849609375,5.975830078125
0.1415,-3.233154296875,-4.874755859375,6.336181640625
0.142,-4.514404296875,-3.753662109375,6.696533203125
0.1425,-5.315185546875,-2.552490234375,6.696533203125
0.143,-5.755615234375,-1.591552734375,6.456298828125
0.1435,-5.875732421875,-0.710693359375,6.015869140625
0.144,-5.795654296875,0.290283203125,5.375244140625
0.1445,-5.595458984375,1.411376953125,4.174072265625
0.145,-5.435302734375,2.692626953125,2.972900390625
0.1455,-5.155029296875,3.773681640625,1.931884765625
0.146,-4.754638671875,4.494384765625,0.970947265625
0.1465,-4.033935546875,4.854736328125,0.050048828125
0.147,-3.072998046875,5.094970703125,-1.151123046875
0.1475,-1.991943359375,5.455322265625,-2.552490234375
0.148,-0.910888671875,5.575439453125,-3.793701171875
0.1485,0.010009765625,5.695556640625,-4.714599609375
0.149,0.730712890625,5.615478515625,-5.435302734375
0.1495,1.731689453125,4.974853515625,-5.915771484375
0.15,2.972900390625,3.893798828125,-6.316162109375
0.1505,4.053955078125,2.812744140625,-6.556396484375
0.151,4.814697265625,1.771728515625,-6.476318359375
0.1515,5.175048828125,0.890869140625,-6.356201171875
0.152,5.094970703125,0.050048828125,-5.755615234375
0.1525,5.054931640625,-0.990966796875,-5.074951171875
0.153,4.974853515625,-2.112060546875,-4.154052734375
0.1535,4.814697265625,-3.233154296875,-3.072998046875
0.154,4.534423828125,-4.234130859375,-1.991943359375
0.1545,4.294189453125,-4.954833984375,-1.151123046875
0.155,3.613525390625,-5.315185546875,-0.270263671875
0.1555,2.612548828125,-5.635498046875,1.010986328125
0.156,1.571533203125,-5.955810546875,2.332275390625
0.1565,0.650634765625,-6.115966796875,3.493408203125
0.157,-0.190185546875,-6.356201171875,4.454345703125
0.1575,-0.990966796875,-6.156005859375,5.094970703125
0.158,-2.031982421875,-5.435302734375,5.615478515625
0.1585,-3.273193359375,-4.514404296875,6.095947265625
0.159,-4.314208984375,-3.433349609375,6.256103515625
0.1595,-4.994873046875,-2.432373046875,6.256103515625
0.16,-5.235107421875,-1.591552734375,6.015869140625
0.1605,-5.395263671875,-0.830810546875,5.575439453125
0.161,-5.275146484375,0.250244140625,4.814697265625
0.1615,-5.235107421875,1.411376953125,3.853759765625
0.162,-5.114990234375,2.532470703125,2.852783203125
0.1625,-4.914794921875,3.453369140625,1.931884765625
0.163,-4.514404296875,4.093994140625,1.051025390625
0.1635,-3.833740234375,4.454345703125,0.050048828125
0.164,-2.912841796875,4.854736328125,-1.191162109375
0.1645,-1.951904296875,5.215087890625,-2.472412109375
0.165,-1.071044921875,5.415283203125,-3.553466796875
0.1655,-0.350341796875,5.615478515625,-4.434326171875
0.166,0.650634765625,5.255126953125,-5.114990234375
0.1665,1.771728515625,4.494384765625,-5.555419921875
0.167,2.932861328125,3.613525390625,-6.075927734375
0.1675,3.893798828125,2.572509765625,-6.236083984375
0.168,4.494384765625,1.491455078125,-6.276123046875
0.1685,4.814697265625,0.850830078125,-6.035888671875
0.169,4.854736328125,0.010009765625,-5.515380859375
0.1695,4.814697265625,-1.031005859375,-4.714599609375
0.17,4.814697265625,-2.192138671875,-3.793701171875
0.1705,4.614501953125,-3.273193359375,-2.752685546875
0.171,4.494384765625,-4.154052734375,-1.911865234375
0.1715,3.973876953125,-4.714599609375,-0.990966796875
0.172,3.213134765625,-5.114990234375,0.090087890625
0.1725,2.372314453125,-5.595458984375,1.331298828125
0.173,1.371337890625,-5.835693359375,2.572509765625
0.1735,0.610595703125,-6.115966796875,3.573486328125
0.174,-0.270263671875,-6.196044921875,4.414306640625
0.1745,-1.231201171875,-5.755615234375,5.054931640625
0.175,-2.432373046875,-4.954833984375,5.575439453125
0.1755,-3.553466796875,-3.993896484375,5.895751953125
0.176,-4.354248046875,-2.872802734375,6.095947265625
0.1765,-4.914794921875,-2.192138671875,6.055908203125
0.177,-5.114990234375,-1.351318359375,5.655517578125
0.1775,-5.074951171875,-0.510498046875,5.054931640625
0.178,-5.114990234375,0.650634765625,4.334228515625
0.1785,-5.074951171875,1.811767578125,3.333251953125
0.179,-4.914794921875,2.812744140625,2.412353515625
0.1795,-4.674560546875,3.613525390625,1.571533203125
0.18,-4.114013671875,4.134033203125,0.650634765625
0.1805,-3.273193359375,4.494384765625,-0.510498046875
0.181,-2.472412109375,4.974853515625,-1.791748046875
0.1815,-1.591552734375,5.255126953125,-2.912841796875
0.182,-0.830810546875,5.535400390625,-3.913818359375
0.1825,0.130126953125,5.415283203125,-4.674560546875
0.183,1.131103515625,4.854736328125,-5.235107421875
0.1835,2.372314453125,4.013916015625,-5.795654296875
0.184,3.533447265625,2.932861328125,-6.156005859375
0.1845,4.174072265625,1.971923828125,-6.115966796875
0.185,4.614501953125,1.251220703125,-6.115966796875
0.1855,4.774658203125,0.450439453125,-5.675537109375
0.186,4.734619140625,-0.590576171875,-4.954833984375
0.1865,4.774658203125,-1.711669921875,-4.154052734375
0.187,4.734619140625,-2.872802734375,-3.153076171875
0.1875,4.534423828125,-3.833740234375,-2.232177734375
0.188,4.174072265625,-4.514404296875,-1.351318359375
