wavelength,x,y,z
0.0,2.90283203125,-2.34228515625,-1.30126953125
0.0005,2.82275390625,-2.62255859375,-0.78076171875
0.001,2.62255859375,-2.86279296875,-0.30029296875
0.0015,2.06201171875,-2.90283203125,0.50048828125
0.002,1.62158203125,-2.94287109375,1.22119140625
0.0025,1.02099609375,-2.78271484375,1.78173828125
0.003,0.66064453125,-2.70263671875,2.22216796875
0.0035,0.18017578125,-2.50244140625,2.54248046875
0.004,-0.50048828125,-2.22216796875,2.98291015625
0.0045,-1.34130859375,-1.54150390625,3.26318359375
0.005,-1.98193359375,-0.90087890625,3.26318359375
0.0055,-2.34228515625,-0.46044921875,3.22314453125
0.006,-2.70263671875,0.06005859375,3.14306640625
0.0065,-2.94287109375,0.58056640625,2.90283203125
0.007,-3.06298828125,1.22119140625,2.26220703125
0.0075,-3.22314453125,1.86181640625,1.78173828125
0.008,-3.18310546875,2.38232421875,1.02099609375
0.0085,-3.06298828125,2.58251953125,0.54052734375
0.009,-2.82275390625,2.74267578125,-0.10009765625
0.0095,-2.54248046875,2.98291015625,-0.74072265625
0.01,-1.70166015625,3.06298828125,-1.74169921875
0.0105,-1.14111328125,2.94287109375,-2.38232421875
0.011,-0.62060546875,2.70263671875,-2.78271484375
0.0115,-0.10009765625,2.54248046875,-3.18310546875
0.012,0.58056640625,2.06201171875,-3.46337890625
0.0125,1.30126953125,1.50146484375,-3.70361328125
0.013,2.06201171875,0.90087890625,-3.90380859375
0.0135,2.54248046875,0.30029296875,-3.82373046875
0.014,2.74267578125,-0.18017578125,-3.58349609375
0.0145,2.86279296875,-0.62060546875,-3.26318359375
0.015,3.10302734375,-1.14111328125,-3.02294921875
0.0155,3.06298828125,-1.86181640625,-2.14208984375
0.016,3.10302734375,-2.26220703125,-1.62158203125
0.0165,2.90283203125,-2.58251953125,-1.02099609375
0.017,2.78271484375,-2.82275390625,-0.58056640625
0.0175,2.42236328125,-2.86279296875,0.02001953125
0.018,2.02197265625,-2.86279296875,0.66064453125
0.0185,1.34130859375,-2.90283203125,1.54150390625
0.019,0.78076171875,-2.70263671875,1.98193359375
0.0195,0.34033203125,-2.54248046875,2.38232421875
0.02,0.02001953125,-2.30224609375,2.62255859375
0.0205,-0.62060546875,-2.02197265625,2.98291015625
0.021,-1.42138671875,-1.30126953125,3.10302734375
0.0215,-1.94189453125,-0.86083984375,3.26318359375
0.022,-2.42236328125,-0.30029296875,3.14306640625
0.0225,-2.62255859375,0.14013671875,3.06298828125
0.023,-2.82275390625,0.58056640625,2.74267578125
0.0235,-3.06298828125,1.02099609375,2.54248046875
0.024,-3.10302734375,1.74169921875,1.86181640625
0.0245,-3.06298828125,2.14208984375,1.26123046875
0.025,-2.98291015625,2.42236328125,0.70068359375
0.0255,-2.90283203125,2.70263671875,0.18017578125
0.026,-2.66259765625,2.90283203125,-0.42041015625
0.0265,-2.02197265625,2.94287109375,-1.22119140625
0.027,-1.54150390625,2.94287109375,-1.94189453125
0.0275,-0.98095703125,2.86279296875,-2.50244140625
0.028,-0.50048828125,2.66259765625,-2.86279296875
0.0285,0.06005859375,2.38232421875,-3.22314453125
0.029,0.70068359375,2.06201171875,-3.66357421875
0.0295,1.66162109375,1.26123046875,-3.86376953125
0.03,2.22216796875,0.66064453125,-3.86376953125
0.0305,2.58251953125,0.18017578125,-3.78369140625
0.031,2.86279296875,-0.30029296875,-3.66357421875
0.0315,3.06298828125,-0.82080078125,-3.22314453125
0.032,3.18310546875,-1.50146484375,-2.70263671875
0.0325,3.26318359375,-2.22216796875,-2.02197265625
0.033,3.18310546875,-2.58251953125,-1.38134765625
0.0335,2.94287109375,-2.82275390625,-0.86083984375
0.034,2.70263671875,-2.90283203125,-0.30029296875
0.0345,2.42236328125,-3.14306640625,0.42041015625
0.035,1.54150390625,-3.06298828125,1.42138671875
0.0355,1.02099609375,-2.94287109375,1.94189453125
0.036,0.54052734375,-2.70263671875,2.34228515625
0.0365,0.06005859375,-2.46240234375,2.62255859375
0.037,-0.58056640625,-2.02197265625,2.86279296875
0.0375,-1.26123046875,-1.54150390625,3.18310546875
0.038,-2.06201171875,-0.86083984375,3.30322265625
0.0385,-2.38232421875,-0.34033203125,3.18310546875
0.039,-2.58251953125,0.14013671875,2.94287109375
0.0395,-2.82275390625,0.54052734375,2.78271484375
0.04,-2.94287109375,0.98095703125,2.50244140625
0.0405,-3.02294921875,1.58154296875,1.78173828125
0.041,-3.02294921875,1.98193359375,1.26123046875
0.0415,-2.90283203125,2.30224609375,0.70068359375
0.042,-2.78271484375,2.54248046875,0.30029296875
0.0425,-2.50244140625,2.70263671875,-0.30029296875
0.043,-2.26220703125,2.82275390625,-0.86083984375
0.0435,-1.58154296875,2.78271484375,-1.70166015625
0.044,-1.06103515625,2.62255859375,-2.14208984375
0.0445,-0.62060546875,2.54248046875,-2.58251953125
0.045,-0.26025390625,2.42236328125,-2.94287109375
0.0455,0.34033203125,2.14208984375,-3.26318359375
0.046,1.10107421875,1.58154296875,-3.54345703125
0.0465,1.74169921875,1.02099609375,-3.70361328125
0.047,2.18212890625,0.50048828125,-3.70361328125
0.0475,2.50244140625,0.10009765625,-3.62353515625
0.048,2.82275390625,-0.46044921875,-3.46337890625
0.0485,3.06298828125,-0.98095703125,-3.18310546875
0.049,3.14306640625,-1.70166015625,-2.46240234375
0.0495,3.14306640625,-2.22216796875,-1.90185546875
0.05,3.10302734375,-2.54248046875,-1.30126953125
0.0505,2.98291015625,-2.82275390625,-0.78076171875
0.051,2.70263671875,-2.98291015625,-0.14013671875
0.0515,2.10205078125,-3.06298828125,0.70068359375
0.052,1.46142578125,-3.14306640625,1.54150390625
0.0525,0.98095703125,-2.90283203125,2.02197265625
0.053,0.50048828125,-2.74267578125,2.46240234375
0.0535,-0.14013671875,-2.50244140625,2.82275390625
0.054,-0.78076171875,-2.02197265625,3.18310546875
0.0545,-1.74169921875,-1.26123046875,3.42333984375
0.055,-2.30224609375,-0.62060546875,3.34326171875
0.0555,-2.58251953125,-0.18017578125,3.22314453125
0.056,-2.78271484375,0.30029296875,2.98291015625
0.0565,-2.98291015625,0.78076171875,2.62255859375
0.057,-3.14306640625,1.42138671875,2.06201171875
0.0575,-3.18310546875,2.06201171875,1.34130859375
0.058,-3.02294921875,2.38232421875,0.78076171875
0.0585,-2.82275390625,2.58251953125,0.30029296875
0.059,-2.58251953125,2.70263671875,-0.30029296875
0.0595,-2.26220703125,2.82275390625,-0.90087890625
0.06,-1.54150390625,2.86279296875,-1.74169921875
0.0605,-0.98095703125,2.70263671875,-2.30224609375
0.061,-0.58056640625,2.50244140625,-2.62255859375
0.0615,-0.14013671875,2.30224609375,-2.90283203125
0.062,0.42041015625,2.02197265625,-3.26318359375
0.0625,1.10107421875,1.54150390625,-3.54345703125
0.063,1.82177734375,0.94091796875,-3.70361328125
0.0635,2.22216796875,0.42041015625,-3.58349609375
0.064,2.54248046875,0.02001953125,-3.54345703125
0.0645,2.70263671875,-0.50048828125,-3.34326171875
0.065,2.94287109375,-0.90087890625,-3.14306640625
0.0655,2.98291015625,-1.54150390625,-2.54248046875
0.066,3.06298828125,-2.02197265625,-1.90185546875
0.0665,3.02294921875,-2.38232421875,-1.42138671875
0.067,2.90283203125,-2.62255859375,-0.90087890625
0.0675,2.70263671875,-2.86279296875,-0.34033203125
0.068,2.38232421875,-2.94287109375,0.34033203125
0.0685,1.74169921875,-3.02294921875,1.22119140625
0.069,1.14111328125,-2.86279296875,1.78173828125
0.0695,0.70068359375,-2.74267578125,2.26220703125
0.07,0.22021484375,-2.54248046875,2.58251953125
0.0705,-0.46044921875,-2.26220703125,3.02294921875
0.071,-1.30126953125,-1.58154296875,3.18310546875
0.0715,-2.02197265625,-0.94091796875,3.42333984375
0.072,-2.42236328125,-0.42041015625,3.30322265625
0.0725,-2.74267578125,0.06005859375,3.18310546875
0.073,-2.94287109375,0.58056640625,2.90283203125
0.0735,-3.18310546875,1.10107421875,2.50244140625
0.074,-3.26318359375,1.86181640625,1.78173828125
0.0745,-3.18310546875,2.42236328125,1.06103515625
0.075,-3.06298828125,2.58251953125,0.58056640625
0.0755,-2.82275390625,2.78271484375,0.02001953125
0.076,-2.50244140625,2.94287109375,-0.62060546875
0.0765,-1.78173828125,2.90283203125,-1.50146484375
0.077,-1.22119140625,2.90283203125,-2.26220703125
0.0775,-0.66064453125,2.62255859375,-2.58251953125
0.078,-0.30029296875,2.50244140625,-2.94287109375
0.0785,0.30029296875,2.10205078125,-3.18310546875
0.079,0.90087890625,1.74169921875,-3.46337890625
0.0795,1.74169921875,1.06103515625,-3.70361328125
0.08,2.26220703125,0.46044921875,-3.66357421875
0.0805,2.50244140625,0.06005859375,-3.54345703125
0.081,2.70263671875,-0.38037109375,-3.34326171875
0.0815,2.86279296875,-0.82080078125,-3.18310546875
0.082,2.94287109375,-1.38134765625,-2.54248046875
0.0825,3.06298828125,-1.94189453125,-2.02197265625
0.083,2.94287109375,-2.30224609375,-1.42138671875
0.0835,2.86279296875,-2.58251953125,-0.98095703125
0.084,2.62255859375,-2.70263671875,-0.46044921875
0.0845,2.42236328125,-2.86279296875,0.14013671875
0.085,1.78173828125,-2.90283203125,0.98095703125
0.0855,1.22119140625,-2.82275390625,1.58154296875
0.086,0.78076171875,-2.62255859375,1.94189453125
0.0865,0.34033203125,-2.54248046875,2.42236328125
0.087,-0.18017578125,-2.26220703125,2.70263671875
0.0875,-0.90087890625,-1.82177734375,3.02294921875
0.088,-1.58154296875,-1.30126953125,3.26318359375
0.0885,-2.10205078125,-0.62060546875,3.22314453125
0.089,-2.46240234375,-0.26025390625,3.14306640625
0.0895,-2.70263671875,0.26025390625,2.90283203125
0.09,-3.02294921875,0.78076171875,2.78271484375
0.0905,-3.06298828125,1.42138671875,2.06201171875
0.091,-3.14306640625,1.98193359375,1.50146484375
0.0915,-3.06298828125,2.30224609375,0.98095703125
0.092,-2.94287109375,2.62255859375,0.42041015625
0.0925,-2.66259765625,2.74267578125,-0.18017578125
0.093,-2.26220703125,2.86279296875,-0.82080078125
0.0935,-1.70166015625,2.94287109375,-1.66162109375
0.094,-1.06103515625,2.74267578125,-2.26220703125
0.0945,-0.66064453125,2.58251953125,-2.58251953125
0.095,-0.26025390625,2.38232421875,-2.90283203125
0.0955,0.46044921875,2.18212890625,-3.34326171875
0.096,1.30126953125,1.42138671875,-3.54345703125
0.0965,1.86181640625,0.90087890625,-3.70361328125
0.097,2.26220703125,0.34033203125,-3.62353515625
0.0975,2.54248046875,-0.10009765625,-3.54345703125
0.098,2.70263671875,-0.50048828125,-3.22314453125
0.0985,2.94287109375,-1.02099609375,-2.94287109375
0.099,3.06298828125,-1.66162109375,-2.30224609375
0.0995,3.02294921875,-2.18212890625,-1.66162109375
0.1,2.90283203125,-2.42236328125,-1.22119140625
0.1005,2.82275390625,-2.66259765625,-0.66064453125
0.101,2.54248046875,-2.86279296875,-0.10009765625
0.1015,1.94189453125,-2.90283203125,0.74072265625
0.102,1.42138671875,-2.90283203125,1.42138671875
0.1025,0.90087890625,-2.74267578125,1.94189453125
0.103,0.46044921875,-2.54248046875,2.30224609375
0.1035,0.02001953125,-2.34228515625,2.58251953125
0.104,-0.62060546875,-2.06201171875,3.02294921875
0.1045,-1.54150390625,-1.34130859375,3.22314453125
0.105,-2.02197265625,-0.78076171875,3.18310546875
0.1055,-2.38232421875,-0.34033203125,3.06298828125
0.106,-2.62255859375,0.18017578125,2.98291015625
0.1065,-2.86279296875,0.62060546875,2.70263671875
0.107,-2.90283203125,1.22119140625,2.18212890625
0.1075,-3.06298828125,1.78173828125,1.66162109375
0.108,-2.98291015625,2.22216796875,1.02099609375
0.1085,-2.86279296875,2.42236328125,0.58056640625
0.109,-2.62255859375,2.58251953125,0.02001953125
0.1095,-2.50244140625,2.86279296875,-0.58056640625
0.11,-1.78173828125,2.86279296875,-1.46142578125
0.1105,-1.26123046875,2.74267578125,-1.98193359375
0.111,-0.78076171875,2.58251953125,-2.46240234375
0.1115,-0.38037109375,2.50244140625,-2.82275390625
0.112,0.22021484375,2.18212890625,-3.14306640625
0.1125,0.90087890625,1.74169921875,-3.42333984375
0.113,1.58154296875,1.14111328125,-3.70361328125
0.1135,2.02197265625,0.58056640625,-3.62353515625
0.114,2.30224609375,0.22021484375,-3.54345703125
0.1145,2.58251953125,-0.30029296875,-3.34326171875
0.115,2.86279296875,-0.70068359375,-3.18310546875
0.1155,2.90283203125,-1.38134765625,-2.50244140625
0.116,2.98291015625,-1.86181640625,-2.02197265625
0.1165,2.94287109375,-2.26220703125,-1.46142578125
0.117,2.86279296875,-2.50244140625,-1.02099609375
0.1175,2.58251953125,-2.66259765625,-0.38037109375
0.118,2.26220703125,-2.82275390625,0.26025390625
0.1185,1.66162109375,-2.90283203125,1.06103515625
0.119,1.14111328125,-2.74267578125,1.58154296875
0.1195,0.74072265625,-2.58251953125,1.94189453125
0.12,0.30029296875,-2.50244140625,2.38232421875
0.1205,-0.30029296875,-2.26220703125,2.74267578125
0.121,-1.10107421875,-1.62158203125,2.94287109375
0.1215,-1.66162109375,-1.14111328125,3.10302734375
0.122,-2.14208984375,-0.54052734375,3.10302734375
0.1225,-2.42236328125,-0.18017578125,3.02294921875
0.123,-2.66259765625,0.38037109375,2.78271484375
0.1235,-2.90283203125,0.86083984375,2.54248046875
0.124,-3.02294921875,1.54150390625,1.86181640625
0.1245,-2.98291015625,1.94189453125,1.30126953125
0.125,-2.86279296875,2.26220703125,0.74072265625
0.1255,-2.82275390625,2.54248046875,0.30029296875
0.126,-2.54248046875,2.70263671875,-0.34033203125
0.1265,-1.98193359375,2.78271484375,-1.14111328125
0.127,-1.46142578125,2.82275390625,-1.78173828125
0.1275,-0.98095703125,2.66259765625,-2.26220703125
0.128,-0.58056640625,2.54248046875,-2.66259765625
0.1285,0.02001953125,2.26220703125,-3.02294921875
0.129,0.58056640625,1.94189453125,-3.38330078125
0.1295,1.42138671875,1.26123046875,-3.62353515625
0.13,1.90185546875,0.78076171875,-3.58349609375
0.1305,2.26220703125,0.30029296875,-3.54345703125
0.131,2.54248046875,-0.14013671875,-3.42333984375
0.1315,2.70263671875,-0.62060546875,-3.18310546875
0.132,2.90283203125,-1.18115234375,-2.70263671875
0.1325,3.02294921875,-1.78173828125,-2.14208984375
0.133,2.94287109375,-2.14208984375,-1.62158203125
0.1335,2.86279296875,-2.42236328125,-1.10107421875
0.134,2.66259765625,-2.62255859375,-0.58056640625
0.1345,2.46240234375,-2.82275390625,0.02001953125
0.135,1.82177734375,-2.86279296875,0.90087890625
0.1355,1.30126953125,-2.74267578125,1.42138671875
0.136,0.86083984375,-2.66259765625,1.86181640625
0.1365,0.46044921875,-2.54248046875,2.26220703125
0.137,-0.14013671875,-2.26220703125,2.54248046875
0.1375,-0.78076171875,-1.90185546875,2.86279296875
0.138,-1.54150390625,-1.26123046875,3.10302734375
0.1385,-1.94189453125,-0.70068359375,3.06298828125
0.139,-2.26220703125,-0.30029296875,2.98291015625
0.1395,-2.58251953125,0.18017578125,2.86279296875
0.14,-2.82275390625,0.66064453125,2.62255859375
0.1405,-2.90283203125,1.30126953125,2.06201171875
0.141,-2.94287109375,1.78173828125,1.54150390625
0.1415,-2.90283203125,2.18212890625,0.98095703125
0.142,-2.86279296875,2.42236328125,0.50048828125
0.1425,-2.62255859375,2.62255859375,0.02001953125
0.143,-2.30224609375,2.78271484375,-0.70068359375
0.1435,-1.70166015625,2.82275390625,-1.46142578125
0.144,-1.22119140625,2.70263671875,-1.98193359375
0.1445,-0.78076171875,2.54248046875,-2.42236328125
0.145,-0.34033203125,2.42236328125,-2.82275390625
0.1455,0.26025390625,2.10205078125,-3.18310546875
0.146,1.06103515625,1.58154296875,-3.50341796875
0.1465,1.70166015625,1.02099609375,-3.62353515625
0.147,2.10205078125,0.54052734375,-3.62353515625
0.1475,2.42236328125,0.14013671875,-3.54345703125
0.148,2.70263671875,-0.38037109375,-3.34326171875
0.1485,2.94287109375,-0.98095703125,-3.02294921875
0.149,3.06298828125,-1.62158203125,-2.38232421875
0.1495,3.06298828125,-2.06201171875,-1.78173828125
0.15,2.98291015625,-2.42236328125,-1.26123046875
0.1505,2.82275390625,-2.62255859375,-0.74072265625
0.151,2.54248046875,-2.86279296875,-0.14013671875
0.1515,1.98193359375,-2.94287109375,0.70068359375
0.152,1.42138671875,-2.94287109375,1.46142578125
0.1525,0.94091796875,-2.82275390625,1.90185546875
0.153,0.50048828125,-2.66259765625,2.30224609375
0.1535,0.02001953125,-2.42236328125,2.62255859375
0.154,-0.66064453125,-1.98193359375,2.98291015625
0.1545,-1.58154296875,-1.30126953125,3.22314453125
0.155,-2.10205078125,-0.66064453125,3.18310546875
0.1555,-2.42236328125,-0.30029296875,3.10302734375
0.156,-2.58251953125,0.18017578125,2.90283203125
0.1565,-2.86279296875,0.66064453125,2.62255859375
0.157,-2.94287109375,1.26123046875,2.10205078125
0.1575,-3.06298828125,1.86181640625,1.50146484375
0.158,-2.90283203125,2.18212890625,0.98095703125
0.1585,-2.82275390625,2.46240234375,0.46044921875
0.159,-2.62255859375,2.62255859375,0.02001953125
0.1595,-2.34228515625,2.78271484375,-0.62060546875
0.16,-1.70166015625,2.86279296875,-1.46142578125
0.1605,-1.14111328125,2.70263671875,-2.06201171875
0.161,-0.74072265625,2.54248046875,-2.42236328125
0.1615,-0.38037109375,2.38232421875,-2.82275390625
0.162,0.26025390625,2.18212890625,-3.14306640625
0.1625,0.94091796875,1.66162109375,-3.46337890625
0.163,1.62158203125,1.14111328125,-3.66357421875
0.1635,2.06201171875,0.58056640625,-3.58349609375
0.164,2.42236328125,0.14013671875,-3.54345703125
0.1645,2.62255859375,-0.30029296875,-3.38330078125
0.165,2.90283203125,-0.78076171875,-3.18310546875
0.1655,3.02294921875,-1.38134765625,-2.58251953125
0.166,3.06298828125,-1.98193359375,-1.94189453125
0.1665,2.98291015625,-2.30224609375,-1.46142578125
0.167,2.86279296875,-2.58251953125,-0.98095703125
0.1675,2.70263671875,-2.82275390625,-0.38037109375
0.168,2.30224609375,-2.90283203125,0.34033203125
0.1685,1.74169921875,-3.06298828125,1.18115234375
0.169,1.14111328125,-2.86279296875,1.78173828125
0.1695,0.66064453125,-2.82275390625,2.18212890625
0.17,0.26025390625,-2.50244140625,2.54248046875
0.1705,-0.42041015625,-2.26220703125,2.94287109375
0.171,-1.30126953125,-1.54150390625,3.22314453125
0.1715,-2.02197265625,-0.94091796875,3.34326171875
0.172,-2.38232421875,-0.46044921875,3.22314453125
0.1725,-2.70263671875,0.06005859375,3.14306640625
0.173,-2.90283203125,0.58056640625,2.86279296875
0.1735,-3.06298828125,1.14111328125,2.38232421875
0.174,-3.18310546875,1.78173828125,1.78173828125
0.1745,-3.10302734375,2.30224609375,1.02099609375
0.175,-2.94287109375,2.54248046875,0.58056640625
0.1755,-2.74267578125,2.66259765625,0.02001953125
0.176,-2.50244140625,2.86279296875,-0.62060546875
0.1765,-1.78173828125,2.86279296875,-1.46142578125
0.177,-1.26123046875,2.82275390625,-2.14208984375
0.1775,-0.70068359375,2.54248046875,-2.54248046875
0.178,-0.34033203125,2.50244140625,-2.86279296875
0.1785,0.30029296875,2.10205078125,-3.18310546875
0.179,0.86083984375,1.78173828125,-3.50341796875
0.1795,1.62158203125,1.10107421875,-3.70361328125
0.18,2.18212890625,0.50048828125,-3.66357421875
0.1805,2.42236328125,0.14013671875,-3.54345703125
0.181,2.58251953125,-0.30029296875,-3.38330078125
0.1815,2.86279296875,-0.78076171875,-3.18310546875
0.182,2.90283203125,-1.30126953125,-2.58251953125
0.1825,3.06298828125,-1.86181640625,-2.06201171875
0.183,2.94287109375,-2.26220703125,-1.46142578125
0.1835,2.86279296875,-2.54248046875,-0.98095703125
0.184,2.62255859375,-2.66259765625,-0.50048828125
0.1845,2.42236328125,-2.90283203125,0.10009765625
0.185,1.82177734375,-2.94287109375,0.94091796875
0.1855,1.22119140625,-2.86279296875,1.54150390625
0.186,0.82080078125,-2.66259765625,1.94189453125
0.1865,0.38037109375,-2.58251953125,2.38232421875
0.187,-0.18017578125,-2.30224609375,2.74267578125
0.1875,-0.90087890625,-1.78173828125,3.02294921875
0.188,-1.62158203125,-1.26123046875,3.26318359375
0.1885,-2.18212890625,-0.62060546875,3.22314453125
0.189,-2.50244140625,-0.18017578125,3.18310546875
0.1895,-2.74267578125,0.34033203125,2.94287109375
0.19,-3.06298828125,0.82080078125,2.74267578125
0.1905,-3.14306640625,1.58154296875,2.02197265625
0.191,-3.18310546875,2.06201171875,1.42138671875
0.1915,-3.10302734375,2.42236328125,0.82080078125
0.192,-3.02294921875,2.74267578125,0.30029296875
0.1925,-2.70263671875,2.86279296875,-0.34033203125
0.193,-2.22216796875,2.94287109375,-1.14111328125
0.1935,-1.54150390625,3.06298828125,-2.06201171875
0.194,-0.90087890625,2.86279296875,-2.58251953125
0.1945,-0.46044921875,2.66259765625,-2.94287109375
0.195,0.14013671875,2.38232421875,-3.26318359375
0.1955,0.78076171875,1.98193359375,-3.70361328125
0.196,1.78173828125,1.14111328125,-3.86376953125
0.1965,2.30224609375,0.62060546875,-3.90380859375
0.197,2.66259765625,0.10009765625,-3.78369140625
0.1975,2.90283203125,-0.34033203125,-3.58349609375
0.198,3.02294921875,-0.90087890625,-3.18310546875
0.1985,3.18310546875,-1.42138671875,-2.70263671875
0.199,3.26318359375,-2.18212890625,-1.94189453125
0.1995,3.14306640625,-2.54248046875,-1.30126953125
