wavelength,x,y,z
0.0,-4.2041015625,-3.0830078125,5.8056640625
0.0005,-4.96484375,-2.2021484375,5.92578125
0.001,-5.3251953125,-1.4814453125,5.92578125
0.0015,-5.4453125,-0.80078125,5.4853515625
0.002,-5.365234375,0.400390625,4.6845703125
0.0025,-5.3251953125,1.6416015625,3.68359375
0.003,-5.125,2.7626953125,2.5625
0.0035,-5.0849609375,3.68359375,1.8017578125
0.004,-4.64453125,4.2841796875,1.0009765625
0.0045,-3.8837890625,4.6044921875,0.0
0.005,-2.9228515625,5.044921875,-1.3212890625
0.0055,-1.7216796875,5.1650390625,-2.6826171875
0.006,-0.9208984375,5.4052734375,-3.7236328125
0.0065,-0.2001953125,5.6455078125,-4.64453125
0.007,0.8408203125,5.2451171875,-5.28515625
0.0075,2.08203125,4.2841796875,-5.765625
0.008,3.3232421875,3.0830078125,-6.0458984375
0.0085,4.2841796875,1.841796875,-6.0458984375
0.009,4.884765625,1.0810546875,-6.166015625
0.0095,5.125,0.3203125,-6.005859375
0.01,5.0849609375,-0.6005859375,-5.3251953125
0.0105,5.044921875,-1.7216796875,-4.4443359375
0.011,4.884765625,-2.962890625,-3.283203125
0.0115,4.724609375,-3.9638671875,-2.2822265625
0.012,4.6044921875,-4.8447265625,-1.521484375
0.0125,4.0439453125,-5.28515625,-0.720703125
0.013,3.0830078125,-5.525390625,0.5205078125
0.0135,1.921875,-5.8056640625,1.921875
0.014,0.80078125,-5.92578125,3.123046875
0.0145,0.1201171875,-6.24609375,4.1240234375
0.015,-0.80078125,-6.24609375,4.96484375
0.0155,-1.8017578125,-5.5654296875,5.4453125
0.016,-3.1630859375,-4.5244140625,5.845703125
0.0165,-4.2841796875,-3.203125,6.005859375
0.017,-5.0849609375,-2.2021484375,5.9658203125
0.0175,-5.5654296875,-1.44140625,6.005859375
0.018,-5.60546875,-0.640625,5.60546875
0.0185,-5.4853515625,0.48046875,4.8046875
0.019,-5.4453125,1.681640625,3.8037109375
0.0195,-5.205078125,2.8427734375,2.642578125
0.02,-5.0849609375,3.8037109375,1.76171875
0.0205,-4.8046875,4.484375,0.9609375
0.021,-4.00390625,4.8046875,0.0400390625
0.0215,-2.962890625,5.0849609375,-1.3212890625
0.022,-1.7216796875,5.3251953125,-2.7626953125
0.0225,-0.80078125,5.4453125,-3.8837890625
0.023,0.0,5.7255859375,-4.8447265625
0.0235,0.9208984375,5.4052734375,-5.525390625
0.024,2.1220703125,4.4443359375,-5.92578125
0.0245,3.443359375,3.203125,-6.2861328125
0.025,4.484375,1.921875,-6.2861328125
0.0255,5.0849609375,0.9609375,-6.326171875
0.026,5.4052734375,0.240234375,-6.166015625
0.0265,5.4052734375,-0.720703125,-5.5654296875
0.027,5.2451171875,-1.8818359375,-4.5244140625
0.0275,5.0849609375,-3.203125,-3.283203125
0.028,4.8046875,-4.2841796875,-2.1220703125
0.0285,4.64453125,-5.1650390625,-1.3212890625
0.029,4.1240234375,-5.60546875,-0.5205078125
0.0295,3.1630859375,-5.8056640625,0.6806640625
0.03,1.921875,-6.1259765625,2.162109375
0.0305,0.6005859375,-6.1259765625,3.4833984375
0.031,-0.3203125,-6.2861328125,4.484375
0.0315,-1.0009765625,-6.40625,5.28515625
0.032,-2.0419921875,-5.765625,5.8056640625
0.0325,-3.36328125,-4.64453125,6.2060546875
0.033,-4.64453125,-3.203125,6.3662109375
0.0335,-5.4453125,-2.001953125,6.24609375
0.034,-5.92578125,-1.1611328125,6.24609375
0.0345,-6.005859375,-0.3603515625,5.845703125
0.035,-5.8056640625,0.7607421875,4.96484375
0.0355,-5.7255859375,2.0419921875,3.8037109375
0.036,-5.4453125,3.3232421875,2.5224609375
0.0365,-5.125,4.2841796875,1.44140625
0.037,-4.884765625,4.96484375,0.640625
0.0375,-4.083984375,5.28515625,-0.3603515625
0.038,-2.8828125,5.4453125,-1.6416015625
0.0385,-1.5615234375,5.7255859375,-3.203125
0.039,-0.400390625,5.685546875,-4.3642578125
0.0395,0.400390625,5.845703125,-5.28515625
0.04,1.28125,5.685546875,-6.0458984375
0.0405,2.482421875,4.64453125,-6.4462890625
0.041,3.84375,3.2431640625,-6.7265625
0.0415,5.0048828125,1.841796875,-6.7265625
0.042,5.6455078125,0.6806640625,-6.56640625
0.0425,5.92578125,-0.2001953125,-6.4462890625
0.043,5.845703125,-1.0810546875,-5.765625
0.0435,5.6455078125,-2.2822265625,-4.64453125
0.044,5.4052734375,-3.68359375,-3.283203125
0.0445,5.044921875,-4.8046875,-2.001953125
0.045,4.724609375,-5.6455078125,-1.0009765625
0.0455,4.2841796875,-6.166015625,-0.2001953125
0.046,3.2431640625,-6.326171875,0.9208984375
0.0465,1.841796875,-6.4462890625,2.4423828125
0.047,0.3203125,-6.486328125,3.9638671875
0.0475,-0.720703125,-6.4462890625,4.96484375
0.048,-1.361328125,-6.56640625,5.8056640625
0.0485,-2.3623046875,-6.0458984375,6.326171875
0.049,-3.7236328125,-4.7646484375,6.646484375
0.0495,-5.044921875,-3.3232421875,6.7666015625
0.05,-5.92578125,-1.8818359375,6.646484375
0.0505,-6.40625,-0.880859375,6.4462890625
0.051,-6.486328125,0.0400390625,6.0859375
0.0515,-6.2861328125,1.0009765625,5.2451171875
0.052,-5.9658203125,2.2822265625,3.9638671875
0.0525,-5.685546875,3.6435546875,2.5625
0.053,-5.2451171875,4.6044921875,1.28125
0.0535,-4.96484375,5.365234375,0.48046875
0.054,-4.2041015625,5.685546875,-0.5205078125
0.0545,-3.04296875,5.765625,-1.7216796875
0.055,-1.6015625,5.9658203125,-3.283203125
0.0555,-0.2001953125,5.8857421875,-4.64453125
0.056,0.6806640625,5.8857421875,-5.525390625
0.0565,1.4013671875,5.8056640625,-6.2861328125
0.057,2.482421875,4.96484375,-6.7265625
0.0575,3.8837890625,3.5634765625,-7.0068359375
0.058,5.125,2.08203125,-7.046875
0.0585,5.8056640625,0.7607421875,-6.7265625
0.059,6.2060546875,-0.2001953125,-6.646484375
0.0595,6.1259765625,-1.0009765625,-6.1259765625
0.06,5.8857421875,-2.1220703125,-5.0048828125
0.0605,5.60546875,-3.5234375,-3.6435546875
0.061,5.205078125,-4.7646484375,-2.2421875
0.0615,4.8046875,-5.6455078125,-1.1611328125
0.062,4.484375,-6.2861328125,-0.3203125
0.0625,3.5634765625,-6.486328125,0.720703125
0.063,2.2021484375,-6.56640625,2.08203125
0.0635,0.720703125,-6.6865234375,3.68359375
0.064,-0.640625,-6.486328125,4.8046875
0.0645,-1.3212890625,-6.646484375,5.685546875
0.065,-2.1220703125,-6.3662109375,6.2861328125
0.0655,-3.36328125,-5.28515625,6.6865234375
0.066,-4.6845703125,-3.84375,6.8466796875
0.0665,-5.765625,-2.322265625,6.7666015625
0.067,-6.326171875,-1.1611328125,6.5263671875
0.0675,-6.56640625,-0.400390625,6.3662109375
0.068,-6.40625,0.6005859375,5.685546875
0.0685,-6.1259765625,1.8017578125,4.484375
0.069,-5.8857421875,3.1630859375,3.123046875
0.0695,-5.4453125,4.32421875,1.76171875
0.07,-5.125,5.125,0.7607421875
0.0705,-4.6044921875,5.685546875,0.0
0.071,-3.603515625,5.8056640625,-1.1611328125
0.0715,-2.2021484375,5.92578125,-2.642578125
0.072,-0.6806640625,5.9658203125,-4.1640625
0.0725,0.4404296875,5.8857421875,-5.205078125
0.073,1.0810546875,6.005859375,-6.1259765625
0.0735,1.9619140625,5.4052734375,-6.6064453125
0.074,3.3232421875,4.2041015625,-6.9267578125
0.0745,4.6845703125,2.72265625,-7.0869140625
0.075,5.6455078125,1.28125,-6.9267578125
0.0755,6.1259765625,0.240234375,-6.7265625
0.076,6.24609375,-0.6806640625,-6.40625
0.0765,6.0859375,-1.6416015625,-5.5654296875
0.077,5.765625,-2.962890625,-4.244140625
0.0775,5.4853515625,-4.3642578125,-2.802734375
0.078,5.0048828125,-5.4052734375,-1.4814453125
0.0785,4.724609375,-6.2060546875,-0.6005859375
0.079,3.9638671875,-6.5263671875,0.400390625
0.0795,2.7626953125,-6.646484375,1.6015625
0.08,1.28125,-6.7666015625,3.203125
0.0805,-0.3203125,-6.6865234375,4.6044921875
0.081,-1.1611328125,-6.7265625,5.525390625
0.0815,-1.8818359375,-6.6064453125,6.24609375
0.082,-2.962890625,-5.7255859375,6.6865234375
0.0825,-4.3642578125,-4.32421875,6.966796875
0.083,-5.60546875,-2.802734375,7.0068359375
0.0835,-6.2861328125,-1.4013671875,6.6865234375
0.084,-6.6865234375,-0.5205078125,6.5263671875
0.0845,-6.56640625,0.4404296875,5.9658203125
0.085,-6.2861328125,1.521484375,4.8447265625
0.0855,-6.0458984375,2.8427734375,3.5234375
0.086,-5.6455078125,4.1240234375,2.08203125
0.0865,-5.1650390625,5.0048828125,0.9609375
0.087,-4.8046875,5.6455078125,0.1201171875
0.0875,-3.8837890625,5.8056640625,-0.9208984375
0.088,-2.5625,5.8857421875,-2.2822265625
0.0885,-1.12109375,5.92578125,-3.84375
0.089,0.2802734375,5.765625,-5.0048828125
0.0895,0.9609375,5.8857421875,-5.8857421875
0.09,1.76171875,5.6455078125,-6.486328125
0.0905,2.9228515625,4.6044921875,-6.8466796875
0.091,4.2841796875,3.203125,-7.0068359375
0.0915,5.3251953125,1.7216796875,-6.9267578125
0.092,5.8857421875,0.560546875,-6.6865234375
0.0925,6.1259765625,-0.3203125,-6.486328125
0.093,5.9658203125,-1.201171875,-5.8056640625
0.0935,5.685546875,-2.2822265625,-4.724609375
0.094,5.4052734375,-3.6435546875,-3.36328125
0.0945,4.96484375,-4.7646484375,-2.0419921875
0.095,4.64453125,-5.6455078125,-1.041015625
0.0955,4.244140625,-6.166015625,-0.2802734375
0.096,3.3232421875,-6.3662109375,0.80078125
0.0965,2.001953125,-6.486328125,2.162109375
0.097,0.560546875,-6.4462890625,3.6435546875
0.0975,-0.6005859375,-6.4462890625,4.64453125
0.098,-1.28125,-6.56640625,5.60546875
0.0985,-2.1220703125,-6.1259765625,6.1259765625
0.099,-3.3232421875,-5.0048828125,6.40625
0.0995,-4.564453125,-3.7236328125,6.646484375
0.1,-5.4853515625,-2.322265625,6.5263671875
0.1005,-6.0859375,-1.3212890625,6.40625
0.101,-6.2861328125,-0.6005859375,6.2060546875
0.1015,-6.1259765625,0.400390625,5.525390625
0.102,-5.8857421875,1.521484375,4.484375
0.1025,-5.6455078125,2.8427734375,3.1630859375
0.103,-5.28515625,3.9638671875,1.921875
0.1035,-5.0849609375,4.8046875,1.0009765625
0.104,-4.5244140625,5.2451171875,0.16015625
0.1045,-3.5634765625,5.4052734375,-1.0009765625
0.105,-2.2822265625,5.6455078125,-2.4423828125
0.1055,-0.9208984375,5.60546875,-3.84375
0.106,0.080078125,5.765625,-4.8046875
0.1065,0.7607421875,5.8857421875,-5.6455078125
0.107,1.76171875,5.28515625,-6.166015625
0.1075,3.04296875,4.1240234375,-6.486328125
0.108,4.2841796875,2.6826171875,-6.646484375
0.1085,5.0849609375,1.4013671875,-6.486328125
0.109,5.60546875,0.560546875,-6.4462890625
0.1095,5.7255859375,-0.3203125,-6.1259765625
0.11,5.5654296875,-1.28125,-5.3251953125
0.1105,5.365234375,-2.482421875,-4.2041015625
0.111,5.0849609375,-3.7236328125,-2.9228515625
0.1115,4.7646484375,-4.724609375,-1.8017578125
0.112,4.564453125,-5.525390625,-1.041015625
0.1125,3.84375,-5.845703125,0.0
0.113,2.802734375,-6.0458984375,1.0810546875
0.1135,1.521484375,-6.24609375,2.5224609375
0.114,0.2802734375,-6.1259765625,3.763671875
0.1145,-0.5205078125,-6.40625,4.724609375
0.115,-1.28125,-6.2861328125,5.4453125
0.1155,-2.322265625,-5.525390625,5.8857421875
0.116,-3.5634765625,-4.3642578125,6.1259765625
0.1165,-4.6845703125,-3.04296875,6.24609375
0.117,-5.4453125,-1.8818359375,6.1259765625
0.1175,-5.8056640625,-1.201171875,6.166015625
0.118,-5.8056640625,-0.400390625,5.685546875
0.1185,-5.6455078125,0.640625,4.8447265625
0.119,-5.525390625,1.841796875,3.8037109375
0.1195,-5.205078125,3.0029296875,2.6025390625
0.12,-5.0849609375,3.923828125,1.6416015625
0.1205,-4.8046875,4.6044921875,0.880859375
0.121,-4.0439453125,4.884765625,0.0
0.1215,-3.04296875,5.125,-1.3212890625
0.122,-1.76171875,5.3251953125,-2.642578125
0.1225,-0.720703125,5.4052734375,-3.8037109375
0.123,0.0,5.7255859375,-4.8046875
0.1235,0.880859375,5.4853515625,-5.4453125
0.124,1.9619140625,4.64453125,-5.8857421875
0.1245,3.203125,3.5234375,-6.2060546875
0.125,4.244140625,2.2421875,-6.2060546875
0.1255,4.9248046875,1.28125,-6.2861328125
0.126,5.3251953125,0.560546875,-6.2060546875
0.1265,5.3251953125,-0.3203125,-5.765625
0.127,5.205078125,-1.361328125,-4.884765625
0.1275,5.044921875,-2.642578125,-3.7236328125
0.128,4.7646484375,-3.7236328125,-2.6025390625
0.1285,4.724609375,-4.724609375,-1.76171875
0.129,4.32421875,-5.28515625,-1.0009765625
0.1295,3.443359375,-5.6455078125,0.1201171875
0.13,2.4423828125,-5.845703125,1.4013671875
0.1305,1.1611328125,-5.92578125,2.6826171875
0.131,0.3203125,-6.1259765625,3.8037109375
0.1315,-0.5205078125,-6.326171875,4.724609375
0.132,-1.4013671875,-5.92578125,5.28515625
0.1325,-2.5625,-5.0048828125,5.685546875
0.133,-3.8037109375,-3.8037109375,5.92578125
0.1335,-4.64453125,-2.6025390625,5.8857421875
0.134,-5.28515625,-1.841796875,6.0458984375
0.1345,-5.525390625,-1.1611328125,5.845703125
0.135,-5.4453125,-0.2802734375,5.205078125
0.1355,-5.4052734375,0.9208984375,4.3642578125
0.136,-5.205078125,2.0419921875,3.283203125
0.1365,-5.0849609375,3.0830078125,2.2421875
0.137,-4.96484375,3.9638671875,1.521484375
0.1375,-4.484375,4.404296875,0.6806640625
0.138,-3.603515625,4.7646484375,-0.4404296875
0.1385,-2.5625,5.0849609375,-1.7216796875
0.139,-1.44140625,5.1650390625,-2.8828125
0.1395,-0.720703125,5.4853515625,-3.9638671875
0.14,0.16015625,5.5654296875,-4.8447265625
0.1405,1.1611328125,5.0048828125,-5.365234375
0.141,2.3623046875,4.0439453125,-5.765625
0.1415,3.4833984375,2.8427734375,-5.9658203125
0.142,4.32421875,1.841796875,-6.0458984375
0.1425,4.8447265625,1.12109375,-6.1259765625
0.143,5.044921875,0.3603515625,-5.845703125
0.1435,5.0048828125,-0.640625,-5.205078125
0.144,4.96484375,-1.76171875,-4.32421875
0.1445,4.7646484375,-2.9228515625,-3.203125
0.145,4.6845703125,-3.923828125,-2.3623046875
0.1455,4.484375,-4.8046875,-1.6015625
0.146,3.9638671875,-5.125,-0.720703125
0.1465,3.0830078125,-5.4853515625,0.48046875
0.147,1.921875,-5.765625,1.841796875
0.1475,0.9208984375,-5.92578125,2.962890625
0.148,0.240234375,-6.2861328125,4.00390625
0.1485,-0.720703125,-6.1259765625,4.8046875
0.149,-1.8017578125,-5.4052734375,5.28515625
0.1495,-3.04296875,-4.404296875,5.685546875
0.15,-4.083984375,-3.203125,5.765625
0.1505,-4.8447265625,-2.2822265625,5.8857421875
0.151,-5.28515625,-1.6015625,5.9658203125
0.1515,-5.4052734375,-0.8408203125,5.5654296875
0.152,-5.365234375,0.240234375,4.8046875
0.1525,-5.28515625,1.4013671875,3.84375
0.153,-5.125,2.5224609375,2.7626953125
0.1535,-5.125,3.4833984375,1.921875
0.154,-4.7646484375,4.1640625,1.1611328125
0.1545,-4.00390625,4.5244140625,0.2001953125
0.155,-3.0830078125,4.96484375,-1.1611328125
0.1555,-1.921875,5.125,-2.4423828125
0.156,-1.041015625,5.4052734375,-3.5634765625
0.1565,-0.3203125,5.6455078125,-4.5244140625
0.157,0.720703125,5.28515625,-5.205078125
0.1575,1.921875,4.404296875,-5.6455078125
0.158,3.1630859375,3.203125,-5.9658203125
0.1585,4.1240234375,2.0419921875,-6.005859375
0.159,4.8046875,1.28125,-6.166015625
0.1595,5.0849609375,0.5205078125,-6.005859375
0.16,5.0849609375,-0.48046875,-5.4052734375
0.1605,5.044921875,-1.6015625,-4.5244140625
0.161,4.884765625,-2.8828125,-3.4033203125
0.1615,4.64453125,-3.8837890625,-2.40234375
0.162,4.6044921875,-4.7646484375,-1.6015625
0.1625,4.083984375,-5.205078125,-0.7607421875
0.163,3.1630859375,-5.4853515625,0.4404296875
0.1635,2.0419921875,-5.8056640625,1.841796875
0.164,0.9208984375,-5.92578125,3.0029296875
0.1645,0.16015625,-6.24609375,4.083984375
0.165,-0.720703125,-6.2060546875,4.884765625
0.1655,-1.8017578125,-5.60546875,5.4052734375
0.166,-3.04296875,-4.5244140625,5.8056640625
0.1665,-4.1640625,-3.2431640625,5.92578125
0.167,-5.0048828125,-2.2021484375,5.92578125
0.1675,-5.4853515625,-1.44140625,6.005859375
0.168,-5.60546875,-0.6806640625,5.6455078125
0.1685,-5.4453125,0.400390625,4.8046875
0.169,-5.4052734375,1.5615234375,3.84375
0.1695,-5.205078125,2.6826171875,2.6826171875
0.17,-5.044921875,3.763671875,1.76171875
0.1705,-4.7646484375,4.4443359375,1.0009765625
0.171,-4.0439453125,4.7646484375,0.080078125
0.1715,-3.04296875,5.0849609375,-1.2412109375
0.172,-1.8017578125,5.28515625,-2.6025390625
0.1725,-0.8408203125,5.4052734375,-3.7236328125
0.173,0.0,5.7255859375,-4.7646484375
0.1735,0.880859375,5.4052734375,-5.4453125
0.174,2.0419921875,4.484375,-5.845703125
0.1745,3.3232421875,3.3232421875,-6.2060546875
0.175,4.32421875,2.0419921875,-6.2060546875
0.1755,5.0048828125,1.12109375,-6.2861328125
0.176,5.365234375,0.3203125,-6.1259765625
0.1765,5.3251953125,-0.640625,-5.60546875
0.177,5.205078125,-1.7216796875,-4.64453125
0.1775,5.044921875,-3.0830078125,-3.4833984375
0.178,4.7646484375,-4.0439453125,-2.322265625
0.1785,4.64453125,-4.96484375,-1.4814453125
0.179,4.1640625,-5.4853515625,-0.640625
0.1795,3.2431640625,-5.7255859375,0.48046875
0.18,2.0419921875,-5.9658203125,1.8818359375
0.1805,0.80078125,-6.0859375,3.203125
0.181,0.0,-6.2861328125,4.244140625
0.1815,-0.880859375,-6.3662109375,5.125
0.182,-1.8818359375,-5.8056640625,5.685546875
0.1825,-3.203125,-4.6845703125,6.0458984375
0.183,-4.3642578125,-3.36328125,6.2861328125
0.1835,-5.205078125,-2.162109375,6.166015625
0.184,-5.765625,-1.3212890625,6.2060546875
0.1845,-5.8857421875,-0.640625,5.8857421875
0.185,-5.765625,0.48046875,5.044921875
0.1855,-5.6455078125,1.681640625,3.9638671875
0.186,-5.4052734375,3.0029296875,2.6826171875
0.1865,-5.125,4.00390625,1.6416015625
0.187,-4.96484375,4.8046875,0.8408203125
0.1875,-4.2041015625,5.1650390625,-0.16015625
0.188,-3.0830078125,5.365234375,-1.4013671875
0.1885,-1.8017578125,5.60546875,-2.9228515625
0.189,-0.640625,5.60546875,-4.1240234375
0.1895,0.240234375,5.845703125,-5.125
0.19,1.12109375,5.685546875,-5.8857421875
0.1905,2.322265625,4.7646484375,-6.3662109375
0.191,3.68359375,3.443359375,-6.6865234375
0.1915,4.8046875,1.9619140625,-6.6865234375
0.192,5.4853515625,0.8408203125,-6.5263671875
0.1925,5.8857421875,0.0,-6.4462890625
0.193,5.8056640625,-1.041015625,-5.8056640625
0.1935,5.5654296875,-2.2421875,-4.6845703125
0.194,5.4052734375,-3.5634765625,-3.36328125
0.1945,5.044921875,-4.724609375,-2.08203125
0.195,4.724609375,-5.60546875,-1.0810546875
0.1955,4.2841796875,-6.1259765625,-0.2001953125
0.196,3.2431640625,-6.3662109375,0.9609375
0.1965,1.841796875,-6.486328125,2.482421875
0.197,0.3603515625,-6.5263671875,3.9638671875
0.1975,-0.6806640625,-6.486328125,4.96484375
0.198,-1.4013671875,-6.56640625,5.8056640625
0.1985,-2.4423828125,-5.92578125,6.3662109375
0.199,-3.8037109375,-4.64453125,6.6865234375
0.1995,-5.0849609375,-3.203125,6.8466796875
0.2,-5.92578125,-1.8017578125,6.646484375
0.2005,-6.40625,-0.8408203125,6.40625
0.201,-6.486328125,0.0400390625,6.0859375
0.2015,-6.326171875,1.041015625,5.205078125
0.202,-5.9658203125,2.3623046875,3.8837890625
0.2025,-5.6455078125,3.68359375,2.5224609375
0.203,-5.2451171875,4.64453125,1.28125
0.2035,-4.884765625,5.4052734375,0.3603515625
0.204,-4.1640625,5.7255859375,-0.640625
0.2045,-2.9228515625,5.845703125,-1.8017578125
0.205,-1.4814453125,6.005859375,-3.36328125
0.2055,-0.16015625,5.8857421875,-4.6845703125
0.206,0.7607421875,5.8857421875,-5.5654296875
0.2065,1.44140625,5.8056640625,-6.3662109375
0.207,2.5625,4.96484375,-6.7666015625
0.2075,3.923828125,3.5634765625,-7.0068359375
0.208,5.125,2.08203125,-7.046875
0.2085,5.845703125,0.6806640625,-6.7265625
0.209,6.2060546875,-0.2802734375,-6.6064453125
0.2095,6.1259765625,-1.12109375,-6.0859375
0.21,5.8857421875,-2.2021484375,-5.0048828125
0.2105,5.60546875,-3.5234375,-3.6435546875
0.211,5.205078125,-4.7646484375,-2.2822265625
0.2115,4.7646484375,-5.6455078125,-1.12109375
0.212,4.484375,-6.326171875,-0.3203125
0.2125,3.5634765625,-6.486328125,0.7607421875
0.213,2.2421875,-6.56640625,2.08203125
0.2135,0.7607421875,-6.646484375,3.6435546875
0.214,-0.640625,-6.5263671875,4.8046875
0.2145,-1.3212890625,-6.6064453125,5.685546875
0.215,-2.1220703125,-6.3662109375,6.3662109375
0.2155,-3.283203125,-5.28515625,6.6865234375
0.216,-4.64453125,-3.8837890625,6.88671875
0.2165,-5.685546875,-2.4423828125,6.7666015625
0.217,-6.2861328125,-1.2412109375,6.5263671875
0.2175,-6.56640625,-0.4404296875,6.3662109375
0.218,-6.4462890625,0.6005859375,5.685546875
0.2185,-6.1259765625,1.76171875,4.484375
0.219,-5.845703125,3.123046875,3.1630859375
0.2195,-5.4453125,4.2041015625,1.841796875
0.22,-5.125,5.0849609375,0.8408203125
0.2205,-4.64453125,5.60546875,0.0
0.221,-3.6435546875,5.765625,-1.12109375
0.2215,-2.2822265625,5.8857421875,-2.5625
0.222,-0.80078125,5.92578125,-4.083984375
0.2225,0.3603515625,5.8857421875,-5.125
0.223,1.0009765625,6.0458984375,-6.005859375
0.2235,1.9619140625,5.4853515625,-6.56640625
0.224,3.283203125,4.244140625,-6.88671875
0.2245,4.6044921875,2.7626953125,-7.0869140625
0.225,5.4853515625,1.28125,-6.88671875
0.2255,6.005859375,0.2802734375,-6.7265625
0.226,6.2060546875,-0.640625,-6.40625
0.2265,6.0458984375,-1.5615234375,-5.6455078125
0.227,5.7255859375,-2.8427734375,-4.32421875
0.2275,5.4052734375,-4.244140625,-2.8828125
0.228,4.96484375,-5.2451171875,-1.6015625
0.2285,4.724609375,-6.1259765625,-0.6806640625
