wavelength,x,y,z
0.0,4.694580078125,-2.312255859375,-3.593505859375
0.0005,4.494384765625,-3.473388671875,-2.512451171875
0.001,4.334228515625,-4.354248046875,-1.671630859375
0.0015,3.973876953125,-4.994873046875,-0.950927734375
0.002,3.293212890625,-5.195068359375,0.090087890625
0.0025,2.212158203125,-5.475341796875,1.371337890625
0.003,1.091064453125,-5.755615234375,2.692626953125
0.0035,0.250244140625,-5.915771484375,3.733642578125
0.004,-0.510498046875,-6.156005859375,4.614501953125
0.0045,-1.391357421875,-5.755615234375,5.215087890625
0.005,-2.512451171875,-4.834716796875,5.615478515625
0.0055,-3.713623046875,-3.753662109375,5.935791015625
0.006,-4.634521484375,-2.552490234375,5.935791015625
0.0065,-5.195068359375,-1.711669921875,5.935791015625
0.007,-5.355224609375,-1.031005859375,5.735595703125
0.0075,-5.235107421875,-0.270263671875,5.094970703125
0.008,-5.074951171875,0.970947265625,4.093994140625
0.0085,-4.994873046875,2.132080078125,3.012939453125
0.009,-4.794677734375,3.173095703125,1.931884765625
0.0095,-4.674560546875,3.973876953125,1.211181640625
0.01,-4.073974609375,4.414306640625,0.410400390625
0.0105,-3.233154296875,4.694580078125,-0.710693359375
0.011,-2.192138671875,5.054931640625,-2.031982421875
0.0115,-1.031005859375,5.135009765625,-3.313232421875
0.012,-0.310302734375,5.415283203125,-4.314208984375
0.0125,0.490478515625,5.455322265625,-5.114990234375
0.013,1.531494140625,4.854736328125,-5.635498046875
0.0135,2.732666015625,3.773681640625,-5.955810546875
0.014,3.893798828125,2.612548828125,-6.236083984375
0.0145,4.654541015625,1.451416015625,-6.115966796875
0.015,5.094970703125,0.770751953125,-6.156005859375
0.0155,5.094970703125,0.010009765625,-5.715576171875
0.016,4.974853515625,-1.071044921875,-4.874755859375
0.0165,4.814697265625,-2.272216796875,-3.833740234375
0.017,4.614501953125,-3.553466796875,-2.592529296875
0.0175,4.374267578125,-4.514404296875,-1.631591796875
0.018,4.214111328125,-5.155029296875,-0.910888671875
0.0185,3.453369140625,-5.435302734375,0.090087890625
0.019,2.292236328125,-5.635498046875,1.331298828125
0.0195,1.211181640625,-5.955810546875,2.732666015625
0.02,0.130126953125,-5.955810546875,3.893798828125
0.0205,-0.630615234375,-6.236083984375,4.814697265625
0.021,-1.431396484375,-5.955810546875,5.455322265625
0.0215,-2.552490234375,-5.114990234375,5.855712890625
0.022,-3.873779296875,-3.873779296875,6.216064453125
0.0225,-4.874755859375,-2.592529296875,6.256103515625
0.023,-5.475341796875,-1.591552734375,6.135986328125
0.0235,-5.755615234375,-0.910888671875,6.015869140625
0.024,-5.595458984375,0.050048828125,5.295166015625
0.0245,-5.355224609375,1.131103515625,4.174072265625
0.025,-5.275146484375,2.412353515625,3.093017578125
0.0255,-4.994873046875,3.573486328125,1.771728515625
0.026,-4.754638671875,4.454345703125,0.970947265625
0.0265,-4.194091796875,4.894775390625,0.130126953125
0.027,-3.353271484375,5.094970703125,-0.950927734375
0.0275,-2.031982421875,5.295166015625,-2.432373046875
0.028,-0.830810546875,5.495361328125,-3.793701171875
0.0285,0.170166015625,5.575439453125,-4.794677734375
0.029,0.850830078125,5.735595703125,-5.635498046875
0.0295,1.891845703125,5.054931640625,-6.115966796875
0.03,3.173095703125,3.813720703125,-6.436279296875
0.0305,4.414306640625,2.572509765625,-6.716552734375
0.031,5.215087890625,1.211181640625,-6.556396484375
0.0315,5.615478515625,0.330322265625,-6.396240234375
0.032,5.655517578125,-0.550537109375,-5.955810546875
0.0325,5.415283203125,-1.551513671875,-5.074951171875
0.033,5.094970703125,-2.872802734375,-3.753662109375
0.0335,4.894775390625,-4.194091796875,-2.432373046875
0.034,4.534423828125,-5.114990234375,-1.271240234375
0.0345,4.254150390625,-5.755615234375,-0.470458984375
0.035,3.453369140625,-6.035888671875,0.530517578125
0.0355,2.212158203125,-6.115966796875,1.811767578125
0.036,0.890869140625,-6.356201171875,3.333251953125
0.0365,-0.510498046875,-6.276123046875,4.574462890625
0.037,-1.231201171875,-6.356201171875,5.415283203125
0.0375,-1.951904296875,-6.196044921875,6.095947265625
0.038,-3.072998046875,-5.275146484375,6.496337890625
0.0385,-4.394287109375,-3.833740234375,6.696533203125
0.039,-5.435302734375,-2.512451171875,6.736572265625
0.0395,-6.075927734375,-1.271240234375,6.456298828125
0.04,-6.276123046875,-0.510498046875,6.256103515625
0.0405,-6.115966796875,0.410400390625,5.535400390625
0.041,-5.755615234375,1.491455078125,4.334228515625
0.0415,-5.515380859375,2.812744140625,3.052978515625
0.042,-5.155029296875,4.093994140625,1.691650390625
0.0425,-4.754638671875,4.854736328125,0.650634765625
0.043,-4.354248046875,5.455322265625,-0.190185546875
0.0435,-3.393310546875,5.575439453125,-1.151123046875
0.044,-1.951904296875,5.615478515625,-2.592529296875
0.0445,-0.670654296875,5.815673828125,-4.114013671875
0.045,0.570556640625,5.695556640625,-5.155029296875
0.0455,1.171142578125,5.815673828125,-5.955810546875
0.046,2.052001953125,5.335205078125,-6.516357421875
0.0465,3.253173828125,4.174072265625,-6.796630859375
0.047,4.534423828125,2.812744140625,-7.036865234375
0.0475,5.455322265625,1.411376953125,-6.916748046875
0.048,5.935791015625,0.290283203125,-6.596435546875
0.0485,6.055908203125,-0.590576171875,-6.356201171875
0.049,5.735595703125,-1.511474609375,-5.435302734375
0.0495,5.375244140625,-2.752685546875,-4.114013671875
0.05,5.135009765625,-4.033935546875,-2.752685546875
0.0505,4.734619140625,-5.155029296875,-1.391357421875
0.051,4.334228515625,-5.875732421875,-0.510498046875
0.0515,3.773681640625,-6.276123046875,0.450439453125
0.052,2.692626953125,-6.356201171875,1.491455078125
0.0525,1.171142578125,-6.436279296875,3.052978515625
0.053,-0.310302734375,-6.476318359375,4.494384765625
0.0535,-1.231201171875,-6.396240234375,5.415283203125
0.054,-1.791748046875,-6.436279296875,6.135986328125
0.0545,-2.832763671875,-5.715576171875,6.576416015625
0.055,-4.114013671875,-4.354248046875,6.776611328125
0.0555,-5.275146484375,-3.032958984375,6.976806640625
0.056,-6.075927734375,-1.631591796875,6.656494140625
0.0565,-6.396240234375,-0.710693359375,6.456298828125
0.057,-6.356201171875,0.130126953125,5.935791015625
0.0575,-6.035888671875,1.051025390625,4.974853515625
0.058,-5.635498046875,2.452392578125,3.533447265625
0.0585,-5.395263671875,3.773681640625,2.172119140625
0.059,-4.914794921875,4.734619140625,0.930908203125
0.0595,-4.634521484375,5.415283203125,0.170166015625
0.06,-3.793701171875,5.615478515625,-0.830810546875
0.0605,-2.552490234375,5.695556640625,-2.031982421875
0.061,-1.151123046875,5.855712890625,-3.633544921875
0.0615,0.250244140625,5.775634765625,-4.874755859375
0.062,0.970947265625,5.815673828125,-5.755615234375
0.0625,1.691650390625,5.695556640625,-6.436279296875
0.063,2.812744140625,4.734619140625,-6.796630859375
0.0635,4.134033203125,3.293212890625,-6.996826171875
0.064,5.255126953125,1.931884765625,-7.076904296875
0.0645,5.815673828125,0.610595703125,-6.716552734375
0.065,6.095947265625,-0.310302734375,-6.556396484375
0.0655,5.895751953125,-1.191162109375,-5.835693359375
0.066,5.575439453125,-2.192138671875,-4.674560546875
0.0665,5.295166015625,-3.553466796875,-3.273193359375
0.067,4.934814453125,-4.794677734375,-1.911865234375
0.0675,4.494384765625,-5.715576171875,-0.790771484375
0.068,4.134033203125,-6.276123046875,0.090087890625
0.0685,3.133056640625,-6.396240234375,1.091064453125
0.069,1.731689453125,-6.436279296875,2.492431640625
0.0695,0.330322265625,-6.556396484375,4.013916015625
0.07,-0.950927734375,-6.436279296875,5.094970703125
0.0705,-1.591552734375,-6.516357421875,5.935791015625
0.071,-2.432373046875,-6.115966796875,6.456298828125
0.0715,-3.593505859375,-4.994873046875,6.776611328125
0.072,-4.954833984375,-3.553466796875,6.976806640625
0.0725,-5.875732421875,-2.152099609375,6.856689453125
0.073,-6.396240234375,-0.990966796875,6.536376953125
0.0735,-6.516357421875,-0.310302734375,6.256103515625
0.074,-6.196044921875,0.770751953125,5.415283203125
0.0745,-5.795654296875,1.971923828125,4.093994140625
0.075,-5.595458984375,3.333251953125,2.732666015625
0.0755,-5.114990234375,4.494384765625,1.331298828125
0.076,-4.754638671875,5.215087890625,0.410400390625
0.0765,-4.154052734375,5.615478515625,-0.510498046875
0.077,-3.113037109375,5.695556640625,-1.551513671875
0.0775,-1.591552734375,5.775634765625,-3.113037109375
0.078,-0.310302734375,5.815673828125,-4.514404296875
0.0785,0.810791015625,5.775634765625,-5.475341796875
0.079,1.411376953125,5.815673828125,-6.236083984375
0.0795,2.412353515625,5.094970703125,-6.676513671875
0.08,3.653564453125,3.813720703125,-6.916748046875
0.0805,4.854736328125,2.412353515625,-7.076904296875
0.081,5.615478515625,1.051025390625,-6.796630859375
0.0815,5.975830078125,0.050048828125,-6.556396484375
0.082,5.935791015625,-0.710693359375,-6.115966796875
0.0825,5.655517578125,-1.631591796875,-5.195068359375
0.083,5.255126953125,-2.952880859375,-3.793701171875
0.0835,5.014892578125,-4.234130859375,-2.432373046875
0.084,4.534423828125,-5.235107421875,-1.191162109375
0.0845,4.294189453125,-5.915771484375,-0.390380859375
0.085,3.493408203125,-6.156005859375,0.570556640625
0.0855,2.372314453125,-6.276123046875,1.731689453125
0.086,0.970947265625,-6.396240234375,3.213134765625
0.0865,-0.470458984375,-6.276123046875,4.494384765625
0.087,-1.231201171875,-6.356201171875,5.375244140625
0.0875,-1.791748046875,-6.316162109375,6.055908203125
0.088,-2.832763671875,-5.475341796875,6.416259765625
0.0885,-4.114013671875,-4.154052734375,6.576416015625
0.089,-5.195068359375,-2.872802734375,6.696533203125
0.0895,-5.875732421875,-1.631591796875,6.416259765625
0.09,-6.156005859375,-0.830810546875,6.336181640625
0.0905,-6.035888671875,0.090087890625,5.735595703125
0.091,-5.755615234375,1.051025390625,4.734619140625
0.0915,-5.475341796875,2.252197265625,3.533447265625
0.092,-5.155029296875,3.533447265625,2.172119140625
0.0925,-4.834716796875,4.494384765625,1.091064453125
0.093,-4.554443359375,5.094970703125,0.290283203125
0.0935,-3.713623046875,5.295166015625,-0.670654296875
0.094,-2.512451171875,5.415283203125,-1.951904296875
0.0945,-1.271240234375,5.695556640625,-3.393310546875
0.095,0.050048828125,5.575439453125,-4.554443359375
0.0955,0.690673828125,5.735595703125,-5.475341796875
0.096,1.491455078125,5.495361328125,-6.115966796875
0.0965,2.572509765625,4.534423828125,-6.436279296875
0.097,3.853759765625,3.213134765625,-6.716552734375
0.0975,4.854736328125,1.891845703125,-6.716552734375
0.098,5.455322265625,0.810791015625,-6.476318359375
0.0985,5.695556640625,0.090087890625,-6.356201171875
0.099,5.495361328125,-0.830810546875,-5.635498046875
0.0995,5.215087890625,-1.951904296875,-4.514404296875
0.1,5.054931640625,-3.193115234375,-3.313232421875
0.1005,4.654541015625,-4.354248046875,-1.991943359375
0.101,4.414306640625,-5.195068359375,-1.031005859375
0.1015,3.973876953125,-5.755615234375,-0.310302734375
0.102,3.052978515625,-5.875732421875,0.770751953125
0.1025,1.811767578125,-6.035888671875,2.092041015625
0.103,0.490478515625,-6.115966796875,3.533447265625
0.1035,-0.590576171875,-6.115966796875,4.534423828125
0.104,-1.151123046875,-6.356201171875,5.415283203125
0.1045,-1.991943359375,-5.835693359375,5.895751953125
0.105,-3.193115234375,-4.834716796875,6.135986328125
0.1055,-4.354248046875,-3.633544921875,6.416259765625
0.106,-5.195068359375,-2.272216796875,6.256103515625
0.1065,-5.715576171875,-1.351318359375,6.176025390625
0.107,-5.795654296875,-0.630615234375,5.895751953125
0.1075,-5.595458984375,0.250244140625,5.175048828125
0.108,-5.315185546875,1.331298828125,4.093994140625
0.1085,-5.155029296875,2.612548828125,2.892822265625
0.109,-4.834716796875,3.653564453125,1.691650390625
0.1095,-4.634521484375,4.494384765625,0.890869140625
0.11,-4.073974609375,4.814697265625,0.130126953125
0.1105,-3.193115234375,5.014892578125,-0.990966796875
0.111,-2.031982421875,5.255126953125,-2.272216796875
0.1115,-0.790771484375,5.295166015625,-3.593505859375
0.112,0.090087890625,5.455322265625,-4.554443359375
0.1125,0.730712890625,5.535400390625,-5.395263671875
0.113,1.611572265625,4.974853515625,-5.835693359375
0.1135,2.812744140625,3.853759765625,-6.156005859375
0.114,3.933837890625,2.732666015625,-6.356201171875
0.1145,4.694580078125,1.531494140625,-6.236083984375
0.115,5.175048828125,0.770751953125,-6.236083984375
0.1155,5.255126953125,0.050048828125,-5.835693359375
0.116,5.054931640625,-0.950927734375,-5.114990234375
0.1165,4.854736328125,-2.031982421875,-4.073974609375
0.117,4.654541015625,-3.273193359375,-2.872802734375
0.1175,4.414306640625,-4.234130859375,-1.791748046875
0.118,4.294189453125,-5.034912109375,-1.071044921875
0.1185,3.613525390625,-5.315185546875,-0.270263671875
0.119,2.612548828125,-5.515380859375,0.970947265625
0.1195,1.531494140625,-5.835693359375,2.292236328125
0.12,0.370361328125,-5.835693359375,3.493408203125
0.1205,-0.430419921875,-6.156005859375,4.454345703125
0.121,-1.151123046875,-6.115966796875,5.135009765625
0.1215,-2.112060546875,-5.435302734375,5.535400390625
0.122,-3.273193359375,-4.354248046875,5.895751953125
0.1225,-4.314208984375,-3.153076171875,6.015869140625
0.123,-5.034912109375,-2.072021484375,5.975830078125
0.1235,-5.395263671875,-1.431396484375,5.975830078125
0.124,-5.355224609375,-0.630615234375,5.455322265625
0.1245,-5.155029296875,0.370361328125,4.614501953125
0.125,-5.114990234375,1.451416015625,3.693603515625
0.1255,-4.834716796875,2.692626953125,2.492431640625
0.126,-4.674560546875,3.573486328125,1.611572265625
0.1265,-4.434326171875,4.174072265625,0.890869140625
0.127,-3.793701171875,4.534423828125,0.050048828125
0.1275,-2.752685546875,4.814697265625,-1.271240234375
0.128,-1.711669921875,5.054931640625,-2.552490234375
0.1285,-0.710693359375,5.135009765625,-3.633544921875
0.129,0.010009765625,5.455322265625,-4.554443359375
0.1295,0.770751953125,5.135009765625,-5.195068359375
0.13,1.851806640625,4.414306640625,-5.595458984375
0.1305,3.012939453125,3.453369140625,-5.915771484375
0.131,3.933837890625,2.252197265625,-5.955810546875
0.1315,4.574462890625,1.331298828125,-6.035888671875
0.132,4.854736328125,0.690673828125,-5.915771484375
0.1325,4.814697265625,-0.150146484375,-5.395263671875
0.133,4.694580078125,-1.151123046875,-4.514404296875
0.1335,4.614501953125,-2.312255859375,-3.553466796875
0.134,4.414306640625,-3.353271484375,-2.472412109375
0.1345,4.374267578125,-4.314208984375,-1.711669921875
0.135,3.933837890625,-4.834716796875,-0.950927734375
0.1355,3.213134765625,-5.155029296875,0.130126953125
0.136,2.252197265625,-5.475341796875,1.331298828125
0.1365,1.091064453125,-5.675537109375,2.612548828125
0.137,0.330322265625,-5.915771484375,3.613525390625
0.1375,-0.430419921875,-6.156005859375,4.494384765625
0.138,-1.311279296875,-5.715576171875,5.094970703125
0.1385,-2.432373046875,-4.794677734375,5.455322265625
0.139,-3.553466796875,-3.833740234375,5.775634765625
0.1395,-4.434326171875,-2.632568359375,5.775634765625
0.14,-4.994873046875,-1.951904296875,5.895751953125
0.1405,-5.114990234375,-1.231201171875,5.615478515625
0.141,-5.074951171875,-0.430419921875,5.014892578125
0.1415,-4.994873046875,0.690673828125,4.214111328125
0.142,-4.914794921875,1.931884765625,3.093017578125
0.1425,-4.754638671875,2.932861328125,2.132080078125
0.143,-4.674560546875,3.813720703125,1.411376953125
0.1435,-4.154052734375,4.214111328125,0.610595703125
0.144,-3.233154296875,4.494384765625,-0.590576171875
0.1445,-2.352294921875,4.894775390625,-1.831787109375
0.145,-1.271240234375,5.014892578125,-3.032958984375
0.1455,-0.590576171875,5.335205078125,-4.033935546875
0.146,0.290283203125,5.375244140625,-4.834716796875
0.1465,1.291259765625,4.814697265625,-5.355224609375
0.147,2.492431640625,3.813720703125,-5.755615234375
0.1475,3.573486328125,2.692626953125,-5.915771484375
0.148,4.334228515625,1.651611328125,-5.955810546875
0.1485,4.814697265625,0.970947265625,-6.035888671875
0.149,4.814697265625,0.250244140625,-5.595458984375
0.1495,4.734619140625,-0.830810546875,-4.794677734375
0.15,4.694580078125,-1.951904296875,-3.913818359375
0.1505,4.494384765625,-3.153076171875,-2.752685546875
0.151,4.374267578125,-4.073974609375,-1.871826171875
0.1515,4.134033203125,-4.794677734375,-1.151123046875
0.152,3.493408203125,-5.114990234375,-0.270263671875
0.1525,2.412353515625,-5.435302734375,1.051025390625
0.153,1.331298828125,-5.715576171875,2.372314453125
0.1535,0.410400390625,-5.915771484375,3.453369140625
0.154,-0.350341796875,-6.115966796875,4.494384765625
0.1545,-1.191162109375,-5.835693359375,5.094970703125
0.155,-2.272216796875,-4.994873046875,5.455322265625
0.1555,-3.473388671875,-3.993896484375,5.895751953125
0.156,-4.434326171875,-2.752685546875,5.895751953125
0.1565,-5.074951171875,-1.871826171875,5.895751953125
0.157,-5.315185546875,-1.191162109375,5.775634765625
0.1575,-5.235107421875,-0.390380859375,5.215087890625
0.158,-5.074951171875,0.770751953125,4.214111328125
0.1585,-5.034912109375,1.971923828125,3.213134765625
0.159,-4.794677734375,3.052978515625,2.052001953125
0.1595,-4.674560546875,3.933837890625,1.291259765625
0.16,-4.154052734375,4.414306640625,0.490478515625
0.1605,-3.393310546875,4.614501953125,-0.590576171875
0.161,-2.312255859375,4.934814453125,-1.951904296875
0.1615,-1.191162109375,5.094970703125,-3.193115234375
0.162,-0.390380859375,5.375244140625,-4.194091796875
0.1625,0.410400390625,5.495361328125,-5.074951171875
0.163,1.371337890625,4.934814453125,-5.595458984375
0.1635,2.612548828125,3.853759765625,-5.915771484375
0.164,3.773681640625,2.732666015625,-6.196044921875
0.1645,4.534423828125,1.571533203125,-6.115966796875
0.165,5.094970703125,0.810791015625,-6.115966796875
0.1655,5.094970703125,0.050048828125,-5.755615234375
0.166,4.974853515625,-0.990966796875,-4.994873046875
0.1665,4.814697265625,-2.112060546875,-3.913818359375
0.167,4.614501953125,-3.353271484375,-2.712646484375
0.1675,4.414306640625,-4.354248046875,-1.671630859375
0.168,4.214111328125,-5.114990234375,-0.990966796875
0.1685,3.493408203125,-5.435302734375,0.010009765625
0.169,2.452392578125,-5.635498046875,1.211181640625
0.1695,1.291259765625,-5.915771484375,2.572509765625
0.17,0.210205078125,-5.915771484375,3.733642578125
0.1705,-0.590576171875,-6.156005859375,4.694580078125
0.171,-1.351318359375,-6.035888671875,5.415283203125
0.1715,-2.392333984375,-5.195068359375,5.775634765625
0.172,-3.673583984375,-4.033935546875,6.095947265625
0.1725,-4.674560546875,-2.792724609375,6.176025390625
0.173,-5.355224609375,-1.711669921875,6.095947265625
0.1735,-5.635498046875,-1.031005859375,6.015869140625
0.174,-5.515380859375,-0.270263671875,5.375244140625
0.1745,-5.315185546875,0.930908203125,4.334228515625
0.175,-5.195068359375,2.132080078125,3.293212890625
0.1755,-4.914794921875,3.333251953125,2.052001953125
0.176,-4.674560546875,4.174072265625,1.131103515625
0.1765,-4.354248046875,4.734619140625,0.370361328125
0.177,-3.553466796875,4.934814453125,-0.630615234375
0.1775,-2.272216796875,5.094970703125,-2.072021484375
0.178,-1.151123046875,5.415283203125,-3.393310546875
0.1785,0.010009765625,5.455322265625,-4.474365234375
0.179,0.610595703125,5.695556640625,-5.395263671875
0.1795,1.571533203125,5.175048828125,-5.955810546875
0.18,2.772705078125,4.134033203125,-6.276123046875
0.1805,4.013916015625,2.892822265625,-6.596435546875
0.181,4.934814453125,1.571533203125,-6.476318359375
0.1815,5.415283203125,0.610595703125,-6.396240234375
0.182,5.615478515625,-0.270263671875,-6.115966796875
0.1825,5.415283203125,-1.151123046875,-5.275146484375
0.183,5.094970703125,-2.432373046875,-3.993896484375
0.1835,4.974853515625,-3.753662109375,-2.752685546875
0.184,4.614501953125,-4.834716796875,-1.551513671875
0.1845,4.374267578125,-5.635498046875,-0.710693359375
0.185,3.653564453125,-5.955810546875,0.290283203125
0.1855,2.532470703125,-6.115966796875,1.411376953125
0.186,1.171142578125,-6.276123046875,2.972900390625
0.1865,-0.190185546875,-6.276123046875,4.294189453125
0.187,-0.990966796875,-6.316162109375,5.215087890625
0.1875,-1.671630859375,-6.276123046875,5.975830078125
0.188,-2.832763671875,-5.435302734375,6.376220703125
