wavelength,x,y,z
0.0,-1.431396484375,-2.192138671875,3.093017578125
0.0005,-1.951904296875,-1.711669921875,3.052978515625
0.001,-2.312255859375,-1.311279296875,3.052978515625
0.0015,-2.672607421875,-0.790771484375,2.932861328125
0.002,-2.872802734375,-0.310302734375,2.652587890625
0.0025,-3.032958984375,0.450439453125,2.132080078125
0.003,-3.153076171875,1.091064453125,1.651611328125
0.0035,-3.193115234375,1.571533203125,1.131103515625
0.004,-3.193115234375,2.172119140625,0.650634765625
0.0045,-2.952880859375,2.492431640625,0.130126953125
0.005,-2.552490234375,2.732666015625,-0.630615234375
0.0055,-2.072021484375,3.052978515625,-1.351318359375
0.006,-1.471435546875,3.093017578125,-1.991943359375
0.0065,-1.031005859375,3.133056640625,-2.472412109375
0.007,-0.590576171875,3.173095703125,-2.952880859375
0.0075,0.050048828125,2.852783203125,-3.273193359375
0.008,0.930908203125,2.252197265625,-3.553466796875
0.0085,1.531494140625,1.771728515625,-3.713623046875
0.009,1.971923828125,1.291259765625,-3.713623046875
0.0095,2.412353515625,0.930908203125,-3.713623046875
0.01,2.572509765625,0.370361328125,-3.353271484375
0.0105,2.812744140625,-0.310302734375,-2.912841796875
0.011,3.012939453125,-0.990966796875,-2.432373046875
0.0115,3.012939453125,-1.591552734375,-1.871826171875
0.012,2.932861328125,-2.072021484375,-1.391357421875
0.0125,2.932861328125,-2.552490234375,-0.910888671875
0.013,2.572509765625,-2.752685546875,-0.310302734375
0.0135,2.011962890625,-2.992919921875,0.490478515625
0.014,1.531494140625,-3.193115234375,1.171142578125
0.0145,1.010986328125,-3.193115234375,1.691650390625
0.015,0.610595703125,-3.193115234375,2.092041015625
0.0155,0.130126953125,-3.072998046875,2.492431640625
0.016,-0.630615234375,-2.872802734375,2.692626953125
0.0165,-1.311279296875,-2.232177734375,3.012939453125
0.017,-1.791748046875,-1.791748046875,3.012939453125
0.0175,-2.192138671875,-1.311279296875,3.012939453125
0.018,-2.592529296875,-0.950927734375,3.052978515625
0.0185,-2.752685546875,-0.390380859375,2.652587890625
0.019,-2.872802734375,0.290283203125,2.212158203125
0.0195,-3.113037109375,0.890869140625,1.771728515625
0.02,-3.113037109375,1.451416015625,1.251220703125
0.0205,-3.113037109375,1.931884765625,0.770751953125
0.021,-3.032958984375,2.372314453125,0.290283203125
0.0215,-2.712646484375,2.612548828125,-0.310302734375
0.022,-2.152099609375,2.852783203125,-1.151123046875
0.0225,-1.671630859375,3.012939453125,-1.751708984375
0.023,-1.191162109375,3.052978515625,-2.272216796875
0.0235,-0.790771484375,3.173095703125,-2.792724609375
0.024,-0.150146484375,2.972900390625,-3.072998046875
0.0245,0.530517578125,2.412353515625,-3.393310546875
0.025,1.251220703125,1.971923828125,-3.673583984375
0.0255,1.771728515625,1.531494140625,-3.713623046875
0.026,2.172119140625,1.131103515625,-3.673583984375
0.0265,2.532470703125,0.610595703125,-3.593505859375
0.027,2.732666015625,0.050048828125,-3.193115234375
0.0275,2.892822265625,-0.710693359375,-2.632568359375
0.028,3.052978515625,-1.351318359375,-2.152099609375
0.0285,3.052978515625,-1.951904296875,-1.591552734375
0.029,3.052978515625,-2.432373046875,-1.151123046875
0.0295,2.772705078125,-2.712646484375,-0.550537109375
0.03,2.332275390625,-3.072998046875,0.210205078125
0.0305,1.771728515625,-3.273193359375,1.091064453125
0.031,1.211181640625,-3.273193359375,1.571533203125
0.0315,0.730712890625,-3.273193359375,2.052001953125
0.032,0.330322265625,-3.353271484375,2.452392578125
0.0325,-0.470458984375,-2.912841796875,2.812744140625
0.033,-1.271240234375,-2.472412109375,2.932861328125
0.0335,-1.911865234375,-1.831787109375,3.173095703125
0.034,-2.272216796875,-1.351318359375,3.133056640625
0.0345,-2.592529296875,-0.990966796875,3.093017578125
0.035,-2.832763671875,-0.470458984375,2.772705078125
0.0355,-2.992919921875,0.210205078125,2.292236328125
0.036,-3.153076171875,0.970947265625,1.731689453125
0.0365,-3.193115234375,1.531494140625,1.251220703125
0.037,-3.113037109375,1.971923828125,0.690673828125
0.0375,-3.153076171875,2.452392578125,0.290283203125
0.038,-2.672607421875,2.612548828125,-0.350341796875
0.0385,-2.152099609375,2.892822265625,-1.151123046875
0.039,-1.631591796875,3.093017578125,-1.871826171875
0.0395,-1.151123046875,3.052978515625,-2.312255859375
0.04,-0.790771484375,3.052978515625,-2.752685546875
0.0405,-0.270263671875,2.932861328125,-3.193115234375
0.041,0.530517578125,2.612548828125,-3.353271484375
0.0415,1.291259765625,1.971923828125,-3.673583984375
0.042,1.771728515625,1.571533203125,-3.713623046875
0.0425,2.252197265625,1.091064453125,-3.673583984375
0.043,2.572509765625,0.690673828125,-3.673583984375
0.0435,2.732666015625,0.090087890625,-3.193115234375
0.044,2.892822265625,-0.630615234375,-2.752685546875
0.0445,3.093017578125,-1.311279296875,-2.192138671875
0.045,3.052978515625,-1.871826171875,-1.671630859375
0.0455,3.012939453125,-2.312255859375,-1.151123046875
0.046,2.932861328125,-2.752685546875,-0.670654296875
0.0465,2.492431640625,-2.952880859375,0.010009765625
0.047,1.931884765625,-3.193115234375,0.850830078125
0.0475,1.331298828125,-3.353271484375,1.531494140625
0.048,0.890869140625,-3.393310546875,1.931884765625
0.0485,0.450439453125,-3.393310546875,2.412353515625
0.049,-0.270263671875,-3.193115234375,2.692626953125
0.0495,-0.990966796875,-2.552490234375,3.052978515625
0.05,-1.791748046875,-1.991943359375,3.253173828125
0.0505,-2.192138671875,-1.551513671875,3.173095703125
0.051,-2.592529296875,-1.031005859375,3.173095703125
0.0515,-2.912841796875,-0.630615234375,3.052978515625
0.052,-3.032958984375,0.010009765625,2.532470703125
0.0525,-3.193115234375,0.810791015625,1.931884765625
0.053,-3.273193359375,1.451416015625,1.371337890625
0.0535,-3.193115234375,1.931884765625,0.890869140625
0.054,-3.193115234375,2.372314453125,0.370361328125
0.0545,-2.912841796875,2.692626953125,-0.190185546875
0.055,-2.392333984375,2.932861328125,-0.990966796875
0.0555,-1.751708984375,3.173095703125,-1.791748046875
0.056,-1.271240234375,3.093017578125,-2.312255859375
0.0565,-0.790771484375,3.093017578125,-2.792724609375
0.057,-0.310302734375,3.052978515625,-3.193115234375
0.0575,0.330322265625,2.652587890625,-3.353271484375
0.058,1.171142578125,2.132080078125,-3.633544921875
0.0585,1.851806640625,1.571533203125,-3.793701171875
0.059,2.172119140625,1.131103515625,-3.673583984375
0.0595,2.532470703125,0.690673828125,-3.593505859375
0.06,2.732666015625,0.250244140625,-3.353271484375
0.0605,2.852783203125,-0.470458984375,-2.832763671875
0.061,3.012939453125,-1.191162109375,-2.272216796875
0.0615,3.052978515625,-1.751708984375,-1.791748046875
0.062,2.972900390625,-2.272216796875,-1.231201171875
0.0625,2.932861328125,-2.632568359375,-0.790771484375
0.063,2.572509765625,-2.872802734375,-0.230224609375
0.0635,2.092041015625,-3.153076171875,0.570556640625
0.064,1.491455078125,-3.353271484375,1.291259765625
0.0645,1.010986328125,-3.313232421875,1.771728515625
0.065,0.530517578125,-3.353271484375,2.252197265625
0.0655,0.090087890625,-3.193115234375,2.612548828125
0.066,-0.630615234375,-2.752685546875,2.852783203125
0.0665,-1.391357421875,-2.272216796875,3.173095703125
0.067,-1.951904296875,-1.751708984375,3.173095703125
0.0675,-2.392333984375,-1.311279296875,3.133056640625
0.068,-2.712646484375,-0.910888671875,3.093017578125
0.0685,-2.912841796875,-0.350341796875,2.732666015625
0.069,-3.072998046875,0.370361328125,2.252197265625
0.0695,-3.193115234375,1.131103515625,1.651611328125
0.07,-3.193115234375,1.571533203125,1.211181640625
0.0705,-3.193115234375,2.172119140625,0.650634765625
0.071,-3.072998046875,2.532470703125,0.170166015625
0.0715,-2.592529296875,2.732666015625,-0.510498046875
0.072,-2.112060546875,3.012939453125,-1.311279296875
0.0725,-1.511474609375,3.093017578125,-2.072021484375
0.073,-1.111083984375,3.052978515625,-2.512451171875
0.0735,-0.630615234375,3.173095703125,-2.952880859375
0.074,0.010009765625,2.932861328125,-3.273193359375
0.0745,0.810791015625,2.372314453125,-3.553466796875
0.075,1.491455078125,1.891845703125,-3.753662109375
0.0755,1.931884765625,1.371337890625,-3.713623046875
0.076,2.412353515625,0.930908203125,-3.713623046875
0.0765,2.652587890625,0.490478515625,-3.553466796875
0.077,2.812744140625,-0.150146484375,-3.072998046875
0.0775,3.012939453125,-0.830810546875,-2.552490234375
0.078,3.052978515625,-1.591552734375,-1.951904296875
0.0785,3.012939453125,-1.991943359375,-1.471435546875
0.079,3.012939453125,-2.552490234375,-0.990966796875
0.0795,2.772705078125,-2.832763671875,-0.470458984375
0.08,2.212158203125,-3.072998046875,0.330322265625
0.0805,1.731689453125,-3.353271484375,1.131103515625
0.081,1.091064453125,-3.353271484375,1.651611328125
0.0815,0.690673828125,-3.313232421875,2.132080078125
0.082,0.250244140625,-3.233154296875,2.532470703125
0.0825,-0.390380859375,-2.912841796875,2.812744140625
0.083,-1.271240234375,-2.392333984375,3.093017578125
0.0835,-1.871826171875,-1.831787109375,3.173095703125
0.084,-2.232177734375,-1.391357421875,3.133056640625
0.0845,-2.632568359375,-0.990966796875,3.093017578125
0.085,-2.872802734375,-0.510498046875,2.852783203125
0.0855,-2.952880859375,0.170166015625,2.332275390625
0.086,-3.153076171875,0.850830078125,1.891845703125
0.0865,-3.193115234375,1.491455078125,1.291259765625
0.087,-3.153076171875,1.931884765625,0.810791015625
0.0875,-3.113037109375,2.412353515625,0.330322265625
0.088,-2.832763671875,2.612548828125,-0.270263671875
0.0885,-2.272216796875,2.852783203125,-1.071044921875
0.089,-1.751708984375,3.012939453125,-1.791748046875
0.0895,-1.231201171875,3.052978515625,-2.232177734375
0.09,-0.790771484375,3.173095703125,-2.752685546875
0.0905,-0.310302734375,3.012939453125,-3.113037109375
0.091,0.410400390625,2.612548828125,-3.353271484375
0.0915,1.131103515625,2.172119140625,-3.673583984375
0.092,1.771728515625,1.571533203125,-3.713623046875
0.0925,2.092041015625,1.171142578125,-3.673583984375
0.093,2.532470703125,0.690673828125,-3.633544921875
0.0935,2.732666015625,0.210205078125,-3.313232421875
0.094,2.852783203125,-0.550537109375,-2.752685546875
0.0945,3.052978515625,-1.271240234375,-2.272216796875
0.095,3.052978515625,-1.791748046875,-1.711669921875
0.0955,3.052978515625,-2.312255859375,-1.231201171875
0.096,2.892822265625,-2.712646484375,-0.710693359375
0.0965,2.532470703125,-2.992919921875,-0.070068359375
0.097,1.931884765625,-3.273193359375,0.770751953125
0.0975,1.371337890625,-3.313232421875,1.451416015625
0.098,0.890869140625,-3.273193359375,1.931884765625
0.0985,0.490478515625,-3.353271484375,2.412353515625
0.099,-0.190185546875,-3.072998046875,2.732666015625
0.0995,-0.990966796875,-2.512451171875,2.932861328125
0.1,-1.631591796875,-2.072021484375,3.213134765625
0.1005,-2.152099609375,-1.511474609375,3.173095703125
0.101,-2.512451171875,-1.151123046875,3.133056640625
0.1015,-2.792724609375,-0.630615234375,2.932861328125
0.102,-2.952880859375,-0.110107421875,2.532470703125
0.1025,-3.113037109375,0.690673828125,1.931884765625
0.103,-3.193115234375,1.331298828125,1.411376953125
0.1035,-3.153076171875,1.771728515625,0.970947265625
0.104,-3.153076171875,2.252197265625,0.450439453125
0.1045,-2.872802734375,2.492431640625,-0.150146484375
0.105,-2.352294921875,2.692626953125,-0.870849609375
0.1055,-1.871826171875,3.052978515625,-1.591552734375
0.106,-1.311279296875,3.052978515625,-2.152099609375
0.1065,-0.910888671875,3.052978515625,-2.592529296875
0.107,-0.470458984375,3.052978515625,-3.032958984375
0.1075,0.170166015625,2.732666015625,-3.273193359375
0.108,0.970947265625,2.172119140625,-3.553466796875
0.1085,1.531494140625,1.731689453125,-3.673583984375
0.109,1.931884765625,1.251220703125,-3.633544921875
0.1095,2.372314453125,0.890869140625,-3.633544921875
0.11,2.572509765625,0.370361328125,-3.353271484375
0.1105,2.772705078125,-0.270263671875,-2.952880859375
0.111,2.972900390625,-0.990966796875,-2.472412109375
0.1115,3.012939453125,-1.591552734375,-1.871826171875
0.112,2.972900390625,-2.072021484375,-1.431396484375
0.1125,2.972900390625,-2.632568359375,-0.950927734375
0.113,2.652587890625,-2.872802734375,-0.390380859375
0.1135,2.092041015625,-3.072998046875,0.450439453125
0.114,1.651611328125,-3.273193359375,1.171142578125
0.1145,1.091064453125,-3.273193359375,1.731689453125
0.115,0.690673828125,-3.393310546875,2.212158203125
0.1155,0.130126953125,-3.193115234375,2.572509765625
0.116,-0.590576171875,-2.832763671875,2.892822265625
0.1165,-1.431396484375,-2.272216796875,3.173095703125
0.117,-1.951904296875,-1.791748046875,3.213134765625
0.1175,-2.352294921875,-1.311279296875,3.173095703125
0.118,-2.752685546875,-0.910888671875,3.173095703125
0.1185,-2.912841796875,-0.310302734375,2.732666015625
0.119,-3.072998046875,0.450439453125,2.172119140625
0.1195,-3.233154296875,1.131103515625,1.691650390625
0.12,-3.193115234375,1.691650390625,1.091064453125
0.1205,-3.193115234375,2.092041015625,0.610595703125
0.121,-3.072998046875,2.532470703125,0.050048828125
0.1215,-2.592529296875,2.812744140625,-0.630615234375
0.122,-1.991943359375,3.052978515625,-1.511474609375
0.1225,-1.471435546875,3.133056640625,-2.112060546875
0.123,-0.950927734375,3.093017578125,-2.552490234375
0.1235,-0.550537109375,3.173095703125,-3.032958984375
0.124,0.130126953125,2.812744140625,-3.273193359375
0.1245,0.930908203125,2.252197265625,-3.553466796875
0.125,1.611572265625,1.771728515625,-3.753662109375
0.1255,2.052001953125,1.291259765625,-3.713623046875
0.126,2.372314453125,0.890869140625,-3.593505859375
0.1265,2.692626953125,0.410400390625,-3.473388671875
0.127,2.812744140625,-0.190185546875,-3.072998046875
0.1275,2.932861328125,-0.990966796875,-2.432373046875
0.128,3.052978515625,-1.591552734375,-1.951904296875
0.1285,2.972900390625,-2.072021484375,-1.391357421875
0.129,2.972900390625,-2.592529296875,-0.990966796875
0.1295,2.692626953125,-2.752685546875,-0.390380859375
0.13,2.252197265625,-3.032958984375,0.330322265625
0.1305,1.651611328125,-3.273193359375,1.131103515625
0.131,1.131103515625,-3.273193359375,1.651611328125
0.1315,0.650634765625,-3.233154296875,2.092041015625
0.132,0.250244140625,-3.313232421875,2.572509765625
0.1325,-0.470458984375,-2.872802734375,2.812744140625
0.133,-1.271240234375,-2.392333984375,3.052978515625
0.1335,-1.831787109375,-1.911865234375,3.213134765625
0.134,-2.272216796875,-1.431396484375,3.173095703125
0.1345,-2.632568359375,-1.031005859375,3.173095703125
0.135,-2.872802734375,-0.510498046875,2.852783203125
0.1355,-3.072998046875,0.130126953125,2.412353515625
0.136,-3.233154296875,0.890869140625,1.851806640625
0.1365,-3.233154296875,1.451416015625,1.291259765625
0.137,-3.193115234375,1.931884765625,0.690673828125
0.1375,-3.193115234375,2.532470703125,0.290283203125
0.138,-2.752685546875,2.692626953125,-0.350341796875
0.1385,-2.232177734375,2.972900390625,-1.151123046875
0.139,-1.671630859375,3.173095703125,-1.911865234375
0.1395,-1.151123046875,3.173095703125,-2.432373046875
0.14,-0.670654296875,3.173095703125,-2.872802734375
0.1405,-0.190185546875,3.012939453125,-3.233154296875
0.141,0.610595703125,2.532470703125,-3.553466796875
0.1415,1.411376953125,1.931884765625,-3.753662109375
0.142,1.931884765625,1.451416015625,-3.753662109375
0.1425,2.252197265625,0.970947265625,-3.673583984375
0.143,2.612548828125,0.610595703125,-3.633544921875
0.1435,2.732666015625,0.010009765625,-3.193115234375
0.144,2.892822265625,-0.790771484375,-2.712646484375
0.1445,3.052978515625,-1.471435546875,-2.072021484375
0.145,3.012939453125,-1.951904296875,-1.591552734375
0.1455,2.932861328125,-2.352294921875,-1.111083984375
0.146,2.852783203125,-2.752685546875,-0.630615234375
0.1465,2.412353515625,-2.952880859375,0.090087890625
0.147,1.771728515625,-3.193115234375,0.930908203125
0.1475,1.291259765625,-3.273193359375,1.531494140625
0.148,0.770751953125,-3.273193359375,1.971923828125
0.1485,0.370361328125,-3.273193359375,2.412353515625
0.149,-0.190185546875,-2.992919921875,2.692626953125
0.1495,-0.990966796875,-2.552490234375,3.012939453125
0.15,-1.751708984375,-1.991943359375,3.173095703125
0.1505,-2.112060546875,-1.551513671875,3.133056640625
0.151,-2.512451171875,-1.111083984375,3.093017578125
0.1515,-2.832763671875,-0.670654296875,3.012939453125
0.152,-2.952880859375,-0.110107421875,2.532470703125
0.1525,-3.153076171875,0.610595703125,2.011962890625
0.153,-3.233154296875,1.251220703125,1.491455078125
0.1535,-3.193115234375,1.811767578125,0.930908203125
0.154,-3.193115234375,2.292236328125,0.490478515625
0.1545,-2.912841796875,2.572509765625,-0.110107421875
0.155,-2.472412109375,2.852783203125,-0.830810546875
0.1555,-1.911865234375,3.133056640625,-1.631591796875
0.156,-1.351318359375,3.133056640625,-2.152099609375
0.1565,-0.910888671875,3.133056640625,-2.672607421875
0.157,-0.470458984375,3.173095703125,-3.113037109375
0.1575,0.250244140625,2.732666015625,-3.353271484375
0.158,1.010986328125,2.252197265625,-3.673583984375
0.1585,1.731689453125,1.651611328125,-3.793701171875
0.159,2.092041015625,1.251220703125,-3.713623046875
0.1595,2.492431640625,0.770751953125,-3.673583984375
0.16,2.692626953125,0.290283203125,-3.393310546875
0.1605,2.852783203125,-0.430419921875,-2.912841796875
0.161,3.012939453125,-1.191162109375,-2.352294921875
0.1615,3.052978515625,-1.671630859375,-1.831787109375
0.162,3.012939453125,-2.232177734375,-1.271240234375
0.1625,2.972900390625,-2.632568359375,-0.830810546875
0.163,2.572509765625,-2.872802734375,-0.190185546875
0.1635,2.052001953125,-3.153076171875,0.570556640625
0.164,1.451416015625,-3.273193359375,1.331298828125
0.1645,1.010986328125,-3.233154296875,1.771728515625
0.165,0.530517578125,-3.273193359375,2.252197265625
0.1655,0.050048828125,-3.193115234375,2.612548828125
0.166,-0.710693359375,-2.712646484375,2.852783203125
0.1665,-1.431396484375,-2.192138671875,3.173095703125
0.167,-1.991943359375,-1.671630859375,3.173095703125
0.1675,-2.392333984375,-1.271240234375,3.133056640625
0.168,-2.712646484375,-0.870849609375,3.052978515625
0.1685,-2.872802734375,-0.310302734375,2.652587890625
0.169,-3.072998046875,0.370361328125,2.172119140625
0.1695,-3.193115234375,1.131103515625,1.611572265625
0.17,-3.193115234375,1.611572265625,1.131103515625
0.1705,-3.153076171875,2.172119140625,0.610595703125
0.171,-3.072998046875,2.532470703125,0.130126953125
0.1715,-2.592529296875,2.732666015625,-0.590576171875
0.172,-2.072021484375,3.052978515625,-1.351318359375
0.1725,-1.471435546875,3.133056640625,-2.031982421875
0.173,-1.031005859375,3.093017578125,-2.472412109375
0.1735,-0.590576171875,3.133056640625,-2.952880859375
0.174,0.010009765625,2.892822265625,-3.273193359375
0.1745,0.810791015625,2.372314453125,-3.553466796875
0.175,1.531494140625,1.891845703125,-3.713623046875
0.1755,1.931884765625,1.371337890625,-3.713623046875
0.176,2.372314453125,0.890869140625,-3.713623046875
0.1765,2.612548828125,0.450439453125,-3.553466796875
0.177,2.772705078125,-0.190185546875,-3.113037109375
0.1775,2.972900390625,-0.830810546875,-2.592529296875
0.178,3.052978515625,-1.591552734375,-1.951904296875
0.1785,3.012939453125,-1.991943359375,-1.471435546875
0.179,2.972900390625,-2.512451171875,-0.990966796875
0.1795,2.772705078125,-2.832763671875,-0.470458984375
0.18,2.252197265625,-3.032958984375,0.330322265625
0.1805,1.731689453125,-3.273193359375,1.091064453125
0.181,1.131103515625,-3.273193359375,1.651611328125
0.1815,0.690673828125,-3.313232421875,2.092041015625
0.182,0.250244140625,-3.233154296875,2.532470703125
0.1825,-0.390380859375,-2.872802734375,2.812744140625
0.183,-1.231201171875,-2.352294921875,3.093017578125
0.1835,-1.871826171875,-1.831787109375,3.173095703125
0.184,-2.192138671875,-1.431396484375,3.093017578125
0.1845,-2.592529296875,-0.990966796875,3.052978515625
0.185,-2.832763671875,-0.590576171875,2.812744140625
0.1855,-2.952880859375,0.170166015625,2.292236328125
0.186,-3.153076171875,0.890869140625,1.851806640625
0.1865,-3.193115234375,1.451416015625,1.291259765625
0.187,-3.113037109375,1.931884765625,0.810791015625
0.1875,-3.072998046875,2.372314453125,0.330322265625
0.188,-2.792724609375,2.612548828125,-0.270263671875
