wavelength,x,y,z
0.0,-2.832763671875,-5.195068359375,6.135986328125
0.0005,-4.114013671875,-4.073974609375,6.456298828125
0.001,-4.874755859375,-2.712646484375,6.216064453125
0.0015,-5.355224609375,-1.671630859375,5.895751953125
0.002,-5.515380859375,-0.910888671875,5.735595703125
0.0025,-5.715576171875,0.010009765625,5.375244140625
0.003,-5.595458984375,1.211181640625,4.334228515625
0.0035,-5.435302734375,2.292236328125,3.293212890625
0.004,-4.954833984375,3.253173828125,2.172119140625
0.0045,-4.634521484375,4.013916015625,1.251220703125
0.005,-4.194091796875,4.574462890625,0.410400390625
0.0055,-3.713623046875,5.135009765625,-0.550537109375
0.006,-2.432373046875,5.375244140625,-1.991943359375
0.0065,-1.191162109375,5.255126953125,-3.153076171875
0.007,-0.470458984375,5.295166015625,-3.913818359375
0.0075,0.330322265625,5.415283203125,-4.754638671875
0.008,1.251220703125,5.094970703125,-5.475341796875
0.0085,2.452392578125,4.214111328125,-5.955810546875
0.009,3.533447265625,3.173095703125,-6.276123046875
0.0095,4.214111328125,1.971923828125,-6.115966796875
0.01,4.734619140625,1.131103515625,-5.955810546875
0.0105,5.014892578125,0.330322265625,-5.755615234375
0.011,5.295166015625,-0.590576171875,-5.555419921875
0.0115,5.094970703125,-1.951904296875,-4.474365234375
0.012,4.854736328125,-2.912841796875,-3.273193359375
0.0125,4.494384765625,-3.793701171875,-2.272216796875
0.013,4.334228515625,-4.594482421875,-1.471435546875
0.0135,3.853759765625,-5.155029296875,-0.590576171875
0.014,3.093017578125,-5.635498046875,0.570556640625
0.0145,2.011962890625,-5.955810546875,1.811767578125
0.015,0.810791015625,-5.795654296875,2.932861328125
0.0155,0.130126953125,-5.915771484375,3.773681640625
0.016,-0.710693359375,-5.915771484375,4.574462890625
0.0165,-1.591552734375,-5.755615234375,5.415283203125
0.017,-2.992919921875,-4.674560546875,5.815673828125
0.0175,-3.913818359375,-3.553466796875,5.855712890625
0.018,-4.554443359375,-2.512451171875,5.775634765625
0.0185,-4.994873046875,-1.751708984375,5.735595703125
0.019,-5.275146484375,-0.950927734375,5.455322265625
0.0195,-5.435302734375,0.130126953125,5.054931640625
0.02,-5.395263671875,1.251220703125,4.134033203125
0.0205,-4.994873046875,2.292236328125,2.892822265625
0.021,-4.674560546875,3.133056640625,1.971923828125
0.0215,-4.474365234375,3.853759765625,1.211181640625
0.022,-4.194091796875,4.534423828125,0.410400390625
0.0225,-3.153076171875,4.854736328125,-0.990966796875
0.023,-2.112060546875,5.094970703125,-2.112060546875
0.0235,-1.191162109375,5.094970703125,-3.072998046875
0.024,-0.510498046875,5.255126953125,-3.953857421875
0.0245,0.450439453125,5.094970703125,-4.754638671875
0.025,1.411376953125,4.774658203125,-5.475341796875
0.0255,2.612548828125,3.813720703125,-5.955810546875
0.026,3.533447265625,2.612548828125,-5.835693359375
0.0265,4.134033203125,1.651611328125,-5.755615234375
0.027,4.574462890625,0.930908203125,-5.755615234375
0.0275,4.934814453125,0.210205078125,-5.475341796875
0.028,4.934814453125,-1.031005859375,-4.794677734375
0.0285,4.894775390625,-2.112060546875,-3.953857421875
0.029,4.614501953125,-3.072998046875,-2.912841796875
0.0295,4.334228515625,-3.913818359375,-1.991943359375
0.03,4.053955078125,-4.634521484375,-1.191162109375
0.0305,3.773681640625,-5.275146484375,-0.310302734375
0.031,2.572509765625,-5.595458984375,1.131103515625
0.0315,1.411376953125,-5.635498046875,2.252197265625
0.032,0.650634765625,-5.795654296875,3.173095703125
0.0325,-0.190185546875,-5.955810546875,4.093994140625
0.033,-1.111083984375,-5.795654296875,4.854736328125
0.0335,-2.312255859375,-5.074951171875,5.415283203125
0.034,-3.353271484375,-4.114013671875,5.815673828125
0.0345,-4.154052734375,-2.952880859375,5.735595703125
0.035,-4.674560546875,-2.072021484375,5.695556640625
0.0355,-5.074951171875,-1.311279296875,5.495361328125
0.036,-5.395263671875,-0.550537109375,5.335205078125
0.0365,-5.315185546875,0.810791015625,4.334228515625
0.037,-5.114990234375,1.891845703125,3.293212890625
0.0375,-4.834716796875,2.812744140625,2.332275390625
0.038,-4.634521484375,3.573486328125,1.531494140625
0.0385,-4.234130859375,4.214111328125,0.610595703125
0.039,-3.513427734375,4.734619140625,-0.510498046875
0.0395,-2.512451171875,5.094970703125,-1.791748046875
0.04,-1.431396484375,5.094970703125,-2.832763671875
0.0405,-0.710693359375,5.175048828125,-3.713623046875
0.041,0.210205078125,5.215087890625,-4.514404296875
0.0415,1.091064453125,5.014892578125,-5.395263671875
0.042,2.532470703125,3.973876953125,-5.875732421875
0.0425,3.493408203125,2.812744140625,-5.915771484375
0.043,4.134033203125,1.851806640625,-5.875732421875
0.0435,4.614501953125,1.051025390625,-5.835693359375
0.044,4.854736328125,0.210205078125,-5.555419921875
0.0445,5.054931640625,-0.830810546875,-5.074951171875
0.045,5.014892578125,-2.072021484375,-4.114013671875
0.0455,4.654541015625,-3.113037109375,-2.912841796875
0.046,4.334228515625,-3.913818359375,-1.991943359375
0.0465,4.053955078125,-4.634521484375,-1.231201171875
0.047,3.733642578125,-5.275146484375,-0.390380859375
0.0475,2.572509765625,-5.595458984375,1.091064453125
0.048,1.531494140625,-5.755615234375,2.252197265625
0.0485,0.610595703125,-5.795654296875,3.173095703125
0.049,-0.230224609375,-5.955810546875,4.013916015625
0.0495,-1.151123046875,-5.755615234375,4.814697265625
0.05,-2.112060546875,-5.315185546875,5.535400390625
0.0505,-3.393310546875,-4.194091796875,5.935791015625
0.051,-4.234130859375,-2.992919921875,5.815673828125
0.0515,-4.794677734375,-2.031982421875,5.735595703125
0.052,-5.114990234375,-1.311279296875,5.575439453125
0.0525,-5.395263671875,-0.470458984375,5.335205078125
0.053,-5.315185546875,0.770751953125,4.414306640625
0.0535,-5.275146484375,1.931884765625,3.493408203125
0.054,-4.914794921875,2.852783203125,2.372314453125
0.0545,-4.594482421875,3.653564453125,1.531494140625
0.055,-4.194091796875,4.214111328125,0.650634765625
0.0555,-3.793701171875,4.854736328125,-0.310302734375
0.056,-2.552490234375,5.135009765625,-1.791748046875
0.0565,-1.431396484375,5.094970703125,-2.872802734375
0.057,-0.670654296875,5.175048828125,-3.713623046875
0.0575,0.130126953125,5.255126953125,-4.594482421875
0.058,1.131103515625,4.974853515625,-5.315185546875
0.0585,2.412353515625,4.134033203125,-5.875732421875
0.059,3.533447265625,3.093017578125,-6.196044921875
0.0595,4.254150390625,1.931884765625,-6.075927734375
0.06,4.734619140625,1.010986328125,-5.915771484375
0.0605,4.974853515625,0.210205078125,-5.675537109375
0.061,5.255126953125,-0.790771484375,-5.395263671875
0.0615,5.175048828125,-2.152099609375,-4.194091796875
0.062,4.854736328125,-3.273193359375,-3.032958984375
0.0625,4.494384765625,-4.114013671875,-2.031982421875
0.063,4.214111328125,-4.834716796875,-1.231201171875
0.0635,3.693603515625,-5.395263671875,-0.270263671875
0.064,2.812744140625,-5.795654296875,1.051025390625
0.0645,1.611572265625,-6.115966796875,2.412353515625
0.065,0.490478515625,-5.955810546875,3.493408203125
0.0655,-0.390380859375,-6.115966796875,4.294189453125
0.066,-1.191162109375,-5.875732421875,5.054931640625
0.0665,-2.152099609375,-5.515380859375,5.775634765625
0.067,-3.673583984375,-4.234130859375,6.256103515625
0.0675,-4.554443359375,-3.032958984375,6.176025390625
0.068,-5.114990234375,-1.951904296875,6.015869140625
0.0685,-5.435302734375,-1.151123046875,5.815673828125
0.069,-5.595458984375,-0.270263671875,5.375244140625
0.0695,-5.635498046875,0.970947265625,4.614501953125
0.07,-5.595458984375,2.252197265625,3.493408203125
0.0705,-5.155029296875,3.333251953125,2.252197265625
0.071,-4.674560546875,4.093994140625,1.251220703125
0.0715,-4.274169921875,4.654541015625,0.450439453125
0.072,-3.793701171875,5.255126953125,-0.630615234375
0.0725,-2.392333984375,5.455322265625,-2.192138671875
0.073,-1.231201171875,5.495361328125,-3.393310546875
0.0735,-0.310302734375,5.415283203125,-4.314208984375
0.074,0.530517578125,5.495361328125,-5.074951171875
0.0745,1.531494140625,5.094970703125,-5.755615234375
0.075,2.692626953125,4.374267578125,-6.396240234375
0.0755,4.093994140625,3.093017578125,-6.796630859375
0.076,4.854736328125,1.651611328125,-6.476318359375
0.0765,5.255126953125,0.690673828125,-6.236083984375
0.077,5.415283203125,-0.270263671875,-5.915771484375
0.0775,5.615478515625,-1.231201171875,-5.395263671875
0.078,5.455322265625,-2.672607421875,-4.114013671875
0.0785,5.215087890625,-3.873779296875,-2.912841796875
0.079,4.734619140625,-4.754638671875,-1.751708984375
0.0795,4.294189453125,-5.435302734375,-0.790771484375
0.08,3.653564453125,-5.875732421875,0.250244140625
0.0805,2.852783203125,-6.396240234375,1.331298828125
0.081,1.291259765625,-6.556396484375,3.052978515625
0.0815,0.010009765625,-6.356201171875,4.134033203125
0.082,-0.910888671875,-6.196044921875,4.894775390625
0.0825,-1.591552734375,-6.035888671875,5.575439453125
0.083,-2.752685546875,-5.435302734375,6.256103515625
0.0835,-4.154052734375,-4.194091796875,6.696533203125
0.084,-5.155029296875,-2.952880859375,6.776611328125
0.0845,-5.755615234375,-1.711669921875,6.416259765625
0.085,-5.955810546875,-0.790771484375,6.095947265625
0.0855,-6.035888671875,0.290283203125,5.495361328125
0.086,-6.115966796875,1.291259765625,4.934814453125
0.0865,-5.875732421875,2.812744140625,3.453369140625
0.087,-5.395263671875,3.893798828125,2.052001953125
0.0875,-4.834716796875,4.614501953125,1.010986328125
0.088,-4.354248046875,5.175048828125,0.170166015625
0.0885,-3.593505859375,5.575439453125,-0.950927734375
0.089,-2.432373046875,5.775634765625,-2.352294921875
0.0895,-1.111083984375,5.935791015625,-3.873779296875
0.09,0.210205078125,5.695556640625,-4.794677734375
0.0905,0.930908203125,5.615478515625,-5.475341796875
0.091,1.771728515625,5.255126953125,-6.115966796875
0.0915,2.852783203125,4.654541015625,-6.796630859375
0.092,4.374267578125,3.133056640625,-7.076904296875
0.0925,5.215087890625,1.731689453125,-6.876708984375
0.093,5.615478515625,0.610595703125,-6.476318359375
0.0935,5.815673828125,-0.310302734375,-6.196044921875
0.094,5.855712890625,-1.351318359375,-5.515380859375
0.0945,5.735595703125,-2.592529296875,-4.514404296875
0.095,5.495361328125,-4.033935546875,-3.233154296875
0.0955,4.974853515625,-4.994873046875,-1.791748046875
0.096,4.374267578125,-5.635498046875,-0.750732421875
0.0965,3.853759765625,-6.115966796875,0.170166015625
0.097,3.133056640625,-6.596435546875,1.251220703125
0.0975,1.411376953125,-6.716552734375,2.892822265625
0.098,0.130126953125,-6.596435546875,4.214111328125
0.0985,-0.950927734375,-6.396240234375,5.014892578125
0.099,-1.631591796875,-6.276123046875,5.735595703125
0.0995,-2.632568359375,-5.715576171875,6.336181640625
0.1,-3.833740234375,-4.834716796875,6.896728515625
0.1005,-5.114990234375,-3.473388671875,7.096923828125
0.101,-5.835693359375,-1.991943359375,6.696533203125
0.1015,-6.115966796875,-0.910888671875,6.256103515625
0.102,-6.196044921875,0.050048828125,5.815673828125
0.1025,-6.276123046875,1.051025390625,5.215087890625
0.103,-6.115966796875,2.532470703125,3.853759765625
0.1035,-5.715576171875,3.693603515625,2.532470703125
0.104,-5.114990234375,4.534423828125,1.291259765625
0.1045,-4.594482421875,5.135009765625,0.330322265625
0.105,-3.873779296875,5.575439453125,-0.670654296875
0.1055,-3.153076171875,5.975830078125,-1.791748046875
0.106,-1.471435546875,6.095947265625,-3.513427734375
0.1065,0.010009765625,5.855712890625,-4.634521484375
0.107,0.770751953125,5.695556640625,-5.355224609375
0.1075,1.451416015625,5.575439453125,-6.035888671875
0.108,2.572509765625,4.934814453125,-6.676513671875
0.1085,3.973876953125,3.573486328125,-7.036865234375
0.109,5.014892578125,2.292236328125,-7.116943359375
0.1095,5.615478515625,0.970947265625,-6.716552734375
0.11,5.855712890625,0.010009765625,-6.356201171875
0.1105,5.895751953125,-1.031005859375,-5.795654296875
0.111,5.975830078125,-2.031982421875,-5.114990234375
0.1115,5.695556640625,-3.633544921875,-3.633544921875
0.112,5.175048828125,-4.794677734375,-2.232177734375
0.1125,4.614501953125,-5.515380859375,-1.111083984375
0.113,4.134033203125,-6.115966796875,-0.270263671875
0.1135,3.333251953125,-6.556396484375,0.890869140625
0.114,2.092041015625,-6.716552734375,2.292236328125
0.1145,0.650634765625,-6.796630859375,3.813720703125
0.115,-0.670654296875,-6.476318359375,4.854736328125
0.1155,-1.431396484375,-6.396240234375,5.535400390625
0.116,-2.272216796875,-6.035888671875,6.135986328125
0.1165,-3.313232421875,-5.395263671875,6.816650390625
0.117,-4.834716796875,-3.833740234375,7.096923828125
0.1175,-5.715576171875,-2.432373046875,6.896728515625
0.118,-6.115966796875,-1.271240234375,6.456298828125
0.1185,-6.276123046875,-0.390380859375,6.095947265625
0.119,-6.276123046875,0.730712890625,5.375244140625
0.1195,-6.236083984375,1.931884765625,4.494384765625
0.12,-5.955810546875,3.333251953125,3.133056640625
0.1205,-5.315185546875,4.334228515625,1.651611328125
0.121,-4.754638671875,4.974853515625,0.610595703125
0.1215,-4.194091796875,5.415283203125,-0.350341796875
0.122,-3.553466796875,5.935791015625,-1.311279296875
0.1225,-1.831787109375,6.055908203125,-3.072998046875
0.123,-0.590576171875,5.975830078125,-4.274169921875
0.1235,0.530517578125,5.735595703125,-5.155029296875
0.124,1.251220703125,5.655517578125,-5.795654296875
0.1245,2.212158203125,5.094970703125,-6.396240234375
0.125,3.373291015625,4.334228515625,-6.996826171875
0.1255,4.734619140625,2.852783203125,-7.237060546875
0.126,5.415283203125,1.331298828125,-6.796630859375
0.1265,5.735595703125,0.290283203125,-6.396240234375
0.127,5.855712890625,-0.630615234375,-6.075927734375
0.1275,5.895751953125,-1.591552734375,-5.435302734375
0.128,5.655517578125,-3.072998046875,-3.993896484375
0.1285,5.335205078125,-4.234130859375,-2.832763671875
0.129,4.734619140625,-5.155029296875,-1.551513671875
0.1295,4.214111328125,-5.755615234375,-0.630615234375
0.13,3.573486328125,-6.115966796875,0.410400390625
0.1305,2.852783203125,-6.596435546875,1.411376953125
0.131,1.251220703125,-6.676513671875,3.133056640625
0.1315,-0.230224609375,-6.396240234375,4.294189453125
0.132,-0.990966796875,-6.236083984375,5.014892578125
0.1325,-1.711669921875,-6.115966796875,5.695556640625
0.133,-2.712646484375,-5.595458984375,6.336181640625
0.1335,-4.033935546875,-4.394287109375,6.696533203125
0.134,-5.074951171875,-3.193115234375,6.776611328125
0.1345,-5.675537109375,-1.871826171875,6.416259765625
0.135,-5.915771484375,-0.990966796875,6.095947265625
0.1355,-6.035888671875,0.010009765625,5.655517578125
0.136,-6.115966796875,0.970947265625,5.135009765625
0.1365,-5.835693359375,2.332275390625,3.733642578125
0.137,-5.435302734375,3.493408203125,2.412353515625
0.1375,-4.914794921875,4.214111328125,1.291259765625
0.138,-4.514404296875,4.934814453125,0.450439453125
0.1385,-3.913818359375,5.375244140625,-0.630615234375
0.139,-2.832763671875,5.655517578125,-1.831787109375
0.1395,-1.551513671875,5.855712890625,-3.193115234375
0.14,-0.310302734375,5.615478515625,-4.314208984375
0.1405,0.530517578125,5.615478515625,-5.074951171875
0.141,1.291259765625,5.415283203125,-5.715576171875
0.1415,2.252197265625,4.974853515625,-6.396240234375
0.142,3.773681640625,3.533447265625,-6.756591796875
0.1425,4.654541015625,2.252197265625,-6.636474609375
0.143,5.175048828125,1.131103515625,-6.356201171875
0.1435,5.455322265625,0.290283203125,-6.156005859375
0.144,5.575439453125,-0.710693359375,-5.675537109375
0.1445,5.575439453125,-1.871826171875,-4.914794921875
0.145,5.415283203125,-3.193115234375,-3.713623046875
0.1455,4.854736328125,-4.274169921875,-2.352294921875
0.146,4.454345703125,-4.954833984375,-1.271240234375
0.1465,3.973876953125,-5.475341796875,-0.470458984375
0.147,3.493408203125,-6.075927734375,0.490478515625
0.1475,2.092041015625,-6.276123046875,1.971923828125
0.148,0.810791015625,-6.236083984375,3.253173828125
0.1485,-0.270263671875,-6.115966796875,4.134033203125
0.149,-0.990966796875,-6.115966796875,4.934814453125
0.1495,-1.871826171875,-5.755615234375,5.575439453125
0.15,-2.872802734375,-5.155029296875,6.216064453125
0.1505,-4.194091796875,-3.913818359375,6.536376953125
0.151,-4.994873046875,-2.552490234375,6.256103515625
0.1515,-5.435302734375,-1.551513671875,6.015869140625
0.152,-5.635498046875,-0.790771484375,5.735595703125
0.1525,-5.755615234375,0.090087890625,5.375244140625
0.153,-5.635498046875,1.331298828125,4.294189453125
0.1535,-5.435302734375,2.492431640625,3.173095703125
0.154,-4.914794921875,3.533447265625,2.092041015625
0.1545,-4.594482421875,4.214111328125,1.211181640625
0.155,-4.114013671875,4.734619140625,0.290283203125
0.1555,-3.593505859375,5.215087890625,-0.710693359375
0.156,-2.272216796875,5.415283203125,-2.192138671875
0.1565,-1.031005859375,5.295166015625,-3.313232421875
0.157,-0.270263671875,5.335205078125,-4.154052734375
0.1575,0.570556640625,5.335205078125,-4.914794921875
0.158,1.411376953125,5.054931640625,-5.635498046875
0.1585,2.692626953125,4.134033203125,-6.115966796875
0.159,3.773681640625,3.012939453125,-6.396240234375
0.1595,4.494384765625,1.851806640625,-6.196044921875
0.16,4.934814453125,0.930908203125,-6.035888671875
0.1605,5.135009765625,0.130126953125,-5.755615234375
0.161,5.375244140625,-0.830810546875,-5.435302734375
0.1615,5.175048828125,-2.152099609375,-4.354248046875
0.162,4.934814453125,-3.193115234375,-3.113037109375
0.1625,4.494384765625,-4.033935546875,-1.991943359375
0.163,4.294189453125,-4.834716796875,-1.271240234375
0.1635,3.813720703125,-5.435302734375,-0.350341796875
0.164,2.892822265625,-5.755615234375,0.890869140625
0.1645,1.771728515625,-6.035888671875,2.212158203125
0.165,0.570556640625,-5.915771484375,3.253173828125
0.1655,-0.270263671875,-5.955810546875,4.093994140625
0.166,-0.990966796875,-5.915771484375,4.854736328125
0.1665,-1.871826171875,-5.675537109375,5.575439453125
0.167,-3.233154296875,-4.554443359375,6.015869140625
0.1675,-4.154052734375,-3.353271484375,6.015869140625
0.168,-4.794677734375,-2.272216796875,5.815673828125
0.1685,-5.155029296875,-1.591552734375,5.775634765625
0.169,-5.395263671875,-0.750732421875,5.415283203125
0.1695,-5.475341796875,0.290283203125,4.854736328125
0.17,-5.395263671875,1.411376953125,3.893798828125
0.1705,-5.034912109375,2.572509765625,2.692626953125
0.171,-4.674560546875,3.373291015625,1.771728515625
0.1715,-4.434326171875,4.053955078125,1.010986328125
0.172,-4.114013671875,4.734619140625,0.210205078125
0.1725,-2.952880859375,4.974853515625,-1.231201171875
0.173,-1.951904296875,5.094970703125,-2.352294921875
0.1735,-0.990966796875,5.135009765625,-3.273193359375
0.174,-0.310302734375,5.295166015625,-4.154052734375
0.1745,0.650634765625,5.135009765625,-4.914794921875
0.175,1.611572265625,4.734619140625,-5.595458984375
0.1755,2.852783203125,3.773681640625,-6.035888671875
0.176,3.733642578125,2.492431640625,-5.915771484375
0.1765,4.334228515625,1.531494140625,-5.795654296875
0.177,4.654541015625,0.770751953125,-5.715576171875
0.1775,4.974853515625,0.010009765625,-5.635498046875
0.178,4.974853515625,-1.111083984375,-4.674560546875
0.1785,4.854736328125,-2.232177734375,-3.833740234375
0.179,4.534423828125,-3.193115234375,-2.832763671875
0.1795,4.334228515625,-4.033935546875,-1.911865234375
0.18,3.973876953125,-4.674560546875,-1.111083984375
0.1805,3.653564453125,-5.315185546875,-0.310302734375
0.181,2.532470703125,-5.635498046875,1.171142578125
0.1815,1.331298828125,-5.635498046875,2.292236328125
0.182,0.610595703125,-5.755615234375,3.173095703125
0.1825,-0.270263671875,-5.915771484375,4.053955078125
0.183,-1.111083984375,-5.755615234375,4.854736328125
0.1835,-2.272216796875,-5.034912109375,5.415283203125
0.184,-3.353271484375,-4.073974609375,5.775634765625
0.1845,-4.114013671875,-2.992919921875,5.735595703125
0.185,-4.714599609375,-2.152099609375,5.655517578125
0.1855,-5.074951171875,-1.391357421875,5.495361328125
0.186,-5.275146484375,-0.550537109375,5.375244140625
0.1865,-5.315185546875,0.690673828125,4.494384765625
0.187,-5.074951171875,1.811767578125,3.373291015625
0.1875,-4.794677734375,2.692626953125,2.412353515625
0.188,-4.634521484375,3.493408203125,1.651611328125
