wavelength,x,y,z
0.0,-12.081787109375,-8.958740234375,20.149658203125
0.0005,-8.958740234375,-12.241943359375,20.469970703125
0.001,-4.234130859375,-15.765380859375,19.468994140625
0.0015,0.010009765625,-17.807373046875,17.587158203125
0.002,3.533447265625,-19.288818359375,15.665283203125
0.0025,7.016845703125,-20.089599609375,13.262939453125
0.003,10.380126953125,-20.089599609375,10.139892578125
0.0035,13.663330078125,-19.849365234375,6.776611328125
0.004,16.385986328125,-18.928466796875,3.293212890625
0.0045,18.427978515625,-16.726318359375,-0.910888671875
0.005,19.348876953125,-14.564208984375,-3.993896484375
0.0055,19.989501953125,-11.561279296875,-7.557373046875
0.006,20.149658203125,-8.518310546875,-10.840576171875
0.0065,19.669189453125,-4.554443359375,-14.323974609375
0.007,18.427978515625,-1.191162109375,-16.526123046875
0.0075,16.626220703125,2.412353515625,-18.287841796875
0.008,14.183837890625,5.855712890625,-19.408935546875
0.0085,10.860595703125,9.299072265625,-19.569091796875
0.009,7.377197265625,12.822509765625,-19.729248046875
0.0095,3.253173828125,15.905517578125,-18.808349609375
0.01,-1.231201171875,17.827392578125,-16.526123046875
0.0105,-4.274169921875,18.908447265625,-14.764404296875
0.011,-7.717529296875,19.669189453125,-12.241943359375
0.0115,-10.920654296875,19.669189453125,-9.279052734375
0.012,-14.283935546875,19.108642578125,-5.595458984375
0.0125,-16.646240234375,17.907470703125,-2.152099609375
0.013,-18.528076171875,15.825439453125,1.771728515625
0.0135,-19.288818359375,13.383056640625,4.974853515625
0.014,-19.729248046875,10.219970703125,8.578369140625
0.0145,-19.889404296875,7.096923828125,11.901611328125
0.015,-19.368896484375,3.493408203125,15.064697265625
0.0155,-17.647216796875,-0.270263671875,17.066650390625
0.016,-15.725341796875,-3.593505859375,18.468017578125
0.0165,-13.282958984375,-7.076904296875,19.589111328125
0.017,-9.919677734375,-10.560302734375,19.509033203125
0.0175,-5.875732421875,-13.883544921875,19.228759765625
0.018,-1.951904296875,-16.566162109375,18.067626953125
0.0185,2.292236328125,-18.327880859375,15.865478515625
0.019,5.335205078125,-19.088623046875,13.823486328125
0.0195,8.818603515625,-19.649169921875,11.180908203125
0.02,12.021728515625,-19.609130859375,8.097900390625
0.0205,15.104736328125,-18.848388671875,4.454345703125
0.021,17.226806640625,-17.166748046875,0.770751953125
0.0215,18.788330078125,-15.164794921875,-2.832763671875
0.022,19.388916015625,-12.482177734375,-6.156005859375
0.0225,19.549072265625,-9.279052734375,-9.519287109375
0.023,19.428955078125,-5.835693359375,-12.842529296875
0.0235,18.788330078125,-2.432373046875,-15.685302734375
0.024,16.906494140625,1.291259765625,-17.487060546875
0.0245,14.744384765625,4.494384765625,-18.568115234375
0.025,11.981689453125,7.897705078125,-19.489013671875
0.0255,8.458251953125,11.541259765625,-19.489013671875
0.026,4.454345703125,14.704345703125,-18.728271484375
0.0265,0.490478515625,16.946533203125,-17.206787109375
0.027,-3.353271484375,18.588134765625,-15.284912109375
0.0275,-6.436279296875,19.148681640625,-12.962646484375
0.028,-9.799560546875,19.509033203125,-10.119873046875
0.0285,-13.162841796875,19.308837890625,-6.836669921875
0.029,-15.965576171875,18.347900390625,-3.193115234375
0.0295,-17.887451171875,16.345947265625,0.650634765625
0.03,-19.048583984375,14.223876953125,3.853759765625
0.0305,-19.689208984375,11.381103515625,7.377197265625
0.031,-19.809326171875,8.017822265625,10.900634765625
0.0315,-19.368896484375,4.494384765625,14.023681640625
0.032,-18.287841796875,1.051025390625,16.466064453125
0.0325,-16.406005859375,-2.752685546875,18.387939453125
0.033,-13.963623046875,-5.995849609375,19.068603515625
0.0335,-11.040771484375,-9.319091796875,19.709228515625
0.034,-7.197021484375,-13.082763671875,19.589111328125
0.0345,-3.072998046875,-15.925537109375,18.508056640625
0.035,1.091064453125,-17.687255859375,16.506103515625
0.0355,4.494384765625,-19.168701171875,14.704345703125
0.036,7.777587890625,-19.529052734375,12.021728515625
0.0365,11.100830078125,-19.609130859375,8.978759765625
0.037,14.263916015625,-19.248779296875,5.615478515625
0.0375,16.826416015625,-17.807373046875,1.891845703125
0.038,18.628173828125,-15.685302734375,-2.152099609375
0.0385,19.268798828125,-13.282958984375,-5.195068359375
0.039,19.869384765625,-10.320068359375,-8.678466796875
0.0395,19.789306640625,-6.756591796875,-12.322021484375
0.04,19.228759765625,-3.393310546875,-15.124755859375
0.0405,17.587158203125,0.210205078125,-17.126708984375
0.041,15.665283203125,3.893798828125,-18.928466796875
0.0415,12.742431640625,7.217041015625,-19.328857421875
0.042,9.699462890625,10.580322265625,-19.689208984375
0.0425,5.735595703125,14.103759765625,-19.408935546875
0.043,1.531494140625,16.786376953125,-18.007568359375
0.0435,-2.552490234375,18.387939453125,-15.885498046875
0.044,-5.715576171875,19.348876953125,-13.843505859375
0.0445,-9.158935546875,19.869384765625,-11.120849609375
0.045,-12.562255859375,19.589111328125,-7.677490234375
0.0455,-15.405029296875,18.948486328125,-4.354248046875
0.046,-17.727294921875,17.266845703125,-0.510498046875
0.0465,-19.408935546875,15.064697265625,3.453369140625
0.047,-19.769287109375,12.181884765625,6.656494140625
0.0475,-20.249755859375,9.218994140625,10.099853515625
0.048,-20.009521484375,5.255126953125,13.743408203125
0.0485,-19.168701171875,1.771728515625,16.466064453125
0.049,-17.166748046875,-1.911865234375,18.107666015625
0.0495,-15.124755859375,-5.315185546875,19.589111328125
0.05,-12.041748046875,-8.718505859375,20.029541015625
0.0505,-8.318115234375,-12.281982421875,19.909423828125
0.051,-4.514404296875,-15.324951171875,19.348876953125
0.0515,0.050048828125,-17.807373046875,17.507080078125
0.052,3.933837890625,-19.248779296875,15.304931640625
0.0525,6.976806640625,-19.689208984375,12.902587890625
0.053,10.300048828125,-20.169677734375,10.300048828125
0.0535,13.983642578125,-19.609130859375,6.336181640625
0.054,16.466064453125,-18.568115234375,2.892822265625
0.0545,18.347900390625,-16.646240234375,-0.910888671875
0.055,19.789306640625,-14.404052734375,-4.514404296875
0.0555,19.909423828125,-11.240966796875,-7.837646484375
0.056,20.149658203125,-8.037841796875,-11.401123046875
0.0565,19.709228515625,-4.514404296875,-14.524169921875
0.057,18.508056640625,-0.750732421875,-17.126708984375
0.0575,16.305908203125,3.012939453125,-18.568115234375
0.058,13.943603515625,6.256103515625,-19.489013671875
0.0585,11.060791015625,9.619384765625,-20.049560546875
0.059,6.656494140625,13.503173828125,-19.649169921875
0.0595,3.133056640625,16.025634765625,-18.728271484375
0.06,-1.191162109375,18.027587890625,-16.726318359375
0.0605,-4.914794921875,19.509033203125,-14.684326171875
0.061,-8.037841796875,19.549072265625,-11.881591796875
0.0615,-11.200927734375,19.909423828125,-9.319091796875
0.062,-14.764404296875,19.348876953125,-5.435302734375
0.0625,-17.166748046875,17.907470703125,-1.671630859375
0.063,-18.808349609375,15.865478515625,2.052001953125
0.0635,-19.889404296875,13.423095703125,5.495361328125
0.064,-20.209716796875,10.260009765625,8.978759765625
0.0645,-20.209716796875,6.496337890625,12.782470703125
0.065,-19.689208984375,3.293212890625,15.465087890625
0.0655,-18.207763671875,-0.550537109375,17.867431640625
0.066,-15.965576171875,-4.314208984375,19.468994140625
0.0665,-13.082763671875,-7.557373046875,19.869384765625
0.067,-10.280029296875,-10.880615234375,20.469970703125
0.0675,-5.435302734375,-14.764404296875,19.789306640625
0.068,-1.431396484375,-17.286865234375,18.307861328125
0.0685,2.492431640625,-18.888427734375,16.305908203125
0.069,6.055908203125,-20.129638671875,14.223876953125
0.0695,9.459228515625,-20.169677734375,11.020751953125
0.07,12.822509765625,-20.129638671875,7.857666015625
0.0705,15.905517578125,-19.529052734375,4.414306640625
0.071,18.307861328125,-17.647216796875,0.210205078125
0.0715,19.789306640625,-15.405029296875,-3.553466796875
0.072,20.349853515625,-12.642333984375,-6.956787109375
0.0725,20.750244140625,-9.639404296875,-10.400146484375
0.073,20.389892578125,-5.275146484375,-14.444091796875
0.0735,19.509033203125,-1.951904296875,-16.846435546875
0.074,17.667236328125,1.851806640625,-18.768310546875
0.0745,15.385009765625,5.735595703125,-20.369873046875
0.075,11.901611328125,9.138916015625,-20.449951171875
0.0755,8.658447265625,12.662353515625,-20.810302734375
0.076,4.214111328125,16.225830078125,-20.009521484375
0.0765,-0.550537109375,18.588134765625,-17.927490234375
0.077,-4.154052734375,19.869384765625,-15.845458984375
0.0775,-7.717529296875,20.710205078125,-13.363037109375
0.078,-11.200927734375,20.790283203125,-10.239990234375
0.0785,-14.924560546875,20.269775390625,-6.156005859375
0.079,-17.527099609375,19.308837890625,-2.712646484375
0.0795,-19.649169921875,17.146728515625,1.571533203125
0.08,-20.850341796875,14.664306640625,5.255126953125
0.0805,-21.130615234375,11.220947265625,8.938720703125
0.081,-21.490966796875,8.137939453125,12.342041015625
0.0815,-20.850341796875,3.853759765625,16.145751953125
0.082,-19.368896484375,0.010009765625,18.548095703125
0.0825,-17.166748046875,-3.753662109375,20.069580078125
0.083,-14.764404296875,-7.477294921875,21.390869140625
0.0835,-10.880615234375,-11.160888671875,21.270751953125
0.084,-6.716552734375,-14.884521484375,21.030517578125
0.0845,-2.632568359375,-17.807373046875,19.989501953125
0.085,2.292236328125,-19.929443359375,17.507080078125
0.0855,5.895751953125,-20.930419921875,15.184814453125
0.086,9.539306640625,-21.330810546875,12.181884765625
0.0865,12.822509765625,-21.490966796875,9.218994140625
0.087,16.626220703125,-20.489990234375,4.654541015625
0.0875,19.028564453125,-18.928466796875,0.810791015625
0.088,20.750244140625,-16.686279296875,-3.193115234375
0.0885,21.631103515625,-13.923583984375,-6.916748046875
0.089,21.631103515625,-10.159912109375,-10.800537109375
0.0895,21.631103515625,-6.636474609375,-14.203857421875
0.09,20.950439453125,-2.792724609375,-17.366943359375
0.0905,18.908447265625,1.531494140625,-19.609130859375
0.091,16.385986328125,5.215087890625,-20.810302734375
0.0915,13.463134765625,8.938720703125,-21.731201171875
0.092,9.739501953125,12.542236328125,-21.731201171875
0.0925,4.814697265625,16.466064453125,-20.810302734375
0.093,0.810791015625,18.908447265625,-19.408935546875
0.0935,-3.753662109375,20.710205078125,-17.006591796875
0.094,-7.357177734375,21.470947265625,-14.444091796875
0.0945,-11.160888671875,21.510986328125,-10.920654296875
0.095,-14.404052734375,21.470947265625,-7.877685546875
0.0955,-17.807373046875,20.429931640625,-3.553466796875
0.096,-20.129638671875,18.187744140625,0.930908203125
0.0965,-21.450927734375,15.825439453125,4.574462890625
0.097,-22.091552734375,12.782470703125,8.338134765625
0.0975,-22.131591796875,9.018798828125,12.101806640625
0.098,-21.691162109375,4.934814453125,15.865478515625
0.0985,-20.770263671875,1.291259765625,18.548095703125
0.099,-18.568115234375,-3.032958984375,20.710205078125
0.0995,-15.845458984375,-6.676513671875,21.671142578125
0.1,-12.442138671875,-10.480224609375,22.071533203125
0.1005,-8.718505859375,-14.123779296875,22.151611328125
0.101,-3.593505859375,-17.807373046875,20.870361328125
0.1015,1.010986328125,-19.969482421875,18.748291015625
0.102,5.014892578125,-21.450927734375,16.466064453125
0.1025,8.698486328125,-22.091552734375,13.663330078125
0.103,12.502197265625,-21.931396484375,9.939697265625
0.1035,15.945556640625,-21.531005859375,6.376220703125
0.104,18.948486328125,-20.329833984375,2.252197265625
0.1045,21.110595703125,-17.767333984375,-2.512451171875
0.105,22.031494140625,-15.244873046875,-5.955810546875
0.1055,22.552001953125,-11.801513671875,-9.879638671875
0.106,22.431884765625,-7.997802734375,-13.643310546875
0.1065,21.711181640625,-3.713623046875,-17.246826171875
0.107,20.149658203125,0.250244140625,-19.569091796875
0.1075,17.907470703125,4.454345703125,-21.531005859375
0.108,14.784423828125,8.177978515625,-22.251708984375
0.1085,10.940673828125,12.061767578125,-22.371826171875
0.109,6.896728515625,15.825439453125,-22.211669921875
0.1095,2.052001953125,19.068603515625,-20.810302734375
0.11,-2.872802734375,21.030517578125,-18.127685546875
0.1105,-6.556396484375,22.071533203125,-15.845458984375
0.111,-10.280029296875,22.552001953125,-12.762451171875
0.1115,-14.163818359375,22.231689453125,-8.838623046875
0.112,-17.567138671875,21.390869140625,-4.794677734375
0.1125,-20.249755859375,19.789306640625,-0.590576171875
0.113,-22.291748046875,17.026611328125,4.134033203125
0.1135,-22.772216796875,14.063720703125,7.657470703125
0.114,-23.132568359375,10.300048828125,11.781494140625
0.1145,-22.892333984375,6.296142578125,15.625244140625
0.115,-21.851318359375,2.092041015625,18.868408203125
0.1155,-19.649169921875,-2.152099609375,20.830322265625
0.116,-17.246826171875,-6.115966796875,22.431884765625
0.1165,-13.923583984375,-9.879638671875,22.952392578125
0.117,-9.639404296875,-13.763427734375,22.712158203125
0.1175,-5.275146484375,-17.326904296875,22.031494140625
0.118,-0.390380859375,-20.169677734375,20.229736328125
0.1185,4.494384765625,-21.851318359375,17.346923828125
0.119,7.857666015625,-22.331787109375,14.784423828125
0.1195,11.741455078125,-22.772216796875,11.501220703125
0.12,15.425048828125,-22.251708984375,7.497314453125
0.1205,18.548095703125,-21.090576171875,3.373291015625
0.121,20.830322265625,-19.008544921875,-0.990966796875
0.1215,22.552001953125,-16.325927734375,-5.275146484375
0.122,22.752197265625,-12.962646484375,-8.838623046875
0.1225,22.832275390625,-9.239013671875,-12.722412109375
0.123,22.271728515625,-5.155029296875,-16.285888671875
0.1235,21.150634765625,-1.151123046875,-19.248779296875
0.124,18.588134765625,3.173095703125,-21.010498046875
0.1245,15.985595703125,6.776611328125,-22.091552734375
0.125,12.662353515625,10.660400390625,-22.572021484375
0.1255,8.177978515625,14.584228515625,-22.131591796875
0.126,3.893798828125,17.667236328125,-21.170654296875
0.1265,-0.790771484375,20.149658203125,-19.168701171875
0.127,-5.275146484375,21.751220703125,-16.606201171875
0.1275,-8.638427734375,21.911376953125,-13.683349609375
0.128,-12.322021484375,22.231689453125,-10.560302734375
0.1285,-16.085693359375,21.631103515625,-6.436279296875
0.129,-18.928466796875,20.309814453125,-2.392333984375
0.1295,-20.890380859375,17.947509765625,1.971923828125
0.13,-22.291748046875,15.385009765625,5.895751953125
0.1305,-22.612060546875,11.901611328125,9.659423828125
0.131,-22.572021484375,7.937744140625,13.703369140625
0.1315,-21.891357421875,4.053955078125,16.946533203125
0.132,-20.489990234375,0.010009765625,19.709228515625
0.1325,-18.007568359375,-4.354248046875,21.470947265625
0.133,-15.084716796875,-7.797607421875,22.071533203125
0.1335,-11.801513671875,-11.561279296875,22.632080078125
0.134,-6.916748046875,-15.725341796875,22.031494140625
0.1345,-2.552490234375,-18.568115234375,20.670166015625
0.135,2.092041015625,-20.570068359375,18.347900390625
0.1355,6.256103515625,-22.131591796875,15.985595703125
0.136,9.779541015625,-22.211669921875,12.782470703125
0.1365,13.463134765625,-22.291748046875,9.379150390625
0.137,17.026611328125,-21.651123046875,5.335205078125
0.1375,19.869384765625,-19.889404296875,0.970947265625
0.138,21.631103515625,-17.326904296875,-3.433349609375
0.1385,22.552001953125,-14.404052734375,-7.036865234375
0.139,22.872314453125,-11.000732421875,-10.960693359375
0.1395,22.592041015625,-6.596435546875,-15.204833984375
0.14,21.751220703125,-2.952880859375,-18.007568359375
0.1405,19.869384765625,1.291259765625,-20.329833984375
0.141,17.306884765625,5.695556640625,-22.171630859375
0.1415,13.783447265625,9.218994140625,-22.291748046875
0.142,10.420166015625,12.902587890625,-22.732177734375
0.1425,5.415283203125,17.026611328125,-21.971435546875
0.143,0.690673828125,19.789306640625,-20.209716796875
0.1435,-3.713623046875,21.390869140625,-17.727294921875
0.144,-7.637451171875,22.552001953125,-15.284912109375
0.1445,-11.441162109375,22.592041015625,-11.801513671875
0.145,-15.244873046875,22.231689453125,-7.837646484375
0.1455,-18.407958984375,21.430908203125,-4.033935546875
0.146,-21.010498046875,19.268798828125,0.690673828125
0.1465,-22.612060546875,16.586181640625,5.014892578125
0.147,-23.012451171875,13.222900390625,8.698486328125
0.1475,-23.412841796875,9.739501953125,12.662353515625
0.148,-22.812255859375,4.934814453125,16.946533203125
0.1485,-21.611083984375,1.091064453125,19.589111328125
0.149,-19.328857421875,-3.032958984375,21.430908203125
0.1495,-16.766357421875,-7.197021484375,23.072509765625
0.15,-12.722412109375,-11.000732421875,22.912353515625
0.1505,-8.838623046875,-14.804443359375,22.912353515625
0.151,-4.114013671875,-18.327880859375,21.951416015625
0.1515,1.171142578125,-20.970458984375,19.549072265625
0.152,5.375244140625,-22.291748046875,16.946533203125
0.1525,9.018798828125,-22.932373046875,14.103759765625
0.153,12.862548828125,-23.092529296875,10.740478515625
0.1535,16.906494140625,-22.171630859375,6.055908203125
0.154,19.549072265625,-20.970458984375,2.332275390625
0.1545,21.751220703125,-18.568115234375,-2.192138671875
0.155,23.112548828125,-15.765380859375,-6.356201171875
0.1555,23.072509765625,-12.001708984375,-10.119873046875
0.156,23.312744140625,-8.478271484375,-13.923583984375
0.1565,22.471923828125,-3.993896484375,-17.647216796875
0.157,20.790283203125,0.330322265625,-20.289794921875
0.1575,18.187744140625,4.334228515625,-21.691162109375
0.158,15.465087890625,8.218017578125,-22.932373046875
0.1585,11.541259765625,12.061767578125,-22.932373046875
0.159,6.696533203125,16.185791015625,-22.371826171875
0.1595,2.692626953125,18.988525390625,-21.330810546875
0.16,-2.472412109375,21.230712890625,-18.768310546875
0.1605,-6.516357421875,22.431884765625,-16.165771484375
0.161,-10.199951171875,22.552001953125,-12.882568359375
0.1615,-13.763427734375,22.792236328125,-9.879638671875
0.162,-17.727294921875,21.751220703125,-4.954833984375
0.1625,-20.209716796875,19.989501953125,-0.790771484375
0.163,-21.931396484375,17.587158203125,3.333251953125
0.1635,-23.052490234375,14.704345703125,7.297119140625
0.164,-23.012451171875,10.820556640625,11.180908203125
0.1645,-22.972412109375,6.816650390625,15.184814453125
0.165,-22.131591796875,2.932861328125,18.307861328125
0.1655,-20.209716796875,-1.591552734375,20.790283203125
0.166,-17.366943359375,-5.595458984375,22.071533203125
0.1665,-14.323974609375,-9.319091796875,22.792236328125
0.167,-10.760498046875,-13.042724609375,23.072509765625
0.1675,-5.275146484375,-17.326904296875,21.991455078125
0.168,-1.071044921875,-19.769287109375,20.429931640625
0.1685,3.493408203125,-21.611083984375,17.947509765625
0.169,7.537353515625,-22.692138671875,15.344970703125
0.1695,11.341064453125,-22.491943359375,11.621337890625
0.17,14.784423828125,-22.491943359375,8.378173828125
0.1705,18.307861328125,-21.450927734375,4.013916015625
0.171,20.750244140625,-19.208740234375,-0.670654296875
0.1715,22.071533203125,-16.686279296875,-4.434326171875
0.172,22.872314453125,-13.563232421875,-8.318115234375
0.1725,22.792236328125,-9.879638671875,-12.041748046875
0.173,22.351806640625,-5.355224609375,-16.165771484375
0.1735,21.310791015625,-1.791748046875,-18.728271484375
0.174,19.228759765625,2.532470703125,-20.930419921875
0.1745,16.385986328125,6.576416015625,-22.171630859375
0.175,12.662353515625,10.380126953125,-22.331787109375
0.1755,9.218994140625,14.023681640625,-22.612060546875
0.176,3.973876953125,17.907470703125,-21.490966796875
0.1765,-0.790771484375,20.149658203125,-19.248779296875
0.177,-4.634521484375,21.551025390625,-17.046630859375
0.1775,-8.598388671875,22.471923828125,-14.243896484375
0.178,-12.322021484375,22.271728515625,-10.560302734375
0.1785,-16.005615234375,21.791259765625,-6.636474609375
0.179,-18.928466796875,20.670166015625,-2.792724609375
0.1795,-21.130615234375,18.187744140625,1.931884765625
0.18,-22.131591796875,15.505126953125,5.575439453125
0.1805,-22.612060546875,12.021728515625,9.579345703125
0.181,-22.732177734375,8.618408203125,13.142822265625
