wavelength,x,y,z
0.0,-18.613159179688,12.497192382812,5.3302001953125
0.0005,-18.653198242188,9.5343017578125,8.2530517578125
0.001,-18.292846679688,5.7305908203125,11.736450195312
0.0015,-17.732299804688,2.2471923828125,14.659301757812
0.002,-16.170776367188,-1.6365966796875,16.981567382812
0.0025,-14.729370117188,-4.1190185546875,18.022583007812
0.003,-12.286987304688,-7.0819091796875,18.623168945312
0.0035,-8.6834716796875,-10.525268554688,18.543090820312
0.004,-3.9989013671875,-14.008666992188,17.502075195312
0.0045,0.0050048828125,-16.370971679688,16.140747070312
0.005,3.2481689453125,-18.132690429688,14.859497070312
0.0055,5.9307861328125,-18.733276367188,12.937622070312
0.006,8.8135986328125,-18.773315429688,10.295043945312
0.0065,12.296997070312,-18.453002929688,6.6915283203125
0.007,15.259887695312,-17.532104492188,2.9278564453125
0.0075,17.462036132812,-15.730346679688,-1.0360107421875
0.008,18.543090820312,-14.248901367188,-3.5584716796875
0.0085,18.943481445312,-11.726440429688,-6.5614013671875
0.009,18.823364257812,-8.3631591796875,-9.7645263671875
0.0095,18.222778320312,-4.4793701171875,-13.127807617188
0.01,17.301879882812,-0.9959716796875,-15.690307617188
0.0105,15.780395507812,2.6876220703125,-17.812377929688
0.011,13.778442382812,5.3702392578125,-18.493041992188
0.0115,11.055786132812,8.2930908203125,-18.813354492188
0.012,6.8516845703125,12.096801757812,-18.453002929688
0.0125,2.4874267578125,15.219848632812,-17.331909179688
0.013,-1.7166748046875,17.301879882812,-15.530151367188
0.0135,-4.4393310546875,18.703247070312,-14.409057617188
0.014,-7.3621826171875,19.063598632812,-12.046752929688
0.0145,-10.445190429688,18.823364257812,-9.0037841796875
0.015,-13.808471679688,18.222778320312,-5.1199951171875
0.0155,-16.411010742188,16.941528320312,-1.4364013671875
0.016,-18.453002929688,15.179809570312,2.4073486328125
0.0165,-19.013549804688,13.177856445312,4.9298095703125
0.017,-19.293823242188,10.495239257812,7.8126220703125
0.0175,-18.973510742188,6.6915283203125,11.376098632812
0.018,-18.252807617188,2.9278564453125,14.539184570312
0.0185,-16.771362304688,-0.7957763671875,16.701293945312
0.019,-15.450073242188,-3.9188232421875,18.583129882812
0.0195,-13.007690429688,-6.6414794921875,18.943481445312
0.02,-9.8446044921875,-9.8045654296875,18.903442382812
0.0205,-5.4403076171875,-13.448120117188,18.262817382812
0.021,-1.1160888671875,-16.250854492188,16.941528320312
0.0215,2.8878173828125,-18.092651367188,15.099731445312
0.022,5.3702392578125,-18.973510742188,13.698364257812
0.0225,8.1729736328125,-19.494018554688,11.215942382812
0.023,11.696411132812,-18.853393554688,7.6124267578125
0.0235,14.779418945312,-18.012573242188,3.8887939453125
0.024,17.141723632812,-16.531127929688,0.1651611328125
0.0245,18.903442382812,-15.009643554688,-3.1580810546875
0.025,19.063598632812,-12.527221679688,-5.8006591796875
0.0255,19.183715820312,-9.6844482421875,-8.8436279296875
0.026,18.743286132812,-5.7205810546875,-12.447143554688
0.0265,17.942504882812,-1.9969482421875,-15.289916992188
0.027,16.220825195312,1.7667236328125,-17.291870117188
0.0275,14.859497070312,4.5294189453125,-18.613159179688
0.028,12.176879882812,7.4522705078125,-18.973510742188
0.0285,8.2530517578125,10.895629882812,-18.613159179688
0.029,4.0889892578125,14.178833007812,-17.892456054688
0.0295,-0.2752685546875,16.701293945312,-16.370971679688
0.03,-3.7186279296875,18.422973632812,-14.769409179688
0.0305,-6.2811279296875,18.863403320312,-12.607299804688
0.031,-9.0438232421875,19.143676757812,-10.565307617188
0.0315,-12.767456054688,18.543090820312,-6.4412841796875
0.032,-15.530151367188,17.542114257812,-2.7977294921875
0.0325,-17.652221679688,15.740356445312,1.0059814453125
0.033,-19.173706054688,14.258911132812,3.9288330078125
0.0335,-19.213745117188,11.536254882812,6.6915283203125
0.034,-19.213745117188,8.3331298828125,10.054809570312
0.0345,-18.613159179688,4.4493408203125,13.338012695312
0.035,-17.652221679688,0.7257080078125,16.140747070312
0.0355,-16.050659179688,-2.8778076171875,17.982543945312
0.036,-14.208862304688,-5.4403076171875,18.903442382812
0.0365,-11.566284179688,-8.4031982421875,19.303833007812
0.037,-6.8817138671875,-12.367065429688,18.623168945312
0.0375,-2.7977294921875,-15.249877929688,17.582153320312
0.038,1.4063720703125,-17.492065429688,15.860473632812
0.0385,4.4893798828125,-19.093627929688,14.579223632812
0.039,7.2921142578125,-19.133666992188,12.096801757812
0.0395,10.214965820312,-19.213745117188,9.4542236328125
0.04,13.938598632812,-18.573120117188,5.2501220703125
0.0405,16.621215820312,-17.331909179688,1.4464111328125
0.041,18.422973632812,-15.690307617188,-2.1571044921875
0.0415,19.383911132812,-13.768432617188,-4.9197998046875
0.042,19.383911132812,-11.045776367188,-7.8826904296875
0.0425,19.183715820312,-6.9217529296875,-11.566284179688
0.043,18.543090820312,-3.3582763671875,-14.489135742188
0.0435,17.141723632812,0.3253173828125,-17.251831054688
0.044,15.620239257812,3.8887939453125,-18.853393554688
0.0445,13.017700195312,6.6915283203125,-19.093627929688
0.045,10.255004882812,9.7344970703125,-19.453979492188
0.0455,5.1700439453125,13.818481445312,-18.573120117188
0.046,0.9659423828125,16.461059570312,-17.171752929688
0.0465,-2.8778076171875,18.302856445312,-15.450073242188
0.047,-5.8006591796875,19.584106445312,-14.048706054688
0.0475,-8.8035888671875,19.504028320312,-11.205932617188
0.048,-12.046752929688,19.223754882812,-7.8426513671875
0.0485,-15.369995117188,18.463012695312,-3.9188232421875
0.049,-17.932495117188,16.781372070312,0.2852783203125
0.0495,-19.494018554688,15.019653320312,3.4884033203125
0.05,-20.174682617188,12.657348632812,6.4913330078125
0.0505,-20.134643554688,9.8145751953125,9.3341064453125
0.051,-19.534057617188,5.2100830078125,13.418090820312
0.0515,-18.252807617188,1.7667236328125,16.100708007812
0.052,-16.931518554688,-2.2772216796875,18.302856445312
0.0525,-15.410034179688,-5.4002685546875,19.944458007812
0.053,-12.206909179688,-8.3231201171875,19.704223632812
0.0535,-8.7635498046875,-11.606323242188,19.784301757812
0.054,-3.8387451171875,-15.450073242188,18.823364257812
0.0545,0.8458251953125,-17.972534179688,16.941528320312
0.055,4.1690673828125,-19.413940429688,15.219848632812
0.0555,7.1319580078125,-20.254760742188,13.338012695312
0.056,10.094848632812,-20.214721679688,10.535278320312
0.0565,13.938598632812,-19.453979492188,6.0909423828125
0.057,16.781372070312,-18.533081054688,2.4473876953125
0.0575,19.063598632812,-16.611206054688,-1.7967529296875
0.058,20.344848632812,-14.769409179688,-4.5194091796875
0.0585,20.264770507812,-11.726440429688,-7.7225341796875
0.059,20.304809570312,-8.6434326171875,-10.885620117188
0.0595,19.463989257812,-4.1590576171875,-14.769409179688
0.06,18.222778320312,-0.1551513671875,-17.371948242188
0.0605,16.461059570312,3.3682861328125,-19.093627929688
0.061,14.659301757812,6.4512939453125,-20.454956054688
0.0615,11.215942382812,9.4942626953125,-20.214721679688
0.062,6.6915283203125,13.418090820312,-19.574096679688
0.0625,2.4073486328125,16.581176757812,-18.653198242188
0.063,-2.5174560546875,19.063598632812,-16.531127929688
0.0635,-5.4002685546875,20.184692382812,-14.929565429688
0.064,-8.4832763671875,20.464965820312,-12.367065429688
0.0645,-11.486206054688,20.464965820312,-9.6043701171875
0.065,-15.490112304688,19.383911132812,-4.7996826171875
0.0655,-18.092651367188,17.942504882812,-0.7957763671875
0.066,-20.014526367188,16.060668945312,3.0479736328125
0.0665,-21.095581054688,14.058715820312,6.0108642578125
0.067,-20.815307617188,10.655395507812,9.2139892578125
0.0675,-20.615112304688,6.8917236328125,12.657348632812
0.068,-19.814331054688,2.7677001953125,16.140747070312
0.0685,-18.092651367188,-1.5965576171875,18.783325195312
0.069,-16.210815429688,-4.7596435546875,20.144653320312
0.0695,-13.888549804688,-7.8026123046875,20.945434570312
0.07,-10.405151367188,-11.165893554688,20.825317382812
0.0705,-4.9998779296875,-15.289916992188,19.704223632812
0.071,-0.7557373046875,-17.972534179688,18.302856445312
0.0715,3.7686767578125,-20.134643554688,16.340942382812
0.072,6.6915283203125,-21.095581054688,14.579223632812
0.0725,9.9747314453125,-20.975463867188,11.336059570312
0.073,13.217895507812,-20.775268554688,8.1329345703125
0.0735,16.941528320312,-19.654174804688,3.3682861328125
0.074,19.504028320312,-17.652221679688,-1.1160888671875
0.0745,20.905395507812,-15.810424804688,-4.2391357421875
0.075,21.586059570312,-13.287963867188,-7.4022216796875
0.0755,21.225708007812,-9.7645263671875,-10.645385742188
0.076,20.545043945312,-5.2801513671875,-14.489135742188
0.0765,19.664184570312,-1.5565185546875,-17.371948242188
0.077,17.702270507812,3.0079345703125,-19.894409179688
0.0775,15.660278320312,6.0909423828125,-20.895385742188
0.078,12.497192382812,9.2540283203125,-21.135620117188
0.0785,8.8135986328125,12.777465820312,-21.095581054688
0.079,3.0880126953125,16.701293945312,-19.734252929688
0.0795,-1.3563232421875,19.223754882812,-17.772338867188
0.08,-4.9998779296875,20.905395507812,-16.010620117188
0.0805,-8.1629638671875,21.626098632812,-13.848510742188
0.081,-11.486206054688,21.185668945312,-10.365112304688
0.0815,-15.049682617188,20.625122070312,-6.4412841796875
0.082,-18.292846679688,19.423950195312,-2.0770263671875
0.0825,-20.775268554688,17.101684570312,2.7276611328125
0.083,-21.736206054688,15.099731445312,5.6104736328125
0.0835,-22.056518554688,12.136840820312,8.9737548828125
0.084,-21.736206054688,8.3331298828125,12.377075195312
0.0845,-20.695190429688,3.5284423828125,16.220825195312
0.085,-19.373901367188,-0.3953857421875,18.783325195312
0.0855,-17.452026367188,-4.5194091796875,20.985473632812
0.086,-15.089721679688,-7.5223388671875,21.786254882812
0.0865,-11.446166992188,-10.845581054688,21.505981445312
0.087,-7.0018310546875,-14.369018554688,21.105590820312
0.0875,-1.9168701171875,-18.092651367188,19.584106445312
0.088,3.0880126953125,-20.374877929688,17.181762695312
0.0885,6.0909423828125,-21.536010742188,15.500122070312
0.089,9.4141845703125,-22.016479492188,12.897583007812
0.0895,12.777465820312,-21.495971679688,9.1339111328125
0.09,16.501098632812,-20.454956054688,4.7296142578125
0.0905,19.223754882812,-19.013549804688,0.6055908203125
0.091,21.465942382812,-16.691284179688,-3.8787841796875
0.0915,21.946411132812,-14.369018554688,-6.7215576171875
0.092,21.906372070312,-10.925659179688,-10.124877929688
0.0925,21.465942382812,-7.0018310546875,-13.608276367188
0.093,20.424926757812,-2.5174560546875,-17.131713867188
0.0935,18.422973632812,1.7667236328125,-19.494018554688
0.094,16.661254882812,5.2100830078125,-21.135620117188
0.0945,14.018676757812,8.4132080078125,-21.736206054688
0.095,9.8946533203125,11.816528320312,-21.215698242188
0.0955,5.3302001953125,15.580200195312,-20.494995117188
0.096,0.6055908203125,18.623168945312,-18.973510742188
0.0965,-4.2391357421875,20.745239257812,-16.571166992188
0.097,-6.9217529296875,21.425903320312,-14.769409179688
0.0975,-10.285034179688,21.626098632812,-11.966674804688
0.098,-13.768432617188,21.065551757812,-8.0828857421875
0.0985,-17.331909179688,19.864379882812,-3.4783935546875
0.099,-19.814331054688,18.062622070312,0.7657470703125
0.0995,-21.656127929688,16.020629882812,4.5694580078125
0.1,-21.936401367188,13.378051757812,7.5323486328125
0.1005,-21.776245117188,9.7745361328125,10.975708007812
0.101,-21.135620117188,5.5704345703125,14.579223632812
0.1015,-19.894409179688,1.5665283203125,17.942504882812
0.102,-17.972534179688,-3.0780029296875,20.144653320312
0.1025,-16.170776367188,-6.0408935546875,21.265747070312
0.103,-13.287963867188,-9.2440185546875,21.786254882812
0.1035,-8.9237060546875,-12.967651367188,21.185668945312
0.104,-3.9188232421875,-16.571166992188,19.984497070312
0.1045,0.6856689453125,-19.213745117188,18.262817382812
0.105,4.9298095703125,-21.175659179688,16.220825195312
0.1055,7.6925048828125,-21.536010742188,14.018676757812
0.106,10.975708007812,-21.536010742188,11.015747070312
0.1065,14.739379882812,-20.855346679688,6.7716064453125
0.107,17.982543945312,-19.534057617188,2.3673095703125
0.1075,20.344848632812,-17.492065429688,-1.9969482421875
0.108,21.666137695312,-15.650268554688,-5.1600341796875
0.1085,21.826293945312,-12.567260742188,-8.3631591796875
0.109,21.505981445312,-8.6834716796875,-12.006713867188
0.1095,20.625122070312,-4.3592529296875,-15.450073242188
0.11,19.504028320312,-0.3553466796875,-18.412963867188
0.1105,17.341918945312,3.9688720703125,-20.535034179688
0.111,15.139770507812,6.7716064453125,-21.295776367188
0.1115,12.136840820312,10.094848632812,-21.536010742188
0.112,7.2120361328125,14.138793945312,-20.855346679688
0.1125,2.3673095703125,17.421997070312,-19.494018554688
0.113,-2.2772216796875,19.784301757812,-17.492065429688
0.1135,-5.8006591796875,21.385864257812,-15.850463867188
0.114,-8.8436279296875,21.505981445312,-13.127807617188
0.1145,-12.166870117188,21.305786132812,-9.8045654296875
0.115,-15.970581054688,20.464965820312,-5.4403076171875
0.1155,-18.933471679688,19.023559570312,-1.0760498046875
0.116,-21.095581054688,16.781372070312,3.3282470703125
0.1165,-21.936401367188,14.659301757812,6.2911376953125
0.117,-22.096557617188,11.456176757812,9.6143798828125
0.1175,-21.576049804688,7.0518798828125,13.538208007812
0.118,-20.494995117188,2.8477783203125,16.781372070312
0.1185,-18.973510742188,-1.3162841796875,19.343872070312
0.119,-17.051635742188,-5.1600341796875,21.425903320312
0.1195,-14.288940429688,-8.2030029296875,21.626098632812
0.12,-10.965698242188,-11.526245117188,21.746215820312
0.1205,-5.7606201171875,-15.690307617188,20.785278320312
0.121,-0.9158935546875,-18.773315429688,19.183715820312
0.1215,3.6885986328125,-20.775268554688,16.901489257812
0.122,6.7716064453125,-21.936401367188,15.299926757812
0.1225,10.094848632812,-21.896362304688,12.176879882812
0.123,13.698364257812,-21.295776367188,8.2530517578125
0.1235,17.221801757812,-20.414916992188,3.9688720703125
0.124,19.984497070312,-18.613159179688,-0.5555419921875
0.1245,21.786254882812,-16.491088867188,-4.4793701171875
0.125,22.066528320312,-13.808471679688,-7.4422607421875
0.1255,22.186645507812,-10.565307617188,-10.765502929688
0.126,21.465942382812,-5.7606201171875,-14.889526367188
0.1265,20.304809570312,-1.6365966796875,-17.892456054688
0.127,18.382934570312,2.6075439453125,-20.134643554688
0.1275,16.581176757812,6.0909423828125,-21.856323242188
0.128,13.097778320312,9.2940673828125,-21.736206054688
0.1285,9.2139892578125,12.857543945312,-21.536010742188
0.129,3.7286376953125,16.781372070312,-20.494995117188
0.1295,-0.9158935546875,19.624145507812,-18.653198242188
0.13,-4.9598388671875,21.305786132812,-16.531127929688
0.1305,-7.9627685546875,22.026489257812,-14.449096679688
0.131,-11.245971679688,22.066528320312,-11.406127929688
0.1315,-15.289916992188,21.105590820312,-6.6815185546875
0.132,-18.372924804688,19.944458007812,-2.5574951171875
0.1325,-20.855346679688,17.902465820312,2.0069580078125
0.133,-22.456909179688,15.860473632812,5.5303955078125
0.1335,-22.296752929688,12.617309570312,8.6534423828125
0.134,-22.296752929688,9.0938720703125,12.176879882812
0.1345,-21.375854492188,4.3292236328125,16.140747070312
0.135,-19.974487304688,0.0450439453125,19.063598632812
0.1355,-17.812377929688,-4.0389404296875,20.945434570312
0.136,-15.970581054688,-7.2420654296875,22.306762695312
0.1365,-12.407104492188,-10.565307617188,22.066528320312
0.137,-7.4822998046875,-14.649291992188,21.465942382812
0.1375,-2.8377685546875,-17.972534179688,20.184692382812
0.138,2.3673095703125,-20.494995117188,17.982543945312
0.1385,5.9307861328125,-21.936401367188,16.140747070312
0.139,9.0538330078125,-22.096557617188,13.297973632812
0.1395,12.296997070312,-22.096557617188,10.335083007812
0.14,16.501098632812,-20.935424804688,5.1700439453125
0.1405,19.303833007812,-19.413940429688,0.9659423828125
0.141,21.345825195312,-17.331909179688,-3.1981201171875
0.1415,22.506958007812,-15.169799804688,-6.4412841796875
0.142,22.226684570312,-11.606323242188,-9.6844482421875
0.1425,21.906372070312,-7.6424560546875,-13.448120117188
0.143,21.025512695312,-3.2781982421875,-16.891479492188
0.1435,19.343872070312,1.2061767578125,-19.734252929688
0.144,17.141723632812,4.9298095703125,-21.295776367188
0.1445,14.619262695312,8.0128173828125,-21.976440429688
0.145,11.215942382812,11.376098632812,-22.016479492188
0.1455,5.5303955078125,15.740356445312,-20.855346679688
0.146,1.1661376953125,18.583129882812,-19.494018554688
0.1465,-3.5584716796875,20.745239257812,-17.692260742188
0.147,-6.8817138671875,22.066528320312,-15.490112304688
0.1475,-10.164916992188,21.786254882812,-12.206909179688
0.148,-13.408081054688,21.626098632812,-8.9637451171875
0.1485,-17.371948242188,20.464965820312,-4.0389404296875
0.149,-20.054565429688,18.543090820312,0.6055908203125
0.1495,-21.656127929688,16.461059570312,4.1290283203125
0.15,-22.456909179688,13.978637695312,7.3721923828125
0.1505,-22.176635742188,10.575317382812,10.535278320312
0.151,-21.495971679688,5.8507080078125,14.739379882812
0.1515,-20.494995117188,1.9268798828125,17.622192382812
0.152,-18.653198242188,-2.5574951171875,20.304809570312
0.1525,-16.651245117188,-6.0408935546875,21.706176757812
0.153,-13.448120117188,-9.0838623046875,21.706176757812
0.1535,-10.084838867188,-12.567260742188,21.786254882812
0.154,-4.1990966796875,-16.731323242188,20.464965820312
0.1545,0.4053955078125,-19.574096679688,18.503051757812
0.155,4.4093017578125,-21.015502929688,16.581176757812
0.1555,7.6124267578125,-22.056518554688,14.659301757812
0.156,10.855590820312,-21.576049804688,11.175903320312
0.1565,14.459106445312,-21.015502929688,7.1719970703125
0.157,17.782348632812,-19.934448242188,3.0079345703125
0.1575,20.344848632812,-17.772338867188,-1.7166748046875
0.158,21.465942382812,-15.810424804688,-4.8397216796875
0.1585,21.746215820312,-12.847534179688,-8.0028076171875
0.159,21.626098632812,-9.6444091796875,-11.085815429688
0.1595,20.745239257812,-4.6795654296875,-15.249877929688
0.16,19.504028320312,-0.8758544921875,-17.932495117188
0.1605,17.662231445312,3.1680908203125,-20.054565429688
0.161,15.700317382812,6.4112548828125,-21.455932617188
0.1615,12.096801757812,9.5743408203125,-21.095581054688
0.162,8.1729736328125,13.297973632812,-20.895385742188
0.1625,3.2481689453125,17.141723632812,-19.694213867188
0.163,-1.9569091796875,19.504028320312,-17.452026367188
0.1635,-4.9998779296875,20.705200195312,-15.850463867188
0.164,-8.2430419921875,21.385864257812,-13.528198242188
0.1645,-11.326049804688,21.105590820312,-10.325073242188
0.165,-15.249877929688,20.144653320312,-5.6805419921875
0.1655,-18.052612304688,18.943481445312,-1.8367919921875
0.166,-20.334838867188,16.781372070312,2.5675048828125
0.1665,-21.295776367188,14.779418945312,5.5303955078125
0.167,-21.215698242188,11.536254882812,8.6934814453125
0.1675,-21.135620117188,8.2130126953125,11.976684570312
0.168,-20.254760742188,3.5284423828125,15.860473632812
0.1685,-18.733276367188,-0.7156982421875,18.503051757812
0.169,-16.931518554688,-4.1190185546875,20.144653320312
0.1695,-14.889526367188,-7.3221435546875,21.265747070312
0.17,-11.205932617188,-10.445190429688,20.865356445312
0.1705,-6.4012451171875,-14.369018554688,20.184692382812
0.171,-1.9569091796875,-17.492065429688,19.063598632812
0.1715,3.0079345703125,-19.894409179688,16.781372070312
0.172,5.7706298828125,-20.815307617188,15.099731445312
0.1725,9.0938720703125,-20.975463867188,12.296997070312
0.173,12.176879882812,-20.815307617188,9.2139892578125
0.1735,16.060668945312,-19.734252929688,4.3292236328125
0.174,18.623168945312,-18.132690429688,0.5655517578125
0.1745,20.424926757812,-16.290893554688,-3.2781982421875
0.175,21.145629882812,-14.008666992188,-6.3211669921875
0.1755,20.865356445312,-10.645385742188,-9.4442138671875
0.176,20.464965820312,-6.7215576171875,-12.967651367188
0.1765,19.784301757812,-2.7176513671875,-16.370971679688
0.177,17.902465820312,1.7667236328125,-18.933471679688
0.1775,16.060668945312,4.7296142578125,-20.134643554688
0.178,13.498168945312,7.9727783203125,-20.815307617188
