wavelength,x,y,z
0.0,-18.51806640625,2.30224609375,15.35498046875
0.0005,-16.47607421875,-1.62158203125,17.23681640625
0.001,-14.67431640625,-4.66455078125,18.51806640625
0.0015,-12.31201171875,-7.70751953125,19.23876953125
0.002,-8.90869140625,-10.87060546875,19.15869140625
0.0025,-4.94482421875,-13.91357421875,18.43798828125
0.003,-0.58056640625,-16.39599609375,16.71630859375
0.0035,3.30322265625,-17.95751953125,14.75439453125
0.004,6.02587890625,-18.51806640625,12.75244140625
0.0045,8.98876953125,-19.07861328125,10.51025390625
0.005,12.43212890625,-18.71826171875,6.86669921875
0.0055,15.15478515625,-17.75732421875,3.22314453125
0.006,17.27685546875,-15.75537109375,-0.82080078125
0.0065,18.63818359375,-13.87353515625,-4.06396484375
0.007,19.19873046875,-11.39111328125,-7.02685546875
0.0075,19.47900390625,-8.38818359375,-10.27001953125
0.008,19.03857421875,-4.78466796875,-13.43310546875
0.0085,17.95751953125,-1.10107421875,-16.15576171875
0.009,15.95556640625,2.70263671875,-17.87744140625
0.0095,13.79345703125,5.54541015625,-18.67822265625
0.01,11.47119140625,8.62841796875,-19.43896484375
0.0105,7.30712890625,12.31201171875,-19.07861328125
0.011,3.42333984375,14.95458984375,-18.11767578125
0.0115,-1.02099609375,17.11669921875,-16.07568359375
0.012,-4.42431640625,18.55810546875,-14.39404296875
0.0125,-7.22705078125,18.91845703125,-12.03173828125
0.013,-10.22998046875,19.23876953125,-9.54931640625
0.0135,-13.75341796875,18.63818359375,-5.62548828125
0.014,-16.35595703125,17.19677734375,-1.62158203125
0.0145,-18.11767578125,15.11474609375,2.26220703125
0.015,-19.15869140625,12.95263671875,5.34521484375
0.0155,-19.71923828125,10.39013671875,8.46826171875
0.016,-19.67919921875,6.70654296875,12.11181640625
0.0165,-19.03857421875,3.30322265625,14.79443359375
0.017,-17.47705078125,-0.70068359375,17.23681640625
0.0175,-15.51513671875,-4.22412109375,18.83837890625
0.018,-12.99267578125,-7.02685546875,19.23876953125
0.0185,-10.55029296875,-9.94970703125,19.87939453125
0.019,-5.86572265625,-13.79345703125,19.15869140625
0.0195,-1.62158203125,-16.31591796875,17.63720703125
0.02,2.42236328125,-17.87744140625,15.55517578125
0.0205,5.62548828125,-19.11865234375,13.71337890625
0.021,8.58837890625,-19.31884765625,11.15087890625
0.0215,11.75146484375,-19.27880859375,8.06787109375
0.022,14.79443359375,-18.55810546875,4.42431640625
0.0225,17.31689453125,-16.67626953125,0.06005859375
0.023,18.87841796875,-14.59423828125,-3.54345703125
0.0235,19.47900390625,-12.15185546875,-6.50634765625
0.024,19.99951171875,-9.62939453125,-9.58935546875
0.0245,19.63916015625,-5.50537109375,-13.39306640625
0.025,18.71826171875,-2.06201171875,-15.83544921875
0.0255,16.71630859375,1.78173828125,-17.75732421875
0.026,14.75439453125,5.26513671875,-19.27880859375
0.0265,11.83154296875,8.18798828125,-19.39892578125
0.027,8.82861328125,11.35107421875,-19.67919921875
0.0275,4.50439453125,14.67431640625,-18.87841796875
0.028,0.02001953125,17.11669921875,-16.91650390625
0.0285,-3.70361328125,18.43798828125,-14.83447265625
0.029,-6.78662109375,19.23876953125,-12.79248046875
0.0295,-9.74951171875,19.55908203125,-10.35009765625
0.03,-13.31298828125,18.99853515625,-6.38623046875
0.0305,-15.79541015625,17.99755859375,-2.94287109375
0.031,-17.95751953125,15.87548828125,1.34130859375
0.0315,-19.35888671875,13.79345703125,4.74462890625
0.032,-19.51904296875,11.03076171875,7.70751953125
0.0325,-20.03955078125,8.34814453125,10.75048828125
0.033,-19.47900390625,4.18408203125,14.39404296875
0.0335,-18.19775390625,0.38037109375,16.91650390625
0.034,-15.99560546875,-3.18310546875,18.27783203125
0.0345,-14.07373046875,-6.34619140625,19.55908203125
0.035,-11.23095703125,-9.30908203125,19.83935546875
0.0355,-7.10693359375,-12.83251953125,19.47900390625
0.036,-3.22314453125,-15.51513671875,18.51806640625
0.0365,1.54150390625,-17.79736328125,16.19580078125
0.037,4.82470703125,-18.95849609375,14.27392578125
0.0375,7.82763671875,-19.35888671875,11.87158203125
0.038,10.67041015625,-19.79931640625,9.62939453125
0.0385,14.39404296875,-18.91845703125,5.18505859375
0.039,16.75634765625,-17.47705078125,1.46142578125
0.0395,18.43798828125,-15.43505859375,-2.26220703125
0.04,19.63916015625,-13.27294921875,-5.62548828125
0.0405,19.83935546875,-10.39013671875,-8.66845703125
0.041,19.91943359375,-7.06689453125,-12.15185546875
0.0415,19.27880859375,-3.46337890625,-15.07470703125
0.042,17.59716796875,0.82080078125,-17.55712890625
0.0425,15.39501953125,4.14404296875,-18.71826171875
0.043,12.99267578125,7.18701171875,-19.47900390625
0.0435,10.35009765625,10.22998046875,-19.95947265625
0.044,5.46533203125,14.15380859375,-19.07861328125
0.0445,1.58154296875,16.47607421875,-17.83740234375
0.045,-2.66259765625,18.27783203125,-15.67529296875
0.0455,-5.90576171875,19.35888671875,-13.75341796875
0.046,-8.98876953125,19.47900390625,-10.91064453125
0.0465,-11.91162109375,19.67919921875,-8.30810546875
0.047,-15.39501953125,18.75830078125,-4.14404296875
0.0475,-17.83740234375,16.67626953125,0.38037109375
0.048,-19.15869140625,14.71435546875,3.62353515625
0.0485,-20.07958984375,12.23193359375,6.94677734375
0.049,-20.31982421875,9.46923828125,9.94970703125
0.0495,-19.95947265625,5.26513671875,13.75341796875
0.05,-19.11865234375,1.94189453125,16.31591796875
0.0505,-17.19677734375,-2.26220703125,18.55810546875
0.051,-14.95458984375,-5.62548828125,19.75927734375
0.0515,-12.11181640625,-8.70849609375,20.03955078125
0.052,-9.26904296875,-11.79150390625,20.47998046875
0.0525,-4.14404296875,-15.51513671875,19.23876953125
0.053,0.50048828125,-17.79736328125,17.19677734375
0.0535,3.98388671875,-19.15869140625,15.23486328125
0.054,7.38720703125,-20.11962890625,13.07275390625
0.0545,10.55029296875,-20.11962890625,10.02978515625
0.055,13.87353515625,-19.71923828125,6.46630859375
0.0555,16.95654296875,-18.55810546875,2.62255859375
0.056,19.19873046875,-16.35595703125,-2.10205078125
0.0565,20.11962890625,-14.15380859375,-5.22509765625
0.057,20.72021484375,-11.39111328125,-8.58837890625
0.0575,20.96044921875,-8.50830078125,-11.67138671875
0.058,20.23974609375,-3.90380859375,-15.43505859375
0.0585,18.71826171875,0.02001953125,-17.79736328125
0.059,16.63623046875,3.74365234375,-19.51904296875
0.0595,14.23388671875,7.14697265625,-20.68017578125
0.06,10.83056640625,10.43017578125,-20.64013671875
0.0605,7.18701171875,13.83349609375,-20.56005859375
0.061,2.54248046875,17.03662109375,-19.35888671875
0.0615,-2.62255859375,19.19873046875,-16.63623046875
0.062,-5.70556640625,20.07958984375,-14.67431640625
0.0625,-9.10888671875,20.84033203125,-12.19189453125
0.063,-12.27197265625,20.76025390625,-9.10888671875
0.0635,-15.79541015625,19.71923828125,-4.66455078125
0.064,-18.39794921875,18.19775390625,-0.66064453125
0.0645,-20.35986328125,15.71533203125,3.74365234375
0.065,-21.08056640625,13.15283203125,7.02685546875
0.0655,-21.36083984375,9.86962890625,10.55029296875
0.066,-21.32080078125,6.66650390625,13.75341796875
0.0665,-20.43994140625,2.38232421875,17.11669921875
0.067,-18.27783203125,-2.06201171875,19.35888671875
0.0675,-15.95556640625,-5.46533203125,20.47998046875
0.068,-13.47314453125,-8.82861328125,21.48095703125
0.0685,-9.74951171875,-12.11181640625,21.28076171875
0.069,-5.22509765625,-15.63525390625,20.47998046875
0.0695,-0.78076171875,-18.31787109375,18.91845703125
0.07,4.14404296875,-20.19970703125,16.15576171875
0.0705,7.10693359375,-20.72021484375,13.91357421875
0.071,10.59033203125,-21.12060546875,11.03076171875
0.0715,13.71337890625,-20.88037109375,7.86767578125
0.072,17.15673828125,-19.71923828125,3.30322265625
0.0725,19.51904296875,-17.55712890625,-1.30126953125
0.073,21.04052734375,-15.31494140625,-4.98486328125
0.0735,21.68115234375,-12.51220703125,-8.34814453125
0.074,21.76123046875,-8.98876953125,-11.83154296875
0.0745,21.28076171875,-5.14501953125,-15.23486328125
0.075,20.19970703125,-1.22119140625,-18.11767578125
0.0755,17.67724609375,3.46337890625,-20.19970703125
0.076,15.07470703125,6.66650390625,-21.00048828125
0.0765,12.31201171875,10.10986328125,-21.76123046875
0.077,8.38818359375,13.59326171875,-21.48095703125
0.0775,3.54345703125,16.95654296875,-20.19970703125
0.078,-1.14111328125,19.27880859375,-18.19775390625
0.0785,-5.34521484375,20.92041015625,-15.83544921875
0.079,-8.54833984375,21.28076171875,-13.19287109375
0.0795,-11.99169921875,21.40087890625,-10.10986328125
0.08,-15.39501953125,20.96044921875,-6.34619140625
0.0805,-18.51806640625,19.47900390625,-1.86181640625
0.081,-20.72021484375,16.79638671875,3.06298828125
0.0815,-21.76123046875,14.39404296875,6.42626953125
0.082,-22.40185546875,11.51123046875,9.94970703125
0.0825,-22.28173828125,7.70751953125,13.67333984375
0.083,-21.40087890625,3.46337890625,16.95654296875
0.0835,-19.87939453125,-0.74072265625,19.63916015625
0.084,-17.43701171875,-5.10498046875,21.56103515625
0.0845,-14.55419921875,-8.30810546875,21.96142578125
0.085,-11.47119140625,-11.71142578125,22.44189453125
0.0855,-6.98681640625,-15.43505859375,21.92138671875
0.086,-1.94189453125,-18.55810546875,20.19970703125
0.0865,3.10302734375,-20.47998046875,17.47705078125
0.087,6.74658203125,-21.80126953125,15.31494140625
0.0875,10.14990234375,-22.08154296875,12.43212890625
0.088,13.59326171875,-21.92138671875,8.94873046875
0.0885,17.03662109375,-21.12060546875,4.74462890625
0.089,19.87939453125,-19.27880859375,0.14013671875
0.0895,21.84130859375,-16.51611328125,-4.50439453125
0.09,22.44189453125,-13.75341796875,-7.78759765625
0.0905,22.92236328125,-10.59033203125,-11.39111328125
0.091,22.48193359375,-6.38623046875,-15.31494140625
0.0915,21.32080078125,-2.18212890625,-18.27783203125
0.092,19.19873046875,2.26220703125,-20.47998046875
0.0925,16.67626953125,6.34619140625,-22.16162109375
0.093,13.43310546875,9.62939453125,-22.28173828125
0.0935,9.94970703125,13.07275390625,-22.44189453125
0.094,5.18505859375,16.79638671875,-21.60107421875
0.0945,0.22021484375,19.59912109375,-19.71923828125
0.095,-4.62451171875,21.20068359375,-16.79638671875
0.0955,-7.90771484375,22.00146484375,-14.43408203125
0.096,-11.39111328125,22.28173828125,-11.51123046875
0.0965,-14.91455078125,21.76123046875,-7.54736328125
0.097,-17.99755859375,20.52001953125,-3.38330078125
0.0975,-20.56005859375,18.19775390625,1.54150390625
0.098,-22.20166015625,15.59521484375,5.70556640625
0.0985,-22.44189453125,12.51220703125,8.98876953125
0.099,-22.84228515625,9.30908203125,12.55224609375
0.0995,-22.16162109375,4.78466796875,16.39599609375
0.1,-20.88037109375,0.66064453125,19.23876953125
0.1005,-18.23779296875,-3.70361328125,20.96044921875
0.101,-15.87548828125,-7.34716796875,22.28173828125
0.1015,-12.63232421875,-10.63037109375,22.44189453125
0.102,-8.62841796875,-14.15380859375,22.16162109375
0.1025,-3.98388671875,-17.35693359375,21.00048828125
0.103,1.30126953125,-19.99951171875,18.67822265625
0.1035,5.54541015625,-21.40087890625,16.03564453125
0.104,8.74853515625,-21.76123046875,13.39306640625
0.1045,12.11181640625,-22.20166015625,10.59033203125
0.105,15.91552734375,-21.32080078125,6.10595703125
0.1055,18.71826171875,-19.83935546875,1.98193359375
0.106,20.88037109375,-17.39697265625,-2.70263671875
0.1065,22.28173828125,-14.91455078125,-6.46630859375
0.107,22.44189453125,-11.63134765625,-9.74951171875
0.1075,22.52197265625,-8.26806640625,-13.39306640625
0.108,21.68115234375,-3.94384765625,-16.83642578125
0.1085,20.11962890625,0.50048828125,-19.63916015625
0.109,17.35693359375,4.62451171875,-21.08056640625
0.1095,14.75439453125,7.98779296875,-21.92138671875
0.11,11.67138671875,11.39111328125,-22.40185546875
0.1105,6.66650390625,15.35498046875,-21.60107421875
0.111,2.58251953125,18.07763671875,-20.31982421875
0.1115,-2.70263671875,20.35986328125,-17.71728515625
0.112,-6.54638671875,21.64111328125,-15.47509765625
0.1125,-9.74951171875,21.68115234375,-12.47216796875
0.113,-12.95263671875,21.96142578125,-9.70947265625
0.1135,-16.83642578125,20.96044921875,-4.86474609375
0.114,-19.55908203125,19.03857421875,-0.30029296875
0.1145,-21.28076171875,16.51611328125,3.86376953125
0.115,-22.48193359375,13.87353515625,7.54736328125
0.1155,-22.56201171875,10.63037109375,10.99072265625
0.116,-22.36181640625,6.46630859375,14.87451171875
0.1165,-21.40087890625,2.58251953125,17.79736328125
0.117,-19.39892578125,-2.06201171875,20.43994140625
0.1175,-16.75634765625,-5.98583984375,21.80126953125
0.118,-13.79345703125,-9.18896484375,22.12158203125
0.1185,-10.83056640625,-12.47216796875,22.64208984375
0.119,-5.18505859375,-16.51611328125,21.48095703125
0.1195,-0.66064453125,-19.15869140625,19.59912109375
0.12,3.90380859375,-20.88037109375,17.03662109375
0.1205,7.70751953125,-22.08154296875,14.75439453125
0.121,11.03076171875,-22.04150390625,11.39111328125
0.1215,14.39404296875,-21.84130859375,8.10791015625
0.122,17.91748046875,-20.80029296875,3.70361328125
0.1225,20.56005859375,-18.43798828125,-1.46142578125
0.123,21.88134765625,-15.99560546875,-5.10498046875
0.1235,22.72216796875,-12.95263671875,-8.82861328125
0.124,22.92236328125,-9.86962890625,-12.19189453125
0.1245,22.28173828125,-4.98486328125,-16.39599609375
0.125,21.00048828125,-1.18115234375,-18.91845703125
0.1255,18.67822265625,3.34326171875,-21.08056640625
0.126,16.03564453125,7.22705078125,-22.48193359375
0.1265,12.47216796875,10.71044921875,-22.40185546875
0.127,9.02880859375,14.07373046875,-22.60205078125
0.1275,3.78369140625,17.91748046875,-21.36083984375
0.128,-1.58154296875,20.39990234375,-18.91845703125
0.1285,-5.42529296875,21.60107421875,-16.47607421875
0.129,-9.10888671875,22.52197265625,-13.95361328125
0.1295,-12.51220703125,22.44189453125,-10.55029296875
0.13,-16.31591796875,21.60107421875,-6.10595703125
0.1305,-19.27880859375,20.35986328125,-1.94189453125
0.131,-21.72119140625,17.55712890625,3.18310546875
0.1315,-22.72216796875,14.91455078125,6.78662109375
0.132,-23.04248046875,11.55126953125,10.43017578125
0.1325,-23.24267578125,8.38818359375,13.79345703125
0.133,-22.28173828125,3.34326171875,17.87744140625
0.1335,-20.43994140625,-1.02099609375,20.39990234375
0.134,-17.91748046875,-5.02490234375,21.92138671875
0.1345,-15.39501953125,-8.66845703125,23.24267578125
0.135,-11.51123046875,-12.31201171875,22.96240234375
0.1355,-7.14697265625,-15.87548828125,22.48193359375
0.136,-2.30224609375,-19.07861328125,20.92041015625
0.1365,3.34326171875,-21.40087890625,18.03759765625
0.137,6.82666015625,-22.16162109375,15.63525390625
0.1375,10.51025390625,-22.68212890625,12.67236328125
0.138,13.79345703125,-22.68212890625,9.54931640625
0.1385,17.67724609375,-21.48095703125,4.34423828125
0.139,20.43994140625,-19.39892578125,0.02001953125
0.1395,22.16162109375,-16.91650390625,-4.34423828125
0.14,23.04248046875,-14.07373046875,-8.02783203125
0.1405,23.00244140625,-10.43017578125,-11.63134765625
0.141,22.84228515625,-6.86669921875,-15.07470703125
0.1415,21.80126953125,-2.42236328125,-18.43798828125
0.142,19.39892578125,2.50244140625,-20.92041015625
0.1425,16.71630859375,6.02587890625,-22.08154296875
0.143,13.91357421875,9.74951171875,-22.80224609375
0.1435,10.22998046875,13.11279296875,-22.68212890625
0.144,4.86474609375,17.03662109375,-21.48095703125
0.1445,0.58056640625,19.51904296875,-19.99951171875
0.145,-4.54443359375,21.48095703125,-17.15673828125
0.1455,-7.94775390625,22.16162109375,-14.59423828125
0.146,-11.51123046875,22.28173828125,-11.27099609375
0.1465,-14.67431640625,22.16162109375,-8.30810546875
0.147,-18.27783203125,20.64013671875,-3.26318359375
0.1475,-20.76025390625,18.19775390625,1.78173828125
0.148,-22.04150390625,15.67529296875,5.38525390625
0.1485,-22.84228515625,12.83251953125,9.02880859375
0.149,-22.72216796875,9.22900390625,12.51220703125
0.1495,-22.16162109375,4.94482421875,16.23583984375
0.15,-21.08056640625,0.98095703125,19.03857421875
0.1505,-18.55810546875,-3.78369140625,21.40087890625
0.151,-15.87548828125,-7.30712890625,22.12158203125
0.1515,-12.75244140625,-10.75048828125,22.68212890625
0.152,-9.10888671875,-14.11376953125,22.56201171875
0.1525,-3.54345703125,-17.87744140625,21.08056640625
0.153,1.30126953125,-20.23974609375,18.63818359375
0.1535,5.38525390625,-21.60107421875,16.43603515625
0.154,8.82861328125,-22.28173828125,13.79345703125
0.1545,12.31201171875,-21.96142578125,10.35009765625
0.155,15.71533203125,-21.60107421875,6.54638671875
0.1555,18.87841796875,-20.15966796875,2.10205078125
0.156,21.28076171875,-17.35693359375,-3.10302734375
0.1565,22.08154296875,-14.83447265625,-6.38623046875
0.157,22.76220703125,-11.87158203125,-9.98974609375
0.1575,22.60205078125,-8.30810546875,-13.43310546875
0.158,21.72119140625,-3.74365234375,-16.99658203125
0.1585,19.99951171875,0.34033203125,-19.43896484375
0.159,17.75732421875,4.58447265625,-21.28076171875
0.1595,14.79443359375,8.06787109375,-22.00146484375
0.16,11.35107421875,11.55126953125,-22.12158203125
0.1605,7.34716796875,15.03466796875,-21.88134765625
0.161,2.42236328125,18.31787109375,-20.43994140625
0.1615,-2.94287109375,20.43994140625,-17.47705078125
0.162,-6.26611328125,21.40087890625,-15.39501953125
0.1625,-9.78955078125,22.00146484375,-12.83251953125
0.163,-13.19287109375,21.76123046875,-9.26904296875
0.1635,-16.63623046875,20.76025390625,-4.98486328125
0.164,-19.27880859375,19.07861328125,-0.66064453125
0.1645,-21.32080078125,16.43603515625,4.02392578125
0.165,-21.88134765625,13.67333984375,7.26708984375
0.1655,-22.28173828125,10.51025390625,10.87060546875
0.166,-22.04150390625,6.90673828125,14.31396484375
0.1665,-21.12060546875,2.54248046875,17.67724609375
0.167,-18.87841796875,-1.94189453125,19.87939453125
0.1675,-16.71630859375,-5.50537109375,21.28076171875
0.168,-13.99365234375,-8.94873046875,22.04150390625
0.1685,-10.22998046875,-12.27197265625,21.84130859375
0.169,-5.90576171875,-15.83544921875,21.20068359375
0.1695,-1.06103515625,-18.63818359375,19.47900390625
0.17,3.86376953125,-20.47998046875,16.67626953125
0.1705,7.06689453125,-21.00048828125,14.39404296875
0.171,10.47021484375,-21.60107421875,11.67138671875
0.1715,13.79345703125,-21.28076171875,8.10791015625
0.172,17.03662109375,-20.03955078125,3.78369140625
0.1725,19.47900390625,-17.95751953125,-0.78076171875
0.173,21.12060546875,-15.67529296875,-4.66455078125
0.1735,21.56103515625,-12.83251953125,-7.94775390625
0.174,21.80126953125,-9.46923828125,-11.35107421875
0.1745,21.32080078125,-5.70556640625,-14.91455078125
0.175,20.35986328125,-1.54150390625,-17.87744140625
0.1755,17.83740234375,2.94287109375,-19.87939453125
0.176,15.51513671875,6.14599609375,-20.80029296875
0.1765,12.79248046875,9.46923828125,-21.60107421875
0.177,8.82861328125,12.95263671875,-21.28076171875
0.1775,4.22412109375,16.19580078125,-20.19970703125
0.178,-0.58056640625,18.71826171875,-18.23779296875
0.1785,-4.82470703125,20.35986328125,-15.95556640625
0.179,-7.78759765625,20.76025390625,-13.39306640625
0.1795,-11.07080078125,21.12060546875,-10.59033203125
0.18,-14.59423828125,20.60009765625,-6.74658203125
0.1805,-17.51708984375,19.19873046875,-2.50244140625
0.181,-19.67919921875,16.79638671875,2.06201171875
0.1815,-20.88037109375,14.55419921875,5.50537109375
0.182,-21.44091796875,11.67138671875,8.82861328125
0.1825,-21.40087890625,8.18798828125,12.39208984375
0.183,-20.72021484375,4.26416015625,15.59521484375
0.1835,-19.43896484375,0.18017578125,18.31787109375
0.184,-17.07666015625,-4.06396484375,20.15966796875
0.1845,-14.47412109375,-7.06689453125,20.76025390625
0.185,-11.79150390625,-10.39013671875,21.40087890625
0.1855,-7.38720703125,-14.11376953125,20.88037109375
0.186,-2.86279296875,-17.03662109375,19.43896484375
0.1865,1.78173828125,-19.07861328125,17.03662109375
0.187,5.50537109375,-20.43994140625,15.07470703125
0.1875,8.66845703125,-20.64013671875,12.47216796875
0.188,11.91162109375,-20.76025390625,9.42919921875
0.1885,15.31494140625,-20.07958984375,5.46533203125
0.189,18.07763671875,-18.43798828125,1.14111328125
0.1895,19.87939453125,-16.15576171875,-3.18310546875
0.19,20.68017578125,-13.59326171875,-6.14599609375
0.1905,21.32080078125,-10.75048828125,-9.58935546875
0.191,21.16064453125,-6.86669921875,-13.31298828125
0.1915,20.23974609375,-3.14306640625,-16.19580078125
