wavelength,x,y,z
0.0,-4.98486328125,8.18798828125,-3.46337890625
0.0005,-6.02587890625,7.82763671875,-2.02197265625
0.001,-6.70654296875,6.94677734375,-0.58056640625
0.0015,-7.50732421875,6.26611328125,0.98095703125
0.002,-7.94775390625,5.22509765625,2.50244140625
0.0025,-8.06787109375,3.86376953125,3.98388671875
0.003,-7.98779296875,2.54248046875,5.22509765625
0.0035,-7.42724609375,0.98095703125,6.26611328125
0.004,-6.58642578125,-0.70068359375,7.06689453125
0.0045,-5.50537109375,-2.42236328125,7.70751953125
0.005,-4.10400390625,-4.10400390625,7.86767578125
0.0055,-2.86279296875,-5.42529296875,8.02783203125
0.006,-1.58154296875,-6.54638671875,7.90771484375
0.0065,-0.14013671875,-7.26708984375,7.26708984375
0.007,1.34130859375,-8.06787109375,6.66650390625
0.0075,2.86279296875,-8.50830078125,5.66552734375
0.008,4.18408203125,-8.62841796875,4.42431640625
0.0085,5.30517578125,-8.46826171875,3.18310546875
0.009,6.26611328125,-8.02783203125,1.74169921875
0.0095,6.98681640625,-7.18701171875,0.26025390625
0.01,7.86767578125,-6.54638671875,-1.30126953125
0.0105,8.14794921875,-5.26513671875,-2.90283203125
0.011,8.22802734375,-3.90380859375,-4.26416015625
0.0115,7.98779296875,-2.46240234375,-5.50537109375
0.012,7.30712890625,-0.90087890625,-6.38623046875
0.0125,6.42626953125,0.94091796875,-7.30712890625
0.013,5.22509765625,2.66259765625,-7.82763671875
0.0135,3.78369140625,4.30419921875,-7.98779296875
0.014,2.62255859375,5.50537109375,-8.14794921875
0.0145,1.26123046875,6.58642578125,-7.82763671875
0.015,-0.34033203125,7.30712890625,-7.06689453125
0.0155,-1.94189453125,8.06787109375,-6.34619140625
0.016,-3.46337890625,8.38818359375,-5.10498046875
0.0165,-4.82470703125,8.34814453125,-3.78369140625
0.017,-5.90576171875,8.02783203125,-2.42236328125
0.0175,-6.70654296875,7.30712890625,-0.90087890625
0.018,-7.46728515625,6.42626953125,0.82080078125
0.0185,-8.06787109375,5.42529296875,2.42236328125
0.019,-8.30810546875,4.02392578125,4.10400390625
0.0195,-8.18798828125,2.54248046875,5.38525390625
0.02,-7.74755859375,0.98095703125,6.54638671875
0.0205,-6.70654296875,-0.90087890625,7.30712890625
0.021,-5.50537109375,-2.82275390625,8.02783203125
0.0215,-3.90380859375,-4.58447265625,8.22802734375
0.022,-2.50244140625,-6.02587890625,8.30810546875
0.0225,-1.22119140625,-7.06689453125,8.06787109375
0.023,0.38037109375,-7.98779296875,7.42724609375
0.0235,2.18212890625,-8.62841796875,6.38623046875
0.024,3.70361328125,-9.06884765625,5.34521484375
0.0245,5.18505859375,-9.10888671875,3.90380859375
0.025,6.26611328125,-8.82861328125,2.54248046875
0.0255,7.18701171875,-8.26806640625,1.10107421875
0.026,7.74755859375,-7.06689453125,-0.70068359375
0.0265,8.42822265625,-6.06591796875,-2.38232421875
0.027,8.66845703125,-4.74462890625,-3.98388671875
0.0275,8.66845703125,-3.14306640625,-5.50537109375
0.028,8.18798828125,-1.66162109375,-6.46630859375
0.0285,7.46728515625,0.10009765625,-7.50732421875
0.029,6.02587890625,2.18212890625,-8.14794921875
0.0295,4.66455078125,4.06396484375,-8.66845703125
0.03,2.90283203125,5.70556640625,-8.58837890625
0.0305,1.58154296875,6.90673828125,-8.46826171875
0.031,0.18017578125,7.70751953125,-7.98779296875
0.0315,-1.62158203125,8.42822265625,-6.94677734375
0.032,-3.46337890625,8.98876953125,-5.74560546875
0.0325,-4.94482421875,9.02880859375,-4.34423828125
0.033,-6.34619140625,8.90869140625,-2.90283203125
0.0335,-7.14697265625,8.26806640625,-1.42138671875
0.034,-7.94775390625,7.46728515625,0.26025390625
0.0345,-8.38818359375,5.98583984375,2.22216796875
0.035,-8.90869140625,4.78466796875,3.86376953125
0.0355,-8.90869140625,3.22314453125,5.42529296875
0.036,-8.58837890625,1.58154296875,6.74658203125
0.0365,-7.94775390625,0.06005859375,7.62744140625
0.037,-6.74658203125,-1.90185546875,8.34814453125
0.0375,-5.10498046875,-4.10400390625,8.90869140625
0.038,-3.30322265625,-5.82568359375,8.90869140625
0.0385,-1.66162109375,-7.34716796875,8.78857421875
0.039,-0.30029296875,-8.26806640625,8.34814453125
0.0395,1.26123046875,-8.94873046875,7.62744140625
0.04,3.22314453125,-9.46923828125,6.18603515625
0.0405,4.86474609375,-9.86962890625,4.94482421875
0.041,6.26611328125,-9.62939453125,3.34326171875
0.0415,7.38720703125,-9.30908203125,1.90185546875
0.042,7.98779296875,-8.38818359375,0.46044921875
0.0425,8.58837890625,-7.30712890625,-1.26123046875
0.043,8.98876953125,-5.74560546875,-3.18310546875
0.0435,9.14892578125,-4.46435546875,-4.70458984375
0.044,9.02880859375,-2.82275390625,-6.18603515625
0.0445,8.46826171875,-1.26123046875,-7.18701171875
0.045,7.70751953125,0.34033203125,-7.94775390625
0.0455,6.22607421875,2.38232421875,-8.50830078125
0.046,4.70458984375,4.42431640625,-9.02880859375
0.0465,2.90283203125,5.90576171875,-8.78857421875
0.047,1.42138671875,7.22705078125,-8.70849609375
0.0475,0.14013671875,7.94775390625,-8.14794921875
0.048,-1.46142578125,8.62841796875,-7.30712890625
0.0485,-3.38330078125,9.10888671875,-5.90576171875
0.049,-4.86474609375,9.26904296875,-4.66455078125
0.0495,-6.18603515625,8.98876953125,-3.14306640625
0.05,-7.10693359375,8.54833984375,-1.74169921875
0.0505,-7.74755859375,7.70751953125,-0.26025390625
0.051,-8.30810546875,6.46630859375,1.58154296875
0.0515,-8.74853515625,5.14501953125,3.34326171875
0.052,-8.78857421875,3.78369140625,4.78466796875
0.0525,-8.66845703125,2.22216796875,6.22607421875
0.053,-8.06787109375,0.74072265625,7.10693359375
0.0535,-7.30712890625,-0.94091796875,7.94775390625
0.054,-5.74560546875,-2.94287109375,8.46826171875
0.0545,-4.26416015625,-4.82470703125,8.82861328125
0.055,-2.50244140625,-6.26611328125,8.54833984375
0.0555,-1.18115234375,-7.46728515625,8.46826171875
0.056,0.18017578125,-8.14794921875,7.82763671875
0.0565,1.78173828125,-8.78857421875,6.90673828125
0.057,3.54345703125,-9.30908203125,5.74560546875
0.0575,4.90478515625,-9.34912109375,4.42431640625
0.058,6.18603515625,-9.26904296875,3.02294921875
0.0585,6.94677734375,-8.62841796875,1.70166015625
0.059,7.70751953125,-7.82763671875,0.22021484375
0.0595,8.06787109375,-6.54638671875,-1.54150390625
0.06,8.66845703125,-5.50537109375,-3.10302734375
0.0605,8.62841796875,-4.14404296875,-4.50439453125
0.061,8.50830078125,-2.66259765625,-5.82568359375
0.0615,7.90771484375,-1.22119140625,-6.66650390625
0.062,7.10693359375,0.50048828125,-7.54736328125
0.0625,5.74560546875,2.46240234375,-8.14794921875
0.063,4.38427734375,4.10400390625,-8.42822265625
0.0635,2.82275390625,5.58544921875,-8.30810546875
0.064,1.62158203125,6.66650390625,-8.30810546875
0.0645,0.30029296875,7.42724609375,-7.74755859375
0.065,-1.42138671875,7.98779296875,-6.78662109375
0.0655,-3.06298828125,8.62841796875,-5.78564453125
0.066,-4.34423828125,8.58837890625,-4.50439453125
0.0665,-5.70556640625,8.62841796875,-3.18310546875
0.067,-6.46630859375,8.02783203125,-1.86181640625
0.0675,-7.30712890625,7.26708984375,-0.26025390625
0.068,-7.82763671875,6.10595703125,1.50146484375
0.0685,-8.34814453125,5.06494140625,3.06298828125
0.069,-8.42822265625,3.70361328125,4.50439453125
0.0695,-8.26806640625,2.18212890625,5.82568359375
0.07,-7.70751953125,0.70068359375,6.78662109375
0.0705,-6.70654296875,-1.14111328125,7.54736328125
0.071,-5.38525390625,-3.10302734375,8.22802734375
0.0715,-3.82373046875,-4.70458984375,8.30810546875
0.072,-2.38232421875,-6.22607421875,8.34814453125
0.0725,-1.14111328125,-7.14697265625,8.10791015625
0.073,0.34033203125,-8.02783203125,7.54736328125
0.0735,2.06201171875,-8.66845703125,6.42626953125
0.074,3.66357421875,-9.14892578125,5.42529296875
0.0745,4.98486328125,-9.02880859375,4.06396484375
0.075,6.18603515625,-8.86865234375,2.70263671875
0.0755,6.94677734375,-8.18798828125,1.34130859375
0.076,7.66748046875,-7.30712890625,-0.38037109375
0.0765,8.30810546875,-6.14599609375,-2.10205078125
0.077,8.62841796875,-4.98486328125,-3.58349609375
0.0775,8.66845703125,-3.54345703125,-5.14501953125
0.078,8.18798828125,-1.98193359375,-6.18603515625
0.0785,7.62744140625,-0.42041015625,-7.18701171875
0.079,6.34619140625,1.58154296875,-7.86767578125
0.0795,5.06494140625,3.54345703125,-8.54833984375
0.08,3.34326171875,5.10498046875,-8.38818359375
0.0805,1.98193359375,6.46630859375,-8.46826171875
0.081,0.70068359375,7.22705078125,-8.02783203125
0.0815,-0.98095703125,8.06787109375,-7.26708984375
0.082,-2.86279296875,8.70849609375,-6.14599609375
0.0825,-4.38427734375,8.94873046875,-4.78466796875
0.083,-5.74560546875,8.86865234375,-3.34326171875
0.0835,-6.74658203125,8.38818359375,-1.94189453125
0.084,-7.54736328125,7.62744140625,-0.38037109375
0.0845,-8.10791015625,6.38623046875,1.54150390625
0.085,-8.70849609375,5.14501953125,3.34326171875
0.0855,-8.70849609375,3.66357421875,4.82470703125
0.086,-8.66845703125,2.06201171875,6.34619140625
0.0865,-7.98779296875,0.54052734375,7.18701171875
0.087,-7.10693359375,-1.26123046875,8.06787109375
0.0875,-5.46533203125,-3.46337890625,8.66845703125
0.088,-3.78369140625,-5.38525390625,8.90869140625
0.0885,-2.06201171875,-6.78662109375,8.62841796875
0.089,-0.74072265625,-7.98779296875,8.46826171875
0.0895,0.82080078125,-8.66845703125,7.70751953125
0.09,2.58251953125,-9.26904296875,6.54638671875
0.0905,4.50439453125,-9.78955078125,5.26513671875
0.091,5.86572265625,-9.50927734375,3.66357421875
0.0915,7.14697265625,-9.30908203125,2.22216796875
0.092,7.74755859375,-8.46826171875,0.78076171875
0.0925,8.38818359375,-7.50732421875,-0.90087890625
0.093,8.82861328125,-6.02587890625,-2.82275390625
0.0935,9.14892578125,-4.62451171875,-4.50439453125
0.094,8.90869140625,-3.06298828125,-5.86572265625
0.0945,8.58837890625,-1.46142578125,-7.06689453125
0.095,7.70751953125,0.10009765625,-7.70751953125
0.0955,6.54638671875,1.94189453125,-8.38818359375
0.096,4.94482421875,4.14404296875,-8.98876953125
0.0965,3.10302734375,5.74560546875,-8.82861328125
0.097,1.58154296875,7.06689453125,-8.66845703125
0.0975,0.30029296875,7.82763671875,-8.22802734375
0.098,-1.26123046875,8.46826171875,-7.38720703125
0.0985,-3.10302734375,8.98876953125,-6.10595703125
0.099,-4.82470703125,9.38916015625,-4.82470703125
0.0995,-6.02587890625,8.94873046875,-3.14306640625
0.1,-7.18701171875,8.66845703125,-1.82177734375
0.1005,-7.62744140625,7.70751953125,-0.34033203125
0.101,-8.26806640625,6.66650390625,1.34130859375
0.1015,-8.70849609375,5.26513671875,3.18310546875
0.102,-8.78857421875,3.82373046875,4.74462890625
0.1025,-8.62841796875,2.34228515625,6.06591796875
0.103,-8.14794921875,0.78076171875,7.06689453125
0.1035,-7.30712890625,-0.78076171875,7.74755859375
0.104,-6.02587890625,-2.62255859375,8.30810546875
0.1045,-4.42431640625,-4.66455078125,8.82861328125
0.105,-2.66259765625,-6.10595703125,8.46826171875
0.1055,-1.30126953125,-7.38720703125,8.46826171875
0.106,0.02001953125,-8.02783203125,7.82763671875
0.1065,1.50146484375,-8.66845703125,7.06689453125
0.107,3.26318359375,-9.14892578125,5.86572265625
0.1075,4.74462890625,-9.30908203125,4.62451171875
0.108,5.86572265625,-9.02880859375,3.18310546875
0.1085,6.82666015625,-8.66845703125,1.90185546875
0.109,7.42724609375,-7.82763671875,0.50048828125
0.1095,7.94775390625,-6.74658203125,-1.18115234375
0.11,8.54833984375,-5.62548828125,-2.86279296875
0.1105,8.54833984375,-4.34423828125,-4.18408203125
0.111,8.50830078125,-2.90283203125,-5.62548828125
0.1115,7.86767578125,-1.50146484375,-6.38623046875
0.112,7.26708984375,0.14013671875,-7.30712890625
0.1125,5.94580078125,1.98193359375,-7.86767578125
0.113,4.62451171875,3.70361328125,-8.34814453125
0.1135,3.06298828125,5.06494140625,-8.14794921875
0.114,1.94189453125,6.34619140625,-8.30810546875
0.1145,0.66064453125,7.06689453125,-7.74755859375
0.115,-0.94091796875,7.78759765625,-7.02685546875
0.1155,-2.58251953125,8.46826171875,-6.06591796875
0.116,-3.98388671875,8.50830078125,-4.78466796875
0.1165,-5.26513671875,8.50830078125,-3.50341796875
0.117,-6.10595703125,7.98779296875,-2.18212890625
0.1175,-6.98681640625,7.38720703125,-0.70068359375
0.118,-7.54736328125,6.34619140625,0.98095703125
0.1185,-8.18798828125,5.30517578125,2.62255859375
0.119,-8.26806640625,4.02392578125,3.98388671875
0.1195,-8.26806640625,2.54248046875,5.46533203125
0.12,-7.70751953125,1.14111328125,6.30615234375
0.1205,-6.98681640625,-0.62060546875,7.26708984375
0.121,-5.62548828125,-2.54248046875,7.86767578125
0.1215,-4.18408203125,-4.22412109375,8.10791015625
0.122,-2.78271484375,-5.70556640625,8.14794921875
0.1225,-1.58154296875,-6.70654296875,8.10791015625
0.123,-0.22021484375,-7.54736328125,7.58740234375
0.1235,1.42138671875,-8.18798828125,6.70654296875
0.124,3.06298828125,-8.86865234375,5.74560546875
0.1245,4.34423828125,-8.74853515625,4.46435546875
0.125,5.66552734375,-8.82861328125,3.18310546875
0.1255,6.34619140625,-8.14794921875,1.86181640625
0.126,7.22705078125,-7.46728515625,0.30029296875
0.1265,7.82763671875,-6.42626953125,-1.38134765625
0.127,8.34814453125,-5.38525390625,-2.98291015625
0.1275,8.34814453125,-4.02392578125,-4.34423828125
0.128,8.14794921875,-2.54248046875,-5.62548828125
0.1285,7.58740234375,-1.10107421875,-6.46630859375
0.129,6.70654296875,0.66064453125,-7.34716796875
0.1295,5.42529296875,2.62255859375,-8.02783203125
0.13,3.90380859375,4.14404296875,-8.10791015625
0.1305,2.62255859375,5.66552734375,-8.30810546875
0.131,1.42138671875,6.54638671875,-7.98779296875
0.1315,-0.10009765625,7.38720703125,-7.38720703125
0.132,-1.78173828125,8.06787109375,-6.46630859375
0.1325,-3.34326171875,8.54833984375,-5.38525390625
0.133,-4.62451171875,8.38818359375,-4.02392578125
0.1335,-5.86572265625,8.30810546875,-2.70263671875
0.134,-6.58642578125,7.58740234375,-1.26123046875
0.1345,-7.38720703125,6.74658203125,0.38037109375
0.135,-8.02783203125,5.70556640625,2.18212890625
0.1355,-8.26806640625,4.38427734375,3.66357421875
0.136,-8.30810546875,2.98291015625,5.10498046875
0.1365,-7.94775390625,1.50146484375,6.18603515625
0.137,-7.22705078125,-0.18017578125,7.10693359375
0.1375,-6.10595703125,-2.06201171875,7.78759765625
0.138,-4.58447265625,-4.06396484375,8.30810546875
0.1385,-3.02294921875,-5.42529296875,8.14794921875
0.139,-1.74169921875,-6.78662109375,8.30810546875
0.1395,-0.38037109375,-7.50732421875,7.70751953125
0.14,1.22119140625,-8.30810546875,6.98681640625
0.1405,2.98291015625,-8.94873046875,5.90576171875
0.141,4.50439453125,-9.06884765625,4.58447265625
0.1415,5.74560546875,-8.94873046875,3.22314453125
0.142,6.66650390625,-8.46826171875,1.90185546875
0.1425,7.38720703125,-7.70751953125,0.38037109375
0.143,7.98779296875,-6.62646484375,-1.34130859375
0.1435,8.58837890625,-5.42529296875,-3.18310546875
0.144,8.54833984375,-4.02392578125,-4.50439453125
0.1445,8.46826171875,-2.54248046875,-5.90576171875
0.145,7.74755859375,-1.10107421875,-6.70654296875
0.1455,6.94677734375,0.66064453125,-7.58740234375
0.146,5.58544921875,2.70263671875,-8.30810546875
0.1465,3.98388671875,4.54443359375,-8.46826171875
0.147,2.50244140625,5.90576171875,-8.34814453125
0.1475,1.26123046875,7.02685546875,-8.30810546875
0.148,-0.30029296875,7.70751953125,-7.54736328125
0.1485,-1.90185546875,8.30810546875,-6.58642578125
0.149,-3.78369140625,8.98876953125,-5.42529296875
0.1495,-5.06494140625,8.70849609375,-3.86376953125
0.15,-6.38623046875,8.62841796875,-2.54248046875
0.1505,-7.06689453125,7.86767578125,-1.10107421875
0.151,-7.74755859375,6.90673828125,0.62060546875
0.1515,-8.30810546875,5.74560546875,2.34228515625
0.152,-8.70849609375,4.34423828125,4.14404296875
0.1525,-8.50830078125,2.82275390625,5.46533203125
0.153,-8.30810546875,1.26123046875,6.78662109375
0.1535,-7.38720703125,-0.34033203125,7.38720703125
0.154,-6.34619140625,-2.18212890625,8.14794921875
0.1545,-4.70458984375,-4.26416015625,8.70849609375
0.155,-2.94287109375,-5.82568359375,8.58837890625
0.1555,-1.50146484375,-7.18701171875,8.46826171875
0.156,-0.18017578125,-7.98779296875,7.98779296875
0.1565,1.42138671875,-8.66845703125,7.10693359375
0.157,3.14306640625,-9.18896484375,6.02587890625
0.1575,4.90478515625,-9.58935546875,4.62451171875
0.158,6.06591796875,-9.10888671875,3.10302734375
0.1585,7.18701171875,-8.86865234375,1.74169921875
0.159,7.66748046875,-7.82763671875,0.30029296875
0.1595,8.26806640625,-6.82666015625,-1.42138671875
0.16,8.78857421875,-5.54541015625,-3.18310546875
0.1605,8.86865234375,-4.02392578125,-4.82470703125
0.161,8.58837890625,-2.58251953125,-6.10595703125
0.1615,8.06787109375,-1.10107421875,-7.02685546875
0.162,7.10693359375,0.58056640625,-7.70751953125
0.1625,5.90576171875,2.46240234375,-8.30810546875
0.163,4.34423828125,4.50439453125,-8.82861328125
0.1635,2.58251953125,5.86572265625,-8.46826171875
0.164,1.30126953125,7.10693359375,-8.46826171875
0.1645,-0.10009765625,7.74755859375,-7.74755859375
0.165,-1.70166015625,8.34814453125,-6.78662109375
0.1655,-3.42333984375,8.94873046875,-5.74560546875
0.166,-4.98486328125,8.98876953125,-4.22412109375
0.1665,-6.10595703125,8.66845703125,-2.82275390625
0.167,-7.06689453125,8.18798828125,-1.42138671875
0.1675,-7.62744140625,7.18701171875,0.18017578125
0.168,-8.18798828125,6.10595703125,1.86181640625
0.1685,-8.70849609375,4.82470703125,3.70361328125
0.169,-8.58837890625,3.22314453125,5.10498046875
0.1695,-8.46826171875,1.78173828125,6.42626953125
0.17,-7.70751953125,0.26025390625,7.14697265625
0.1705,-6.70654296875,-1.46142578125,7.90771484375
0.171,-5.38525390625,-3.38330078125,8.46826171875
0.1715,-3.66357421875,-5.30517578125,8.66845703125
0.172,-2.06201171875,-6.54638671875,8.38818359375
0.1725,-0.78076171875,-7.70751953125,8.30810546875
0.173,0.74072265625,-8.26806640625,7.42724609375
0.1735,2.30224609375,-8.82861328125,6.46630859375
0.174,4.10400390625,-9.42919921875,5.30517578125
0.1745,5.46533203125,-9.18896484375,3.78369140625
0.175,6.58642578125,-8.98876953125,2.46240234375
0.1755,7.30712890625,-8.26806640625,1.02099609375
0.176,7.86767578125,-7.26708984375,-0.58056640625
0.1765,8.42822265625,-6.22607421875,-2.22216796875
0.177,8.82861328125,-4.82470703125,-4.02392578125
0.1775,8.62841796875,-3.38330078125,-5.26513671875
0.178,8.34814453125,-1.86181640625,-6.54638671875
0.1785,7.54736328125,-0.34033203125,-7.18701171875
0.179,6.46630859375,1.54150390625,-7.94775390625
0.1795,5.10498046875,3.50341796875,-8.58837890625
0.18,3.38330078125,5.14501953125,-8.50830078125
0.1805,2.06201171875,6.42626953125,-8.46826171875
0.181,0.74072265625,7.34716796875,-8.10791015625
0.1815,-0.82080078125,7.98779296875,-7.26708984375
0.182,-2.46240234375,8.54833984375,-6.26611328125
0.1825,-4.22412109375,9.02880859375,-5.06494140625
0.183,-5.42529296875,8.70849609375,-3.50341796875
0.1835,-6.62646484375,8.50830078125,-2.14208984375
0.184,-7.22705078125,7.58740234375,-0.62060546875
0.1845,-7.86767578125,6.58642578125,1.10107421875
0.185,-8.46826171875,5.46533203125,2.78271484375
0.1855,-8.66845703125,3.90380859375,4.50439453125
0.186,-8.46826171875,2.42236328125,5.74560546875
0.1865,-8.06787109375,0.94091796875,6.90673828125
0.187,-7.10693359375,-0.74072265625,7.58740234375
0.1875,-5.94580078125,-2.58251953125,8.26806640625
0.188,-4.34423828125,-4.62451171875,8.74853515625
0.1885,-2.62255859375,-6.10595703125,8.46826171875
0.189,-1.30126953125,-7.34716796875,8.46826171875
0.1895,0.18017578125,-8.06787109375,7.78759765625
0.19,1.78173828125,-8.66845703125,6.86669921875
0.1905,3.42333984375,-9.26904296875,5.78564453125
0.191,5.10498046875,-9.46923828125,4.34423828125
0.1915,6.22607421875,-9.02880859375,2.90283203125
0.192,7.22705078125,-8.66845703125,1.46142578125
0.1925,7.70751953125,-7.62744140625,0.02001953125
0.193,8.30810546875,-6.58642578125,-1.74169921875
0.1935,8.86865234375,-5.38525390625,-3.54345703125
0.194,8.78857421875,-3.78369140625,-5.06494140625
0.1945,8.54833984375,-2.26220703125,-6.26611328125
0.195,7.86767578125,-0.74072265625,-7.10693359375
0.1955,6.86669921875,1.02099609375,-7.82763671875
0.196,5.58544921875,2.90283203125,-8.46826171875
0.1965,3.94384765625,4.86474609375,-8.78857421875
0.197,2.30224609375,6.10595703125,-8.42822265625
0.1975,1.06103515625,7.30712890625,-8.34814453125
0.198,-0.50048828125,7.94775390625,-7.54736328125
0.1985,-2.10205078125,8.46826171875,-6.54638671875
0.199,-3.86376953125,9.10888671875,-5.42529296875
0.1995,-5.30517578125,8.94873046875,-3.82373046875
