wavelength,x,y,z
0.0,-21.7412109375,2.6025390625,18.09765625
0.0005,-19.4189453125,-2.162109375,20.5
0.001,-16.896484375,-5.845703125,21.7412109375
0.0015,-14.4140625,-9.1689453125,22.662109375
0.002,-10.890625,-12.412109375,22.5419921875
0.0025,-5.28515625,-16.5361328125,21.2607421875
0.003,-0.80078125,-18.978515625,19.4990234375
0.0035,3.9638671875,-20.900390625,16.9365234375
0.004,7.447265625,-21.9013671875,14.734375
0.0045,11.05078125,-21.861328125,11.2109375
0.005,14.3740234375,-21.6611328125,7.927734375
0.0055,17.9775390625,-20.3798828125,3.1630859375
0.006,20.4599609375,-17.9375,-1.76171875
0.0065,21.9013671875,-15.53515625,-5.4052734375
0.007,22.7421875,-13.0126953125,-8.888671875
0.0075,22.662109375,-9.529296875,-12.2119140625
0.008,22.021484375,-5.044921875,-16.095703125
0.0085,20.8203125,-1.361328125,-18.6181640625
0.009,18.41796875,3.1630859375,-20.8203125
0.0095,15.935546875,6.646484375,-21.861328125
0.01,12.732421875,10.0498046875,-22.1015625
0.0105,9.2890625,13.3330078125,-22.1015625
0.011,3.8037109375,17.13671875,-20.580078125
0.0115,-1.0009765625,19.21875,-18.2177734375
0.012,-4.884765625,20.740234375,-16.0556640625
0.0125,-8.248046875,21.6611328125,-13.853515625
0.013,-11.7314453125,21.4208984375,-10.330078125
0.0135,-15.375,20.7802734375,-6.2861328125
0.014,-18.337890625,19.458984375,-2.0419921875
0.0145,-20.66015625,16.896484375,2.802734375
0.015,-21.78125,14.6943359375,6.0859375
0.0155,-22.341796875,11.69140625,9.609375
0.016,-22.3818359375,8.408203125,12.9326171875
0.0165,-21.6611328125,3.84375,16.736328125
0.017,-19.8193359375,-0.2001953125,18.9384765625
0.0175,-17.6572265625,-4.1640625,20.740234375
0.018,-15.4150390625,-7.4072265625,21.9013671875
0.0185,-11.8115234375,-10.73046875,21.7412109375
0.019,-7.84765625,-14.2138671875,21.4609375
0.0195,-2.8828125,-17.45703125,19.8994140625
0.02,2.162109375,-19.4990234375,17.296875
0.0205,5.4853515625,-20.6201171875,15.2548828125
0.021,8.80859375,-21.30078125,12.8125
0.0215,12.171875,-21.140625,9.4091796875
0.022,15.85546875,-20.1796875,4.96484375
0.0225,18.4580078125,-18.498046875,0.80078125
0.023,20.5400390625,-16.17578125,-3.603515625
0.0235,21.4609375,-13.853515625,-6.7265625
0.024,21.78125,-10.650390625,-10.25
0.0245,21.6611328125,-7.20703125,-13.533203125
0.025,20.8203125,-3.1630859375,-16.9365234375
0.0255,18.6181640625,1.2412109375,-19.05859375
0.026,16.576171875,4.7646484375,-20.5
0.0265,14.2138671875,7.9677734375,-21.5009765625
0.027,10.5302734375,11.2509765625,-21.220703125
0.0275,5.92578125,14.89453125,-20.4599609375
0.028,1.521484375,17.6171875,-18.8984375
0.0285,-3.283203125,19.5390625,-16.3759765625
0.029,-6.3662109375,20.419921875,-14.4140625
0.0295,-9.76953125,20.8203125,-11.5712890625
0.03,-13.212890625,20.5400390625,-8.0478515625
0.0305,-16.6162109375,19.458984375,-3.7236328125
0.031,-18.9384765625,17.296875,0.720703125
0.0315,-20.66015625,15.21484375,4.5244140625
0.032,-21.5009765625,12.7724609375,7.7275390625
0.0325,-21.6611328125,9.4091796875,11.2109375
0.033,-21.220703125,5.4853515625,14.734375
0.0335,-20.2197265625,1.5615234375,17.5771484375
0.034,-17.8974609375,-2.72265625,19.619140625
0.0345,-15.7353515625,-5.845703125,20.7001953125
0.035,-13.1328125,-9.0888671875,21.4208984375
0.0355,-9.208984375,-12.572265625,21.1005859375
0.036,-4.4443359375,-15.9755859375,19.859375
0.0365,0.2001953125,-18.2177734375,17.8173828125
0.037,4.32421875,-19.9794921875,15.6953125
0.0375,7.3671875,-20.5400390625,13.453125
0.038,10.650390625,-20.7001953125,10.490234375
0.0385,14.25390625,-20.2197265625,6.56640625
0.039,17.2568359375,-18.8583984375,2.322265625
0.0395,19.3388671875,-16.5361328125,-2.08203125
0.04,20.66015625,-14.5341796875,-5.365234375
0.0405,21.2607421875,-11.8515625,-8.6884765625
0.041,21.2607421875,-8.3681640625,-12.1318359375
0.0415,20.6201171875,-4.484375,-15.4150390625
0.042,19.1787109375,-0.6005859375,-17.8173828125
0.0425,16.9365234375,3.5634765625,-19.7392578125
0.043,14.654296875,6.5263671875,-20.4599609375
0.0435,11.8515625,9.609375,-20.8203125
0.044,7.52734375,13.29296875,-20.4599609375
0.0445,3.04296875,16.2958984375,-19.05859375
0.045,-1.5615234375,18.2177734375,-16.6962890625
0.0455,-5.0048828125,19.619140625,-14.974609375
0.046,-8.0478515625,20.1396484375,-12.5322265625
0.0465,-11.291015625,20.01953125,-9.369140625
0.047,-14.7744140625,19.37890625,-5.4453125
0.0475,-17.376953125,17.77734375,-1.28125
0.048,-19.37890625,15.53515625,2.962890625
0.0485,-20.33984375,13.453125,5.92578125
0.049,-20.8603515625,10.650390625,9.2490234375
0.0495,-20.7802734375,6.966796875,12.8125
0.05,-20.01953125,3.3232421875,15.8154296875
0.0505,-18.1376953125,-0.640625,17.8173828125
0.051,-16.3759765625,-4.244140625,19.69921875
0.0515,-13.9736328125,-7.20703125,20.2998046875
0.052,-10.8505859375,-10.25,20.3798828125
0.0525,-6.486328125,-13.853515625,19.8193359375
0.053,-1.8818359375,-16.65625,18.177734375
0.0535,2.482421875,-18.41796875,15.8955078125
0.054,5.365234375,-19.458984375,14.2138671875
0.0545,8.6083984375,-19.939453125,11.6513671875
0.055,12.1318359375,-19.619140625,7.9677734375
0.0555,15.1748046875,-18.818359375,4.32421875
0.056,17.537109375,-16.9765625,0.16015625
0.0565,19.458984375,-15.0546875,-3.7236328125
0.057,20.01953125,-12.65234375,-6.6865234375
0.0575,20.4599609375,-9.9296875,-9.849609375
0.058,20.1796875,-5.92578125,-13.453125
0.0585,19.2587890625,-2.2822265625,-16.2158203125
0.059,17.13671875,1.7216796875,-18.017578125
0.0595,15.4150390625,4.8046875,-19.4990234375
0.06,12.7724609375,7.8876953125,-20.01953125
0.0605,9.0888671875,11.2509765625,-19.859375
0.061,5.0048828125,14.3740234375,-19.05859375
0.0615,0.5205078125,16.81640625,-17.1767578125
0.062,-3.5634765625,18.5380859375,-15.1748046875
0.0625,-6.2861328125,19.1787109375,-13.212890625
0.063,-9.369140625,19.619140625,-10.810546875
0.0635,-13.1728515625,19.05859375,-6.6064453125
0.064,-15.85546875,17.9375,-2.8828125
0.0645,-17.9375,15.935546875,1.12109375
0.065,-19.5791015625,14.09375,4.5244140625
0.0655,-20.01953125,11.451171875,7.5673828125
0.066,-20.33984375,8.4482421875,10.9306640625
0.0665,-19.8994140625,4.724609375,14.2138671875
0.067,-18.578125,0.9208984375,16.7763671875
0.0675,-16.5361328125,-2.962890625,18.5380859375
0.068,-14.654296875,-5.7255859375,19.4990234375
0.0685,-12.1318359375,-8.728515625,20.099609375
0.069,-7.6875,-12.4921875,19.5791015625
0.0695,-3.603515625,-15.21484375,18.3779296875
0.07,0.6806640625,-17.1767578125,16.3359375
0.0705,4.2841796875,-18.8583984375,14.57421875
0.071,7.0869140625,-19.0986328125,12.2119140625
0.0715,10.1298828125,-19.298828125,9.609375
0.072,13.7734375,-18.7783203125,5.60546875
0.0725,16.255859375,-17.2568359375,1.5615234375
0.073,18.09765625,-15.21484375,-2.2822265625
0.0735,19.2587890625,-13.4130859375,-5.1650390625
0.074,19.69921875,-10.73046875,-8.2080078125
0.0745,19.69921875,-7.0869140625,-11.8515625
0.075,19.0986328125,-3.84375,-14.494140625
0.0755,17.45703125,0.0,-16.65625
0.076,15.6552734375,3.5634765625,-18.4580078125
0.0765,13.29296875,6.24609375,-18.8984375
0.077,10.890625,9.048828125,-19.37890625
0.0775,6.2861328125,12.8525390625,-18.73828125
0.078,2.162109375,15.3349609375,-17.2568359375
0.0785,-1.7216796875,16.9365234375,-15.294921875
0.079,-4.7646484375,18.3779296875,-13.8134765625
0.0795,-7.7275390625,18.578125,-11.291015625
0.08,-10.9306640625,18.4580078125,-8.087890625
0.0805,-13.9736328125,17.8974609375,-4.6845703125
0.081,-16.3759765625,16.0556640625,-0.6806640625
0.0815,-18.0576171875,14.25390625,2.8828125
0.082,-18.7783203125,12.251953125,5.685546875
0.0825,-19.37890625,9.8896484375,8.6083984375
0.083,-19.21875,5.8857421875,12.412109375
0.0835,-18.337890625,2.6025390625,14.8544921875
0.084,-16.65625,-0.9609375,16.65625
0.0845,-15.1748046875,-4.1240234375,18.41796875
0.085,-12.572265625,-6.9267578125,18.6982421875
0.0855,-9.5693359375,-9.9697265625,18.818359375
0.086,-5.4453125,-13.29296875,18.2177734375
0.0865,-1.041015625,-15.6552734375,16.3359375
0.087,2.5224609375,-17.1767578125,14.6142578125
0.0875,5.1650390625,-18.09765625,13.0126953125
0.088,8.0478515625,-18.578125,10.810546875
0.0885,11.771484375,-18.09765625,6.7666015625
0.089,14.2939453125,-17.216796875,3.4833984375
0.0895,16.3359375,-15.53515625,-0.2802734375
0.09,18.0576171875,-13.853515625,-3.5634765625
0.0905,18.41796875,-11.37109375,-6.3662109375
0.091,18.9384765625,-8.9287109375,-9.2890625
0.0915,18.658203125,-5.205078125,-12.7724609375
0.092,17.537109375,-1.6015625,-15.21484375
0.0925,15.6953125,1.76171875,-16.736328125
0.093,14.2138671875,4.6044921875,-18.09765625
0.0935,11.7314453125,7.4072265625,-18.578125
0.094,7.6875,11.0107421875,-18.2177734375
0.0945,4.1640625,13.61328125,-17.4970703125
0.095,-0.16015625,15.8154296875,-15.615234375
0.0955,-3.36328125,17.296875,-14.1337890625
0.096,-6.1259765625,17.77734375,-12.01171875
0.0965,-8.9287109375,18.2578125,-9.9296875
0.097,-12.6923828125,17.77734375,-5.765625
0.0975,-15.134765625,16.3359375,-2.08203125
0.098,-16.9365234375,14.734375,1.361328125
0.0985,-18.4580078125,13.0927734375,4.484375
0.099,-18.7783203125,10.5302734375,7.3671875
0.0995,-18.978515625,7.287109375,10.8505859375
0.1,-18.6982421875,4.0439453125,13.7734375
0.1005,-17.216796875,0.2802734375,16.1357421875
0.101,-15.455078125,-3.123046875,17.7373046875
0.1015,-13.453125,-5.8056640625,18.5380859375
0.102,-11.1708984375,-8.6884765625,19.0986328125
0.1025,-6.2861328125,-12.572265625,18.2978515625
0.103,-2.40234375,-15.0146484375,16.9765625
0.1035,1.44140625,-16.7763671875,15.21484375
0.104,4.6044921875,-18.2578125,13.7333984375
0.1045,7.5673828125,-18.3779296875,11.05078125
0.105,10.650390625,-18.4580078125,8.2080078125
0.1055,13.93359375,-17.9775390625,4.484375
0.106,16.3359375,-16.015625,0.400390625
0.1065,17.8974609375,-14.333984375,-2.8828125
0.107,18.8984375,-12.2919921875,-5.8857421875
0.1075,19.2587890625,-9.8896484375,-8.6884765625
0.108,19.05859375,-5.765625,-12.5322265625
0.1085,18.2978515625,-2.6025390625,-14.974609375
0.109,16.576171875,1.12109375,-16.9765625
0.1095,14.89453125,4.32421875,-18.5380859375
0.11,12.171875,7.1669921875,-18.73828125
0.1105,9.44921875,10.169921875,-19.138671875
0.111,4.8046875,13.7734375,-18.2578125
0.1115,0.48046875,15.9755859375,-16.2958984375
0.112,-2.8828125,17.4169921875,-14.6943359375
0.1125,-5.92578125,18.5380859375,-12.97265625
0.113,-8.888671875,18.658203125,-10.3701171875
0.1135,-12.412109375,18.2177734375,-6.486328125
0.114,-15.1748046875,17.3369140625,-3.04296875
0.1145,-17.296875,15.375,1.12109375
0.115,-18.658203125,13.61328125,4.1240234375
0.1155,-19.21875,11.05078125,7.287109375
0.116,-19.619140625,8.6083984375,10.1298828125
0.1165,-19.21875,4.484375,13.8134765625
0.117,-17.8173828125,0.880859375,16.095703125
0.1175,-16.015625,-2.5625,17.6572265625
0.118,-14.4140625,-5.5654296875,19.138671875
0.1185,-11.37109375,-8.4482421875,19.05859375
0.119,-7.7275390625,-11.8115234375,18.8984375
0.1195,-3.5634765625,-14.7744140625,17.9375
0.12,1.0009765625,-16.8564453125,15.6953125
0.1205,4.00390625,-18.09765625,14.09375
0.121,7.046875,-18.73828125,11.8916015625
0.1215,9.8896484375,-18.9384765625,9.44921875
0.122,13.5732421875,-18.09765625,5.125
0.1225,15.9755859375,-16.6962890625,1.4013671875
0.123,17.697265625,-14.9345703125,-2.2421875
0.1235,18.8984375,-13.0126953125,-5.1650390625
0.124,19.138671875,-10.1298828125,-8.248046875
0.1245,19.21875,-7.20703125,-11.291015625
0.125,18.7783203125,-3.6435546875,-14.4140625
0.1255,16.9765625,0.3203125,-16.5361328125
0.126,15.1748046875,3.4033203125,-17.8173828125
0.1265,13.212890625,6.326171875,-18.8984375
0.127,10.4501953125,9.0888671875,-18.978515625
0.1275,5.845703125,12.7724609375,-18.2578125
0.128,2.08203125,15.21484375,-17.056640625
0.1285,-2.08203125,17.0166015625,-15.0947265625
0.129,-4.9248046875,18.1376953125,-13.453125
0.1295,-8.0478515625,18.41796875,-10.890625
0.13,-10.970703125,18.5380859375,-8.2080078125
0.1305,-14.3740234375,17.77734375,-4.1640625
0.131,-16.6162109375,15.85546875,0.0
0.1315,-18.09765625,14.1337890625,3.1630859375
0.132,-19.21875,12.171875,6.166015625
0.1325,-19.4189453125,9.369140625,9.12890625
0.133,-19.21875,5.60546875,12.65234375
0.1335,-18.4580078125,2.322265625,15.2548828125
0.134,-16.65625,-1.6015625,17.3369140625
0.1345,-14.8544921875,-4.5244140625,18.5380859375
0.135,-12.3720703125,-7.4873046875,19.0986328125
0.1355,-9.4091796875,-10.5703125,19.298828125
0.136,-4.6044921875,-14.0537109375,18.2177734375
0.1365,-0.4404296875,-16.255859375,16.3359375
0.137,3.123046875,-17.8974609375,14.6943359375
0.1375,6.0458984375,-18.818359375,12.892578125
0.138,9.12890625,-18.8583984375,10.08984375
0.1385,12.4921875,-18.578125,6.6064453125
0.139,15.4150390625,-17.5771484375,2.802734375
0.1395,17.5771484375,-15.53515625,-1.44140625
0.14,18.7783203125,-13.7734375,-4.32421875
0.1405,19.4990234375,-11.2509765625,-7.4072265625
0.141,19.69921875,-8.3681640625,-10.5703125
0.1415,19.21875,-4.5244140625,-13.9736328125
0.142,17.8974609375,-0.9208984375,-16.2958984375
0.1425,16.095703125,2.802734375,-18.1376953125
0.143,14.09375,5.7255859375,-19.1787109375
0.1435,11.2109375,8.728515625,-19.3388671875
0.144,7.52734375,12.171875,-19.21875
0.1445,3.1630859375,15.21484375,-18.09765625
0.145,-1.44140625,17.13671875,-15.85546875
0.1455,-4.4443359375,18.41796875,-14.25390625
0.146,-7.5673828125,19.1787109375,-12.0517578125
0.1465,-10.650390625,19.138671875,-9.048828125
0.147,-14.1337890625,18.498046875,-5.125
0.1475,-16.6962890625,17.0166015625,-1.1611328125
0.148,-18.73828125,14.974609375,2.8828125
0.1485,-19.619140625,12.97265625,5.765625
0.149,-20.2197265625,10.1298828125,9.12890625
0.1495,-20.2197265625,6.7265625,12.4921875
0.15,-19.5791015625,3.04296875,15.6552734375
0.1505,-17.6572265625,-1.041015625,17.7373046875
0.151,-15.85546875,-4.404296875,19.298828125
0.1515,-13.61328125,-7.4072265625,20.1796875
0.152,-10.2099609375,-10.5703125,20.099609375
0.1525,-5.8857421875,-14.09375,19.4189453125
0.153,-1.361328125,-16.8564453125,17.8974609375
0.1535,3.0830078125,-18.73828125,15.5751953125
0.154,5.92578125,-19.5390625,13.7734375
0.1545,9.2490234375,-20.01953125,11.1708984375
0.155,12.6923828125,-19.69921875,7.52734375
0.1555,15.8955078125,-18.73828125,3.5234375
0.156,18.2177734375,-16.7763671875,-0.720703125
0.1565,20.01953125,-14.7744140625,-4.5244140625
0.157,20.580078125,-12.2919921875,-7.52734375
0.1575,20.900390625,-9.208984375,-10.890625
0.158,20.4599609375,-5.28515625,-14.3740234375
0.1585,19.4990234375,-1.521484375,-17.1767578125
0.159,17.13671875,2.6826171875,-18.978515625
0.1595,15.0947265625,5.7255859375,-20.1396484375
0.16,12.412109375,8.9287109375,-20.7001953125
0.1605,8.48828125,12.33203125,-20.3798828125
0.161,4.0439453125,15.4951171875,-19.2587890625
0.1615,-0.6005859375,17.8173828125,-17.296875
0.162,-4.6044921875,19.5390625,-15.134765625
0.1625,-7.4873046875,19.9794921875,-12.9326171875
0.163,-10.6904296875,20.2998046875,-10.25
0.1635,-14.4140625,19.69921875,-6.0458984375
0.164,-17.2568359375,18.2978515625,-1.9619140625
0.1645,-19.2587890625,16.0556640625,2.322265625
0.165,-20.7802734375,14.0537109375,5.7255859375
0.1655,-21.1806640625,11.2509765625,8.96875
0.166,-21.30078125,7.84765625,12.4921875
0.1665,-20.580078125,3.8837890625,15.7353515625
0.167,-19.138671875,-0.16015625,18.2978515625
0.1675,-16.8564453125,-4.1640625,20.099609375
0.168,-14.57421875,-7.0869140625,20.7802734375
0.1685,-11.771484375,-10.2900390625,21.2607421875
0.169,-7.126953125,-14.1337890625,20.6201171875
0.1695,-2.5625,-16.9765625,19.05859375
0.17,2.001953125,-18.8583984375,16.736328125
0.1705,5.7255859375,-20.419921875,14.8544921875
0.171,8.80859375,-20.5400390625,12.1318359375
0.1715,12.0517578125,-20.580078125,9.0888671875
0.172,15.6953125,-19.859375,4.8046875
0.1725,18.41796875,-17.9775390625,0.3203125
0.173,20.259765625,-15.6953125,-3.8037109375
0.1735,21.220703125,-13.4130859375,-7.046875
0.174,21.6611328125,-10.41015625,-10.41015625
0.1745,21.4208984375,-6.486328125,-14.25390625
0.175,20.4599609375,-2.72265625,-16.9765625
0.1755,18.4580078125,1.5615234375,-19.1787109375
0.176,16.2958984375,5.4052734375,-20.900390625
0.1765,13.4130859375,8.328125,-21.140625
0.177,10.4501953125,11.4912109375,-21.5009765625
0.1775,5.4052734375,15.4150390625,-20.5
0.178,0.720703125,18.09765625,-18.658203125
0.1785,-3.68359375,19.69921875,-16.2158203125
0.179,-7.0068359375,20.900390625,-14.333984375
0.1795,-10.330078125,21.0205078125,-11.2509765625
0.18,-13.8935546875,20.5,-7.4072265625
0.1805,-17.0966796875,19.5791015625,-3.4033203125
0.181,-19.5791015625,17.376953125,1.28125
0.1815,-21.30078125,15.0947265625,5.205078125
0.182,-21.78125,12.33203125,8.4482421875
0.1825,-22.2216796875,9.44921875,11.771484375
0.183,-21.6611328125,4.8046875,15.85546875
0.1835,-20.3798828125,0.9609375,18.41796875
0.184,-17.9775390625,-3.123046875,20.1396484375
0.1845,-16.0556640625,-6.7265625,21.78125
0.185,-12.6923828125,-9.9296875,21.7412109375
0.1855,-8.96875,-13.3330078125,21.5810546875
0.186,-4.1640625,-16.736328125,20.4599609375
0.1865,1.0009765625,-19.2587890625,18.09765625
0.187,5.0048828125,-20.66015625,15.7353515625
0.1875,8.16796875,-21.30078125,13.453125
0.188,11.4912109375,-21.541015625,10.5703125
0.1885,15.4951171875,-20.580078125,5.7255859375
0.189,18.2177734375,-19.1787109375,1.76171875
0.1895,20.33984375,-16.8564453125,-2.6826171875
0.19,21.8212890625,-14.654296875,-6.3662109375
0.1905,21.9013671875,-11.37109375,-9.7294921875
0.191,22.1015625,-8.328125,-12.97265625
0.1915,21.380859375,-3.8837890625,-16.6162109375
0.192,19.5791015625,0.4404296875,-19.0986328125
0.1925,17.056640625,4.244140625,-20.5
0.193,14.89453125,7.52734375,-21.7412109375
0.1935,11.611328125,10.73046875,-21.8212890625
0.194,6.7265625,14.6142578125,-21.060546875
0.1945,2.6025390625,17.3369140625,-19.779296875
0.195,-2.4423828125,19.5390625,-17.1767578125
0.1955,-6.1259765625,20.8603515625,-15.0947265625
0.196,-9.369140625,21.0205078125,-12.171875
0.1965,-12.412109375,21.220703125,-9.4892578125
0.197,-16.4560546875,20.1396484375,-4.5244140625
0.1975,-18.978515625,18.1376953125,0.0
0.198,-20.66015625,15.85546875,3.84375
0.1985,-21.94140625,13.5732421875,7.3671875
0.199,-21.94140625,10.2099609375,10.73046875
0.1995,-21.8212890625,6.4462890625,14.3740234375
0.2,-20.98046875,2.642578125,17.296875
0.2005,-18.9384765625,-1.8818359375,19.69921875
0.201,-16.49609375,-5.525390625,21.060546875
0.2015,-13.8134765625,-8.6884765625,21.62109375
0.202,-10.890625,-11.69140625,21.94140625
0.2025,-5.28515625,-15.85546875,20.6201171875
0.203,-0.8408203125,-18.2177734375,18.73828125
0.2035,3.5234375,-19.9794921875,16.49609375
0.204,7.046875,-21.220703125,14.4541015625
0.2045,10.490234375,-21.060546875,11.0107421875
0.205,13.6533203125,-20.8603515625,7.8076171875
0.2055,17.13671875,-19.859375,3.4033203125
0.206,19.619140625,-17.45703125,-1.44140625
0.2065,20.98046875,-15.2548828125,-4.96484375
0.207,21.8212890625,-12.6923828125,-8.328125
0.2075,21.94140625,-9.689453125,-11.451171875
0.208,21.380859375,-5.125,-15.455078125
0.2085,20.1796875,-1.5615234375,-17.9375
0.209,18.017578125,2.72265625,-19.939453125
0.2095,15.85546875,6.24609375,-21.3408203125
0.21,12.4521484375,9.529296875,-21.30078125
0.2105,9.3291015625,12.732421875,-21.5009765625
0.211,4.0439453125,16.49609375,-20.2197265625
0.2115,-0.9208984375,18.73828125,-17.8173828125
0.212,-4.564453125,20.1396484375,-15.7353515625
0.2125,-7.9677734375,21.1806640625,-13.6533203125
0.213,-11.291015625,21.060546875,-10.41015625
0.2135,-15.0146484375,20.2998046875,-6.1259765625
0.214,-17.8974609375,19.0986328125,-2.08203125
0.2145,-20.1396484375,16.65625,2.5625
0.215,-21.3408203125,14.4140625,5.9658203125
0.2155,-21.861328125,11.37109375,9.529296875
0.216,-22.1015625,8.4482421875,12.6123046875
0.2165,-21.3408203125,3.84375,16.49609375
0.217,-19.5390625,-0.3603515625,18.8583984375
0.2175,-17.376953125,-4.1640625,20.5
0.218,-15.3349609375,-7.447265625,21.9013671875
0.2185,-11.611328125,-10.8505859375,21.6611328125
0.219,-7.52734375,-14.3740234375,21.30078125
0.2195,-2.72265625,-17.5771484375,19.939453125
0.22,2.482421875,-19.7392578125,17.2568359375
