wavelength,x,y,z
0.0,-4.154052734375,4.134033203125,-0.390380859375
0.0005,-4.714599609375,4.013916015625,0.250244140625
0.001,-4.674560546875,3.133056640625,1.091064453125
0.0015,-4.874755859375,2.692626953125,1.691650390625
0.002,-5.074951171875,1.651611328125,2.932861328125
0.0025,-4.794677734375,0.930908203125,3.373291015625
0.003,-4.394287109375,-0.150146484375,3.973876953125
0.0035,-3.833740234375,-1.111083984375,4.334228515625
0.004,-3.072998046875,-1.991943359375,4.494384765625
0.0045,-2.312255859375,-2.912841796875,4.614501953125
0.005,-1.431396484375,-3.993896484375,4.774658203125
0.0055,-0.470458984375,-4.274169921875,4.093994140625
0.006,0.210205078125,-4.874755859375,4.013916015625
0.0065,1.291259765625,-4.994873046875,3.052978515625
0.007,2.052001953125,-5.235107421875,2.572509765625
0.0075,3.333251953125,-5.395263671875,1.451416015625
0.008,3.973876953125,-5.275146484375,0.690673828125
0.0085,4.214111328125,-4.634521484375,-0.270263671875
0.009,4.614501953125,-4.434326171875,-0.830810546875
0.0095,4.574462890625,-3.473388671875,-1.791748046875
0.01,4.614501953125,-2.832763671875,-2.352294921875
0.0105,4.814697265625,-1.831787109375,-3.553466796875
0.011,4.254150390625,-0.910888671875,-3.833740234375
0.0115,3.893798828125,0.090087890625,-4.434326171875
0.012,3.133056640625,1.091064453125,-4.554443359375
0.0125,2.452392578125,1.931884765625,-4.754638671875
0.013,1.611572265625,2.852783203125,-4.834716796875
0.0135,0.770751953125,3.893798828125,-4.954833984375
0.014,-0.310302734375,4.134033203125,-4.114013671875
0.0145,-0.990966796875,4.774658203125,-4.073974609375
0.015,-2.192138671875,4.814697265625,-2.952880859375
0.0155,-2.872802734375,4.974853515625,-2.432373046875
0.016,-4.234130859375,5.135009765625,-1.311279296875
0.0165,-4.794677734375,4.774658203125,-0.470458984375
0.017,-5.074951171875,4.134033203125,0.490478515625
0.0175,-5.435302734375,3.773681640625,1.211181640625
0.018,-5.435302734375,2.772705078125,2.252197265625
0.0185,-5.395263671875,2.052001953125,2.852783203125
0.019,-5.595458984375,1.091064453125,4.013916015625
0.0195,-4.754638671875,0.010009765625,4.334228515625
0.02,-4.354248046875,-1.031005859375,4.814697265625
0.0205,-3.393310546875,-2.152099609375,4.974853515625
0.021,-2.592529296875,-3.072998046875,5.014892578125
0.0215,-1.671630859375,-3.993896484375,4.974853515625
0.022,-0.670654296875,-4.954833984375,4.934814453125
0.0225,0.370361328125,-5.074951171875,3.973876953125
0.023,1.051025390625,-5.595458984375,3.853759765625
0.0235,2.492431640625,-5.635498046875,2.532470703125
0.024,3.093017578125,-5.635498046875,1.931884765625
0.0245,4.214111328125,-5.755615234375,0.850830078125
0.025,4.614501953125,-5.195068359375,0.010009765625
0.0255,4.814697265625,-4.594482421875,-0.910888671875
0.026,5.094970703125,-3.993896484375,-1.631591796875
0.0265,5.014892578125,-2.912841796875,-2.632568359375
0.027,4.894775390625,-2.232177734375,-3.193115234375
0.0275,5.014892578125,-1.271240234375,-4.274169921875
0.028,4.013916015625,-0.070068359375,-4.394287109375
0.0285,3.773681640625,0.770751953125,-4.914794921875
0.029,2.612548828125,1.931884765625,-4.954833984375
0.0295,1.971923828125,2.732666015625,-5.074951171875
0.03,1.091064453125,3.613525390625,-4.994873046875
0.0305,0.090087890625,4.414306640625,-4.794677734375
0.031,-0.990966796875,4.574462890625,-3.913818359375
0.0315,-1.711669921875,5.094970703125,-3.673583984375
0.032,-3.153076171875,5.135009765625,-2.392333984375
0.0325,-3.633544921875,5.094970703125,-1.911865234375
0.033,-4.754638671875,5.094970703125,-0.790771484375
0.0335,-5.074951171875,4.494384765625,0.090087890625
0.034,-5.355224609375,4.013916015625,0.930908203125
0.0345,-5.515380859375,3.293212890625,1.811767578125
0.035,-5.515380859375,2.292236328125,2.772705078125
0.0355,-5.315185546875,1.571533203125,3.333251953125
0.036,-5.395263671875,0.570556640625,4.294189453125
0.0365,-4.274169921875,-0.710693359375,4.454345703125
0.037,-4.073974609375,-1.511474609375,4.974853515625
0.0375,-2.832763671875,-2.832763671875,4.974853515625
0.038,-2.232177734375,-3.513427734375,5.054931640625
0.0385,-1.191162109375,-4.314208984375,4.814697265625
0.039,-0.270263671875,-4.954833984375,4.494384765625
0.0395,0.770751953125,-5.114990234375,3.693603515625
0.04,1.571533203125,-5.555419921875,3.293212890625
0.0405,2.892822265625,-5.635498046875,2.011962890625
0.041,3.333251953125,-5.555419921875,1.531494140625
0.0415,4.334228515625,-5.475341796875,0.530517578125
0.042,4.454345703125,-4.674560546875,-0.350341796875
0.0425,4.734619140625,-4.274169921875,-1.031005859375
0.043,4.814697265625,-3.393310546875,-1.991943359375
0.0435,4.854736328125,-2.632568359375,-2.752685546875
0.044,4.614501953125,-1.791748046875,-3.353271484375
0.0445,4.534423828125,-0.950927734375,-4.154052734375
0.045,3.493408203125,0.290283203125,-4.234130859375
0.0455,3.373291015625,1.010986328125,-4.754638671875
0.046,2.052001953125,2.292236328125,-4.754638671875
0.0465,1.731689453125,2.852783203125,-4.874755859375
0.047,0.650634765625,3.693603515625,-4.634521484375
0.0475,-0.310302734375,4.134033203125,-4.194091796875
0.048,-1.151123046875,4.454345703125,-3.553466796875
0.0485,-2.072021484375,4.734619140625,-3.072998046875
0.049,-3.233154296875,4.814697265625,-2.031982421875
0.0495,-3.673583984375,4.694580078125,-1.471435546875
0.05,-4.514404296875,4.654541015625,-0.590576171875
0.0505,-4.634521484375,3.853759765625,0.370361328125
0.051,-4.994873046875,3.653564453125,0.930908203125
0.0515,-4.994873046875,2.572509765625,1.971923828125
0.052,-5.114990234375,2.092041015625,2.572509765625
0.0525,-4.834716796875,1.131103515625,3.213134765625
0.053,-4.634521484375,0.290283203125,3.853759765625
0.0535,-3.713623046875,-0.910888671875,4.053955078125
0.054,-3.553466796875,-1.591552734375,4.494384765625
0.0545,-2.312255859375,-2.832763671875,4.494384765625
0.055,-1.991943359375,-3.233154296875,4.534423828125
0.0555,-0.990966796875,-4.033935546875,4.334228515625
0.056,-0.150146484375,-4.354248046875,3.813720703125
0.0565,0.650634765625,-4.754638671875,3.373291015625
0.057,1.651611328125,-4.994873046875,2.612548828125
0.0575,2.572509765625,-5.155029296875,1.931884765625
0.058,3.052978515625,-4.914794921875,1.291259765625
0.0585,3.693603515625,-4.834716796875,0.610595703125
0.059,3.813720703125,-4.033935546875,-0.310302734375
0.0595,4.174072265625,-3.993896484375,-0.790771484375
0.06,4.174072265625,-2.912841796875,-1.831787109375
0.0605,4.334228515625,-2.592529296875,-2.272216796875
0.061,4.134033203125,-1.631591796875,-3.032958984375
0.0615,3.813720703125,-0.830810546875,-3.473388671875
0.062,3.173095703125,0.250244140625,-3.793701171875
0.0625,2.852783203125,0.890869140625,-4.154052734375
0.063,1.971923828125,1.931884765625,-4.314208984375
0.0635,1.571533203125,2.412353515625,-4.314208984375
0.064,0.650634765625,3.213134765625,-4.194091796875
0.0645,-0.270263671875,3.453369140625,-3.593505859375
0.065,-0.950927734375,3.973876953125,-3.473388671875
0.0655,-2.072021484375,4.134033203125,-2.512451171875
0.066,-2.712646484375,4.414306640625,-2.072021484375
0.0665,-3.273193359375,4.134033203125,-1.271240234375
0.067,-3.833740234375,4.093994140625,-0.630615234375
0.0675,-3.993896484375,3.373291015625,0.170166015625
0.068,-4.354248046875,3.213134765625,0.650634765625
0.0685,-4.434326171875,2.292236328125,1.651611328125
0.069,-4.474365234375,1.931884765625,2.052001953125
0.0695,-4.354248046875,1.051025390625,2.852783203125
0.07,-3.833740234375,0.170166015625,3.173095703125
0.0705,-3.473388671875,-0.710693359375,3.653564453125
0.071,-2.872802734375,-1.471435546875,3.853759765625
0.0715,-2.392333984375,-2.272216796875,4.093994140625
0.072,-1.791748046875,-2.752685546875,3.853759765625
0.0725,-1.111083984375,-3.473388671875,3.853759765625
0.073,-0.270263671875,-3.713623046875,3.253173828125
0.0735,0.370361328125,-4.234130859375,3.173095703125
0.074,1.451416015625,-4.314208984375,2.252197265625
0.0745,1.931884765625,-4.594482421875,2.052001953125
0.075,2.532470703125,-4.354248046875,1.291259765625
0.0755,2.892822265625,-4.194091796875,0.730712890625
0.076,3.213134765625,-3.793701171875,0.010009765625
0.0765,3.453369140625,-3.473388671875,-0.510498046875
0.077,3.773681640625,-2.912841796875,-1.351318359375
0.0775,3.693603515625,-2.472412109375,-1.791748046875
0.078,3.773681640625,-1.711669921875,-2.552490234375
0.0785,3.133056640625,-0.790771484375,-2.832763671875
0.079,3.093017578125,-0.110107421875,-3.473388671875
0.0795,2.332275390625,0.810791015625,-3.593505859375
0.08,2.252197265625,1.411376953125,-4.033935546875
0.0805,1.411376953125,1.971923828125,-3.833740234375
0.081,0.810791015625,2.612548828125,-3.833740234375
0.0815,0.010009765625,2.932861328125,-3.313232421875
0.082,-0.790771484375,3.533447265625,-3.113037109375
0.0825,-1.791748046875,3.773681640625,-2.352294921875
0.083,-2.272216796875,3.893798828125,-2.031982421875
0.0835,-2.912841796875,3.853759765625,-1.271240234375
0.084,-3.233154296875,3.493408203125,-0.670654296875
0.0845,-3.713623046875,3.333251953125,0.010009765625
0.085,-3.833740234375,2.692626953125,0.650634765625
0.0855,-4.194091796875,2.412353515625,1.331298828125
0.086,-3.993896484375,1.651611328125,1.851806640625
0.0865,-3.993896484375,1.010986328125,2.532470703125
0.087,-3.353271484375,0.010009765625,2.852783203125
0.0875,-3.313232421875,-0.630615234375,3.373291015625
0.088,-2.552490234375,-1.591552734375,3.533447265625
0.0885,-2.312255859375,-2.072021484375,3.773681640625
0.089,-1.551513671875,-2.672607421875,3.533447265625
0.0895,-0.990966796875,-3.153076171875,3.373291015625
0.09,-0.230224609375,-3.513427734375,3.093017578125
0.0905,0.610595703125,-3.873779296875,2.652587890625
0.091,1.411376953125,-4.194091796875,2.172119140625
0.0915,1.851806640625,-4.114013671875,1.691650390625
0.092,2.412353515625,-4.194091796875,1.211181640625
0.0925,2.612548828125,-3.673583984375,0.490478515625
0.093,3.052978515625,-3.713623046875,0.050048828125
0.0935,3.173095703125,-2.952880859375,-0.750732421875
0.094,3.573486328125,-2.872802734375,-1.231201171875
0.0945,3.373291015625,-1.991943359375,-1.871826171875
0.095,3.333251953125,-1.471435546875,-2.312255859375
0.0955,2.852783203125,-0.510498046875,-2.832763671875
0.096,2.732666015625,0.050048828125,-3.233154296875
0.0965,2.252197265625,0.930908203125,-3.593505859375
0.097,1.931884765625,1.331298828125,-3.713623046875
0.0975,1.171142578125,2.092041015625,-3.713623046875
0.098,0.450439453125,2.532470703125,-3.353271484375
0.0985,-0.270263671875,3.133056640625,-3.193115234375
0.099,-1.231201171875,3.413330078125,-2.552490234375
0.0995,-1.951904296875,3.853759765625,-2.272216796875
0.1,-2.432373046875,3.613525390625,-1.591552734375
0.1005,-2.992919921875,3.733642578125,-1.151123046875
0.101,-3.273193359375,3.173095703125,-0.350341796875
0.1015,-3.713623046875,3.093017578125,0.170166015625
0.102,-3.913818359375,2.412353515625,1.091064453125
0.1025,-4.033935546875,2.052001953125,1.531494140625
0.103,-3.913818359375,1.211181640625,2.252197265625
0.1035,-3.593505859375,0.410400390625,2.692626953125
0.104,-3.233154296875,-0.470458984375,3.133056640625
0.1045,-2.792724609375,-1.271240234375,3.373291015625
0.105,-2.352294921875,-1.991943359375,3.733642578125
0.1055,-1.791748046875,-2.432373046875,3.533447265625
0.106,-1.151123046875,-3.072998046875,3.573486328125
0.1065,-0.390380859375,-3.313232421875,3.052978515625
0.107,0.290283203125,-3.833740234375,2.892822265625
0.1075,1.291259765625,-4.073974609375,2.132080078125
0.108,1.891845703125,-4.234130859375,1.771728515625
0.1085,2.372314453125,-3.993896484375,1.091064453125
0.109,2.732666015625,-3.913818359375,0.610595703125
0.1095,3.012939453125,-3.473388671875,0.010009765625
0.11,3.213134765625,-3.153076171875,-0.630615234375
0.1105,3.573486328125,-2.672607421875,-1.431396484375
0.111,3.413330078125,-2.072021484375,-1.871826171875
0.1115,3.413330078125,-1.391357421875,-2.552490234375
0.112,2.852783203125,-0.470458984375,-2.832763671875
0.1125,2.732666015625,0.130126953125,-3.353271484375
0.113,2.092041015625,1.010986328125,-3.553466796875
0.1135,1.811767578125,1.611572265625,-3.913818359375
0.114,1.010986328125,2.212158203125,-3.553466796875
0.1145,0.450439453125,2.852783203125,-3.633544921875
0.115,-0.510498046875,3.133056640625,-3.032958984375
0.1155,-1.191162109375,3.613525390625,-2.792724609375
0.116,-2.272216796875,3.893798828125,-1.991943359375
0.1165,-2.752685546875,3.853759765625,-1.511474609375
0.117,-3.353271484375,3.773681640625,-0.790771484375
0.1175,-3.673583984375,3.373291015625,-0.190185546875
0.118,-3.993896484375,3.052978515625,0.530517578125
0.1185,-4.114013671875,2.412353515625,1.291259765625
0.119,-4.474365234375,1.931884765625,2.132080078125
0.1195,-3.993896484375,0.970947265625,2.532470703125
0.12,-3.993896484375,0.250244140625,3.253173828125
0.1205,-3.193115234375,-0.830810546875,3.413330078125
0.121,-2.952880859375,-1.511474609375,3.813720703125
0.1215,-2.112060546875,-2.552490234375,3.973876953125
0.122,-1.551513671875,-3.072998046875,3.973876953125
0.1225,-0.710693359375,-3.553466796875,3.573486328125
0.123,-0.070068359375,-3.993896484375,3.453369140625
0.1235,0.890869140625,-4.194091796875,2.692626953125
0.124,1.651611328125,-4.514404296875,2.252197265625
0.1245,2.732666015625,-4.794677734375,1.411376953125
0.125,3.012939453125,-4.314208984375,0.730712890625
0.1255,3.533447265625,-4.234130859375,0.130126953125
0.126,3.573486328125,-3.553466796875,-0.590576171875
0.1265,3.853759765625,-3.193115234375,-1.191162109375
0.127,3.893798828125,-2.392333984375,-2.031982421875
0.1275,4.093994140625,-1.831787109375,-2.752685546875
0.128,3.413330078125,-0.790771484375,-3.072998046875
0.1285,3.333251953125,-0.190185546875,-3.673583984375
0.129,2.492431640625,0.770751953125,-3.753662109375
0.1295,2.212158203125,1.411376953125,-4.114013671875
0.13,1.371337890625,2.532470703125,-4.234130859375
0.1305,0.650634765625,2.972900390625,-3.993896484375
0.131,-0.110107421875,3.493408203125,-3.713623046875
0.1315,-0.910888671875,3.853759765625,-3.273193359375
0.132,-1.871826171875,4.093994140625,-2.592529296875
0.1325,-2.672607421875,4.334228515625,-1.991943359375
0.133,-3.713623046875,4.494384765625,-1.231201171875
0.1335,-3.913818359375,3.853759765625,-0.350341796875
0.134,-4.474365234375,3.853759765625,0.210205078125
0.1345,-4.514404296875,3.012939453125,1.131103515625
0.135,-4.754638671875,2.572509765625,1.731689453125
0.1355,-4.834716796875,1.651611328125,2.692626953125
0.136,-4.754638671875,0.930908203125,3.333251953125
0.1365,-3.993896484375,-0.310302734375,3.693603515625
0.137,-3.833740234375,-1.031005859375,4.214111328125
0.1375,-2.752685546875,-2.192138671875,4.294189453125
0.138,-2.352294921875,-2.792724609375,4.494384765625
0.1385,-1.351318359375,-3.873779296875,4.534423828125
0.139,-0.470458984375,-4.234130859375,4.013916015625
0.1395,0.290283203125,-4.674560546875,3.733642578125
0.14,1.411376953125,-5.034912109375,2.972900390625
0.1405,2.372314453125,-5.114990234375,2.172119140625
0.141,3.133056640625,-5.155029296875,1.451416015625
0.1415,3.973876953125,-5.195068359375,0.610595703125
0.142,4.093994140625,-4.354248046875,-0.310302734375
0.1425,4.494384765625,-4.234130859375,-0.830810546875
0.143,4.534423828125,-3.113037109375,-1.951904296875
0.1435,4.534423828125,-2.592529296875,-2.472412109375
0.144,4.534423828125,-1.631591796875,-3.393310546875
0.1445,4.174072265625,-0.790771484375,-3.953857421875
0.145,3.413330078125,0.290283203125,-4.194091796875
0.1455,3.052978515625,1.091064453125,-4.554443359375
0.146,1.931884765625,2.292236328125,-4.594482421875
0.1465,1.491455078125,2.852783203125,-4.634521484375
0.147,0.490478515625,3.853759765625,-4.634521484375
0.1475,-0.510498046875,4.093994140625,-3.913818359375
0.148,-1.231201171875,4.534423828125,-3.633544921875
0.1485,-2.512451171875,4.814697265625,-2.672607421875
0.149,-3.313232421875,4.854736328125,-1.911865234375
0.1495,-4.033935546875,4.774658203125,-1.111083984375
0.15,-4.794677734375,4.694580078125,-0.310302734375
0.1505,-4.874755859375,3.813720703125,0.650634765625
0.151,-5.275146484375,3.653564453125,1.211181640625
0.1515,-5.275146484375,2.412353515625,2.452392578125
0.152,-5.235107421875,1.891845703125,2.892822265625
0.1525,-5.195068359375,0.770751953125,3.853759765625
0.153,-4.634521484375,-0.270263671875,4.294189453125
0.1535,-3.873779296875,-1.351318359375,4.574462890625
0.154,-3.313232421875,-2.272216796875,4.974853515625
0.1545,-2.152099609375,-3.473388671875,4.974853515625
0.155,-1.551513671875,-3.953857421875,4.814697265625
0.1555,-0.510498046875,-4.874755859375,4.734619140625
0.156,0.570556640625,-5.074951171875,3.853759765625
0.1565,1.291259765625,-5.475341796875,3.493408203125
0.157,2.692626953125,-5.675537109375,2.332275390625
0.1575,3.533447265625,-5.635498046875,1.531494140625
0.158,4.134033203125,-5.395263671875,0.650634765625
0.1585,4.774658203125,-5.155029296875,-0.190185546875
0.159,4.774658203125,-4.154052734375,-1.151123046875
0.1595,5.054931640625,-3.833740234375,-1.751708984375
0.16,5.014892578125,-2.512451171875,-3.032958984375
0.1605,4.814697265625,-1.991943359375,-3.353271484375
0.161,4.614501953125,-0.910888671875,-4.274169921875
0.1615,3.893798828125,0.170166015625,-4.594482421875
0.162,3.173095703125,1.211181640625,-4.794677734375
0.1625,2.492431640625,2.172119140625,-4.994873046875
0.163,1.451416015625,3.293212890625,-5.034912109375
0.1635,0.770751953125,3.693603515625,-4.754638671875
0.164,-0.270263671875,4.534423828125,-4.554443359375
0.1645,-1.311279296875,4.654541015625,-3.673583984375
0.165,-2.031982421875,5.054931640625,-3.353271484375
0.1655,-3.473388671875,5.175048828125,-2.031982421875
0.166,-4.114013671875,5.094970703125,-1.391357421875
0.1665,-4.714599609375,4.774658203125,-0.470458984375
0.167,-5.275146484375,4.494384765625,0.410400390625
0.1675,-5.275146484375,3.533447265625,1.291259765625
0.168,-5.475341796875,3.133056640625,1.931884765625
0.1685,-5.555419921875,1.851806640625,3.173095703125
0.169,-5.275146484375,1.211181640625,3.493408203125
0.1695,-5.074951171875,0.130126953125,4.374267578125
0.17,-4.154052734375,-1.031005859375,4.614501953125
0.1705,-3.553466796875,-1.951904296875,4.934814453125
0.171,-2.632568359375,-3.032958984375,5.054931640625
0.1715,-1.751708984375,-4.033935546875,5.094970703125
0.172,-0.870849609375,-4.434326171875,4.614501953125
0.1725,0.130126953125,-5.195068359375,4.414306640625
0.173,1.131103515625,-5.235107421875,3.453369140625
0.1735,1.851806640625,-5.635498046875,3.133056640625
0.174,3.293212890625,-5.715576171875,1.771728515625
0.1745,3.853759765625,-5.595458984375,1.131103515625
0.175,4.374267578125,-5.114990234375,0.130126953125
0.1755,4.814697265625,-4.714599609375,-0.630615234375
0.176,4.774658203125,-3.833740234375,-1.511474609375
0.1765,4.854736328125,-3.273193359375,-2.232177734375
0.177,4.974853515625,-2.232177734375,-3.353271484375
0.1775,4.534423828125,-1.471435546875,-3.593505859375
0.178,4.334228515625,-0.430419921875,-4.394287109375
0.1785,3.333251953125,0.690673828125,-4.514404296875
0.179,2.932861328125,1.491455078125,-4.794677734375
0.1795,1.931884765625,2.572509765625,-4.834716796875
0.18,1.291259765625,3.373291015625,-4.994873046875
0.1805,0.290283203125,3.773681640625,-4.354248046875
0.181,-0.590576171875,4.494384765625,-4.194091796875
0.1815,-1.591552734375,4.494384765625,-3.233154296875
0.182,-2.312255859375,4.894775390625,-2.912841796875
0.1825,-3.713623046875,5.014892578125,-1.671630859375
0.183,-4.114013671875,4.814697265625,-1.111083984375
0.1835,-4.714599609375,4.414306640625,-0.110107421875
0.184,-4.994873046875,3.893798828125,0.650634765625
0.1845,-5.114990234375,3.213134765625,1.411376953125
0.185,-5.155029296875,2.492431640625,2.212158203125
0.1855,-5.355224609375,1.611572265625,3.173095703125
0.186,-4.754638671875,0.770751953125,3.493408203125
0.1865,-4.634521484375,-0.190185546875,4.254150390625
0.187,-3.553466796875,-1.351318359375,4.334228515625
0.1875,-3.233154296875,-2.072021484375,4.694580078125
0.188,-2.112060546875,-3.193115234375,4.694580078125
