wavelength,x,y,z
0.0,-4.654541015625,-3.653564453125,6.796630859375
0.0005,-5.695556640625,-2.332275390625,6.796630859375
0.001,-6.216064453125,-1.171142578125,6.516357421875
0.0015,-6.336181640625,-0.290283203125,6.156005859375
0.002,-6.256103515625,0.790771484375,5.435302734375
0.0025,-6.015869140625,1.951904296875,4.314208984375
0.003,-5.775634765625,3.273193359375,3.032958984375
0.0035,-5.415283203125,4.474365234375,1.631591796875
0.004,-4.854736328125,5.155029296875,0.670654296875
0.0045,-4.294189453125,5.595458984375,-0.290283203125
0.005,-3.333251953125,5.755615234375,-1.291259765625
0.0055,-1.891845703125,5.875732421875,-2.812744140625
0.006,-0.610595703125,5.995849609375,-4.214111328125
0.0065,0.630615234375,5.755615234375,-5.175048828125
0.007,1.311279296875,5.715576171875,-5.895751953125
0.0075,2.232177734375,5.155029296875,-6.416259765625
0.008,3.393310546875,4.114013671875,-6.776611328125
0.0085,4.674560546875,2.672607421875,-6.976806640625
0.009,5.595458984375,1.191162109375,-6.776611328125
0.0095,5.955810546875,0.190185546875,-6.496337890625
0.01,5.995849609375,-0.690673828125,-6.095947265625
0.0105,5.835693359375,-1.651611328125,-5.255126953125
0.011,5.595458984375,-2.932861328125,-3.973876953125
0.0115,5.355224609375,-4.254150390625,-2.692626953125
0.012,4.914794921875,-5.295166015625,-1.451416015625
0.0125,4.434326171875,-5.855712890625,-0.570556640625
0.013,3.753662109375,-6.256103515625,0.430419921875
0.0135,2.712646484375,-6.376220703125,1.511474609375
0.014,1.271240234375,-6.496337890625,3.072998046875
0.0145,-0.170166015625,-6.496337890625,4.394287109375
0.015,-1.010986328125,-6.416259765625,5.235107421875
0.0155,-1.731689453125,-6.296142578125,5.915771484375
0.016,-2.812744140625,-5.575439453125,6.396240234375
0.0165,-4.134033203125,-4.334228515625,6.676513671875
0.017,-5.255126953125,-3.052978515625,6.876708984375
0.0175,-6.055908203125,-1.771728515625,6.596435546875
0.018,-6.256103515625,-0.730712890625,6.356201171875
0.0185,-6.296142578125,0.270263671875,5.835693359375
0.019,-6.095947265625,1.271240234375,4.994873046875
0.0195,-5.855712890625,2.632568359375,3.593505859375
0.02,-5.615478515625,3.953857421875,2.272216796875
0.0205,-5.135009765625,4.834716796875,1.151123046875
0.021,-4.614501953125,5.395263671875,0.310302734375
0.0215,-3.813720703125,5.635498046875,-0.770751953125
0.022,-2.572509765625,5.755615234375,-2.052001953125
0.0225,-1.291259765625,5.995849609375,-3.533447265625
0.023,0.150146484375,5.835693359375,-4.814697265625
0.0235,0.950927734375,5.795654296875,-5.615478515625
0.024,1.711669921875,5.555419921875,-6.216064453125
0.0245,2.872802734375,4.594482421875,-6.696533203125
0.025,4.274169921875,3.153076171875,-6.936767578125
0.0255,5.355224609375,1.791748046875,-7.056884765625
0.026,5.835693359375,0.630615234375,-6.696533203125
0.0265,6.075927734375,-0.330322265625,-6.336181640625
0.027,5.955810546875,-1.291259765625,-5.655517578125
0.0275,5.755615234375,-2.452392578125,-4.574462890625
0.028,5.555419921875,-3.853759765625,-3.213134765625
0.0285,5.114990234375,-5.094970703125,-1.811767578125
0.029,4.634521484375,-5.815673828125,-0.770751953125
0.0295,4.073974609375,-6.296142578125,0.190185546875
0.03,3.113037109375,-6.496337890625,1.231201171875
0.0305,1.591552734375,-6.656494140625,2.832763671875
0.031,0.270263671875,-6.736572265625,4.314208984375
0.0315,-0.970947265625,-6.536376953125,5.275146484375
0.032,-1.651611328125,-6.456298828125,5.995849609375
0.0325,-2.612548828125,-5.895751953125,6.556396484375
0.033,-3.893798828125,-4.734619140625,6.916748046875
0.0335,-5.175048828125,-3.253173828125,7.076904296875
0.034,-6.135986328125,-1.771728515625,6.916748046875
0.0345,-6.456298828125,-0.690673828125,6.476318359375
0.035,-6.456298828125,0.230224609375,6.035888671875
0.0355,-6.256103515625,1.271240234375,5.114990234375
0.036,-5.975830078125,2.632568359375,3.753662109375
0.0365,-5.735595703125,3.873779296875,2.472412109375
0.037,-5.215087890625,4.874755859375,1.151123046875
0.0375,-4.654541015625,5.435302734375,0.270263671875
0.038,-3.893798828125,5.715576171875,-0.730712890625
0.0385,-2.852783203125,5.835693359375,-1.771728515625
0.039,-1.411376953125,5.995849609375,-3.333251953125
0.0395,0.070068359375,5.915771484375,-4.734619140625
0.04,0.950927734375,5.755615234375,-5.495361328125
0.0405,1.591552734375,5.555419921875,-6.095947265625
0.041,2.592529296875,4.794677734375,-6.536376953125
0.0415,3.793701171875,3.513427734375,-6.736572265625
0.042,4.954833984375,2.312255859375,-6.936767578125
0.0425,5.675537109375,0.950927734375,-6.656494140625
0.043,5.875732421875,0.030029296875,-6.376220703125
0.0435,5.875732421875,-0.890869140625,-5.815673828125
0.044,5.675537109375,-1.771728515625,-5.054931640625
0.0445,5.395263671875,-3.133056640625,-3.693603515625
0.045,5.114990234375,-4.374267578125,-2.412353515625
0.0455,4.714599609375,-5.215087890625,-1.291259765625
0.046,4.234130859375,-5.735595703125,-0.490478515625
0.0465,3.513427734375,-6.095947265625,0.510498046875
0.047,2.432373046875,-6.256103515625,1.631591796875
0.0475,1.231201171875,-6.416259765625,3.032958984375
0.048,-0.250244140625,-6.336181640625,4.314208984375
0.0485,-0.970947265625,-6.416259765625,5.114990234375
0.049,-1.691650390625,-6.216064453125,5.755615234375
0.0495,-2.852783203125,-5.575439453125,6.276123046875
0.05,-4.093994140625,-4.093994140625,6.556396484375
0.0505,-5.175048828125,-2.852783203125,6.676513671875
0.051,-5.775634765625,-1.651611328125,6.436279296875
0.0515,-6.055908203125,-0.810791015625,6.196044921875
0.052,-6.095947265625,0.150146484375,5.635498046875
0.0525,-5.895751953125,1.231201171875,4.714599609375
0.053,-5.735595703125,2.512451171875,3.553466796875
0.0535,-5.415283203125,3.793701171875,2.232177734375
0.054,-4.974853515625,4.554443359375,1.231201171875
0.0545,-4.494384765625,5.114990234375,0.390380859375
0.055,-3.773681640625,5.355224609375,-0.610595703125
0.0555,-2.452392578125,5.515380859375,-2.052001953125
0.056,-1.251220703125,5.755615234375,-3.453369140625
0.0565,0.030029296875,5.555419921875,-4.494384765625
0.057,0.670654296875,5.595458984375,-5.295166015625
0.0575,1.591552734375,5.155029296875,-5.935791015625
0.058,2.632568359375,4.394287109375,-6.256103515625
0.0585,3.873779296875,3.193115234375,-6.536376953125
0.059,4.874755859375,1.791748046875,-6.456298828125
0.0595,5.355224609375,0.790771484375,-6.256103515625
0.06,5.515380859375,0.030029296875,-5.975830078125
0.0605,5.475341796875,-0.970947265625,-5.375244140625
0.061,5.275146484375,-2.092041015625,-4.334228515625
0.0615,5.114990234375,-3.333251953125,-3.213134765625
0.062,4.794677734375,-4.414306640625,-2.052001953125
0.0625,4.434326171875,-5.094970703125,-1.131103515625
0.063,3.913818359375,-5.575439453125,-0.290283203125
0.0635,3.153076171875,-5.815673828125,0.710693359375
0.064,1.911865234375,-6.095947265625,2.112060546875
0.0645,0.630615234375,-6.135986328125,3.433349609375
0.065,-0.330322265625,-6.176025390625,4.354248046875
0.0655,-0.970947265625,-6.135986328125,4.994873046875
0.066,-2.011962890625,-5.615478515625,5.675537109375
0.0665,-3.173095703125,-4.614501953125,6.035888671875
0.067,-4.294189453125,-3.533447265625,6.356201171875
0.0675,-5.094970703125,-2.252197265625,6.196044921875
0.068,-5.535400390625,-1.371337890625,6.075927734375
0.0685,-5.655517578125,-0.610595703125,5.715576171875
0.069,-5.615478515625,0.350341796875,5.114990234375
0.0695,-5.455322265625,1.591552734375,3.993896484375
0.07,-5.295166015625,2.792724609375,2.872802734375
0.0705,-4.974853515625,3.713623046875,1.871826171875
0.071,-4.654541015625,4.394287109375,1.031005859375
0.0715,-4.053955078125,4.794677734375,0.190185546875
0.072,-3.133056640625,5.074951171875,-0.970947265625
0.0725,-2.052001953125,5.355224609375,-2.292236328125
0.073,-0.890869140625,5.315185546875,-3.533447265625
0.0735,0.070068359375,5.475341796875,-4.454345703125
0.074,0.710693359375,5.395263671875,-5.094970703125
0.0745,1.671630859375,4.834716796875,-5.615478515625
0.075,2.912841796875,3.713623046875,-6.015869140625
0.0755,3.993896484375,2.592529296875,-6.176025390625
0.076,4.634521484375,1.511474609375,-6.095947265625
0.0765,4.994873046875,0.790771484375,-5.975830078125
0.077,5.114990234375,0.030029296875,-5.615478515625
0.0775,5.074951171875,-1.010986328125,-4.894775390625
0.078,4.994873046875,-2.212158203125,-3.973876953125
0.0785,4.794677734375,-3.373291015625,-2.812744140625
0.079,4.514404296875,-4.174072265625,-1.931884765625
0.0795,4.234130859375,-4.854736328125,-1.131103515625
0.08,3.673583984375,-5.255126953125,-0.330322265625
0.0805,2.672607421875,-5.575439453125,0.990966796875
0.081,1.631591796875,-5.895751953125,2.232177734375
0.0815,0.590576171875,-5.815673828125,3.353271484375
0.082,-0.210205078125,-6.095947265625,4.154052734375
0.0825,-1.051025390625,-5.895751953125,4.874755859375
0.083,-2.052001953125,-5.255126953125,5.435302734375
0.0835,-3.253173828125,-4.214111328125,5.835693359375
0.084,-4.294189453125,-3.012939453125,5.915771484375
0.0845,-4.894775390625,-2.052001953125,5.875732421875
0.085,-5.215087890625,-1.331298828125,5.755615234375
0.0855,-5.335205078125,-0.570556640625,5.355224609375
0.086,-5.255126953125,0.630615234375,4.514404296875
0.0865,-5.255126953125,1.711669921875,3.673583984375
0.087,-5.054931640625,2.832763671875,2.592529296875
0.0875,-4.734619140625,3.593505859375,1.751708984375
0.088,-4.374267578125,4.154052734375,0.950927734375
0.0885,-3.813720703125,4.514404296875,0.070068359375
0.089,-2.812744140625,4.874755859375,-1.291259765625
0.0895,-1.771728515625,4.994873046875,-2.572509765625
0.09,-0.810791015625,5.275146484375,-3.533447265625
0.0905,0.030029296875,5.395263671875,-4.414306640625
0.091,0.910888671875,5.074951171875,-5.054931640625
0.0915,1.991943359375,4.194091796875,-5.495361328125
0.092,3.193115234375,3.273193359375,-5.895751953125
0.0925,4.033935546875,2.072021484375,-5.895751953125
0.093,4.554443359375,1.311279296875,-5.895751953125
0.0935,4.874755859375,0.550537109375,-5.735595703125
0.094,4.954833984375,-0.370361328125,-5.255126953125
0.0945,4.874755859375,-1.531494140625,-4.334228515625
0.095,4.834716796875,-2.732666015625,-3.333251953125
0.0955,4.594482421875,-3.693603515625,-2.372314453125
0.096,4.434326171875,-4.454345703125,-1.611572265625
0.0965,3.913818359375,-4.974853515625,-0.810791015625
0.097,3.113037109375,-5.375244140625,0.390380859375
0.0975,2.272216796875,-5.735595703125,1.551513671875
0.098,1.031005859375,-5.775634765625,2.872802734375
0.0985,0.310302734375,-5.975830078125,3.793701171875
0.099,-0.610595703125,-6.015869140625,4.554443359375
0.0995,-1.571533203125,-5.495361328125,5.195068359375
0.1,-2.852783203125,-4.494384765625,5.635498046875
0.1005,-3.973876953125,-3.373291015625,5.875732421875
0.101,-4.654541015625,-2.372314453125,5.835693359375
0.1015,-5.094970703125,-1.571533203125,5.795654296875
0.102,-5.295166015625,-0.770751953125,5.475341796875
0.1025,-5.295166015625,0.270263671875,4.834716796875
0.103,-5.295166015625,1.391357421875,3.953857421875
0.1035,-5.094970703125,2.592529296875,2.832763671875
0.104,-4.814697265625,3.473388671875,1.911865234375
0.1045,-4.534423828125,4.114013671875,1.111083984375
0.105,-3.973876953125,4.514404296875,0.270263671875
0.1055,-2.932861328125,4.954833984375,-0.970947265625
0.106,-1.931884765625,5.195068359375,-2.332275390625
0.1065,-0.930908203125,5.195068359375,-3.413330078125
0.107,-0.250244140625,5.355224609375,-4.294189453125
0.1075,0.710693359375,5.155029296875,-4.974853515625
0.108,1.791748046875,4.514404296875,-5.495361328125
0.1085,2.992919921875,3.473388671875,-5.895751953125
0.109,4.033935546875,2.272216796875,-5.975830078125
0.1095,4.594482421875,1.311279296875,-5.895751953125
0.11,4.874755859375,0.630615234375,-5.775634765625
0.1105,4.954833984375,-0.330322265625,-5.295166015625
0.111,4.874755859375,-1.371337890625,-4.494384765625
0.1115,4.914794921875,-2.572509765625,-3.533447265625
0.112,4.674560546875,-3.653564453125,-2.492431640625
0.1125,4.434326171875,-4.454345703125,-1.611572265625
0.113,3.993896484375,-5.014892578125,-0.850830078125
0.1135,3.193115234375,-5.375244140625,0.310302734375
0.114,2.272216796875,-5.695556640625,1.511474609375
0.1145,1.151123046875,-5.855712890625,2.792724609375
0.115,0.310302734375,-5.975830078125,3.753662109375
0.1155,-0.490478515625,-6.095947265625,4.594482421875
0.116,-1.491455078125,-5.655517578125,5.195068359375
0.1165,-2.732666015625,-4.654541015625,5.675537109375
0.117,-3.853759765625,-3.653564453125,6.035888671875
0.1175,-4.734619140625,-2.492431640625,5.995849609375
0.118,-5.175048828125,-1.611572265625,5.915771484375
0.1185,-5.415283203125,-0.890869140625,5.635498046875
0.119,-5.415283203125,0.150146484375,5.074951171875
0.1195,-5.295166015625,1.311279296875,4.033935546875
0.12,-5.215087890625,2.552490234375,2.912841796875
0.1205,-4.974853515625,3.473388671875,1.951904296875
0.121,-4.614501953125,4.154052734375,1.151123046875
0.1215,-4.134033203125,4.434326171875,0.190185546875
0.122,-3.133056640625,4.914794921875,-0.930908203125
0.1225,-2.092041015625,5.275146484375,-2.252197265625
0.123,-0.970947265625,5.315185546875,-3.493408203125
0.1235,-0.170166015625,5.435302734375,-4.334228515625
0.124,0.670654296875,5.355224609375,-5.094970703125
0.1245,1.671630859375,4.754638671875,-5.615478515625
0.125,3.032958984375,3.593505859375,-6.015869140625
0.1255,4.114013671875,2.432373046875,-6.216064453125
0.126,4.754638671875,1.351318359375,-6.095947265625
0.1265,5.114990234375,0.590576171875,-5.935791015625
0.127,5.155029296875,-0.370361328125,-5.455322265625
0.1275,5.114990234375,-1.371337890625,-4.694580078125
0.128,5.074951171875,-2.612548828125,-3.693603515625
0.1285,4.834716796875,-3.933837890625,-2.532470703125
0.129,4.514404296875,-4.654541015625,-1.531494140625
0.1295,4.234130859375,-5.255126953125,-0.890869140625
0.13,3.393310546875,-5.575439453125,0.310302734375
0.1305,2.192138671875,-5.855712890625,1.631591796875
0.131,1.111083984375,-6.095947265625,3.032958984375
0.1315,0.110107421875,-6.095947265625,4.033935546875
0.132,-0.690673828125,-6.176025390625,4.834716796875
0.1325,-1.651611328125,-5.775634765625,5.515380859375
0.133,-2.852783203125,-4.894775390625,5.955810546875
0.1335,-4.134033203125,-3.693603515625,6.356201171875
0.134,-5.135009765625,-2.372314453125,6.316162109375
0.1345,-5.615478515625,-1.371337890625,6.156005859375
0.135,-5.775634765625,-0.610595703125,5.835693359375
0.1355,-5.735595703125,0.470458984375,5.155029296875
0.136,-5.615478515625,1.791748046875,3.993896484375
0.1365,-5.455322265625,3.072998046875,2.872802734375
0.137,-5.175048828125,3.993896484375,1.711669921875
0.1375,-4.734619140625,4.834716796875,0.910888671875
0.138,-4.134033203125,5.114990234375,0.030029296875
0.1385,-3.173095703125,5.355224609375,-1.251220703125
0.139,-1.851806640625,5.595458984375,-2.732666015625
0.1395,-0.570556640625,5.675537109375,-4.093994140625
0.14,0.390380859375,5.635498046875,-4.934814453125
0.1405,1.111083984375,5.515380859375,-5.615478515625
0.141,2.192138671875,4.794677734375,-6.135986328125
0.1415,3.513427734375,3.553466796875,-6.456298828125
0.142,4.634521484375,2.352294921875,-6.696533203125
0.1425,5.395263671875,1.031005859375,-6.496337890625
0.143,5.715576171875,0.190185546875,-6.256103515625
0.1435,5.715576171875,-0.810791015625,-5.735595703125
0.144,5.555419921875,-1.811767578125,-4.854736328125
0.1445,5.395263671875,-3.173095703125,-3.533447265625
0.145,5.114990234375,-4.534423828125,-2.252197265625
0.1455,4.634521484375,-5.255126953125,-1.131103515625
0.146,4.194091796875,-5.815673828125,-0.370361328125
0.1465,3.353271484375,-6.095947265625,0.710693359375
0.147,2.112060546875,-6.296142578125,2.031982421875
0.1475,0.870849609375,-6.496337890625,3.513427734375
0.148,-0.490478515625,-6.376220703125,4.714599609375
0.1485,-1.211181640625,-6.376220703125,5.435302734375
0.149,-2.052001953125,-6.015869140625,6.075927734375
0.1495,-3.213134765625,-5.054931640625,6.516357421875
0.15,-4.614501953125,-3.613525390625,6.716552734375
0.1505,-5.655517578125,-2.252197265625,6.756591796875
0.151,-6.135986328125,-1.171142578125,6.476318359375
0.1515,-6.256103515625,-0.330322265625,6.115966796875
0.152,-6.176025390625,0.790771484375,5.355224609375
0.1525,-5.935791015625,2.031982421875,4.194091796875
0.153,-5.775634765625,3.273193359375,2.952880859375
0.1535,-5.415283203125,4.554443359375,1.671630859375
0.154,-4.854736328125,5.114990234375,0.630615234375
0.1545,-4.214111328125,5.555419921875,-0.330322265625
0.155,-3.253173828125,5.755615234375,-1.411376953125
0.1555,-1.771728515625,5.875732421875,-2.932861328125
0.156,-0.490478515625,6.035888671875,-4.374267578125
0.1565,0.670654296875,5.795654296875,-5.295166015625
0.157,1.311279296875,5.755615234375,-5.975830078125
0.1575,2.312255859375,5.074951171875,-6.496337890625
0.158,3.553466796875,3.873779296875,-6.816650390625
0.1585,4.794677734375,2.592529296875,-7.016845703125
0.159,5.715576171875,1.111083984375,-6.776611328125
0.1595,5.995849609375,0.110107421875,-6.456298828125
0.16,6.035888671875,-0.810791015625,-6.015869140625
0.1605,5.795654296875,-1.851806640625,-5.094970703125
0.161,5.555419921875,-3.213134765625,-3.813720703125
0.1615,5.155029296875,-4.534423828125,-2.452392578125
0.162,4.834716796875,-5.415283203125,-1.291259765625
0.1625,4.314208984375,-6.015869140625,-0.370361328125
0.163,3.593505859375,-6.336181640625,0.630615234375
0.1635,2.552490234375,-6.456298828125,1.751708984375
0.164,1.111083984375,-6.576416015625,3.313232421875
0.1645,-0.370361328125,-6.536376953125,4.634521484375
0.165,-1.211181640625,-6.456298828125,5.435302734375
0.1655,-1.931884765625,-6.256103515625,6.075927734375
0.166,-3.052978515625,-5.415283203125,6.556396484375
0.1665,-4.374267578125,-4.053955078125,6.796630859375
0.167,-5.455322265625,-2.772705078125,6.916748046875
0.1675,-6.135986328125,-1.411376953125,6.636474609375
0.168,-6.376220703125,-0.530517578125,6.276123046875
0.1685,-6.376220703125,0.470458984375,5.715576171875
0.169,-6.095947265625,1.511474609375,4.754638671875
0.1695,-5.935791015625,2.792724609375,3.353271484375
0.17,-5.535400390625,4.194091796875,2.031982421875
0.1705,-5.054931640625,4.994873046875,0.950927734375
0.171,-4.494384765625,5.475341796875,0.070068359375
0.1715,-3.653564453125,5.715576171875,-0.970947265625
0.172,-2.372314453125,5.835693359375,-2.332275390625
0.1725,-1.051025390625,6.035888671875,-3.813720703125
0.173,0.350341796875,5.835693359375,-4.974853515625
0.1735,1.071044921875,5.755615234375,-5.735595703125
0.174,1.911865234375,5.435302734375,-6.296142578125
0.1745,3.032958984375,4.514404296875,-6.696533203125
0.175,4.394287109375,3.032958984375,-6.936767578125
0.1755,5.435302734375,1.631591796875,-6.896728515625
0.176,5.915771484375,0.510498046875,-6.616455078125
0.1765,5.955810546875,-0.490478515625,-6.216064453125
0.177,5.915771484375,-1.411376953125,-5.535400390625
0.1775,5.555419921875,-2.732666015625,-4.414306640625
0.178,5.475341796875,-3.893798828125,-3.133056640625
0.1785,5.074951171875,-5.094970703125,-1.771728515625
0.179,4.554443359375,-5.775634765625,-0.770751953125
0.1795,3.993896484375,-6.256103515625,0.190185546875
0.18,3.072998046875,-6.416259765625,1.191162109375
0.1805,1.591552734375,-6.576416015625,2.752685546875
0.181,0.310302734375,-6.656494140625,4.194091796875
0.1815,-0.930908203125,-6.456298828125,5.155029296875
0.182,-1.571533203125,-6.416259765625,5.835693359375
0.1825,-2.572509765625,-5.815673828125,6.436279296875
0.183,-3.813720703125,-4.694580078125,6.756591796875
0.1835,-5.094970703125,-3.333251953125,6.996826171875
0.184,-6.015869140625,-1.891845703125,6.796630859375
0.1845,-6.376220703125,-0.930908203125,6.476318359375
0.185,-6.376220703125,0.110107421875,6.035888671875
0.1855,-6.256103515625,1.031005859375,5.034912109375
0.186,-5.935791015625,2.552490234375,3.793701171875
0.1865,-5.735595703125,3.833740234375,2.552490234375
0.187,-5.255126953125,4.834716796875,1.311279296875
0.1875,-4.734619140625,5.395263671875,0.350341796875
0.188,-3.973876953125,5.675537109375,-0.650634765625
