wavelength,x,y,z
0.0,6.055908203125,-0.150146484375,-6.596435546875
0.0005,5.735595703125,-0.990966796875,-5.755615234375
0.001,5.375244140625,-2.192138671875,-4.514404296875
0.0015,4.974853515625,-3.553466796875,-3.072998046875
0.002,4.814697265625,-4.794677734375,-1.791748046875
0.0025,4.734619140625,-5.675537109375,-0.990966796875
0.003,4.134033203125,-6.075927734375,-0.190185546875
0.0035,3.093017578125,-6.115966796875,0.930908203125
0.004,1.771728515625,-6.276123046875,2.332275390625
0.0045,0.370361328125,-6.356201171875,3.853759765625
0.005,-0.590576171875,-6.676513671875,4.974853515625
0.0055,-1.191162109375,-6.796630859375,5.895751953125
0.006,-2.192138671875,-6.156005859375,6.336181640625
0.0065,-3.473388671875,-4.874755859375,6.536376953125
0.007,-4.714599609375,-3.513427734375,6.656494140625
0.0075,-5.715576171875,-2.112060546875,6.656494140625
0.008,-6.236083984375,-1.311279296875,6.696533203125
0.0085,-6.236083984375,-0.630615234375,6.296142578125
0.009,-5.875732421875,0.410400390625,5.335205078125
0.0095,-5.635498046875,1.571533203125,4.013916015625
0.01,-5.355224609375,3.093017578125,2.612548828125
0.0105,-5.195068359375,4.254150390625,1.531494140625
0.011,-4.994873046875,5.014892578125,0.730712890625
0.0115,-4.234130859375,5.295166015625,-0.230224609375
0.012,-3.072998046875,5.415283203125,-1.391357421875
0.0125,-1.711669921875,5.615478515625,-2.872802734375
0.013,-0.510498046875,5.735595703125,-4.274169921875
0.0135,0.290283203125,6.055908203125,-5.275146484375
0.014,0.970947265625,5.975830078125,-6.075927734375
0.0145,2.132080078125,5.054931640625,-6.396240234375
0.015,3.413330078125,3.773681640625,-6.596435546875
0.0155,4.574462890625,2.292236328125,-6.596435546875
0.016,5.375244140625,1.211181640625,-6.596435546875
0.0165,5.735595703125,0.450439453125,-6.636474609375
0.017,5.615478515625,-0.390380859375,-6.075927734375
0.0175,5.255126953125,-1.391357421875,-5.034912109375
0.018,4.974853515625,-2.632568359375,-3.673583984375
0.0185,4.814697265625,-3.953857421875,-2.352294921875
0.019,4.654541015625,-4.954833984375,-1.431396484375
0.0195,4.414306640625,-5.635498046875,-0.710693359375
0.02,3.533447265625,-5.755615234375,0.250244140625
0.0205,2.412353515625,-5.875732421875,1.451416015625
0.021,1.051025390625,-6.035888671875,2.892822265625
0.0215,0.130126953125,-6.276123046875,4.134033203125
0.022,-0.630615234375,-6.596435546875,5.094970703125
0.0225,-1.391357421875,-6.356201171875,5.735595703125
0.023,-2.552490234375,-5.315185546875,6.015869140625
0.0235,-3.753662109375,-4.154052734375,6.216064453125
0.024,-4.834716796875,-2.832763671875,6.256103515625
0.0245,-5.555419921875,-1.911865234375,6.376220703125
0.025,-5.795654296875,-1.311279296875,6.336181640625
0.0255,-5.635498046875,-0.590576171875,5.695556640625
0.026,-5.395263671875,0.570556640625,4.694580078125
0.0265,-5.155029296875,1.851806640625,3.493408203125
0.027,-5.074951171875,3.133056640625,2.292236328125
0.0275,-5.034912109375,4.093994140625,1.531494140625
0.028,-4.634521484375,4.574462890625,0.770751953125
0.0285,-3.793701171875,4.814697265625,-0.270263671875
0.029,-2.712646484375,5.094970703125,-1.511474609375
0.0295,-1.551513671875,5.295166015625,-2.912841796875
0.03,-0.710693359375,5.695556640625,-4.073974609375
0.0305,0.010009765625,6.015869140625,-4.994873046875
0.031,0.890869140625,5.575439453125,-5.595458984375
0.0315,2.052001953125,4.574462890625,-5.915771484375
0.032,3.293212890625,3.333251953125,-6.156005859375
0.0325,4.334228515625,2.092041015625,-6.276123046875
0.033,4.974853515625,1.371337890625,-6.436279296875
0.0335,5.094970703125,0.690673828125,-6.276123046875
0.034,5.054931640625,-0.190185546875,-5.595458984375
0.0345,4.854736328125,-1.271240234375,-4.634521484375
0.035,4.774658203125,-2.592529296875,-3.393310546875
0.0355,4.734619140625,-3.753662109375,-2.432373046875
0.036,4.694580078125,-4.634521484375,-1.711669921875
0.0365,4.174072265625,-5.074951171875,-0.950927734375
0.037,3.293212890625,-5.315185546875,0.210205078125
0.0375,2.212158203125,-5.635498046875,1.531494140625
0.038,1.131103515625,-5.915771484375,2.852783203125
0.0385,0.450439453125,-6.396240234375,3.973876953125
0.039,-0.390380859375,-6.476318359375,4.814697265625
0.0395,-1.391357421875,-5.915771484375,5.295166015625
0.04,-2.592529296875,-4.874755859375,5.695556640625
0.0405,-3.833740234375,-3.713623046875,5.895751953125
0.041,-4.794677734375,-2.632568359375,6.095947265625
0.0415,-5.395263671875,-2.072021484375,6.256103515625
0.042,-5.355224609375,-1.311279296875,5.935791015625
0.0425,-5.195068359375,-0.430419921875,5.135009765625
0.043,-5.114990234375,0.810791015625,4.174072265625
0.0435,-5.034912109375,2.132080078125,3.012939453125
0.044,-5.074951171875,3.213134765625,2.172119140625
0.0445,-4.914794921875,3.973876953125,1.451416015625
0.045,-4.314208984375,4.334228515625,0.610595703125
0.0455,-3.353271484375,4.654541015625,-0.630615234375
0.046,-2.272216796875,5.014892578125,-1.951904296875
0.0465,-1.351318359375,5.415283203125,-3.233154296875
0.047,-0.710693359375,5.815673828125,-4.314208984375
0.0475,0.210205078125,5.735595703125,-5.074951171875
0.048,1.291259765625,4.934814453125,-5.475341796875
0.0485,2.532470703125,3.853759765625,-5.795654296875
0.049,3.693603515625,2.612548828125,-6.035888671875
0.0495,4.494384765625,1.691650390625,-6.276123046875
0.05,4.934814453125,1.171142578125,-6.356201171875
0.0505,4.934814453125,0.410400390625,-5.835693359375
0.051,4.814697265625,-0.670654296875,-4.994873046875
0.0515,4.734619140625,-1.951904296875,-3.873779296875
0.052,4.654541015625,-3.193115234375,-2.832763671875
0.0525,4.734619140625,-4.234130859375,-2.072021484375
0.053,4.454345703125,-4.834716796875,-1.311279296875
0.0535,3.653564453125,-5.155029296875,-0.390380859375
0.054,2.612548828125,-5.435302734375,0.930908203125
0.0545,1.531494140625,-5.755615234375,2.332275390625
0.055,0.770751953125,-6.236083984375,3.533447265625
0.0555,0.050048828125,-6.476318359375,4.494384765625
0.056,-0.990966796875,-6.156005859375,5.094970703125
0.0565,-2.152099609375,-5.235107421875,5.535400390625
0.057,-3.393310546875,-4.033935546875,5.815673828125
0.0575,-4.434326171875,-2.872802734375,5.935791015625
0.058,-5.155029296875,-2.112060546875,6.256103515625
0.0585,-5.395263671875,-1.511474609375,6.095947265625
0.059,-5.275146484375,-0.630615234375,5.375244140625
0.0595,-5.114990234375,0.490478515625,4.454345703125
0.06,-5.074951171875,1.851806640625,3.293212890625
0.0605,-5.034912109375,3.052978515625,2.292236328125
0.061,-4.994873046875,3.893798828125,1.571533203125
0.0615,-4.474365234375,4.334228515625,0.770751953125
0.062,-3.553466796875,4.614501953125,-0.350341796875
0.0625,-2.512451171875,4.974853515625,-1.671630859375
0.063,-1.471435546875,5.295166015625,-3.032958984375
0.0635,-0.790771484375,5.735595703125,-4.154052734375
0.064,0.050048828125,5.815673828125,-4.994873046875
0.0645,1.131103515625,5.135009765625,-5.475341796875
0.065,2.372314453125,4.053955078125,-5.835693359375
0.0655,3.653564453125,2.852783203125,-6.115966796875
0.066,4.494384765625,1.811767578125,-6.276123046875
0.0665,5.014892578125,1.171142578125,-6.396240234375
0.067,5.054931640625,0.450439453125,-5.955810546875
0.0675,4.854736328125,-0.630615234375,-5.155029296875
0.068,4.774658203125,-1.791748046875,-4.114013671875
0.0685,4.654541015625,-3.113037109375,-2.912841796875
0.069,4.654541015625,-4.154052734375,-2.031982421875
0.0695,4.494384765625,-4.874755859375,-1.351318359375
0.07,3.813720703125,-5.195068359375,-0.510498046875
0.0705,2.772705078125,-5.435302734375,0.810791015625
0.071,1.611572265625,-5.755615234375,2.212158203125
0.0715,0.690673828125,-6.115966796875,3.493408203125
0.072,0.050048828125,-6.556396484375,4.534423828125
0.0725,-0.910888671875,-6.356201171875,5.215087890625
0.073,-2.072021484375,-5.435302734375,5.615478515625
0.0735,-3.313232421875,-4.234130859375,5.935791015625
0.074,-4.514404296875,-2.992919921875,6.095947265625
0.0745,-5.275146484375,-2.112060546875,6.256103515625
0.075,-5.595458984375,-1.471435546875,6.256103515625
0.0755,-5.435302734375,-0.670654296875,5.615478515625
0.076,-5.275146484375,0.490478515625,4.654541015625
0.0765,-5.155029296875,1.771728515625,3.453369140625
0.077,-5.074951171875,3.093017578125,2.292236328125
0.0775,-5.074951171875,4.053955078125,1.531494140625
0.078,-4.634521484375,4.574462890625,0.770751953125
0.0785,-3.713623046875,4.814697265625,-0.350341796875
0.079,-2.592529296875,5.094970703125,-1.671630859375
0.0795,-1.431396484375,5.375244140625,-3.153076171875
0.08,-0.630615234375,5.735595703125,-4.274169921875
0.0805,0.130126953125,5.895751953125,-5.235107421875
0.081,1.131103515625,5.375244140625,-5.755615234375
0.0815,2.372314453125,4.214111328125,-6.115966796875
0.082,3.733642578125,2.932861328125,-6.316162109375
0.0825,4.774658203125,1.731689453125,-6.396240234375
0.083,5.295166015625,0.970947265625,-6.556396484375
0.0835,5.415283203125,0.250244140625,-6.196044921875
0.084,5.135009765625,-0.790771484375,-5.315185546875
0.0845,4.974853515625,-1.951904296875,-4.154052734375
0.085,4.814697265625,-3.353271484375,-2.832763671875
0.0855,4.734619140625,-4.514404296875,-1.791748046875
0.086,4.614501953125,-5.315185546875,-1.071044921875
0.0865,3.853759765625,-5.595458984375,-0.270263671875
0.087,2.732666015625,-5.755615234375,1.010986328125
0.0875,1.491455078125,-5.955810546875,2.492431640625
0.088,0.450439453125,-6.236083984375,3.853759765625
0.0885,-0.390380859375,-6.636474609375,4.894775390625
0.089,-1.191162109375,-6.556396484375,5.655517578125
0.0895,-2.392333984375,-5.715576171875,5.975830078125
0.09,-3.673583984375,-4.314208984375,6.336181640625
0.0905,-4.874755859375,-2.912841796875,6.416259765625
0.091,-5.635498046875,-1.791748046875,6.416259765625
0.0915,-6.035888671875,-1.151123046875,6.456298828125
0.092,-5.915771484375,-0.350341796875,5.855712890625
0.0925,-5.595458984375,0.810791015625,4.734619140625
0.093,-5.395263671875,2.172119140625,3.453369140625
0.0935,-5.195068359375,3.533447265625,2.092041015625
0.094,-5.114990234375,4.494384765625,1.211181640625
0.0945,-4.714599609375,5.094970703125,0.450439453125
0.095,-3.793701171875,5.255126953125,-0.670654296875
0.0955,-2.472412109375,5.415283203125,-2.031982421875
0.096,-1.151123046875,5.655517578125,-3.553466796875
0.0965,-0.230224609375,5.815673828125,-4.834716796875
0.097,0.570556640625,6.135986328125,-5.755615234375
0.0975,1.451416015625,5.535400390625,-6.396240234375
0.098,2.852783203125,4.414306640625,-6.596435546875
0.0985,4.134033203125,3.012939453125,-6.756591796875
0.099,5.255126953125,1.571533203125,-6.796630859375
0.0995,5.815673828125,0.650634765625,-6.756591796875
0.1,5.975830078125,-0.190185546875,-6.516357421875
0.1005,5.695556640625,-1.151123046875,-5.635498046875
0.101,5.335205078125,-2.392333984375,-4.234130859375
0.1015,5.054931640625,-3.833740234375,-2.752685546875
0.102,4.854736328125,-5.074951171875,-1.591552734375
0.1025,4.654541015625,-5.875732421875,-0.710693359375
0.103,3.973876953125,-6.156005859375,0.210205078125
0.1035,2.732666015625,-6.236083984375,1.411376953125
0.104,1.331298828125,-6.356201171875,2.852783203125
0.1045,0.050048828125,-6.516357421875,4.334228515625
0.105,-0.830810546875,-6.756591796875,5.335205078125
0.1055,-1.511474609375,-6.716552734375,6.135986328125
0.106,-2.712646484375,-5.835693359375,6.616455078125
0.1065,-4.033935546875,-4.434326171875,6.776611328125
0.107,-5.235107421875,-2.912841796875,6.856689453125
0.1075,-6.115966796875,-1.591552734375,6.736572265625
0.108,-6.516357421875,-0.830810546875,6.696533203125
0.1085,-6.396240234375,0.050048828125,6.135986328125
0.109,-6.035888671875,1.131103515625,4.934814453125
0.1095,-5.675537109375,2.452392578125,3.533447265625
0.11,-5.395263671875,3.853759765625,2.052001953125
0.1105,-5.114990234375,4.894775390625,0.970947265625
0.111,-4.834716796875,5.575439453125,0.170166015625
0.1115,-3.873779296875,5.735595703125,-0.830810546875
0.112,-2.512451171875,5.735595703125,-2.192138671875
0.1125,-1.031005859375,5.815673828125,-3.753662109375
0.113,0.170166015625,5.935791015625,-5.074951171875
0.1135,0.890869140625,6.256103515625,-6.035888671875
0.114,1.651611328125,5.895751953125,-6.676513671875
0.1145,2.892822265625,4.774658203125,-6.916748046875
0.115,4.214111328125,3.293212890625,-7.076904296875
0.1155,5.375244140625,1.731689453125,-6.996826171875
0.116,6.055908203125,0.610595703125,-6.916748046875
0.1165,6.256103515625,-0.270263671875,-6.756591796875
0.117,6.015869140625,-1.071044921875,-5.995849609375
0.1175,5.575439453125,-2.272216796875,-4.634521484375
0.118,5.175048828125,-3.633544921875,-3.153076171875
0.1185,4.934814453125,-4.994873046875,-1.751708984375
0.119,4.694580078125,-5.875732421875,-0.790771484375
0.1195,4.254150390625,-6.396240234375,0.050048828125
0.12,3.173095703125,-6.396240234375,1.091064453125
0.1205,1.731689453125,-6.436279296875,2.532470703125
0.121,0.250244140625,-6.556396484375,4.093994140625
0.1215,-0.790771484375,-6.676513671875,5.295166015625
0.122,-1.431396484375,-6.876708984375,6.095947265625
0.1225,-2.352294921875,-6.316162109375,6.656494140625
0.123,-3.713623046875,-4.954833984375,6.816650390625
0.1235,-4.914794921875,-3.513427734375,6.896728515625
0.124,-5.955810546875,-2.031982421875,6.856689453125
0.1245,-6.516357421875,-1.071044921875,6.776611328125
0.125,-6.596435546875,-0.350341796875,6.456298828125
0.1255,-6.196044921875,0.650634765625,5.495361328125
0.126,-5.835693359375,1.931884765625,4.134033203125
0.1265,-5.475341796875,3.333251953125,2.612548828125
0.127,-5.275146484375,4.574462890625,1.331298828125
0.1275,-5.034912109375,5.415283203125,0.530517578125
0.128,-4.354248046875,5.735595703125,-0.390380859375
0.1285,-3.153076171875,5.735595703125,-1.551513671875
0.129,-1.671630859375,5.815673828125,-3.153076171875
0.1295,-0.470458984375,5.895751953125,-4.514404296875
0.13,0.570556640625,6.176025390625,-5.715576171875
0.1305,1.291259765625,6.176025390625,-6.476318359375
0.131,2.372314453125,5.375244140625,-6.876708984375
0.1315,3.733642578125,3.893798828125,-7.076904296875
0.132,4.974853515625,2.372314453125,-7.076904296875
0.1325,5.895751953125,0.970947265625,-6.996826171875
0.133,6.256103515625,0.170166015625,-6.916748046875
0.1335,6.176025390625,-0.670654296875,-6.396240234375
0.134,5.775634765625,-1.791748046875,-5.235107421875
0.1345,5.415283203125,-3.153076171875,-3.793701171875
0.135,5.094970703125,-4.554443359375,-2.272216796875
0.1355,4.854736328125,-5.675537109375,-1.111083984375
0.136,4.574462890625,-6.356201171875,-0.350341796875
0.1365,3.653564453125,-6.556396484375,0.690673828125
0.137,2.252197265625,-6.556396484375,2.052001953125
0.1375,0.690673828125,-6.756591796875,3.573486328125
0.138,-0.590576171875,-6.716552734375,5.014892578125
0.1385,-1.271240234375,-6.916748046875,6.015869140625
0.139,-2.072021484375,-6.636474609375,6.696533203125
0.1395,-3.353271484375,-5.435302734375,6.936767578125
0.14,-4.714599609375,-3.953857421875,7.056884765625
0.1405,-5.835693359375,-2.392333984375,7.016845703125
0.141,-6.556396484375,-1.231201171875,6.896728515625
0.1415,-6.716552734375,-0.510498046875,6.696533203125
0.142,-6.436279296875,0.490478515625,5.895751953125
0.1425,-5.995849609375,1.651611328125,4.534423828125
0.143,-5.635498046875,3.052978515625,3.052978515625
0.1435,-5.315185546875,4.414306640625,1.571533203125
0.144,-5.074951171875,5.295166015625,0.610595703125
0.1445,-4.554443359375,5.695556640625,-0.310302734375
0.145,-3.473388671875,5.735595703125,-1.271240234375
0.1455,-1.991943359375,5.735595703125,-2.872802734375
0.146,-0.590576171875,5.895751953125,-4.274169921875
0.1465,0.490478515625,6.055908203125,-5.435302734375
0.147,1.131103515625,6.216064453125,-6.276123046875
0.1475,2.011962890625,5.655517578125,-6.756591796875
0.148,3.333251953125,4.334228515625,-6.996826171875
0.1485,4.534423828125,2.852783203125,-7.036865234375
0.149,5.575439453125,1.371337890625,-6.916748046875
0.1495,6.095947265625,0.410400390625,-6.836669921875
0.15,6.135986328125,-0.390380859375,-6.556396484375
0.1505,5.775634765625,-1.231201171875,-5.675537109375
0.151,5.375244140625,-2.432373046875,-4.354248046875
0.1515,5.094970703125,-3.833740234375,-2.832763671875
0.152,4.814697265625,-5.034912109375,-1.591552734375
0.1525,4.654541015625,-5.915771484375,-0.790771484375
0.153,4.013916015625,-6.236083984375,0.130126953125
0.1535,3.012939453125,-6.156005859375,1.131103515625
0.154,1.571533203125,-6.316162109375,2.572509765625
0.1545,0.170166015625,-6.396240234375,4.013916015625
0.155,-0.710693359375,-6.676513671875,5.135009765625
0.1555,-1.311279296875,-6.756591796875,5.935791015625
0.156,-2.312255859375,-6.115966796875,6.376220703125
0.1565,-3.593505859375,-4.794677734375,6.576416015625
0.157,-4.834716796875,-3.353271484375,6.656494140625
0.1575,-5.755615234375,-2.031982421875,6.616455078125
0.158,-6.236083984375,-1.271240234375,6.696533203125
0.1585,-6.196044921875,-0.590576171875,6.256103515625
0.159,-5.875732421875,0.490478515625,5.295166015625
0.1595,-5.595458984375,1.651611328125,4.093994140625
0.16,-5.315185546875,3.133056640625,2.652587890625
0.1605,-5.155029296875,4.214111328125,1.571533203125
0.161,-4.994873046875,4.974853515625,0.770751953125
0.1615,-4.274169921875,5.375244140625,0.010009765625
0.162,-3.153076171875,5.375244140625,-1.311279296875
0.1625,-1.791748046875,5.575439453125,-2.832763671875
0.163,-0.630615234375,5.735595703125,-4.194091796875
0.1635,0.210205078125,6.095947265625,-5.275146484375
0.164,0.930908203125,6.015869140625,-6.035888671875
0.1645,2.052001953125,5.094970703125,-6.356201171875
0.165,3.333251953125,3.813720703125,-6.556396484375
0.1655,4.574462890625,2.372314453125,-6.676513671875
0.166,5.415283203125,1.251220703125,-6.676513671875
0.1665,5.735595703125,0.570556640625,-6.676513671875
0.167,5.615478515625,-0.310302734375,-6.115966796875
0.1675,5.295166015625,-1.311279296875,-5.034912109375
0.168,5.054931640625,-2.592529296875,-3.713623046875
0.1685,4.814697265625,-3.993896484375,-2.392333984375
0.169,4.774658203125,-5.034912109375,-1.471435546875
0.1695,4.334228515625,-5.715576171875,-0.750732421875
0.17,3.573486328125,-5.755615234375,0.210205078125
0.1705,2.412353515625,-5.915771484375,1.451416015625
0.171,1.010986328125,-6.075927734375,2.972900390625
0.1715,0.130126953125,-6.356201171875,4.174072265625
0.172,-0.630615234375,-6.716552734375,5.175048828125
0.1725,-1.431396484375,-6.356201171875,5.735595703125
0.173,-2.632568359375,-5.315185546875,6.055908203125
0.1735,-3.873779296875,-4.073974609375,6.296142578125
0.174,-4.954833984375,-2.712646484375,6.336181640625
0.1745,-5.635498046875,-1.791748046875,6.416259765625
0.175,-5.835693359375,-1.151123046875,6.336181640625
0.1755,-5.675537109375,-0.390380859375,5.615478515625
0.176,-5.435302734375,0.730712890625,4.614501953125
0.1765,-5.235107421875,2.011962890625,3.333251953125
0.177,-5.074951171875,3.333251953125,2.172119140625
0.1775,-5.114990234375,4.093994140625,1.291259765625
0.178,-4.554443359375,4.734619140625,0.610595703125
0.1785,-3.673583984375,4.894775390625,-0.430419921875
0.179,-2.552490234375,5.135009765625,-1.751708984375
0.1795,-1.311279296875,5.375244140625,-3.193115234375
0.18,-0.510498046875,5.735595703125,-4.354248046875
0.1805,0.210205078125,6.015869140625,-5.195068359375
0.181,1.091064453125,5.495361328125,-5.755615234375
0.1815,2.292236328125,4.454345703125,-6.075927734375
0.182,3.573486328125,3.173095703125,-6.276123046875
0.1825,4.534423828125,1.931884765625,-6.356201171875
0.183,5.175048828125,1.211181640625,-6.516357421875
0.1835,5.295166015625,0.530517578125,-6.276123046875
0.184,5.094970703125,-0.390380859375,-5.475341796875
0.1845,4.894775390625,-1.591552734375,-4.474365234375
0.185,4.774658203125,-2.912841796875,-3.193115234375
0.1855,4.694580078125,-4.194091796875,-2.312255859375
0.186,4.654541015625,-4.874755859375,-1.471435546875
0.1865,4.093994140625,-5.275146484375,-0.710693359375
0.187,3.133056640625,-5.475341796875,0.450439453125
0.1875,1.971923828125,-5.755615234375,1.771728515625
0.188,0.890869140625,-6.035888671875,3.173095703125
