wavelength,x,y,z
0.0,5.8106689453125,-22.016479492188,15.339965820312
0.0005,10.174926757812,-22.897338867188,11.896606445312
0.001,13.297973632812,-23.537963867188,9.4542236328125
0.0015,16.100708007812,-21.896362304688,5.1700439453125
0.002,18.382934570312,-19.894409179688,0.8858642578125
0.0025,20.705200195312,-17.652221679688,-3.2381591796875
0.003,22.627075195312,-15.249877929688,-8.4031982421875
0.0035,22.867309570312,-12.527221679688,-10.885620117188
0.004,22.747192382812,-8.5233154296875,-14.769409179688
0.0045,20.945434570312,-5.2401123046875,-16.050659179688
0.005,18.823364257812,-0.2752685546875,-18.453002929688
0.0055,16.661254882812,4.1290283203125,-21.175659179688
0.006,13.257934570312,9.7745361328125,-22.256713867188
0.0065,11.055786132812,12.176879882812,-22.937377929688
0.007,6.0108642578125,15.299926757812,-21.135620117188
0.0075,2.1671142578125,17.021606445312,-19.013549804688
0.008,-2.5574951171875,19.584106445312,-16.971557617188
0.0085,-7.6424560546875,22.066528320312,-13.888549804688
0.009,-10.925659179688,22.907348632812,-11.526245117188
0.0095,-14.769409179688,22.426879882812,-7.8026123046875
0.01,-16.811401367188,20.825317382812,-4.2791748046875
0.0105,-19.574096679688,18.703247070312,0.6456298828125
0.011,-21.495971679688,16.901489257812,4.3292236328125
0.0115,-23.257690429688,13.498168945312,9.3741455078125
0.012,-23.377807617188,11.015747070312,12.176879882812
0.0125,-22.456909179688,6.6114501953125,15.540161132812
0.013,-20.494995117188,3.0079345703125,17.021606445312
0.0135,-18.613159179688,-1.9569091796875,19.824340820312
0.014,-15.970581054688,-6.8016357421875,21.826293945312
0.0145,-13.127807617188,-10.885620117188,23.067504882812
0.015,-9.6444091796875,-14.288940429688,22.747192382812
0.0155,-4.9998779296875,-16.290893554688,20.785278320312
0.016,-0.4754638671875,-18.773315429688,18.463012695312
0.0165,3.8487548828125,-21.295776367188,16.501098632812
0.017,9.2940673828125,-23.257690429688,13.097778320312
0.0175,12.176879882812,-23.578002929688,10.535278320312
0.018,15.860473632812,-22.857299804688,6.3311767578125
0.0185,17.822387695312,-21.015502929688,2.8477783203125
0.019,20.625122070312,-18.453002929688,-2.4373779296875
0.0195,22.146606445312,-16.571166992188,-6.2010498046875
0.02,23.708129882812,-13.528198242188,-10.725463867188
0.0205,23.427856445312,-10.084838867188,-13.848510742188
0.021,22.026489257812,-6.0408935546875,-16.370971679688
0.0215,19.584106445312,-1.6766357421875,-18.212768554688
0.022,17.942504882812,2.8077392578125,-21.055541992188
0.0225,14.539184570312,8.1329345703125,-23.017456054688
0.023,11.896606445312,11.616333007812,-23.457885742188
0.0235,7.6524658203125,15.059692382812,-22.577026367188
0.024,3.0880126953125,17.301879882812,-20.134643554688
0.0245,-1.9168701171875,19.624145507812,-17.692260742188
0.025,-6.0008544921875,21.505981445312,-16.130737304688
0.0255,-10.805541992188,23.427856445312,-12.367065429688
0.026,-14.128784179688,22.787231445312,-8.6834716796875
0.0265,-16.931518554688,22.066528320312,-5.4403076171875
0.027,-19.213745117188,19.504028320312,-0.6356201171875
0.0275,-21.776245117188,17.702270507812,3.8487548828125
0.028,-22.817260742188,14.659301757812,7.8126220703125
0.0285,-24.258666992188,12.337036132812,11.376098632812
0.029,-23.377807617188,7.9727783203125,15.059692382812
0.0295,-21.616088867188,3.9688720703125,17.101684570312
0.03,-19.093627929688,-0.8358154296875,19.183715820312
0.0305,-17.171752929688,-5.4002685546875,21.746215820312
0.031,-13.888549804688,-10.244995117188,23.067504882812
0.0315,-10.685424804688,-13.608276367188,23.267700195312
0.032,-6.7615966796875,-16.370971679688,22.026489257812
0.0325,-1.7166748046875,-18.533081054688,19.143676757812
0.033,2.9278564453125,-21.015502929688,17.141723632812
0.0335,7.4522705078125,-22.577026367188,14.218872070312
0.034,11.255981445312,-24.258666992188,12.176879882812
0.0345,15.099731445312,-22.977416992188,7.0919189453125
0.035,17.301879882812,-22.136596679688,4.0889892578125
0.0355,19.584106445312,-19.253784179688,-1.1160888671875
0.036,22.226684570312,-17.652221679688,-5.3602294921875
0.0365,22.787231445312,-14.088745117188,-9.2840576171875
0.037,23.788208007812,-11.686401367188,-12.607299804688
0.0375,22.426879882812,-7.6424560546875,-15.209838867188
0.038,20.424926757812,-3.2381591796875,-17.492065429688
0.0385,18.302856445312,1.4063720703125,-20.094604492188
0.039,15.660278320312,6.2110595703125,-21.576049804688
0.0395,13.418090820312,10.134887695312,-23.417846679688
0.04,8.6934814453125,14.058715820312,-22.536987304688
0.0405,5.3702392578125,16.020629882812,-21.135620117188
0.041,-0.1551513671875,18.422973632812,-18.212768554688
0.0415,-4.4793701171875,21.105590820312,-16.370971679688
0.042,-9.1239013671875,21.986450195312,-12.647338867188
0.0425,-12.327026367188,23.507934570312,-11.245971679688
0.043,-15.810424804688,21.906372070312,-6.3211669921875
0.0435,-17.972534179688,20.545043945312,-2.8778076171875
0.044,-20.254760742188,18.022583007812,2.0469970703125
0.0445,-22.657104492188,16.020629882812,6.3311767578125
0.045,-23.297729492188,13.057739257812,9.8546142578125
0.0455,-23.658081054688,9.5743408203125,13.658325195312
0.046,-22.176635742188,6.2110595703125,15.420043945312
0.0465,-19.614135742188,1.1260986328125,17.942504882812
0.047,-17.892456054688,-3.3983154296875,20.384887695312
0.0475,-14.409057617188,-8.4031982421875,21.786254882812
0.048,-12.967651367188,-11.526245117188,23.427856445312
0.0485,-7.5623779296875,-15.329956054688,21.786254882812
0.049,-4.2791748046875,-17.091674804688,20.144653320312
0.0495,1.2061767578125,-19.494018554688,17.301879882812
0.05,5.7305908203125,-22.376831054688,15.700317382812
0.0505,9.9346923828125,-22.897338867188,12.136840820312
0.051,13.378051757812,-23.698120117188,9.6143798828125
0.0515,15.740356445312,-22.296752929688,5.8907470703125
0.052,18.382934570312,-20.294799804688,1.2061767578125
0.0525,20.625122070312,-18.092651367188,-3.1981201171875
0.053,22.426879882812,-15.249877929688,-7.7625732421875
0.0535,23.387817382812,-13.207885742188,-10.725463867188
0.054,22.747192382812,-8.4832763671875,-14.689331054688
0.0545,21.425903320312,-5.8406982421875,-16.010620117188
0.055,18.703247070312,-0.4754638671875,-18.453002929688
0.0555,16.941528320312,4.2091064453125,-21.135620117188
0.056,13.257934570312,8.9737548828125,-22.176635742188
0.0565,11.336059570312,12.176879882812,-23.337768554688
0.057,6.4112548828125,15.019653320312,-21.175659179688
0.0575,2.2071533203125,17.181762695312,-19.173706054688
0.058,-2.5574951171875,19.383911132812,-16.811401367188
0.0585,-7.6424560546875,22.066528320312,-14.369018554688
0.059,-10.685424804688,22.546997070312,-11.966674804688
0.0595,-14.809448242188,22.386840820312,-7.7225341796875
0.06,-16.370971679688,21.105590820312,-5.0799560546875
0.0605,-19.293823242188,18.703247070312,0.3653564453125
0.061,-21.616088867188,16.781372070312,4.4893798828125
0.0615,-22.817260742188,13.418090820312,9.0137939453125
0.062,-23.778198242188,11.736450195312,11.616333007812
0.0625,-22.176635742188,6.6915283203125,14.979614257812
0.063,-20.775268554688,3.5284423828125,16.621215820312
0.0635,-18.332885742188,-1.6365966796875,19.183715820312
0.064,-16.010620117188,-6.7615966796875,21.906372070312
0.0645,-13.127807617188,-10.285034179688,22.426879882812
0.065,-9.7244873046875,-14.088745117188,22.747192382812
0.0655,-5.8006591796875,-15.970581054688,20.665161132812
0.066,-0.7557373046875,-18.573120117188,18.222778320312
0.0665,3.5684814453125,-20.775268554688,16.260864257812
0.067,8.9737548828125,-22.817260742188,12.977661132812
0.0675,11.536254882812,-23.457885742188,11.175903320312
0.068,15.460083007812,-22.456909179688,6.3311767578125
0.0685,16.821411132812,-21.095581054688,3.5284423828125
0.069,19.584106445312,-18.653198242188,-1.5965576171875
0.0695,21.866333007812,-16.451049804688,-6.0408935546875
0.07,22.627075195312,-13.287963867188,-9.9647216796875
0.0705,23.307739257812,-10.725463867188,-13.087768554688
0.071,21.385864257812,-6.6414794921875,-15.209838867188
0.0715,19.504028320312,-2.5574951171875,-17.331909179688
0.072,17.462036132812,2.0469970703125,-19.614135742188
0.0725,14.419067382812,7.5723876953125,-22.056518554688
0.073,12.176879882812,10.375122070312,-22.456909179688
0.0735,7.8526611328125,14.298950195312,-21.936401367188
0.074,4.3292236328125,15.660278320312,-19.854370117188
0.0745,-0.9959716796875,18.463012695312,-17.411987304688
0.075,-5.1199951171875,20.665161132812,-15.490112304688
0.0755,-9.9647216796875,22.106567382812,-12.286987304688
0.076,-12.807495117188,22.546997070312,-9.9246826171875
0.0765,-15.690307617188,21.265747070312,-5.8406982421875
0.077,-17.652221679688,19.383911132812,-1.9969482421875
0.0775,-20.014526367188,17.502075195312,2.3272705078125
0.078,-22.176635742188,14.859497070312,7.0518798828125
0.0785,-22.777221679688,12.216918945312,10.054809570312
0.079,-22.937377929688,8.6934814453125,13.698364257812
0.0795,-20.975463867188,5.1300048828125,15.219848632812
0.08,-18.933471679688,0.4854736328125,17.782348632812
0.0805,-16.931518554688,-3.9188232421875,19.984497070312
0.081,-13.768432617188,-9.2440185546875,22.066528320312
0.0815,-11.366088867188,-11.966674804688,22.266723632812
0.082,-7.0819091796875,-15.089721679688,21.105590820312
0.0825,-3.2781982421875,-16.651245117188,18.783325195312
0.083,1.5264892578125,-19.333862304688,16.901489257812
0.0835,6.2510986328125,-21.616088867188,14.419067382812
0.084,10.054809570312,-22.737182617188,11.816528320312
0.0845,13.498168945312,-22.617065429688,8.2930908203125
0.085,15.620239257812,-21.295776367188,5.0499267578125
0.0855,17.942504882812,-19.213745117188,0.6055908203125
0.086,20.184692382812,-17.452026367188,-3.3983154296875
0.0865,22.066528320312,-14.369018554688,-8.3631591796875
0.087,22.386840820312,-12.006713867188,-10.925659179688
0.0875,21.866333007812,-8.2030029296875,-14.288940429688
0.088,19.944458007812,-4.6795654296875,-15.610229492188
0.0885,18.102661132812,0.1251220703125,-18.412963867188
0.089,15.660278320312,4.7296142578125,-20.454956054688
0.0895,13.137817382812,9.2540283203125,-22.296752929688
0.09,9.7344970703125,12.457153320312,-22.056518554688
0.0905,5.7305908203125,14.939575195312,-20.454956054688
0.091,1.2862548828125,16.821411132812,-17.932495117188
0.0915,-2.9979248046875,19.343872070312,-16.370971679688
0.092,-8.0428466796875,21.305786132812,-13.287963867188
0.0925,-11.125854492188,22.106567382812,-11.045776367188
0.093,-14.609252929688,21.586059570312,-7.1619873046875
0.0935,-16.531127929688,19.864379882812,-3.6385498046875
0.094,-19.173706054688,17.822387695312,1.0860595703125
0.0945,-21.095581054688,15.940551757812,4.7696533203125
0.095,-22.777221679688,13.097778320312,9.2540283203125
0.0955,-22.737182617188,9.8546142578125,12.216918945312
0.096,-21.656127929688,6.3712158203125,14.779418945312
0.0965,-19.293823242188,2.1671142578125,16.541137695312
0.097,-17.692260742188,-2.4373779296875,19.263793945312
0.0975,-14.689331054688,-7.2420654296875,21.025512695312
0.098,-12.527221679688,-10.885620117188,22.426879882812
0.0985,-8.4832763671875,-14.208862304688,21.586059570312
0.099,-4.4793701171875,-16.290893554688,19.624145507812
0.0995,0.4454345703125,-18.493041992188,17.101684570312
0.1,4.4893798828125,-20.855346679688,15.500122070312
0.1005,9.2540283203125,-22.577026367188,12.497192382812
0.101,12.457153320312,-22.577026367188,9.3341064453125
0.1015,15.099731445312,-21.976440429688,6.1710205078125
0.102,17.261840820312,-19.734252929688,1.8868408203125
0.1025,19.704223632812,-17.932495117188,-2.5174560546875
0.103,20.985473632812,-15.249877929688,-6.4012451171875
0.1035,22.587036132812,-13.167846679688,-10.244995117188
0.104,22.026489257812,-8.9637451171875,-13.448120117188
0.1045,20.745239257812,-5.7606201171875,-15.450073242188
0.105,18.182739257812,-1.1561279296875,-17.331909179688
0.1055,16.541137695312,3.2481689453125,-19.934448242188
0.106,13.418090820312,8.0128173828125,-21.495971679688
0.1065,10.895629882812,11.336059570312,-22.176635742188
0.107,7.1319580078125,14.058715820312,-21.015502929688
0.1075,2.6475830078125,16.180786132812,-18.653198242188
0.108,-1.7967529296875,18.543090820312,-16.651245117188
0.1085,-6.1610107421875,20.424926757812,-14.288940429688
0.109,-10.004760742188,22.266723632812,-12.407104492188
0.1095,-13.648315429688,21.385864257812,-7.8826904296875
0.11,-15.690307617188,20.825317382812,-5.4002685546875
0.1105,-18.012573242188,18.262817382812,-0.5155029296875
0.111,-20.575073242188,16.701293945312,3.5684814453125
0.1115,-21.495971679688,13.538208007812,7.5323486328125
0.112,-22.777221679688,11.536254882812,10.815551757812
0.1125,-21.776245117188,7.6524658203125,13.658325195312
0.113,-20.134643554688,3.8487548828125,15.740356445312
0.1135,-17.972534179688,-0.6756591796875,17.902465820312
0.114,-15.730346679688,-5.4002685546875,20.304809570312
0.1145,-13.528198242188,-9.3641357421875,21.906372070312
0.115,-9.5242919921875,-13.087768554688,21.586059570312
0.1155,-6.4813232421875,-15.049682617188,20.424926757812
0.116,-1.4364013671875,-17.331909179688,17.702270507812
0.1165,2.7677001953125,-19.894409179688,16.180786132812
0.117,7.4923095703125,-21.215698242188,12.817504882812
0.1175,10.695434570312,-23.057495117188,11.496215820312
0.118,14.138793945312,-21.656127929688,6.8116455078125
0.1185,16.100708007812,-20.775268554688,3.9688720703125
0.119,18.302856445312,-18.292846679688,-0.7957763671875
0.1195,20.745239257812,-16.531127929688,-4.9598388671875
0.12,21.586059570312,-13.528198242188,-8.6434326171875
0.1205,22.346801757812,-10.525268554688,-12.246948242188
0.121,21.105590820312,-7.4422607421875,-14.088745117188
0.1215,19.023559570312,-2.9178466796875,-16.370971679688
0.122,17.261840820312,1.3262939453125,-18.693237304688
0.1225,14.138793945312,6.3311767578125,-20.494995117188
0.123,12.697387695312,9.6544189453125,-22.296752929688
0.1235,7.8126220703125,13.378051757812,-21.015502929688
0.124,4.8096923828125,15.019653320312,-19.614135742188
0.1245,-0.3153076171875,17.301879882812,-16.931518554688
0.125,-4.5994873046875,20.104614257812,-15.450073242188
0.1255,-8.8436279296875,20.825317382812,-12.086791992188
0.126,-12.086791992188,22.106567382812,-10.124877929688
0.1265,-14.649291992188,20.705200195312,-6.3211669921875
0.127,-17.011596679688,19.063598632812,-2.3172607421875
0.1275,-19.173706054688,16.941528320312,1.9669189453125
0.128,-21.375854492188,14.579223632812,6.4512939453125
0.1285,-22.416870117188,12.657348632812,9.3341064453125
0.129,-22.216674804688,8.3731689453125,13.338012695312
0.1295,-20.935424804688,5.6905517578125,14.739379882812
0.13,-18.533081054688,0.6456298828125,17.221801757812
0.1305,-16.891479492188,-3.8387451171875,19.864379882812
0.131,-13.328002929688,-8.6033935546875,21.025512695312
0.1315,-11.806518554688,-11.686401367188,22.426879882812
0.132,-7.0819091796875,-14.649291992188,20.625122070312
0.1325,-3.3983154296875,-16.611206054688,18.903442382812
0.133,1.4063720703125,-18.853393554688,16.501098632812
0.1335,6.2911376953125,-21.656127929688,14.459106445312
0.134,9.6544189453125,-22.256713867188,11.776489257812
0.1345,13.698364257812,-22.496948242188,8.0128173828125
0.135,15.339965820312,-21.335815429688,5.3302001953125
0.1355,17.982543945312,-19.213745117188,0.5655517578125
0.136,20.184692382812,-17.091674804688,-3.7186279296875
0.1365,21.626098632812,-13.808471679688,-8.3231201171875
0.137,22.707153320312,-12.206909179688,-11.005737304688
0.1375,21.465942382812,-7.6424560546875,-14.288940429688
0.138,20.104614257812,-4.7996826171875,-15.690307617188
0.1385,17.782348632812,0.2852783203125,-18.212768554688
0.139,15.660278320312,5.1700439453125,-20.855346679688
0.1395,12.577270507812,9.0938720703125,-21.656127929688
0.14,9.8145751953125,12.657348632812,-22.296752929688
0.1405,5.8106689453125,14.659301757812,-20.254760742188
0.141,1.2462158203125,17.021606445312,-18.092651367188
0.1415,-3.1180419921875,19.223754882812,-16.010620117188
0.142,-8.3631591796875,21.465942382812,-13.127807617188
0.1425,-10.965698242188,22.146606445312,-11.286010742188
0.143,-14.889526367188,21.465942382812,-6.7615966796875
0.1435,-16.290893554688,20.024536132812,-4.1190185546875
0.144,-19.093627929688,17.822387695312,0.9659423828125
0.1445,-21.215698242188,15.780395507812,5.2501220703125
0.145,-22.216674804688,12.497192382812,9.2940673828125
0.1455,-23.137573242188,10.415161132812,12.256958007812
0.146,-21.335815429688,6.2110595703125,14.699340820312
0.1465,-19.574096679688,2.4473876953125,16.581176757812
0.147,-17.532104492188,-2.2772216796875,18.943481445312
0.1475,-14.649291992188,-7.6424560546875,21.425903320312
0.148,-12.407104492188,-10.605346679688,22.066528320312
0.1485,-8.4832763671875,-14.489135742188,21.866333007812
0.149,-4.9998779296875,-15.890502929688,19.784301757812
0.1495,0.2452392578125,-18.653198242188,17.421997070312
0.15,4.4493408203125,-20.775268554688,15.420043945312
0.1505,9.5743408203125,-22.577026367188,12.136840820312
0.151,12.176879882812,-23.057495117188,10.054809570312
0.1515,15.380004882812,-21.936401367188,5.8507080078125
0.152,17.141723632812,-20.054565429688,2.2872314453125
0.1525,19.664184570312,-18.012573242188,-2.2772216796875
0.153,21.626098632812,-15.410034179688,-6.8817138671875
0.1535,22.306762695312,-12.607299804688,-10.285034179688
0.154,22.707153320312,-9.4842529296875,-13.768432617188
0.1545,20.745239257812,-5.8006591796875,-15.329956054688
0.155,18.703247070312,-1.3963623046875,-17.572143554688
0.1555,16.621215820312,3.0880126953125,-19.734252929688
0.156,13.418090820312,8.4932861328125,-21.936401367188
0.1565,11.055786132812,11.255981445312,-22.216674804688
0.157,6.8917236328125,14.579223632812,-21.295776367188
0.1575,3.0479736328125,16.020629882812,-18.893432617188
0.158,-1.7967529296875,18.703247070312,-16.971557617188
0.1585,-6.2811279296875,20.625122070312,-14.449096679688
0.159,-10.365112304688,22.066528320312,-11.806518554688
0.1595,-13.688354492188,21.986450195312,-8.4832763671875
0.16,-15.930541992188,20.825317382812,-5.0799560546875
0.1605,-18.132690429688,18.543090820312,-0.6356201171875
0.161,-20.414916992188,16.781372070312,3.3282470703125
0.1615,-22.216674804688,13.738403320312,8.1729736328125
0.162,-22.657104492188,11.255981445312,10.935668945312
0.1625,-22.416870117188,7.6524658203125,14.258911132812
0.163,-20.214721679688,3.9288330078125,15.740356445312
0.1635,-18.372924804688,-0.7156982421875,18.382934570312
0.164,-15.850463867188,-5.3201904296875,20.304809570312
0.1645,-13.328002929688,-9.8846435546875,22.266723632812
0.165,-10.084838867188,-12.967651367188,22.026489257812
0.1655,-6.1610107421875,-15.650268554688,20.665161132812
0.166,-1.5965576171875,-17.411987304688,17.942504882812
0.1665,2.6876220703125,-20.094604492188,16.380981445312
0.167,7.6925048828125,-21.856323242188,13.177856445312
0.1675,11.055786132812,-22.977416992188,11.015747070312
0.168,14.539184570312,-22.376831054688,7.1719970703125
0.1685,16.461059570312,-20.855346679688,3.7686767578125
0.169,18.863403320312,-18.573120117188,-0.9559326171875
0.1695,20.865356445312,-16.651245117188,-4.8397216796875
0.17,22.546997070312,-13.608276367188,-9.4442138671875
0.1705,22.466918945312,-10.485229492188,-12.487182617188
0.171,21.706176757812,-7.2020263671875,-14.969604492188
0.1715,19.223754882812,-2.9178466796875,-16.651245117188
0.172,17.662231445312,1.5264892578125,-19.373901367188
0.1725,14.379028320312,6.4512939453125,-20.855346679688
0.173,12.337036132812,10.335083007812,-22.577026367188
0.1735,8.2530517578125,13.618286132812,-21.776245117188
0.174,4.4493408203125,15.740356445312,-19.974487304688
0.1745,-0.5155029296875,17.782348632812,-17.211791992188
0.175,-4.6395263671875,20.264770507812,-15.650268554688
0.1755,-9.4041748046875,21.746215820312,-12.447143554688
0.176,-12.567260742188,22.106567382812,-9.6844482421875
0.1765,-15.410034179688,21.586059570312,-6.4012451171875
0.177,-17.652221679688,19.343872070312,-2.1170654296875
0.1775,-19.974487304688,17.421997070312,2.3673095703125
0.178,-21.495971679688,14.779418945312,6.4112548828125
