wavelength,x,y,z
0.0,-0.2001953125,-6.40625,4.484375
0.0005,-1.12109375,-6.1259765625,5.0849609375
0.001,-2.2822265625,-5.205078125,5.4853515625
0.0015,-3.5234375,-4.2041015625,5.92578125
0.002,-4.6044921875,-3.04296875,6.2060546875
0.0025,-5.2451171875,-2.08203125,6.24609375
0.003,-5.4453125,-1.361328125,6.0458984375
0.0035,-5.3251953125,-0.560546875,5.365234375
0.004,-5.1650390625,0.6005859375,4.484375
0.0045,-5.1650390625,1.921875,3.4033203125
0.005,-5.125,3.123046875,2.40234375
0.0055,-4.96484375,4.00390625,1.521484375
0.006,-4.404296875,4.484375,0.640625
0.0065,-3.443359375,4.6845703125,-0.48046875
0.007,-2.4423828125,5.0849609375,-1.8017578125
0.0075,-1.3212890625,5.4052734375,-3.203125
0.008,-0.560546875,5.7255859375,-4.32421875
0.0085,0.2802734375,5.7255859375,-5.0849609375
0.009,1.28125,5.0849609375,-5.60546875
0.0095,2.5224609375,4.00390625,-6.005859375
0.01,3.8037109375,2.9228515625,-6.40625
0.0105,4.724609375,1.841796875,-6.486328125
0.011,5.1650390625,1.0009765625,-6.4462890625
0.0115,5.2451171875,0.2802734375,-6.0859375
0.012,5.0048828125,-0.80078125,-5.1650390625
0.0125,4.9248046875,-1.9619140625,-4.1640625
0.013,4.8447265625,-3.36328125,-3.0029296875
0.0135,4.7646484375,-4.4443359375,-2.001953125
0.014,4.484375,-5.1650390625,-1.1611328125
0.0145,3.68359375,-5.4853515625,-0.2802734375
0.015,2.5625,-5.6455078125,0.9609375
0.0155,1.44140625,-6.0458984375,2.482421875
0.016,0.400390625,-6.2861328125,3.8037109375
0.0165,-0.400390625,-6.56640625,4.7646484375
0.017,-1.2412109375,-6.3662109375,5.4052734375
0.0175,-2.40234375,-5.4453125,5.765625
0.018,-3.603515625,-4.244140625,6.166015625
0.0185,-4.8447265625,-3.0830078125,6.4462890625
0.019,-5.525390625,-2.001953125,6.4462890625
0.0195,-5.8056640625,-1.2412109375,6.2861328125
0.02,-5.685546875,-0.4404296875,5.6455078125
0.0205,-5.4052734375,0.720703125,4.6044921875
0.021,-5.4052734375,2.0419921875,3.5234375
0.0215,-5.28515625,3.36328125,2.3623046875
0.022,-5.0849609375,4.32421875,1.361328125
0.0225,-4.6044921875,4.8447265625,0.560546875
0.023,-3.6435546875,5.0849609375,-0.6005859375
0.0235,-2.4423828125,5.3251953125,-1.9619140625
0.024,-1.2412109375,5.685546875,-3.4833984375
0.0245,-0.3203125,5.845703125,-4.64453125
0.025,0.5205078125,6.005859375,-5.525390625
0.0255,1.521484375,5.365234375,-6.1259765625
0.026,2.8427734375,4.2041015625,-6.40625
0.0265,4.1240234375,3.04296875,-6.7666015625
0.027,5.1650390625,1.76171875,-6.9267578125
0.0275,5.685546875,0.7607421875,-6.806640625
0.028,5.765625,0.0,-6.40625
0.0285,5.525390625,-1.1611328125,-5.4853515625
0.029,5.2451171875,-2.3623046875,-4.244140625
0.0295,5.125,-3.84375,-2.9228515625
0.03,4.96484375,-5.0048828125,-1.76171875
0.0305,4.564453125,-5.765625,-0.80078125
0.031,3.84375,-6.1259765625,0.2001953125
0.0315,2.5224609375,-6.2060546875,1.44140625
0.032,1.201171875,-6.4462890625,3.0029296875
0.0325,0.0,-6.646484375,4.484375
0.033,-0.9609375,-6.806640625,5.4052734375
0.0335,-1.7216796875,-6.56640625,6.0859375
0.034,-2.8828125,-5.525390625,6.486328125
0.0345,-4.1640625,-4.2041015625,6.6865234375
0.035,-5.4052734375,-2.8828125,6.9267578125
0.0355,-6.166015625,-1.6416015625,6.8466796875
0.036,-6.40625,-0.80078125,6.56640625
0.0365,-6.2861328125,0.16015625,5.92578125
0.037,-5.845703125,1.2412109375,4.724609375
0.0375,-5.5654296875,2.5625,3.36328125
0.038,-5.4052734375,3.8837890625,2.08203125
0.0385,-5.125,4.96484375,0.9609375
0.039,-4.64453125,5.4853515625,0.16015625
0.0395,-3.6435546875,5.60546875,-1.0009765625
0.04,-2.2822265625,5.6455078125,-2.2822265625
0.0405,-0.9609375,5.8857421875,-3.8837890625
0.041,0.240234375,6.005859375,-5.1650390625
0.0415,0.9208984375,6.0458984375,-6.005859375
0.042,1.76171875,5.685546875,-6.486328125
0.0425,3.04296875,4.4443359375,-6.7666015625
0.043,4.2841796875,3.1630859375,-7.0068359375
0.0435,5.4052734375,1.8017578125,-7.126953125
0.044,6.005859375,0.6806640625,-7.0068359375
0.0445,6.1259765625,-0.2001953125,-6.6865234375
0.045,5.845703125,-1.12109375,-5.845703125
0.0455,5.4052734375,-2.2421875,-4.564453125
0.046,5.2451171875,-3.6435546875,-3.203125
0.0465,5.044921875,-4.96484375,-1.9619140625
0.047,4.6845703125,-5.845703125,-0.9208984375
0.0475,4.1240234375,-6.2861328125,0.0
0.048,3.0029296875,-6.3662109375,1.12109375
0.0485,1.5615234375,-6.486328125,2.5224609375
0.049,0.240234375,-6.7265625,4.1240234375
0.0495,-0.8408203125,-6.806640625,5.2451171875
0.05,-1.521484375,-6.7666015625,6.005859375
0.0505,-2.482421875,-6.1259765625,6.4462890625
0.051,-3.7236328125,-4.8046875,6.6865234375
0.0515,-5.0048828125,-3.5234375,6.966796875
0.052,-5.9658203125,-2.2021484375,7.0068359375
0.0525,-6.4462890625,-1.1611328125,6.7666015625
0.053,-6.40625,-0.400390625,6.3662109375
0.0535,-6.1259765625,0.6806640625,5.365234375
0.054,-5.7255859375,1.921875,4.0439453125
0.0545,-5.60546875,3.3232421875,2.72265625
0.055,-5.3251953125,4.5244140625,1.521484375
0.0555,-4.96484375,5.28515625,0.6005859375
0.056,-4.2041015625,5.60546875,-0.400390625
0.0565,-2.962890625,5.60546875,-1.6015625
0.057,-1.6015625,5.845703125,-3.203125
0.0575,-0.3603515625,6.005859375,-4.64453125
0.058,0.6005859375,6.166015625,-5.6455078125
0.0585,1.28125,6.0458984375,-6.3662109375
0.059,2.482421875,5.0849609375,-6.7265625
0.0595,3.763671875,3.763671875,-6.9267578125
0.06,5.044921875,2.40234375,-7.20703125
0.0605,5.8857421875,1.12109375,-7.126953125
0.061,6.1259765625,0.240234375,-6.9267578125
0.0615,6.0458984375,-0.720703125,-6.2861328125
0.062,5.685546875,-1.8017578125,-5.125
0.0625,5.4052734375,-3.203125,-3.8037109375
0.063,5.205078125,-4.6044921875,-2.40234375
0.0635,4.9248046875,-5.7255859375,-1.2412109375
0.064,4.484375,-6.2861328125,-0.3603515625
0.0645,3.4833984375,-6.5263671875,0.7607421875
0.065,2.0419921875,-6.56640625,2.08203125
0.0655,0.6005859375,-6.806640625,3.8037109375
0.066,-0.640625,-6.8466796875,5.0849609375
0.0665,-1.361328125,-6.9267578125,6.005859375
0.067,-2.2421875,-6.4462890625,6.5263671875
0.0675,-3.5634765625,-5.2451171875,6.806640625
0.068,-4.8447265625,-3.84375,7.046875
0.0685,-5.92578125,-2.482421875,7.1669921875
0.069,-6.56640625,-1.28125,6.966796875
0.0695,-6.646484375,-0.48046875,6.6064453125
0.07,-6.3662109375,0.560546875,5.7255859375
0.0705,-5.92578125,1.76171875,4.3642578125
0.071,-5.685546875,3.1630859375,3.0029296875
0.0715,-5.4453125,4.484375,1.681640625
0.072,-5.0849609375,5.365234375,0.640625
0.0725,-4.4443359375,5.7255859375,-0.3203125
0.073,-3.283203125,5.765625,-1.4013671875
0.0735,-1.8818359375,5.8056640625,-2.9228515625
0.074,-0.48046875,6.0458984375,-4.4443359375
0.0745,0.6005859375,6.0859375,-5.5654296875
0.075,1.28125,6.0859375,-6.2861328125
0.0755,2.2421875,5.4052734375,-6.6865234375
0.076,3.5234375,4.0439453125,-6.88671875
0.0765,4.724609375,2.72265625,-7.126953125
0.077,5.685546875,1.4013671875,-7.126953125
0.0775,6.0859375,0.4404296875,-6.9267578125
0.078,6.0859375,-0.4404296875,-6.486328125
0.0785,5.7255859375,-1.361328125,-5.525390625
0.079,5.3251953125,-2.5625,-4.244140625
0.0795,5.125,-3.9638671875,-2.8828125
0.08,4.9248046875,-5.1650390625,-1.681640625
0.0805,4.5244140625,-5.92578125,-0.7607421875
0.081,3.84375,-6.24609375,0.16015625
0.0815,2.6025390625,-6.2861328125,1.28125
0.082,1.3212890625,-6.40625,2.7626953125
0.0825,0.0400390625,-6.56640625,4.2041015625
0.083,-0.880859375,-6.7265625,5.2451171875
0.0835,-1.5615234375,-6.6064453125,5.8857421875
0.084,-2.5224609375,-5.8056640625,6.24609375
0.0845,-3.7236328125,-4.6044921875,6.486328125
0.085,-4.96484375,-3.36328125,6.7666015625
0.0855,-5.8056640625,-2.1220703125,6.7265625
0.086,-6.166015625,-1.28125,6.6064453125
0.0865,-6.1259765625,-0.5205078125,6.0859375
0.087,-5.765625,0.560546875,5.125
0.0875,-5.5654296875,1.7216796875,4.00390625
0.088,-5.4453125,3.123046875,2.72265625
0.0885,-5.205078125,4.2041015625,1.6416015625
0.089,-4.884765625,4.9248046875,0.7607421875
0.0895,-4.1640625,5.1650390625,-0.240234375
0.09,-2.962890625,5.3251953125,-1.361328125
0.0905,-1.76171875,5.685546875,-2.8828125
0.091,-0.6005859375,5.8857421875,-4.244140625
0.0915,0.2802734375,6.0458984375,-5.2451171875
0.092,1.0009765625,5.845703125,-5.8857421875
0.0925,2.2021484375,4.884765625,-6.24609375
0.093,3.443359375,3.763671875,-6.56640625
0.0935,4.6044921875,2.482421875,-6.8466796875
0.094,5.4052734375,1.361328125,-6.806640625
0.0945,5.685546875,0.6005859375,-6.646484375
0.095,5.5654296875,-0.3603515625,-6.0458984375
0.0955,5.2451171875,-1.361328125,-4.96484375
0.096,5.125,-2.72265625,-3.8037109375
0.0965,4.96484375,-4.1240234375,-2.5625
0.097,4.724609375,-5.125,-1.5615234375
0.0975,4.32421875,-5.7255859375,-0.80078125
0.098,3.36328125,-5.8056640625,0.3603515625
0.0985,2.2021484375,-6.005859375,1.6015625
0.099,0.9208984375,-6.2861328125,3.1630859375
0.0995,0.0,-6.486328125,4.404296875
0.1,-0.8408203125,-6.56640625,5.2451171875
0.1005,-1.681640625,-6.1259765625,5.7255859375
0.101,-2.8828125,-5.0849609375,6.0458984375
0.1015,-4.0439453125,-3.9638671875,6.40625
0.102,-5.125,-2.72265625,6.5263671875
0.1025,-5.685546875,-1.76171875,6.40625
0.103,-5.8056640625,-1.0810546875,6.2060546875
0.1035,-5.6455078125,-0.240234375,5.4052734375
0.104,-5.365234375,0.9208984375,4.4443359375
0.1045,-5.28515625,2.2021484375,3.283203125
0.105,-5.125,3.443359375,2.162109375
0.1055,-4.96484375,4.2041015625,1.28125
0.106,-4.3642578125,4.724609375,0.5205078125
0.1065,-3.443359375,4.8447265625,-0.640625
0.107,-2.40234375,5.205078125,-1.921875
0.1075,-1.2412109375,5.4453125,-3.283203125
0.108,-0.400390625,5.7255859375,-4.3642578125
0.1085,0.3603515625,5.8056640625,-5.1650390625
0.109,1.28125,5.2451171875,-5.6455078125
0.1095,2.4423828125,4.244140625,-5.9658203125
0.11,3.68359375,3.1630859375,-6.3662109375
0.1105,4.6044921875,1.9619140625,-6.486328125
0.111,5.0849609375,1.2412109375,-6.486328125
0.1115,5.205078125,0.48046875,-6.166015625
0.112,5.044921875,-0.5205078125,-5.4453125
0.1125,4.9248046875,-1.6015625,-4.5244140625
0.113,4.8447265625,-2.9228515625,-3.4033203125
0.1135,4.724609375,-4.083984375,-2.40234375
0.114,4.5244140625,-4.8447265625,-1.5615234375
0.1145,3.923828125,-5.205078125,-0.6806640625
0.115,2.962890625,-5.4453125,0.4404296875
0.1155,1.921875,-5.845703125,1.841796875
0.116,0.8408203125,-6.1259765625,3.1630859375
0.1165,0.1201171875,-6.40625,4.1640625
0.117,-0.720703125,-6.3662109375,4.9248046875
0.1175,-1.7216796875,-5.6455078125,5.365234375
0.118,-2.9228515625,-4.724609375,5.765625
0.1185,-4.083984375,-3.603515625,6.1259765625
0.119,-4.96484375,-2.5625,6.2060546875
0.1195,-5.3251953125,-1.8818359375,6.24609375
0.12,-5.365234375,-1.12109375,5.765625
0.1205,-5.1650390625,-0.2802734375,4.96484375
0.121,-5.1650390625,0.9609375,4.1240234375
0.1215,-5.1650390625,2.2421875,3.04296875
0.122,-5.044921875,3.3232421875,2.162109375
0.1225,-4.7646484375,4.00390625,1.361328125
0.123,-4.0439453125,4.404296875,0.48046875
0.1235,-3.1630859375,4.6845703125,-0.7607421875
0.124,-2.162109375,5.0849609375,-2.162109375
0.1245,-1.2412109375,5.4453125,-3.36328125
0.125,-0.5205078125,5.7255859375,-4.32421875
0.1255,0.400390625,5.4853515625,-4.96484375
0.126,1.44140625,4.6845703125,-5.4052734375
0.1265,2.6826171875,3.8037109375,-5.8857421875
0.127,3.8037109375,2.6826171875,-6.166015625
0.1275,4.5244140625,1.8017578125,-6.2861328125
0.128,4.8447265625,1.12109375,-6.24609375
0.1285,4.8046875,0.2802734375,-5.7255859375
0.129,4.724609375,-0.720703125,-4.96484375
0.1295,4.7646484375,-1.9619140625,-4.00390625
0.13,4.7646484375,-3.203125,-3.0029296875
0.1305,4.6044921875,-4.1240234375,-2.1220703125
0.131,4.2841796875,-4.724609375,-1.361328125
0.1315,3.4833984375,-5.044921875,-0.400390625
0.132,2.5625,-5.4453125,0.9609375
0.1325,1.521484375,-5.8056640625,2.2822265625
0.133,0.6806640625,-6.2060546875,3.4833984375
0.1335,0.0,-6.3662109375,4.32421875
0.134,-1.0009765625,-5.9658203125,4.9248046875
0.1345,-2.1220703125,-5.125,5.3251953125
0.135,-3.36328125,-4.1640625,5.8056640625
0.1355,-4.404296875,-3.0830078125,6.0458984375
0.136,-5.0048828125,-2.2822265625,6.1259765625
0.1365,-5.205078125,-1.6416015625,5.92578125
0.137,-5.125,-0.80078125,5.2451171875
0.1375,-5.0849609375,0.2802734375,4.484375
0.138,-5.125,1.6416015625,3.4833984375
0.1385,-5.125,2.8427734375,2.5224609375
0.139,-4.9248046875,3.68359375,1.76171875
0.1395,-4.3642578125,4.1240234375,0.9208984375
0.14,-3.5234375,4.4443359375,-0.2001953125
0.1405,-2.6025390625,4.96484375,-1.6015625
0.141,-1.6015625,5.28515625,-2.8828125
0.1415,-0.8408203125,5.6455078125,-3.9638671875
0.142,0.0,5.6455078125,-4.7646484375
0.1425,1.041015625,4.96484375,-5.205078125
0.143,2.2421875,4.083984375,-5.7255859375
0.1435,3.4833984375,3.04296875,-6.1259765625
0.144,4.3642578125,2.001953125,-6.2861328125
0.1445,4.8046875,1.28125,-6.326171875
0.145,4.884765625,0.5205078125,-5.92578125
0.1455,4.724609375,-0.5205078125,-5.1650390625
0.146,4.7646484375,-1.6416015625,-4.244140625
0.1465,4.7646484375,-2.962890625,-3.203125
0.147,4.64453125,-4.00390625,-2.2822265625
0.1475,4.4443359375,-4.724609375,-1.4814453125
0.148,3.68359375,-5.0849609375,-0.6005859375
0.1485,2.6826171875,-5.3251953125,0.6806640625
0.149,1.681640625,-5.8056640625,2.08203125
0.1495,0.7607421875,-6.1259765625,3.3232421875
0.15,0.080078125,-6.3662109375,4.2841796875
0.1505,-0.880859375,-6.1259765625,4.9248046875
0.151,-2.001953125,-5.28515625,5.3251953125
0.1515,-3.203125,-4.32421875,5.8056640625
0.152,-4.3642578125,-3.203125,6.1259765625
0.1525,-5.0849609375,-2.322265625,6.166015625
0.153,-5.3251953125,-1.6015625,6.0458984375
0.1535,-5.28515625,-0.8408203125,5.4052734375
0.154,-5.0849609375,0.2802734375,4.6044921875
0.1545,-5.1650390625,1.521484375,3.68359375
0.155,-5.125,2.802734375,2.6025390625
0.1555,-4.96484375,3.68359375,1.76171875
0.156,-4.5244140625,4.244140625,0.9609375
0.1565,-3.6435546875,4.484375,0.0
0.157,-2.72265625,4.9248046875,-1.44140625
0.1575,-1.6416015625,5.3251953125,-2.8427734375
0.158,-0.80078125,5.6455078125,-3.9638671875
0.1585,0.0,5.7255859375,-4.8447265625
0.159,0.9609375,5.2451171875,-5.365234375
0.1595,2.2021484375,4.244140625,-5.765625
0.16,3.443359375,3.1630859375,-6.2060546875
0.1605,4.484375,2.0419921875,-6.40625
0.161,4.96484375,1.2412109375,-6.40625
0.1615,5.0849609375,0.48046875,-6.1259765625
0.162,4.96484375,-0.5205078125,-5.3251953125
0.1625,4.8447265625,-1.6015625,-4.404296875
0.163,4.8447265625,-3.0029296875,-3.283203125
0.1635,4.7646484375,-4.1640625,-2.2421875
0.164,4.5244140625,-4.96484375,-1.4013671875
0.1645,3.84375,-5.3251953125,-0.560546875
0.165,2.802734375,-5.4853515625,0.6806640625
0.1655,1.7216796875,-5.92578125,2.162109375
0.166,0.640625,-6.24609375,3.5234375
0.1665,-0.2001953125,-6.486328125,4.5244140625
0.167,-1.0009765625,-6.3662109375,5.2451171875
0.1675,-2.1220703125,-5.4853515625,5.685546875
0.168,-3.4033203125,-4.404296875,6.0458984375
0.1685,-4.564453125,-3.2431640625,6.3662109375
0.169,-5.4052734375,-2.162109375,6.40625
0.1695,-5.7255859375,-1.44140625,6.24609375
0.17,-5.6455078125,-0.6005859375,5.685546875
0.1705,-5.365234375,0.560546875,4.64453125
0.171,-5.3251953125,1.841796875,3.603515625
0.1715,-5.2451171875,3.1630859375,2.4423828125
0.172,-5.0849609375,4.1640625,1.4814453125
0.1725,-4.64453125,4.7646484375,0.6806640625
0.173,-3.7236328125,4.96484375,-0.400390625
0.1735,-2.5625,5.1650390625,-1.7216796875
0.174,-1.361328125,5.60546875,-3.2431640625
0.1745,-0.4404296875,5.8056640625,-4.484375
0.175,0.3603515625,5.92578125,-5.3251953125
0.1755,1.28125,5.4853515625,-5.92578125
0.176,2.6025390625,4.32421875,-6.24609375
0.1765,3.8837890625,3.123046875,-6.6865234375
0.177,4.96484375,1.8818359375,-6.806640625
0.1775,5.525390625,0.8408203125,-6.7666015625
0.178,5.685546875,0.1201171875,-6.40625
0.1785,5.4453125,-0.9208984375,-5.5654296875
0.179,5.125,-2.08203125,-4.3642578125
0.1795,5.0849609375,-3.5634765625,-3.0830078125
0.18,4.9248046875,-4.8046875,-1.921875
0.1805,4.6044921875,-5.60546875,-1.0009765625
0.181,3.9638671875,-5.9658203125,0.0
0.1815,2.7626953125,-6.0859375,1.1611328125
0.182,1.44140625,-6.326171875,2.6826171875
0.1825,0.16015625,-6.5263671875,4.1240234375
0.183,-0.720703125,-6.7265625,5.205078125
0.1835,-1.44140625,-6.56640625,5.8857421875
0.184,-2.6025390625,-5.765625,6.326171875
0.1845,-3.8837890625,-4.4443359375,6.5263671875
0.185,-5.1650390625,-3.1630859375,6.8466796875
0.1855,-6.0458984375,-1.921875,6.7666015625
0.186,-6.3662109375,-1.0009765625,6.6064453125
0.1865,-6.2060546875,-0.16015625,6.005859375
0.187,-5.8056640625,1.0009765625,4.8447265625
0.1875,-5.60546875,2.2822265625,3.5634765625
0.188,-5.4453125,3.68359375,2.2822265625
0.1885,-5.205078125,4.8046875,1.1611328125
0.189,-4.7646484375,5.365234375,0.3203125
0.1895,-3.84375,5.5654296875,-0.720703125
0.19,-2.482421875,5.5654296875,-2.0419921875
0.1905,-1.1611328125,5.8857421875,-3.68359375
0.191,0.080078125,6.0458984375,-4.96484375
0.1915,0.80078125,6.1259765625,-5.845703125
0.192,1.6015625,5.7255859375,-6.40625
0.1925,2.8427734375,4.5244140625,-6.7265625
0.193,4.1640625,3.203125,-7.0068359375
0.1935,5.28515625,1.841796875,-7.1669921875
0.194,6.005859375,0.7607421875,-7.046875
0.1945,6.1259765625,-0.2001953125,-6.7265625
0.195,5.8857421875,-1.041015625,-5.92578125
0.1955,5.4853515625,-2.2021484375,-4.64453125
0.196,5.2451171875,-3.603515625,-3.283203125
0.1965,5.044921875,-4.96484375,-1.9619140625
0.197,4.724609375,-5.845703125,-0.9208984375
0.1975,4.1640625,-6.326171875,0.0
0.198,3.04296875,-6.40625,1.0810546875
0.1985,1.6015625,-6.4462890625,2.5224609375
0.199,0.240234375,-6.6865234375,4.1240234375
0.1995,-0.880859375,-6.7666015625,5.28515625
0.2,-1.5615234375,-6.7666015625,6.0859375
0.2005,-2.482421875,-6.166015625,6.486328125
0.201,-3.763671875,-4.8447265625,6.6865234375
0.2015,-5.0048828125,-3.5634765625,6.966796875
0.202,-6.005859375,-2.2021484375,7.046875
0.2025,-6.486328125,-1.12109375,6.7666015625
0.203,-6.4462890625,-0.3603515625,6.3662109375
0.2035,-6.1259765625,0.6806640625,5.365234375
0.204,-5.7255859375,1.8818359375,4.083984375
0.2045,-5.5654296875,3.3232421875,2.72265625
0.205,-5.3251953125,4.5244140625,1.521484375
0.2055,-4.96484375,5.3251953125,0.6005859375
0.206,-4.2041015625,5.60546875,-0.400390625
0.2065,-3.04296875,5.6455078125,-1.5615234375
0.207,-1.6416015625,5.8056640625,-3.0830078125
0.2075,-0.3603515625,6.005859375,-4.564453125
0.208,0.6005859375,6.1259765625,-5.60546875
0.2085,1.28125,6.005859375,-6.2861328125
0.209,2.3623046875,5.125,-6.6865234375
0.2095,3.603515625,3.763671875,-6.88671875
0.21,4.884765625,2.5224609375,-7.126953125
0.2105,5.765625,1.2412109375,-7.0869140625
0.211,6.0859375,0.3203125,-6.88671875
0.2115,6.005859375,-0.6005859375,-6.3662109375
0.212,5.60546875,-1.6015625,-5.205078125
0.2125,5.365234375,-2.9228515625,-3.923828125
0.213,5.1650390625,-4.3642578125,-2.5625
0.2135,4.9248046875,-5.4853515625,-1.4013671875
0.214,4.484375,-6.1259765625,-0.560546875
0.2145,3.603515625,-6.326171875,0.5205078125
0.215,2.2822265625,-6.3662109375,1.76171875
0.2155,0.9208984375,-6.646484375,3.443359375
0.216,-0.400390625,-6.7265625,4.8046875
0.2165,-1.201171875,-6.8466796875,5.7255859375
0.217,-1.9619140625,-6.56640625,6.2861328125
0.2175,-3.203125,-5.4853515625,6.56640625
0.218,-4.4443359375,-4.083984375,6.8466796875
0.2185,-5.6455078125,-2.7626953125,7.046875
0.219,-6.3662109375,-1.521484375,6.88671875
0.2195,-6.486328125,-0.7607421875,6.6064453125
0.22,-6.2861328125,0.240234375,5.845703125
0.2205,-5.845703125,1.361328125,4.6044921875
0.221,-5.7255859375,2.7626953125,3.3232421875
0.2215,-5.4853515625,4.1640625,1.9619140625
0.222,-5.1650390625,5.0849609375,0.9208984375
0.2225,-4.64453125,5.60546875,0.080078125
0.223,-3.5634765625,5.7255859375,-1.12109375
0.2235,-2.1220703125,5.765625,-2.5224609375
0.224,-0.80078125,6.0458984375,-4.1240234375
0.2245,0.3603515625,6.0859375,-5.365234375
0.225,1.0009765625,6.1259765625,-6.1259765625
0.2255,1.921875,5.4853515625,-6.6064453125
0.226,3.283203125,4.244140625,-6.8466796875
0.2265,4.5244140625,2.9228515625,-7.0869140625
0.227,5.60546875,1.5615234375,-7.1669921875
0.2275,6.0859375,0.5205078125,-6.9267578125
0.228,6.0859375,-0.3603515625,-6.56640625
0.2285,5.765625,-1.28125,-5.6455078125
