wavelength,x,y,z
0.0,0.6956787109375,5.8206787109375,-5.5504150390625
0.0005,1.7767333984375,5.2601318359375,-6.0709228515625
0.001,2.8978271484375,4.0189208984375,-6.3511962890625
0.0015,4.0989990234375,2.6175537109375,-6.3912353515625
0.002,4.9398193359375,1.4564208984375,-6.3511962890625
0.0025,5.4202880859375,0.6556396484375,-6.3912353515625
0.003,5.5003662109375,0.0150146484375,-6.0308837890625
0.0035,5.3402099609375,-1.1461181640625,-5.1500244140625
0.004,5.0999755859375,-2.3072509765625,-3.9888916015625
0.0045,4.8597412109375,-3.5885009765625,-2.7076416015625
0.005,4.6995849609375,-4.5494384765625,-1.7867431640625
0.0055,4.5794677734375,-5.3502197265625,-1.0660400390625
0.006,3.8587646484375,-5.6304931640625,-0.2252197265625
0.0065,2.8577880859375,-5.8306884765625,1.0159912109375
0.007,1.5364990234375,-5.9908447265625,2.4573974609375
0.0075,0.4154052734375,-6.1109619140625,3.6585693359375
0.008,-0.3453369140625,-6.3511962890625,4.6195068359375
0.0085,-0.9859619140625,-6.2711181640625,5.4202880859375
0.009,-2.0269775390625,-5.6304931640625,5.7406005859375
0.0095,-3.2281494140625,-4.5093994140625,6.0208740234375
0.01,-4.3892822265625,-3.1480712890625,6.1009521484375
0.0105,-5.1500244140625,-2.0670166015625,6.1009521484375
0.011,-5.5904541015625,-1.4263916015625,6.1810302734375
0.0115,-5.5904541015625,-0.6656494140625,5.7005615234375
0.012,-5.4302978515625,0.3753662109375,4.8597412109375
0.0125,-5.2701416015625,1.6165771484375,3.7386474609375
0.013,-5.1099853515625,2.8177490234375,2.5775146484375
0.0135,-5.0299072265625,3.7786865234375,1.7767333984375
0.014,-4.8297119140625,4.4593505859375,1.0159912109375
0.0145,-4.1490478515625,4.8197021484375,0.1351318359375
0.015,-3.0679931640625,5.0599365234375,-1.1461181640625
0.0155,-1.8267822265625,5.2200927734375,-2.5875244140625
0.016,-0.9459228515625,5.4603271484375,-3.7086181640625
0.0165,-0.3853759765625,5.7406005859375,-4.5494384765625
0.017,0.6156005859375,5.4603271484375,-5.2701416015625
0.0175,1.7767333984375,4.6595458984375,-5.7506103515625
0.018,2.9378662109375,3.5384521484375,-5.9908447265625
0.0185,4.0189208984375,2.2972412109375,-6.0709228515625
0.019,4.7796630859375,1.4163818359375,-6.1910400390625
0.0195,5.0999755859375,0.7757568359375,-6.1109619140625
0.02,5.0999755859375,-0.1451416015625,-5.6304931640625
0.0205,4.9798583984375,-1.2261962890625,-4.7095947265625
0.021,4.8197021484375,-2.4674072265625,-3.5484619140625
0.0215,4.6995849609375,-3.5885009765625,-2.5074462890625
0.022,4.6995849609375,-4.5093994140625,-1.7867431640625
0.0225,4.2991943359375,-5.0699462890625,-1.0260009765625
0.023,3.4984130859375,-5.3902587890625,0.0950927734375
0.0235,2.4173583984375,-5.6705322265625,1.3363037109375
0.024,1.2161865234375,-5.7906494140625,2.6976318359375
0.0245,0.4154052734375,-6.1109619140625,3.8187255859375
0.025,-0.3052978515625,-6.3912353515625,4.6195068359375
0.0255,-1.1861572265625,-5.9908447265625,5.1400146484375
0.026,-2.3873291015625,-4.9898681640625,5.5804443359375
0.0265,-3.5484619140625,-3.7886962890625,5.7406005859375
0.027,-4.5093994140625,-2.6275634765625,5.8607177734375
0.0275,-5.1099853515625,-1.9468994140625,6.0208740234375
0.028,-5.3101806640625,-1.2662353515625,5.8206787109375
0.0285,-5.2701416015625,-0.3853759765625,5.1400146484375
0.029,-5.1500244140625,0.7757568359375,4.2991943359375
0.0295,-5.0299072265625,2.0169677734375,3.0980224609375
0.03,-4.9898681640625,3.0579833984375,2.2572021484375
0.0305,-4.9498291015625,3.8988037109375,1.5364990234375
0.031,-4.4293212890625,4.3392333984375,0.6956787109375
0.0315,-3.5484619140625,4.6995849609375,-0.4654541015625
0.032,-2.5074462890625,5.0198974609375,-1.7467041015625
0.0325,-1.4664306640625,5.0999755859375,-2.9478759765625
0.033,-0.7857666015625,5.5404052734375,-3.9888916015625
0.0335,0.0550537109375,5.5804443359375,-4.8297119140625
0.034,1.0159912109375,5.0999755859375,-5.2701416015625
0.0345,2.2572021484375,4.0989990234375,-5.7105712890625
0.035,3.4583740234375,2.8177490234375,-5.8707275390625
0.0355,4.2991943359375,1.8568115234375,-5.9908447265625
0.036,4.8197021484375,1.1761474609375,-6.1510009765625
0.0365,4.9798583984375,0.4154052734375,-5.7906494140625
0.037,4.8597412109375,-0.6656494140625,-5.0299072265625
0.0375,4.8197021484375,-1.8267822265625,-4.0289306640625
0.038,4.6995849609375,-3.0679931640625,-2.9478759765625
0.0385,4.6595458984375,-4.0289306640625,-2.1470947265625
0.039,4.4993896484375,-4.7896728515625,-1.4263916015625
0.0395,3.8587646484375,-5.1500244140625,-0.5855712890625
0.04,2.8978271484375,-5.4703369140625,0.7757568359375
0.0405,1.7767333984375,-5.7105712890625,2.0570068359375
0.041,0.7757568359375,-6.0308837890625,3.2581787109375
0.0415,0.1751708984375,-6.3511962890625,4.2191162109375
0.042,-0.7857666015625,-6.1109619140625,4.8997802734375
0.0425,-1.8668212890625,-5.3101806640625,5.3402099609375
0.043,-3.0679931640625,-4.2691650390625,5.7005615234375
0.0435,-4.1890869140625,-3.0279541015625,5.7806396484375
0.044,-4.8697509765625,-2.1871337890625,5.9407958984375
0.0445,-5.2301025390625,-1.5064697265625,5.9407958984375
0.045,-5.2701416015625,-0.7056884765625,5.4202880859375
0.0455,-5.1900634765625,0.4554443359375,4.5794677734375
0.046,-5.0699462890625,1.6566162109375,3.4583740234375
0.0465,-4.9898681640625,2.8177490234375,2.4974365234375
0.047,-4.9898681640625,3.7386474609375,1.7366943359375
0.0475,-4.6295166015625,4.2991943359375,0.9759521484375
0.048,-3.8287353515625,4.6195068359375,0.0150146484375
0.0485,-2.8277587890625,4.9398193359375,-1.4263916015625
0.049,-1.6265869140625,5.0999755859375,-2.7476806640625
0.0495,-0.9459228515625,5.4202880859375,-3.7886962890625
0.05,-0.2652587890625,5.6605224609375,-4.6695556640625
0.0505,0.8157958984375,5.2601318359375,-5.2701416015625
0.051,2.0169677734375,4.3392333984375,-5.7105712890625
0.0515,3.2181396484375,3.0980224609375,-5.9107666015625
0.052,4.1790771484375,1.9769287109375,-6.0308837890625
0.0525,4.8197021484375,1.2562255859375,-6.1510009765625
0.053,5.0198974609375,0.4954833984375,-5.9107666015625
0.0535,4.9798583984375,-0.5054931640625,-5.2701416015625
0.054,4.8597412109375,-1.6265869140625,-4.2291259765625
0.0545,4.7396240234375,-2.9078369140625,-3.1080322265625
0.055,4.6595458984375,-3.9888916015625,-2.1871337890625
0.0555,4.6195068359375,-4.8297119140625,-1.4664306640625
0.056,4.0189208984375,-5.1900634765625,-0.6256103515625
0.0565,3.0579833984375,-5.5103759765625,0.6156005859375
0.057,1.8568115234375,-5.7906494140625,1.9769287109375
0.0575,0.7757568359375,-6.0308837890625,3.2581787109375
0.058,0.1351318359375,-6.2711181640625,4.2191162109375
0.0585,-0.7056884765625,-6.2711181640625,4.9798583984375
0.059,-1.7467041015625,-5.6304931640625,5.4603271484375
0.0595,-3.0279541015625,-4.5093994140625,5.8206787109375
0.06,-4.1890869140625,-3.1480712890625,5.9407958984375
0.0605,-5.0299072265625,-2.1470947265625,6.0609130859375
0.061,-5.4703369140625,-1.4664306640625,6.1009521484375
0.0615,-5.5103759765625,-0.6256103515625,5.6204833984375
0.062,-5.3502197265625,0.4954833984375,4.7396240234375
0.0625,-5.2301025390625,1.7366943359375,3.5384521484375
0.063,-5.0699462890625,2.9779052734375,2.4173583984375
0.0635,-5.0299072265625,3.8988037109375,1.5765380859375
0.064,-4.7496337890625,4.5394287109375,0.8157958984375
0.0645,-3.9888916015625,4.8597412109375,-0.1451416015625
0.065,-2.8677978515625,5.0999755859375,-1.5064697265625
0.0655,-1.5865478515625,5.2601318359375,-2.9078369140625
0.066,-0.7056884765625,5.5404052734375,-4.0289306640625
0.0665,0.0550537109375,5.7806396484375,-4.9498291015625
0.067,0.9759521484375,5.4202880859375,-5.5504150390625
0.0675,2.1771240234375,4.4593505859375,-5.9107666015625
0.068,3.4583740234375,3.1781005859375,-6.1910400390625
0.0685,4.4993896484375,1.8968505859375,-6.2310791015625
0.069,5.0999755859375,0.9759521484375,-6.2711181640625
0.0695,5.3802490234375,0.2952880859375,-6.1109619140625
0.07,5.2601318359375,-0.6656494140625,-5.4703369140625
0.0705,5.0999755859375,-1.9068603515625,-4.3092041015625
0.071,4.8997802734375,-3.1881103515625,-3.0679931640625
0.0715,4.7396240234375,-4.3492431640625,-1.9468994140625
0.072,4.6195068359375,-5.1500244140625,-1.2662353515625
0.0725,4.0989990234375,-5.5904541015625,-0.4254150390625
0.073,3.1380615234375,-5.8306884765625,0.7757568359375
0.0735,1.8167724609375,-6.1109619140625,2.2171630859375
0.074,0.5355224609375,-6.1109619140625,3.6185302734375
0.0745,-0.3052978515625,-6.3511962890625,4.5794677734375
0.075,-0.9459228515625,-6.4312744140625,5.3802490234375
0.0755,-1.9468994140625,-5.7906494140625,5.8607177734375
0.076,-3.2681884765625,-4.6295166015625,6.2210693359375
0.0765,-4.5093994140625,-3.2281494140625,6.3011474609375
0.077,-5.3902587890625,-1.9468994140625,6.2611083984375
0.0775,-5.8306884765625,-1.2261962890625,6.3011474609375
0.078,-5.9107666015625,-0.4254150390625,5.8607177734375
0.0785,-5.7506103515625,0.6556396484375,4.9398193359375
0.079,-5.5103759765625,1.9769287109375,3.6986083984375
0.0795,-5.2701416015625,3.3382568359375,2.3372802734375
0.08,-5.1099853515625,4.3392333984375,1.3363037109375
0.0805,-4.8697509765625,5.0599365234375,0.6156005859375
0.081,-4.1090087890625,5.2601318359375,-0.4254150390625
0.0815,-2.8677978515625,5.4603271484375,-1.7467041015625
0.082,-1.4664306640625,5.7005615234375,-3.2281494140625
0.0825,-0.3052978515625,5.7406005859375,-4.5093994140625
0.083,0.3753662109375,5.9407958984375,-5.4302978515625
0.0835,1.2562255859375,5.7005615234375,-6.0709228515625
0.084,2.4173583984375,4.7396240234375,-6.4312744140625
0.0845,3.8587646484375,3.3382568359375,-6.7115478515625
0.085,4.9798583984375,1.8568115234375,-6.6715087890625
0.0855,5.6204833984375,0.7357177734375,-6.5513916015625
0.086,5.9007568359375,0.0150146484375,-6.4312744140625
0.0865,5.8206787109375,-1.0260009765625,-5.7105712890625
0.087,5.5003662109375,-2.3072509765625,-4.4693603515625
0.0875,5.2200927734375,-3.7086181640625,-3.0679931640625
0.088,4.9398193359375,-4.8697509765625,-1.7467041015625
0.0885,4.7396240234375,-5.7105712890625,-0.8658447265625
0.089,4.2191162109375,-6.2711181640625,0.0550537109375
0.0895,3.1781005859375,-6.3912353515625,1.0960693359375
0.09,1.6566162109375,-6.4713134765625,2.6976318359375
0.0905,0.2152099609375,-6.4713134765625,4.1790771484375
0.091,-0.8258056640625,-6.5513916015625,5.2200927734375
0.0915,-1.3863525390625,-6.6314697265625,5.9808349609375
0.092,-2.3873291015625,-5.9908447265625,6.4212646484375
0.0925,-3.7086181640625,-4.7095947265625,6.7015380859375
0.093,-4.9898681640625,-3.1881103515625,6.7816162109375
0.0935,-5.9107666015625,-1.7867431640625,6.6614990234375
0.094,-6.3912353515625,-0.8258056640625,6.5013427734375
0.0945,-6.4312744140625,0.0550537109375,6.1409912109375
0.095,-6.1510009765625,1.0159912109375,5.2200927734375
0.0955,-5.8306884765625,2.3773193359375,3.7786865234375
0.096,-5.4703369140625,3.7786865234375,2.2572021484375
0.0965,-5.1500244140625,4.8197021484375,1.0960693359375
0.097,-4.9097900390625,5.5003662109375,0.2952880859375
0.0975,-4.1490478515625,5.7406005859375,-0.6256103515625
0.098,-2.9478759765625,5.8607177734375,-1.8668212890625
0.0985,-1.4263916015625,5.9407958984375,-3.4683837890625
0.099,0.0550537109375,5.9007568359375,-4.8297119140625
0.0995,0.7757568359375,5.9808349609375,-5.7105712890625
0.1,1.4163818359375,5.9007568359375,-6.3912353515625
0.1005,2.5374755859375,5.0198974609375,-6.7515869140625
0.101,3.8988037109375,3.6185302734375,-6.9918212890625
0.1015,5.0599365234375,2.0570068359375,-6.9117431640625
0.102,5.8206787109375,0.7757568359375,-6.7515869140625
0.1025,6.2210693359375,-0.1451416015625,-6.6715087890625
0.103,6.1009521484375,-0.9859619140625,-6.0709228515625
0.1035,5.7806396484375,-2.0670166015625,-4.9498291015625
0.104,5.4202880859375,-3.4683837890625,-3.4683837890625
0.1045,5.0999755859375,-4.7896728515625,-1.9869384765625
0.105,4.8197021484375,-5.7506103515625,-0.9859619140625
0.1055,4.4993896484375,-6.3511962890625,-0.2652587890625
0.106,3.4984130859375,-6.4713134765625,0.8157958984375
0.1065,2.1771240234375,-6.5513916015625,2.1771240234375
0.107,0.6156005859375,-6.5513916015625,3.7786865234375
0.1075,-0.6256103515625,-6.5513916015625,4.9798583984375
0.108,-1.2662353515625,-6.6715087890625,5.7806396484375
0.1085,-1.9869384765625,-6.3511962890625,6.3411865234375
0.109,-3.1480712890625,-5.3902587890625,6.6614990234375
0.1095,-4.5093994140625,-3.8687744140625,6.7816162109375
0.11,-5.6304931640625,-2.3472900390625,6.7015380859375
0.1105,-6.2310791015625,-1.2261962890625,6.5413818359375
0.111,-6.4713134765625,-0.5054931640625,6.4212646484375
0.1115,-6.2711181640625,0.4954833984375,5.7005615234375
0.112,-5.9508056640625,1.6566162109375,4.4993896484375
0.1125,-5.6304931640625,3.0579833984375,3.0179443359375
0.113,-5.3101806640625,4.2191162109375,1.6566162109375
0.1135,-5.1099853515625,5.0999755859375,0.7757568359375
0.114,-4.6695556640625,5.6204833984375,0.0150146484375
0.1145,-3.7086181640625,5.7806396484375,-1.1060791015625
0.115,-2.2672119140625,5.9007568359375,-2.5875244140625
0.1155,-0.7056884765625,5.9007568359375,-4.1490478515625
0.116,0.3353271484375,5.9808349609375,-5.2301025390625
0.1165,0.9759521484375,6.1009521484375,-6.0308837890625
0.117,1.8968505859375,5.5404052734375,-6.5113525390625
0.1175,3.1781005859375,4.2991943359375,-6.8316650390625
0.118,4.4993896484375,2.8177490234375,-6.9117431640625
0.1185,5.5003662109375,1.3363037109375,-6.8316650390625
0.119,6.0609130859375,0.3353271484375,-6.7115478515625
0.1195,6.1409912109375,-0.5054931640625,-6.4312744140625
0.12,5.9407958984375,-1.4664306640625,-5.5504150390625
0.1205,5.6204833984375,-2.8277587890625,-4.1890869140625
0.121,5.2601318359375,-4.2691650390625,-2.6275634765625
0.1215,4.9798583984375,-5.3902587890625,-1.4263916015625
0.122,4.7396240234375,-6.1109619140625,-0.6256103515625
0.1225,4.0189208984375,-6.4312744140625,0.3753662109375
0.123,2.8177490234375,-6.5513916015625,1.5765380859375
0.1235,1.2562255859375,-6.6715087890625,3.2181396484375
0.124,-0.3052978515625,-6.5914306640625,4.6595458984375
0.1245,-1.1060791015625,-6.6715087890625,5.5804443359375
0.125,-1.7467041015625,-6.6314697265625,6.3011474609375
0.1255,-2.7877197265625,-5.7506103515625,6.7015380859375
0.126,-4.1490478515625,-4.3492431640625,6.9017333984375
0.1265,-5.3902587890625,-2.8277587890625,6.8616943359375
0.127,-6.1510009765625,-1.4263916015625,6.6614990234375
0.1275,-6.5113525390625,-0.6256103515625,6.5413818359375
0.128,-6.4312744140625,0.2952880859375,5.9407958984375
0.1285,-6.1109619140625,1.3363037109375,4.8597412109375
0.129,-5.7506103515625,2.6976318359375,3.3782958984375
0.1295,-5.4302978515625,4.0589599609375,1.9368896484375
0.13,-5.1099853515625,5.0198974609375,0.8958740234375
0.1305,-4.7896728515625,5.6204833984375,0.1351318359375
0.131,-3.9088134765625,5.7806396484375,-0.9058837890625
0.1315,-2.5474853515625,5.8607177734375,-2.2271728515625
0.132,-1.0660400390625,5.9007568359375,-3.7886962890625
0.1325,0.2552490234375,5.8607177734375,-4.9898681640625
0.133,0.8958740234375,5.9808349609375,-5.7906494140625
0.1335,1.6165771484375,5.7406005859375,-6.3912353515625
0.134,2.6976318359375,4.7396240234375,-6.7115478515625
0.1345,4.0589599609375,3.2982177734375,-6.8717041015625
0.135,5.0999755859375,1.7767333984375,-6.7515869140625
0.1355,5.7406005859375,0.6156005859375,-6.5914306640625
0.136,6.0609130859375,-0.1451416015625,-6.4713134765625
0.1365,5.9007568359375,-1.0260009765625,-5.7906494140625
0.137,5.5404052734375,-2.1871337890625,-4.5894775390625
0.1375,5.1800537109375,-3.5084228515625,-3.2281494140625
0.138,4.8597412109375,-4.6695556640625,-1.9468994140625
0.1385,4.6595458984375,-5.5103759765625,-1.0660400390625
0.139,4.2991943359375,-6.1109619140625,-0.3052978515625
0.1395,3.4183349609375,-6.2310791015625,0.7357177734375
0.14,2.0570068359375,-6.3511962890625,2.1771240234375
0.1405,0.5755615234375,-6.3511962890625,3.6585693359375
0.141,-0.5054931640625,-6.4312744140625,4.7396240234375
0.1415,-1.1060791015625,-6.5914306640625,5.5804443359375
0.142,-1.9068603515625,-6.1910400390625,6.0609130859375
0.1425,-3.0679931640625,-5.1500244140625,6.3411865234375
0.143,-4.3092041015625,-3.7886962890625,6.5013427734375
0.1435,-5.3502197265625,-2.3472900390625,6.4613037109375
0.144,-5.9508056640625,-1.4263916015625,6.4212646484375
0.1445,-6.1510009765625,-0.6656494140625,6.2210693359375
0.145,-6.0308837890625,0.2152099609375,5.5404052734375
0.1455,-5.7506103515625,1.4163818359375,4.3392333984375
0.146,-5.4703369140625,2.8177490234375,2.9378662109375
0.1465,-5.1900634765625,3.9388427734375,1.8167724609375
0.147,-5.1099853515625,4.8197021484375,0.9759521484375
0.1475,-4.5093994140625,5.2601318359375,0.2152099609375
0.148,-3.5484619140625,5.4202880859375,-0.9859619140625
0.1485,-2.2672119140625,5.6204833984375,-2.3873291015625
0.149,-0.8258056640625,5.6204833984375,-3.8287353515625
0.1495,0.0150146484375,5.8206787109375,-4.8297119140625
0.15,0.6956787109375,5.9007568359375,-5.6304931640625
0.1505,1.6566162109375,5.3001708984375,-6.1109619140625
0.151,2.9378662109375,4.1390380859375,-6.4312744140625
0.1515,4.1390380859375,2.6976318359375,-6.4713134765625
0.152,5.0599365234375,1.4163818359375,-6.4312744140625
0.1525,5.5804443359375,0.6556396484375,-6.4713134765625
0.153,5.6204833984375,-0.3052978515625,-6.1109619140625
0.1535,5.4202880859375,-1.2261962890625,-5.2301025390625
0.154,5.1800537109375,-2.4273681640625,-4.0289306640625
0.1545,4.9398193359375,-3.7886962890625,-2.6275634765625
0.155,4.7796630859375,-4.7496337890625,-1.6666259765625
0.1555,4.6195068359375,-5.5504150390625,-0.9459228515625
0.156,3.8587646484375,-5.7906494140625,0.0150146484375
0.1565,2.7777099609375,-5.9908447265625,1.2562255859375
0.157,1.4163818359375,-6.1109619140625,2.6976318359375
0.1575,0.2552490234375,-6.1510009765625,3.8988037109375
0.158,-0.5054931640625,-6.3912353515625,4.8597412109375
0.1585,-1.2662353515625,-6.3511962890625,5.5003662109375
0.159,-2.2271728515625,-5.5904541015625,5.9007568359375
0.1595,-3.4683837890625,-4.3892822265625,6.1810302734375
0.16,-4.6295166015625,-2.9478759765625,6.1810302734375
0.1605,-5.3902587890625,-1.9068603515625,6.1409912109375
0.161,-5.7506103515625,-1.2261962890625,6.2210693359375
0.1615,-5.7506103515625,-0.5054931640625,5.6605224609375
0.162,-5.5103759765625,0.6156005859375,4.7396240234375
0.1625,-5.2701416015625,1.8968505859375,3.5384521484375
0.163,-5.0699462890625,3.0579833984375,2.3773193359375
0.1635,-4.9898681640625,4.0189208984375,1.5364990234375
0.164,-4.7496337890625,4.6995849609375,0.7757568359375
0.1645,-3.9888916015625,4.9798583984375,-0.1851806640625
0.165,-2.9078369140625,5.1800537109375,-1.4263916015625
0.1655,-1.6265869140625,5.3402099609375,-2.8277587890625
0.166,-0.7056884765625,5.5003662109375,-3.9088134765625
0.1665,0.0150146484375,5.7806396484375,-4.8297119140625
0.167,0.8157958984375,5.5003662109375,-5.4703369140625
0.1675,1.9368896484375,4.6595458984375,-5.8306884765625
0.168,3.1380615234375,3.4984130859375,-6.1109619140625
0.1685,4.1790771484375,2.2171630859375,-6.1510009765625
0.169,4.8997802734375,1.2562255859375,-6.2310791015625
0.1695,5.2200927734375,0.5755615234375,-6.1510009765625
0.17,5.1800537109375,-0.2652587890625,-5.6304931640625
0.1705,5.0599365234375,-1.3062744140625,-4.6695556640625
0.171,4.8197021484375,-2.5474853515625,-3.5084228515625
0.1715,4.6595458984375,-3.7486572265625,-2.4273681640625
0.172,4.6595458984375,-4.5894775390625,-1.7066650390625
0.1725,4.2991943359375,-5.1500244140625,-0.9459228515625
0.173,3.4984130859375,-5.4703369140625,0.1351318359375
0.1735,2.3773193359375,-5.7105712890625,1.3763427734375
0.174,1.1761474609375,-5.8306884765625,2.6976318359375
0.1745,0.3753662109375,-6.1109619140625,3.7786865234375
0.175,-0.3052978515625,-6.3511962890625,4.6195068359375
0.1755,-1.1861572265625,-5.9508056640625,5.1800537109375
0.176,-2.3072509765625,-5.0699462890625,5.5804443359375
0.1765,-3.5084228515625,-3.8687744140625,5.7406005859375
0.177,-4.4693603515625,-2.7076416015625,5.8206787109375
0.1775,-5.1099853515625,-2.0670166015625,6.0208740234375
0.178,-5.3902587890625,-1.2662353515625,5.8206787109375
