wavelength,x,y,z
0.0,0.610595703125,-6.316162109375,3.693603515625
0.0005,0.010009765625,-6.596435546875,4.574462890625
0.001,-1.071044921875,-6.075927734375,5.054931640625
0.0015,-2.272216796875,-5.114990234375,5.375244140625
0.002,-3.553466796875,-4.033935546875,5.855712890625
0.0025,-4.514404296875,-2.952880859375,6.095947265625
0.003,-5.195068359375,-2.192138671875,6.256103515625
0.0035,-5.315185546875,-1.471435546875,6.015869140625
0.004,-5.235107421875,-0.630615234375,5.255126953125
0.0045,-5.155029296875,0.570556640625,4.454345703125
0.005,-5.235107421875,1.931884765625,3.413330078125
0.0055,-5.155029296875,3.012939453125,2.412353515625
0.006,-5.074951171875,3.893798828125,1.731689453125
0.0065,-4.434326171875,4.214111328125,0.890869140625
0.007,-3.553466796875,4.534423828125,-0.310302734375
0.0075,-2.592529296875,5.054931640625,-1.591552734375
0.008,-1.631591796875,5.335205078125,-2.872802734375
0.0085,-0.910888671875,5.695556640625,-3.873779296875
0.009,-0.270263671875,5.735595703125,-4.674560546875
0.0095,0.890869140625,5.094970703125,-5.114990234375
0.01,2.052001953125,4.134033203125,-5.515380859375
0.0105,3.333251953125,3.093017578125,-5.915771484375
0.011,4.174072265625,2.092041015625,-6.115966796875
0.0115,4.774658203125,1.451416015625,-6.276123046875
0.012,4.774658203125,0.690673828125,-5.835693359375
0.0125,4.734619140625,-0.350341796875,-5.114990234375
0.013,4.774658203125,-1.471435546875,-4.314208984375
0.0135,4.814697265625,-2.752685546875,-3.313232421875
0.014,4.774658203125,-3.793701171875,-2.472412109375
0.0145,4.614501953125,-4.554443359375,-1.751708984375
0.015,3.893798828125,-4.874755859375,-0.830810546875
0.0155,3.012939453125,-5.235107421875,0.370361328125
0.016,2.092041015625,-5.755615234375,1.731689453125
0.0165,1.171142578125,-6.115966796875,2.892822265625
0.017,0.530517578125,-6.476318359375,3.933837890625
0.0175,-0.430419921875,-6.276123046875,4.574462890625
0.018,-1.511474609375,-5.475341796875,4.974853515625
0.0185,-2.792724609375,-4.554443359375,5.495361328125
0.019,-3.913818359375,-3.513427734375,5.855712890625
0.0195,-4.754638671875,-2.592529296875,6.095947265625
0.02,-5.155029296875,-1.951904296875,6.095947265625
0.0205,-5.114990234375,-1.151123046875,5.575439453125
0.021,-5.074951171875,0.010009765625,4.734619140625
0.0215,-5.195068359375,1.251220703125,3.893798828125
0.022,-5.155029296875,2.452392578125,2.892822265625
0.0225,-5.155029296875,3.453369140625,2.092041015625
0.023,-4.754638671875,4.013916015625,1.291259765625
0.0235,-3.953857421875,4.334228515625,0.330322265625
0.024,-3.072998046875,4.774658203125,-0.990966796875
0.0245,-2.072021484375,5.175048828125,-2.352294921875
0.025,-1.271240234375,5.535400390625,-3.473388671875
0.0255,-0.590576171875,5.855712890625,-4.474365234375
0.026,0.450439453125,5.375244140625,-4.954833984375
0.0265,1.611572265625,4.494384765625,-5.355224609375
0.027,2.932861328125,3.453369140625,-5.835693359375
0.0275,3.973876953125,2.412353515625,-6.115966796875
0.028,4.654541015625,1.611572265625,-6.276123046875
0.0285,4.854736328125,0.890869140625,-6.035888671875
0.029,4.774658203125,0.010009765625,-5.355224609375
0.0295,4.774658203125,-1.231201171875,-4.514404296875
0.03,4.814697265625,-2.552490234375,-3.553466796875
0.0305,4.814697265625,-3.673583984375,-2.592529296875
0.031,4.734619140625,-4.554443359375,-1.831787109375
0.0315,4.093994140625,-4.874755859375,-0.990966796875
0.032,3.173095703125,-5.195068359375,0.210205078125
0.0325,2.212158203125,-5.755615234375,1.571533203125
0.033,1.211181640625,-6.035888671875,2.852783203125
0.0335,0.530517578125,-6.396240234375,3.853759765625
0.034,-0.350341796875,-6.396240234375,4.654541015625
0.0345,-1.351318359375,-5.715576171875,5.094970703125
0.035,-2.672607421875,-4.674560546875,5.495361328125
0.0355,-3.913818359375,-3.553466796875,5.935791015625
0.036,-4.834716796875,-2.592529296875,6.095947265625
0.0365,-5.395263671875,-1.871826171875,6.256103515625
0.037,-5.355224609375,-1.071044921875,5.735595703125
0.0375,-5.195068359375,0.010009765625,4.854736328125
0.038,-5.195068359375,1.211181640625,3.973876953125
0.0385,-5.235107421875,2.532470703125,2.892822265625
0.039,-5.114990234375,3.613525390625,1.971923828125
0.0395,-4.874755859375,4.334228515625,1.211181640625
0.04,-4.033935546875,4.534423828125,0.290283203125
0.0405,-3.032958984375,4.814697265625,-1.031005859375
0.041,-1.991943359375,5.295166015625,-2.472412109375
0.0415,-1.071044921875,5.575439453125,-3.713623046875
0.042,-0.430419921875,5.895751953125,-4.634521484375
0.0425,0.530517578125,5.575439453125,-5.235107421875
0.043,1.731689453125,4.654541015625,-5.555419921875
0.0435,3.052978515625,3.533447265625,-6.035888671875
0.044,4.214111328125,2.372314453125,-6.276123046875
0.0445,4.934814453125,1.411376953125,-6.396240234375
0.045,5.255126953125,0.690673828125,-6.316162109375
0.0455,5.094970703125,-0.230224609375,-5.555419921875
0.046,4.934814453125,-1.351318359375,-4.554443359375
0.0465,4.974853515625,-2.752685546875,-3.513427734375
0.047,4.854736328125,-3.913818359375,-2.472412109375
0.0475,4.774658203125,-4.874755859375,-1.631591796875
0.048,4.214111328125,-5.315185546875,-0.790771484375
0.0485,3.213134765625,-5.515380859375,0.330322265625
0.049,2.092041015625,-5.835693359375,1.691650390625
0.0495,1.010986328125,-6.276123046875,3.052978515625
0.05,0.210205078125,-6.436279296875,4.174072265625
0.0505,-0.590576171875,-6.596435546875,5.054931640625
0.051,-1.551513671875,-5.915771484375,5.455322265625
0.0515,-2.832763671875,-4.794677734375,5.775634765625
0.052,-4.154052734375,-3.593505859375,6.216064453125
0.0525,-5.114990234375,-2.512451171875,6.336181640625
0.053,-5.675537109375,-1.631591796875,6.416259765625
0.0535,-5.755615234375,-0.910888671875,6.015869140625
0.054,-5.515380859375,0.130126953125,5.094970703125
0.0545,-5.395263671875,1.411376953125,3.973876953125
0.055,-5.395263671875,2.812744140625,2.852783203125
0.0555,-5.235107421875,3.933837890625,1.851806640625
0.056,-5.074951171875,4.734619140625,1.051025390625
0.0565,-4.194091796875,4.934814453125,0.130126953125
0.057,-3.072998046875,5.094970703125,-1.191162109375
0.0575,-1.951904296875,5.455322265625,-2.712646484375
0.058,-0.870849609375,5.735595703125,-3.993896484375
0.0585,0.010009765625,6.055908203125,-4.994873046875
0.059,0.690673828125,5.935791015625,-5.715576171875
0.0595,1.851806640625,4.974853515625,-6.035888671875
0.06,3.293212890625,3.653564453125,-6.356201171875
0.0605,4.534423828125,2.372314453125,-6.676513671875
0.061,5.375244140625,1.291259765625,-6.676513671875
0.0615,5.735595703125,0.490478515625,-6.676513671875
0.062,5.615478515625,-0.510498046875,-5.915771484375
0.0625,5.295166015625,-1.591552734375,-4.794677734375
0.063,5.255126953125,-3.072998046875,-3.553466796875
0.0635,5.094970703125,-4.394287109375,-2.352294921875
0.064,4.934814453125,-5.355224609375,-1.351318359375
0.0645,4.494384765625,-5.995849609375,-0.590576171875
0.065,3.413330078125,-6.075927734375,0.570556640625
0.0655,2.052001953125,-6.276123046875,1.971923828125
0.066,0.770751953125,-6.556396484375,3.573486328125
0.0665,-0.310302734375,-6.676513671875,4.734619140625
0.067,-0.990966796875,-6.836669921875,5.655517578125
0.0675,-1.911865234375,-6.316162109375,6.095947265625
0.068,-3.233154296875,-4.994873046875,6.336181640625
0.0685,-4.634521484375,-3.593505859375,6.656494140625
0.069,-5.715576171875,-2.272216796875,6.776611328125
0.0695,-6.276123046875,-1.271240234375,6.696533203125
0.07,-6.396240234375,-0.550537109375,6.416259765625
0.0705,-6.115966796875,0.610595703125,5.415283203125
0.071,-5.755615234375,1.931884765625,4.013916015625
0.0715,-5.675537109375,3.373291015625,2.732666015625
0.072,-5.435302734375,4.534423828125,1.531494140625
0.0725,-5.114990234375,5.295166015625,0.650634765625
0.073,-4.354248046875,5.615478515625,-0.350341796875
0.0735,-3.072998046875,5.615478515625,-1.591552734375
0.074,-1.631591796875,5.815673828125,-3.153076171875
0.0745,-0.470458984375,6.095947265625,-4.554443359375
0.075,0.530517578125,6.135986328125,-5.555419921875
0.0755,1.131103515625,6.176025390625,-6.356201171875
0.076,2.212158203125,5.255126953125,-6.556396484375
0.0765,3.573486328125,3.773681640625,-6.716552734375
0.077,4.934814453125,2.412353515625,-7.036865234375
0.0775,5.735595703125,1.131103515625,-6.956787109375
0.078,6.176025390625,0.250244140625,-6.836669921875
0.0785,6.095947265625,-0.670654296875,-6.276123046875
0.079,5.655517578125,-1.711669921875,-5.114990234375
0.0795,5.375244140625,-3.113037109375,-3.713623046875
0.08,5.255126953125,-4.554443359375,-2.432373046875
0.0805,4.974853515625,-5.595458984375,-1.311279296875
0.081,4.654541015625,-6.276123046875,-0.510498046875
0.0815,3.693603515625,-6.396240234375,0.490478515625
0.082,2.252197265625,-6.396240234375,1.851806640625
0.0825,0.930908203125,-6.596435546875,3.413330078125
0.083,-0.350341796875,-6.716552734375,4.694580078125
0.0835,-1.031005859375,-6.876708984375,5.615478515625
0.084,-1.751708984375,-6.676513671875,6.216064453125
0.0845,-2.872802734375,-5.595458984375,6.416259765625
0.085,-4.314208984375,-4.114013671875,6.696533203125
0.0855,-5.515380859375,-2.792724609375,6.896728515625
0.086,-6.236083984375,-1.591552734375,6.776611328125
0.0865,-6.556396484375,-0.830810546875,6.696533203125
0.087,-6.276123046875,0.130126953125,5.895751953125
0.0875,-5.915771484375,1.291259765625,4.654541015625
0.088,-5.755615234375,2.692626953125,3.373291015625
0.0885,-5.595458984375,4.053955078125,2.052001953125
0.089,-5.275146484375,5.014892578125,1.091064453125
0.0895,-4.794677734375,5.535400390625,0.210205078125
0.09,-3.793701171875,5.615478515625,-0.830810546875
0.0905,-2.352294921875,5.735595703125,-2.272216796875
0.091,-1.071044921875,6.095947265625,-3.873779296875
0.0915,0.090087890625,6.095947265625,-5.074951171875
0.092,0.690673828125,6.336181640625,-5.915771484375
0.0925,1.571533203125,5.815673828125,-6.396240234375
0.093,2.852783203125,4.534423828125,-6.636474609375
0.0935,4.254150390625,3.133056640625,-6.916748046875
0.094,5.415283203125,1.771728515625,-7.076904296875
0.0945,6.015869140625,0.730712890625,-6.916748046875
0.095,6.135986328125,-0.150146484375,-6.716552734375
0.0955,5.855712890625,-1.111083984375,-5.755615234375
0.096,5.535400390625,-2.392333984375,-4.434326171875
0.0965,5.415283203125,-3.913818359375,-3.072998046875
0.097,5.175048828125,-5.155029296875,-1.871826171875
0.0975,4.894775390625,-6.075927734375,-0.990966796875
0.098,4.214111328125,-6.356201171875,0.050048828125
0.0985,2.972900390625,-6.396240234375,1.251220703125
0.099,1.531494140625,-6.556396484375,2.812744140625
0.0995,0.250244140625,-6.796630859375,4.334228515625
0.1,-0.790771484375,-6.876708984375,5.375244140625
0.1005,-1.431396484375,-6.956787109375,6.135986328125
0.101,-2.432373046875,-6.115966796875,6.456298828125
0.1015,-3.873779296875,-4.594482421875,6.696533203125
0.102,-5.275146484375,-3.193115234375,7.016845703125
0.1025,-6.156005859375,-1.951904296875,6.976806640625
0.103,-6.636474609375,-0.990966796875,6.896728515625
0.1035,-6.556396484375,-0.150146484375,6.336181640625
0.104,-6.196044921875,1.010986328125,5.135009765625
0.1045,-5.875732421875,2.412353515625,3.773681640625
0.105,-5.755615234375,3.893798828125,2.372314453125
0.1055,-5.435302734375,4.974853515625,1.131103515625
0.106,-5.114990234375,5.735595703125,0.330322265625
0.1065,-4.114013671875,5.855712890625,-0.710693359375
0.107,-2.712646484375,5.895751953125,-2.072021484375
0.1075,-1.271240234375,6.095947265625,-3.713623046875
0.108,0.050048828125,6.216064453125,-5.074951171875
0.1085,0.770751953125,6.336181640625,-5.955810546875
0.109,1.491455078125,6.095947265625,-6.556396484375
0.1095,2.652587890625,4.974853515625,-6.756591796875
0.11,4.134033203125,3.413330078125,-6.956787109375
0.1105,5.335205078125,2.011962890625,-7.156982421875
0.111,6.055908203125,0.810791015625,-6.996826171875
0.1115,6.296142578125,0.010009765625,-6.836669921875
0.112,6.055908203125,-0.990966796875,-6.035888671875
0.1125,5.655517578125,-2.152099609375,-4.794677734375
0.113,5.375244140625,-3.553466796875,-3.393310546875
0.1135,5.215087890625,-4.874755859375,-2.192138671875
0.114,4.894775390625,-5.755615234375,-1.111083984375
0.1145,4.454345703125,-6.316162109375,-0.310302734375
0.115,3.333251953125,-6.356201171875,0.810791015625
0.1155,1.931884765625,-6.396240234375,2.172119140625
0.116,0.610595703125,-6.636474609375,3.693603515625
0.1165,-0.470458984375,-6.716552734375,4.814697265625
0.117,-1.151123046875,-6.876708984375,5.695556640625
0.1175,-1.911865234375,-6.436279296875,6.176025390625
0.118,-3.113037109375,-5.235107421875,6.376220703125
0.1185,-4.434326171875,-3.873779296875,6.616455078125
0.119,-5.515380859375,-2.592529296875,6.736572265625
0.1195,-6.115966796875,-1.551513671875,6.696533203125
0.12,-6.316162109375,-0.870849609375,6.536376953125
0.1205,-6.035888671875,0.130126953125,5.695556640625
0.121,-5.755615234375,1.251220703125,4.494384765625
0.1215,-5.635498046875,2.652587890625,3.253173828125
0.122,-5.435302734375,3.853759765625,2.092041015625
0.1225,-5.195068359375,4.814697265625,1.171142578125
0.123,-4.634521484375,5.255126953125,0.330322265625
0.1235,-3.593505859375,5.375244140625,-0.790771484375
0.124,-2.352294921875,5.575439453125,-2.192138671875
0.1245,-1.191162109375,5.895751953125,-3.633544921875
0.125,-0.230224609375,6.015869140625,-4.754638671875
0.1255,0.490478515625,6.256103515625,-5.635498046875
0.126,1.411376953125,5.615478515625,-6.035888671875
0.1265,2.692626953125,4.414306640625,-6.276123046875
0.127,4.013916015625,3.173095703125,-6.676513671875
0.1275,5.014892578125,1.931884765625,-6.756591796875
0.128,5.615478515625,1.010986328125,-6.756591796875
0.1285,5.735595703125,0.210205078125,-6.436279296875
0.129,5.455322265625,-0.830810546875,-5.515380859375
0.1295,5.255126953125,-2.031982421875,-4.394287109375
0.13,5.215087890625,-3.473388671875,-3.193115234375
0.1305,5.054931640625,-4.594482421875,-2.112060546875
0.131,4.854736328125,-5.435302734375,-1.271240234375
0.1315,4.093994140625,-5.755615234375,-0.390380859375
0.132,2.972900390625,-5.915771484375,0.890869140625
0.1325,1.771728515625,-6.236083984375,2.292236328125
0.133,0.610595703125,-6.396240234375,3.693603515625
0.1335,-0.310302734375,-6.636474609375,4.734619140625
0.134,-0.990966796875,-6.676513671875,5.415283203125
0.1345,-1.951904296875,-5.835693359375,5.775634765625
0.135,-3.313232421875,-4.634521484375,6.095947265625
0.1355,-4.594482421875,-3.393310546875,6.416259765625
0.136,-5.395263671875,-2.272216796875,6.456298828125
0.1365,-5.915771484375,-1.551513671875,6.496337890625
0.137,-5.795654296875,-0.710693359375,5.935791015625
0.1375,-5.595458984375,0.330322265625,4.974853515625
0.138,-5.435302734375,1.571533203125,3.893798828125
0.1385,-5.395263671875,2.972900390625,2.732666015625
0.139,-5.195068359375,3.973876953125,1.771728515625
0.1395,-4.954833984375,4.734619140625,0.970947265625
0.14,-4.114013671875,4.934814453125,0.090087890625
0.1405,-2.952880859375,5.094970703125,-1.231201171875
0.141,-1.911865234375,5.495361328125,-2.632568359375
0.1415,-0.830810546875,5.695556640625,-3.873779296875
0.142,-0.190185546875,5.975830078125,-4.834716796875
0.1425,0.650634765625,5.775634765625,-5.435302734375
0.143,1.771728515625,4.854736328125,-5.755615234375
0.1435,3.052978515625,3.733642578125,-6.115966796875
0.144,4.174072265625,2.532470703125,-6.396240234375
0.1445,4.934814453125,1.531494140625,-6.436279296875
0.145,5.295166015625,0.810791015625,-6.436279296875
0.1455,5.094970703125,-0.150146484375,-5.795654296875
0.146,4.974853515625,-1.111083984375,-4.834716796875
0.1465,4.974853515625,-2.352294921875,-3.873779296875
0.147,4.894775390625,-3.553466796875,-2.832763671875
0.1475,4.814697265625,-4.554443359375,-1.951904296875
0.148,4.494384765625,-5.114990234375,-1.151123046875
0.1485,3.533447265625,-5.395263671875,-0.190185546875
0.149,2.532470703125,-5.675537109375,1.131103515625
0.1495,1.451416015625,-6.075927734375,2.532470703125
0.15,0.610595703125,-6.316162109375,3.613525390625
0.1505,0.010009765625,-6.596435546875,4.574462890625
0.151,-0.990966796875,-6.236083984375,5.094970703125
0.1515,-2.192138671875,-5.235107421875,5.415283203125
0.152,-3.433349609375,-4.194091796875,5.895751953125
0.1525,-4.474365234375,-3.153076171875,6.095947265625
0.153,-5.155029296875,-2.312255859375,6.256103515625
0.1535,-5.475341796875,-1.671630859375,6.095947265625
0.154,-5.315185546875,-0.710693359375,5.455322265625
0.1545,-5.235107421875,0.410400390625,4.614501953125
0.155,-5.275146484375,1.771728515625,3.573486328125
0.1555,-5.195068359375,2.892822265625,2.612548828125
0.156,-5.155029296875,3.813720703125,1.851806640625
0.1565,-4.634521484375,4.294189453125,1.010986328125
0.157,-3.713623046875,4.534423828125,0.010009765625
0.1575,-2.792724609375,4.974853515625,-1.391357421875
0.158,-1.791748046875,5.335205078125,-2.712646484375
0.1585,-1.031005859375,5.695556640625,-3.793701171875
0.159,-0.350341796875,5.895751953125,-4.634521484375
0.1595,0.690673828125,5.295166015625,-5.114990234375
0.16,1.931884765625,4.334228515625,-5.515380859375
0.1605,3.173095703125,3.253173828125,-5.955810546875
0.161,4.093994140625,2.252197265625,-6.156005859375
0.1615,4.654541015625,1.451416015625,-6.356201171875
0.162,4.854736328125,0.810791015625,-6.035888671875
0.1625,4.774658203125,-0.190185546875,-5.315185546875
0.163,4.814697265625,-1.271240234375,-4.474365234375
0.1635,4.814697265625,-2.552490234375,-3.513427734375
0.164,4.814697265625,-3.633544921875,-2.632568359375
0.1645,4.694580078125,-4.474365234375,-1.911865234375
0.165,4.053955078125,-4.834716796875,-1.031005859375
0.1655,3.173095703125,-5.155029296875,0.170166015625
0.166,2.252197265625,-5.675537109375,1.491455078125
0.1665,1.291259765625,-6.035888671875,2.692626953125
0.167,0.610595703125,-6.396240234375,3.773681640625
0.1675,-0.230224609375,-6.396240234375,4.534423828125
0.168,-1.271240234375,-5.675537109375,4.974853515625
0.1685,-2.552490234375,-4.834716796875,5.415283203125
0.169,-3.793701171875,-3.713623046875,5.815673828125
0.1695,-4.674560546875,-2.872802734375,6.055908203125
0.17,-5.114990234375,-2.072021484375,6.216064453125
0.1705,-5.155029296875,-1.311279296875,5.735595703125
0.171,-5.114990234375,-0.310302734375,4.934814453125
0.1715,-5.235107421875,1.010986328125,4.134033203125
0.172,-5.195068359375,2.252197265625,3.093017578125
0.1725,-5.155029296875,3.293212890625,2.292236328125
0.173,-4.874755859375,3.973876953125,1.491455078125
0.1735,-4.154052734375,4.334228515625,0.570556640625
0.174,-3.193115234375,4.694580078125,-0.790771484375
0.1745,-2.272216796875,5.175048828125,-2.112060546875
0.175,-1.351318359375,5.495361328125,-3.233154296875
0.1755,-0.710693359375,5.895751953125,-4.274169921875
0.176,0.290283203125,5.535400390625,-4.874755859375
0.1765,1.411376953125,4.614501953125,-5.275146484375
0.177,2.692626953125,3.653564453125,-5.755615234375
0.1775,3.733642578125,2.532470703125,-6.075927734375
0.178,4.534423828125,1.771728515625,-6.276123046875
0.1785,4.854736328125,1.010986328125,-6.156005859375
0.179,4.814697265625,0.210205078125,-5.515380859375
0.1795,4.774658203125,-0.990966796875,-4.634521484375
0.18,4.854736328125,-2.272216796875,-3.713623046875
0.1805,4.814697265625,-3.473388671875,-2.752685546875
0.181,4.774658203125,-4.354248046875,-1.991943359375
0.1815,4.294189453125,-4.834716796875,-1.231201171875
0.182,3.373291015625,-5.155029296875,0.010009765625
0.1825,2.412353515625,-5.595458984375,1.211181640625
0.183,1.411376953125,-5.915771484375,2.572509765625
0.1835,0.690673828125,-6.316162109375,3.613525390625
0.184,0.010009765625,-6.476318359375,4.534423828125
0.1845,-1.151123046875,-5.955810546875,4.974853515625
0.185,-2.352294921875,-4.954833984375,5.415283203125
0.1855,-3.713623046875,-3.913818359375,5.895751953125
0.186,-4.554443359375,-2.832763671875,6.055908203125
0.1865,-5.195068359375,-2.072021484375,6.256103515625
0.187,-5.315185546875,-1.311279296875,5.895751953125
0.1875,-5.155029296875,-0.390380859375,5.094970703125
0.188,-5.155029296875,0.810791015625,4.254150390625
