wavelength,x,y,z
0.0,-0.400390625,-6.5263671875,4.884765625
0.0005,-1.28125,-6.1259765625,5.4052734375
0.001,-2.5224609375,-5.0048828125,5.685546875
0.0015,-3.84375,-3.68359375,5.8857421875
0.002,-4.96484375,-2.4423828125,6.1259765625
0.0025,-5.60546875,-1.7216796875,6.326171875
0.003,-5.6455078125,-1.12109375,6.0458984375
0.0035,-5.4052734375,-0.240234375,5.2451171875
0.004,-5.125,1.0810546875,4.00390625
0.0045,-5.0048828125,2.482421875,2.72265625
0.005,-5.0849609375,3.68359375,1.841796875
0.0055,-4.96484375,4.4443359375,1.12109375
0.006,-4.3642578125,4.724609375,0.4404296875
0.0065,-3.203125,4.8046875,-0.80078125
0.007,-1.9619140625,5.0048828125,-2.2822265625
0.0075,-0.8408203125,5.365234375,-3.7236328125
0.008,-0.2001953125,5.7255859375,-4.8046875
0.0085,0.560546875,5.7255859375,-5.4853515625
0.009,1.521484375,4.96484375,-5.8056640625
0.0095,2.8427734375,3.6435546875,-6.0859375
0.01,4.1240234375,2.2421875,-6.2060546875
0.0105,5.0849609375,1.2412109375,-6.40625
0.011,5.4052734375,0.640625,-6.4462890625
0.0115,5.3251953125,0.0,-5.9658203125
0.012,4.96484375,-1.12109375,-4.884765625
0.0125,4.7646484375,-2.4423828125,-3.5634765625
0.013,4.64453125,-3.8037109375,-2.3623046875
0.0135,4.6845703125,-4.8447265625,-1.5615234375
0.014,4.4443359375,-5.4453125,-0.9208984375
0.0145,3.6435546875,-5.60546875,0.0400390625
0.015,2.322265625,-5.6455078125,1.3212890625
0.0155,0.9609375,-5.845703125,2.8828125
0.016,0.080078125,-6.2861328125,4.1640625
0.0165,-0.640625,-6.6865234375,5.1650390625
0.017,-1.4013671875,-6.40625,5.7255859375
0.0175,-2.6025390625,-5.28515625,6.005859375
0.018,-3.9638671875,-3.84375,6.24609375
0.0185,-5.205078125,-2.4423828125,6.3662109375
0.019,-5.92578125,-1.5615234375,6.5263671875
0.0195,-6.1259765625,-0.9208984375,6.3662109375
0.02,-5.8857421875,0.0,5.6455078125
0.0205,-5.4853515625,1.201171875,4.2841796875
0.021,-5.2451171875,2.642578125,2.8427734375
0.0215,-5.1650390625,4.00390625,1.681640625
0.022,-5.125,4.884765625,0.9208984375
0.0225,-4.5244140625,5.2451171875,0.16015625
0.023,-3.4033203125,5.2451171875,-1.0009765625
0.0235,-1.9619140625,5.4052734375,-2.5224609375
0.024,-0.6005859375,5.5654296875,-4.1240234375
0.0245,0.2802734375,5.8857421875,-5.28515625
0.025,0.880859375,5.9658203125,-6.0458984375
0.0255,1.841796875,5.28515625,-6.4462890625
0.026,3.203125,3.84375,-6.56640625
0.0265,4.564453125,2.322265625,-6.6865234375
0.027,5.60546875,0.9609375,-6.7265625
0.0275,6.0859375,0.240234375,-6.7666015625
0.028,5.92578125,-0.6005859375,-6.2861328125
0.0285,5.4853515625,-1.5615234375,-5.1650390625
0.029,5.0849609375,-2.9228515625,-3.603515625
0.0295,4.8447265625,-4.404296875,-2.1220703125
0.03,4.8046875,-5.5654296875,-1.12109375
0.0305,4.484375,-6.166015625,-0.4404296875
0.031,3.68359375,-6.2861328125,0.48046875
0.0315,2.2421875,-6.166015625,1.76171875
0.032,0.640625,-6.24609375,3.443359375
0.0325,-0.640625,-6.486328125,4.8447265625
0.033,-1.28125,-6.806640625,5.845703125
0.0335,-1.9619140625,-6.56640625,6.40625
0.034,-3.0830078125,-5.4453125,6.6865234375
0.0345,-4.4443359375,-3.8837890625,6.7265625
0.035,-5.685546875,-2.2822265625,6.7265625
0.0355,-6.486328125,-1.1611328125,6.7265625
0.036,-6.6865234375,-0.48046875,6.56640625
0.0365,-6.40625,0.400390625,5.8857421875
0.037,-5.8056640625,1.5615234375,4.484375
0.0375,-5.4453125,3.0029296875,2.8828125
0.038,-5.205078125,4.3642578125,1.4814453125
0.0385,-5.0849609375,5.28515625,0.6005859375
0.039,-4.6044921875,5.685546875,-0.2001953125
0.0395,-3.5634765625,5.7255859375,-1.12109375
0.04,-2.001953125,5.60546875,-2.5625
0.0405,-0.48046875,5.60546875,-4.2041015625
0.041,0.6005859375,5.8857421875,-5.4453125
0.0415,1.12109375,6.0458984375,-6.326171875
0.042,1.921875,5.60546875,-6.7265625
0.0425,3.1630859375,4.2841796875,-6.806640625
0.043,4.484375,2.72265625,-6.88671875
0.0435,5.60546875,1.201171875,-6.8466796875
0.044,6.24609375,0.2802734375,-6.88671875
0.0445,6.2060546875,-0.48046875,-6.56640625
0.045,5.845703125,-1.28125,-5.7255859375
0.0455,5.28515625,-2.5224609375,-4.2041015625
0.046,4.96484375,-4.00390625,-2.6025390625
0.0465,4.8046875,-5.28515625,-1.4013671875
0.047,4.6845703125,-6.0859375,-0.640625
0.0475,4.083984375,-6.326171875,0.16015625
0.048,2.8828125,-6.2861328125,1.201171875
0.0485,1.3212890625,-6.326171875,2.72265625
0.049,-0.2802734375,-6.40625,4.32421875
0.0495,-1.0009765625,-6.7666015625,5.4453125
0.05,-1.5615234375,-6.7666015625,6.24609375
0.0505,-2.482421875,-6.1259765625,6.56640625
0.051,-3.84375,-4.64453125,6.6865234375
0.0515,-5.125,-3.0830078125,6.6865234375
0.052,-6.166015625,-1.681640625,6.7265625
0.0525,-6.6064453125,-0.880859375,6.7666015625
0.053,-6.486328125,-0.2001953125,6.24609375
0.0535,-6.0458984375,0.880859375,5.205078125
0.054,-5.6455078125,2.162109375,3.68359375
0.0545,-5.3251953125,3.68359375,2.162109375
0.055,-5.28515625,4.8447265625,1.0810546875
0.0555,-5.0048828125,5.525390625,0.3603515625
0.056,-4.2041015625,5.685546875,-0.5205078125
0.0565,-2.802734375,5.525390625,-1.76171875
0.057,-1.2412109375,5.60546875,-3.4033203125
0.0575,0.1201171875,5.7255859375,-4.9248046875
0.058,0.80078125,6.1259765625,-5.92578125
0.0585,1.44140625,5.9658203125,-6.486328125
0.059,2.5224609375,5.0048828125,-6.7666015625
0.0595,3.8837890625,3.443359375,-6.88671875
0.06,5.1650390625,1.841796875,-6.88671875
0.0605,6.0458984375,0.640625,-6.9267578125
0.061,6.326171875,0.0,-6.8466796875
0.0615,6.0458984375,-0.880859375,-6.166015625
0.062,5.5654296875,-1.9619140625,-4.8447265625
0.0625,5.125,-3.4833984375,-3.2431640625
0.063,4.96484375,-4.884765625,-1.841796875
0.0635,4.8447265625,-5.92578125,-0.880859375
0.064,4.4443359375,-6.40625,-0.2001953125
0.0645,3.443359375,-6.486328125,0.80078125
0.065,1.841796875,-6.4462890625,2.2822265625
0.0655,0.16015625,-6.486328125,3.9638671875
0.066,-0.9208984375,-6.6865234375,5.3251953125
0.0665,-1.4814453125,-6.9267578125,6.24609375
0.067,-2.2822265625,-6.4462890625,6.6865234375
0.0675,-3.5634765625,-5.125,6.8466796875
0.068,-4.9248046875,-3.4833984375,6.88671875
0.0685,-6.1259765625,-1.9619140625,6.88671875
0.069,-6.7666015625,-0.9208984375,6.88671875
0.0695,-6.7666015625,-0.2001953125,6.5263671875
0.07,-6.40625,0.720703125,5.6455078125
0.0705,-5.8056640625,2.001953125,4.083984375
0.071,-5.4453125,3.5234375,2.40234375
0.0715,-5.2451171875,4.8046875,1.12109375
0.072,-5.0048828125,5.60546875,0.3203125
0.0725,-4.3642578125,5.765625,-0.5205078125
0.073,-3.1630859375,5.7255859375,-1.5615234375
0.0735,-1.521484375,5.6455078125,-3.1630859375
0.074,0.080078125,5.7255859375,-4.6845703125
0.0745,0.8408203125,6.005859375,-5.8056640625
0.075,1.4013671875,6.0458984375,-6.486328125
0.0755,2.2421875,5.3251953125,-6.7666015625
0.076,3.5234375,3.84375,-6.8466796875
0.0765,4.8046875,2.2421875,-6.806640625
0.077,5.8056640625,0.880859375,-6.806640625
0.0775,6.24609375,0.1201171875,-6.806640625
0.078,6.0859375,-0.640625,-6.3662109375
0.0785,5.60546875,-1.4814453125,-5.3251953125
0.079,5.125,-2.7626953125,-3.8037109375
0.0795,4.8046875,-4.2041015625,-2.2822265625
0.08,4.7646484375,-5.4052734375,-1.2412109375
0.0805,4.5244140625,-6.0859375,-0.6005859375
0.081,3.84375,-6.24609375,0.240234375
0.0815,2.5224609375,-6.166015625,1.3212890625
0.082,1.041015625,-6.1259765625,2.8828125
0.0825,-0.3203125,-6.326171875,4.404296875
0.083,-1.0009765625,-6.6865234375,5.4052734375
0.0835,-1.5615234375,-6.646484375,6.0859375
0.084,-2.5224609375,-5.845703125,6.40625
0.0845,-3.84375,-4.4443359375,6.486328125
0.085,-5.0849609375,-2.8828125,6.56640625
0.0855,-6.0859375,-1.7216796875,6.6865234375
0.086,-6.40625,-1.041015625,6.6865234375
0.0865,-6.24609375,-0.3603515625,6.1259765625
0.087,-5.765625,0.7607421875,5.0048828125
0.0875,-5.4453125,2.08203125,3.5634765625
0.088,-5.2451171875,3.5234375,2.162109375
0.0885,-5.205078125,4.564453125,1.2412109375
0.089,-4.884765625,5.125,0.5205078125
0.0895,-4.1240234375,5.2451171875,-0.3603515625
0.09,-2.72265625,5.28515625,-1.6416015625
0.0905,-1.2412109375,5.4052734375,-3.2431640625
0.091,-0.16015625,5.7255859375,-4.6044921875
0.0915,0.48046875,6.0458984375,-5.5654296875
0.092,1.201171875,5.765625,-6.1259765625
0.0925,2.2822265625,4.724609375,-6.326171875
0.093,3.6435546875,3.283203125,-6.4462890625
0.0935,4.8046875,1.841796875,-6.5263671875
0.094,5.60546875,0.880859375,-6.7265625
0.0945,5.765625,0.2802734375,-6.56640625
0.095,5.5654296875,-0.6005859375,-5.92578125
0.0955,5.0849609375,-1.6416015625,-4.64453125
0.096,4.8046875,-3.0029296875,-3.203125
0.0965,4.724609375,-4.3642578125,-2.0419921875
0.097,4.6845703125,-5.28515625,-1.28125
0.0975,4.2841796875,-5.7255859375,-0.640625
0.098,3.3232421875,-5.765625,0.400390625
0.0985,1.9619140625,-5.8056640625,1.76171875
0.099,0.6005859375,-5.92578125,3.3232421875
0.0995,-0.3203125,-6.40625,4.5244140625
0.1,-0.8408203125,-6.6064453125,5.4052734375
0.1005,-1.6015625,-6.2060546875,5.8056640625
0.101,-2.8427734375,-5.044921875,6.005859375
0.1015,-4.1240234375,-3.6435546875,6.1259765625
0.102,-5.205078125,-2.3623046875,6.2861328125
0.1025,-5.845703125,-1.6015625,6.4462890625
0.103,-5.92578125,-1.0009765625,6.2060546875
0.1035,-5.6455078125,-0.2001953125,5.4052734375
0.104,-5.28515625,1.0009765625,4.2041015625
0.1045,-5.044921875,2.40234375,2.8427734375
0.105,-5.0849609375,3.5634765625,1.8818359375
0.1055,-5.0048828125,4.404296875,1.1611328125
0.106,-4.5244140625,4.7646484375,0.560546875
0.1065,-3.4033203125,4.8046875,-0.640625
0.107,-2.162109375,5.0048828125,-1.9619140625
0.1075,-1.0009765625,5.2451171875,-3.4033203125
0.108,-0.3203125,5.685546875,-4.5244140625
0.1085,0.3603515625,5.8056640625,-5.28515625
0.109,1.2412109375,5.2451171875,-5.685546875
0.1095,2.40234375,4.1240234375,-5.92578125
0.11,3.68359375,2.7626953125,-6.0859375
0.1105,4.724609375,1.681640625,-6.326171875
0.111,5.1650390625,1.0810546875,-6.486328125
0.1115,5.2451171875,0.4404296875,-6.166015625
0.112,4.9248046875,-0.5205078125,-5.28515625
0.1125,4.724609375,-1.76171875,-4.1240234375
0.113,4.6044921875,-3.0830078125,-2.9228515625
0.1135,4.6845703125,-4.244140625,-2.1220703125
0.114,4.6044921875,-4.884765625,-1.521484375
0.1145,4.00390625,-5.205078125,-0.720703125
0.115,2.9228515625,-5.3251953125,0.5205078125
0.1155,1.6416015625,-5.60546875,1.921875
0.116,0.720703125,-6.005859375,3.283203125
0.1165,0.1201171875,-6.4462890625,4.404296875
0.117,-0.640625,-6.4462890625,5.0849609375
0.1175,-1.681640625,-5.6455078125,5.4052734375
0.118,-2.962890625,-4.5244140625,5.7255859375
0.1185,-4.2041015625,-3.203125,5.8857421875
0.119,-5.125,-2.2822265625,6.2060546875
0.1195,-5.4453125,-1.7216796875,6.24609375
0.12,-5.4453125,-1.041015625,5.8056640625
0.1205,-5.125,0.0,4.8447265625
0.121,-5.0048828125,1.2412109375,3.68359375
0.1215,-5.0048828125,2.5224609375,2.5625
0.122,-5.0849609375,3.603515625,1.8818359375
0.1225,-4.8447265625,4.1640625,1.2412109375
0.123,-4.083984375,4.4443359375,0.400390625
0.1235,-2.962890625,4.6044921875,-0.9609375
0.124,-1.76171875,4.884765625,-2.40234375
0.1245,-1.0009765625,5.4052734375,-3.6435546875
0.125,-0.4404296875,5.7255859375,-4.564453125
0.1255,0.4404296875,5.525390625,-5.1650390625
0.126,1.5615234375,4.6044921875,-5.4453125
0.1265,2.802734375,3.443359375,-5.765625
0.127,3.9638671875,2.2421875,-5.9658203125
0.1275,4.724609375,1.5615234375,-6.2861328125
0.128,4.96484375,0.9609375,-6.2861328125
0.1285,4.8447265625,0.16015625,-5.6455078125
0.129,4.64453125,-1.0009765625,-4.64453125
0.1295,4.484375,-2.322265625,-3.4833984375
0.13,4.6044921875,-3.5234375,-2.5625
0.1305,4.6845703125,-4.4443359375,-1.9619140625
0.131,4.32421875,-4.884765625,-1.28125
0.1315,3.443359375,-5.0849609375,-0.2802734375
0.132,2.2822265625,-5.4052734375,1.1611328125
0.1325,1.201171875,-5.765625,2.6025390625
0.133,0.5205078125,-6.2861328125,3.84375
0.1335,-0.2001953125,-6.486328125,4.64453125
0.134,-1.12109375,-6.0458984375,5.205078125
0.1345,-2.322265625,-5.0048828125,5.4853515625
0.135,-3.6435546875,-3.7236328125,5.7255859375
0.1355,-4.724609375,-2.642578125,6.0458984375
0.136,-5.3251953125,-1.9619140625,6.24609375
0.1365,-5.4052734375,-1.4013671875,6.005859375
0.137,-5.1650390625,-0.5205078125,5.1650390625
0.1375,-5.0849609375,0.7607421875,4.083984375
0.138,-5.0048828125,2.162109375,2.8828125
0.1385,-5.0849609375,3.3232421875,2.0419921875
0.139,-4.96484375,4.083984375,1.44140625
0.1395,-4.4443359375,4.404296875,0.6806640625
0.14,-3.283203125,4.6044921875,-0.6005859375
0.1405,-2.1220703125,4.8046875,-1.9619140625
0.141,-1.1611328125,5.2451171875,-3.36328125
0.1415,-0.560546875,5.7255859375,-4.4443359375
0.142,0.240234375,5.685546875,-5.125
0.1425,1.28125,4.9248046875,-5.4853515625
0.143,2.5625,3.7236328125,-5.765625
0.1435,3.84375,2.40234375,-6.005859375
0.144,4.724609375,1.5615234375,-6.2861328125
0.1445,5.0849609375,0.9208984375,-6.326171875
0.145,5.044921875,0.240234375,-5.8857421875
0.1455,4.724609375,-0.9208984375,-4.884765625
0.146,4.564453125,-2.08203125,-3.6435546875
0.1465,4.6044921875,-3.4033203125,-2.6025390625
0.147,4.6845703125,-4.4443359375,-1.8818359375
0.1475,4.4443359375,-5.0048828125,-1.28125
0.148,3.6435546875,-5.205078125,-0.3603515625
0.1485,2.482421875,-5.4052734375,1.0009765625
0.149,1.2412109375,-5.6455078125,2.482421875
0.1495,0.48046875,-6.1259765625,3.763671875
0.15,-0.2802734375,-6.486328125,4.6845703125
0.1505,-1.041015625,-6.2060546875,5.28515625
0.151,-2.2421875,-5.1650390625,5.5654296875
0.1515,-3.5634765625,-3.8837890625,5.8056640625
0.152,-4.724609375,-2.642578125,6.0458984375
0.1525,-5.4453125,-1.921875,6.2861328125
0.153,-5.60546875,-1.3212890625,6.1259765625
0.1535,-5.4453125,-0.560546875,5.4052734375
0.154,-5.125,0.6806640625,4.32421875
0.1545,-5.0048828125,2.0419921875,3.04296875
0.155,-5.0849609375,3.3232421875,2.0419921875
0.1555,-5.0048828125,4.1240234375,1.4013671875
0.156,-4.564453125,4.5244140625,0.720703125
0.1565,-3.5234375,4.64453125,-0.4404296875
0.157,-2.2822265625,4.884765625,-1.8017578125
0.1575,-1.1611328125,5.1650390625,-3.2431640625
0.158,-0.48046875,5.685546875,-4.4443359375
0.1585,0.240234375,5.8056640625,-5.205078125
0.159,1.1611328125,5.2451171875,-5.6455078125
0.1595,2.4423828125,4.00390625,-5.92578125
0.16,3.763671875,2.642578125,-6.1259765625
0.1605,4.8046875,1.521484375,-6.3662109375
0.161,5.3251953125,0.8408203125,-6.486328125
0.1615,5.28515625,0.16015625,-6.1259765625
0.162,4.96484375,-0.80078125,-5.1650390625
0.1625,4.7646484375,-2.0419921875,-3.8837890625
0.163,4.64453125,-3.443359375,-2.642578125
0.1635,4.724609375,-4.6044921875,-1.8017578125
0.164,4.564453125,-5.28515625,-1.1611328125
0.1645,3.84375,-5.525390625,-0.3603515625
0.165,2.6025390625,-5.5654296875,0.9609375
0.1655,1.28125,-5.765625,2.482421875
0.166,0.3203125,-6.166015625,3.84375
0.1665,-0.4404296875,-6.56640625,4.96484375
0.167,-1.1611328125,-6.40625,5.60546875
0.1675,-2.2822265625,-5.4853515625,5.8857421875
0.168,-3.6435546875,-4.1640625,6.1259765625
0.1685,-4.9248046875,-2.72265625,6.24609375
0.169,-5.765625,-1.76171875,6.4462890625
0.1695,-6.0859375,-1.1611328125,6.3662109375
0.17,-5.845703125,-0.3203125,5.7255859375
0.1705,-5.4453125,0.9208984375,4.484375
0.171,-5.205078125,2.2822265625,3.123046875
0.1715,-5.125,3.68359375,1.8818359375
0.172,-5.125,4.6044921875,1.0810546875
0.1725,-4.64453125,5.0849609375,0.400390625
0.173,-3.68359375,5.125,-0.640625
0.1735,-2.2822265625,5.2451171875,-2.1220703125
0.174,-0.880859375,5.4052734375,-3.68359375
0.1745,0.080078125,5.765625,-4.9248046875
0.175,0.640625,6.005859375,-5.765625
0.1755,1.521484375,5.4853515625,-6.24609375
0.176,2.8427734375,4.1240234375,-6.40625
0.1765,4.1640625,2.6025390625,-6.56640625
0.177,5.28515625,1.2412109375,-6.6064453125
0.1775,5.845703125,0.400390625,-6.7666015625
0.178,5.8857421875,-0.3203125,-6.40625
0.1785,5.4853515625,-1.1611328125,-5.4453125
0.179,5.0849609375,-2.482421875,-3.9638671875
0.1795,4.8447265625,-3.9638671875,-2.482421875
0.18,4.8046875,-5.1650390625,-1.4013671875
0.1805,4.6044921875,-5.92578125,-0.6806640625
0.181,3.923828125,-6.1259765625,0.16015625
0.1815,2.6025390625,-6.0859375,1.3212890625
0.182,1.0810546875,-6.166015625,2.9228515625
0.1825,-0.3203125,-6.3662109375,4.4443359375
0.183,-1.0009765625,-6.7265625,5.525390625
0.1835,-1.6015625,-6.6064453125,6.166015625
0.184,-2.642578125,-5.765625,6.5263671875
0.1845,-4.0439453125,-4.2841796875,6.6064453125
0.185,-5.3251953125,-2.72265625,6.646484375
0.1855,-6.326171875,-1.44140625,6.6865234375
0.186,-6.56640625,-0.6806640625,6.646484375
0.1865,-6.40625,0.1201171875,6.0458984375
0.187,-5.8857421875,1.201171875,4.8046875
0.1875,-5.4853515625,2.5625,3.203125
0.188,-5.2451171875,4.0439453125,1.76171875
0.1885,-5.1650390625,5.0849609375,0.8408203125
0.189,-4.7646484375,5.60546875,0.1201171875
0.1895,-3.8837890625,5.6455078125,-0.80078125
0.19,-2.2822265625,5.5654296875,-2.2421875
0.1905,-0.7607421875,5.60546875,-3.8837890625
0.191,0.400390625,5.845703125,-5.205078125
0.1915,0.9609375,6.1259765625,-6.1259765625
0.192,1.7216796875,5.7255859375,-6.6064453125
0.1925,2.8828125,4.5244140625,-6.7666015625
0.193,4.2841796875,2.9228515625,-6.88671875
0.1935,5.4052734375,1.361328125,-6.88671875
0.194,6.2060546875,0.3603515625,-6.9267578125
0.1945,6.2861328125,-0.400390625,-6.6865234375
0.195,5.92578125,-1.1611328125,-5.8857421875
0.1955,5.4052734375,-2.3623046875,-4.404296875
0.196,5.044921875,-3.8837890625,-2.7626953125
0.1965,4.8447265625,-5.205078125,-1.4814453125
0.197,4.724609375,-6.1259765625,-0.6806640625
0.1975,4.1640625,-6.40625,0.1201171875
0.198,3.04296875,-6.3662109375,1.12109375
0.1985,1.44140625,-6.3662109375,2.642578125
0.199,-0.2001953125,-6.40625,4.32421875
0.1995,-1.041015625,-6.6865234375,5.4853515625
0.2,-1.6015625,-6.806640625,6.2861328125
0.2005,-2.482421875,-6.24609375,6.6865234375
0.201,-3.8037109375,-4.8046875,6.7666015625
0.2015,-5.125,-3.203125,6.7666015625
0.202,-6.2060546875,-1.681640625,6.806640625
0.2025,-6.7265625,-0.80078125,6.806640625
0.203,-6.646484375,0.0,6.3662109375
0.2035,-6.2060546875,0.880859375,5.365234375
0.204,-5.7255859375,2.2021484375,3.8037109375
0.2045,-5.365234375,3.68359375,2.2021484375
0.205,-5.2451171875,4.9248046875,1.041015625
0.2055,-5.0048828125,5.60546875,0.2802734375
0.206,-4.244140625,5.765625,-0.560546875
0.2065,-2.8828125,5.685546875,-1.7216796875
0.207,-1.3212890625,5.7255859375,-3.36328125
0.2075,0.2001953125,5.765625,-4.8447265625
0.208,0.880859375,6.0859375,-5.92578125
0.2085,1.44140625,6.005859375,-6.56640625
0.209,2.4423828125,5.0849609375,-6.88671875
0.2095,3.8037109375,3.5234375,-6.9267578125
0.21,5.0849609375,1.9619140625,-6.9267578125
0.2105,6.0458984375,0.6806640625,-6.9267578125
0.211,6.3662109375,0.0,-6.88671875
0.2115,6.1259765625,-0.80078125,-6.2861328125
0.212,5.60546875,-1.8017578125,-5.0849609375
0.2125,5.1650390625,-3.2431640625,-3.4833984375
0.213,4.9248046875,-4.724609375,-1.9619140625
0.2135,4.8046875,-5.8056640625,-1.0009765625
0.214,4.484375,-6.3662109375,-0.3203125
0.2145,3.603515625,-6.40625,0.640625
0.215,2.1220703125,-6.3662109375,1.9619140625
0.2155,0.48046875,-6.40625,3.68359375
0.216,-0.720703125,-6.6064453125,5.044921875
0.2165,-1.361328125,-6.9267578125,6.0859375
0.217,-2.08203125,-6.6064453125,6.56640625
0.2175,-3.2431640625,-5.4453125,6.7666015625
0.218,-4.64453125,-3.84375,6.88671875
0.2185,-5.845703125,-2.2421875,6.8466796875
0.219,-6.646484375,-1.1611328125,6.88671875
0.2195,-6.7265625,-0.48046875,6.6865234375
0.22,-6.40625,0.4404296875,5.8857421875
0.2205,-5.92578125,1.6015625,4.484375
0.221,-5.4853515625,3.1630859375,2.802734375
0.2215,-5.28515625,4.484375,1.44140625
0.222,-5.1650390625,5.4052734375,0.5205078125
0.2225,-4.564453125,5.7255859375,-0.240234375
0.223,-3.4833984375,5.7255859375,-1.201171875
0.2235,-1.921875,5.685546875,-2.72265625
0.224,-0.3203125,5.7255859375,-4.3642578125
0.2245,0.640625,5.92578125,-5.60546875
0.225,1.201171875,6.0859375,-6.40625
0.2255,1.9619140625,5.4853515625,-6.7666015625
0.226,3.3232421875,4.1240234375,-6.8466796875
0.2265,4.6044921875,2.5224609375,-6.88671875
0.227,5.685546875,1.12109375,-6.8466796875
0.2275,6.24609375,0.240234375,-6.88671875
0.228,6.166015625,-0.5205078125,-6.486328125
0.2285,5.7255859375,-1.3212890625,-5.5654296875
