wavelength,x,y,z
0.0,-18.528076171875,2.292236328125,15.344970703125
0.0005,-16.486083984375,-1.631591796875,17.226806640625
0.001,-14.684326171875,-4.674560546875,18.508056640625
0.0015,-12.322021484375,-7.717529296875,19.228759765625
0.002,-8.918701171875,-10.880615234375,19.148681640625
0.0025,-4.954833984375,-13.923583984375,18.427978515625
0.003,-0.590576171875,-16.406005859375,16.706298828125
0.0035,3.293212890625,-17.967529296875,14.744384765625
0.004,6.015869140625,-18.528076171875,12.742431640625
0.0045,8.978759765625,-19.088623046875,10.500244140625
0.005,12.422119140625,-18.728271484375,6.856689453125
0.0055,15.144775390625,-17.767333984375,3.213134765625
0.006,17.266845703125,-15.765380859375,-0.830810546875
0.0065,18.628173828125,-13.883544921875,-4.073974609375
0.007,19.188720703125,-11.401123046875,-7.036865234375
0.0075,19.468994140625,-8.398193359375,-10.280029296875
0.008,19.028564453125,-4.794677734375,-13.443115234375
0.0085,17.947509765625,-1.111083984375,-16.165771484375
0.009,15.945556640625,2.692626953125,-17.887451171875
0.0095,13.783447265625,5.535400390625,-18.688232421875
0.01,11.461181640625,8.618408203125,-19.448974609375
0.0105,7.297119140625,12.302001953125,-19.088623046875
0.011,3.413330078125,14.944580078125,-18.127685546875
0.0115,-1.031005859375,17.106689453125,-16.085693359375
0.012,-4.434326171875,18.548095703125,-14.404052734375
0.0125,-7.237060546875,18.908447265625,-12.041748046875
0.013,-10.239990234375,19.228759765625,-9.559326171875
0.0135,-13.763427734375,18.628173828125,-5.635498046875
0.014,-16.365966796875,17.186767578125,-1.631591796875
0.0145,-18.127685546875,15.104736328125,2.252197265625
0.015,-19.168701171875,12.942626953125,5.335205078125
0.0155,-19.729248046875,10.380126953125,8.458251953125
0.016,-19.689208984375,6.696533203125,12.101806640625
0.0165,-19.048583984375,3.293212890625,14.784423828125
0.017,-17.487060546875,-0.710693359375,17.226806640625
0.0175,-15.525146484375,-4.234130859375,18.828369140625
0.018,-13.002685546875,-7.036865234375,19.228759765625
0.0185,-10.560302734375,-9.959716796875,19.869384765625
0.019,-5.875732421875,-13.803466796875,19.148681640625
0.0195,-1.631591796875,-16.325927734375,17.627197265625
0.02,2.412353515625,-17.887451171875,15.545166015625
0.0205,5.615478515625,-19.128662109375,13.703369140625
0.021,8.578369140625,-19.328857421875,11.140869140625
0.0215,11.741455078125,-19.288818359375,8.057861328125
0.022,14.784423828125,-18.568115234375,4.414306640625
0.0225,17.306884765625,-16.686279296875,0.050048828125
0.023,18.868408203125,-14.604248046875,-3.553466796875
0.0235,19.468994140625,-12.161865234375,-6.516357421875
0.024,19.989501953125,-9.639404296875,-9.599365234375
0.0245,19.629150390625,-5.515380859375,-13.403076171875
0.025,18.708251953125,-2.072021484375,-15.845458984375
0.0255,16.706298828125,1.771728515625,-17.767333984375
0.026,14.744384765625,5.255126953125,-19.288818359375
0.0265,11.821533203125,8.177978515625,-19.408935546875
0.027,8.818603515625,11.341064453125,-19.689208984375
0.0275,4.494384765625,14.664306640625,-18.888427734375
0.028,0.010009765625,17.106689453125,-16.926513671875
0.0285,-3.713623046875,18.427978515625,-14.844482421875
0.029,-6.796630859375,19.228759765625,-12.802490234375
0.0295,-9.759521484375,19.549072265625,-10.360107421875
0.03,-13.322998046875,18.988525390625,-6.396240234375
0.0305,-15.805419921875,17.987548828125,-2.952880859375
0.031,-17.967529296875,15.865478515625,1.331298828125
0.0315,-19.368896484375,13.783447265625,4.734619140625
0.032,-19.529052734375,11.020751953125,7.697509765625
0.0325,-20.049560546875,8.338134765625,10.740478515625
0.033,-19.489013671875,4.174072265625,14.384033203125
0.0335,-18.207763671875,0.370361328125,16.906494140625
0.034,-16.005615234375,-3.193115234375,18.267822265625
0.0345,-14.083740234375,-6.356201171875,19.549072265625
0.035,-11.240966796875,-9.319091796875,19.829345703125
0.0355,-7.116943359375,-12.842529296875,19.468994140625
0.036,-3.233154296875,-15.525146484375,18.508056640625
0.0365,1.531494140625,-17.807373046875,16.185791015625
0.037,4.814697265625,-18.968505859375,14.263916015625
0.0375,7.817626953125,-19.368896484375,11.861572265625
0.038,10.660400390625,-19.809326171875,9.619384765625
0.0385,14.384033203125,-18.928466796875,5.175048828125
0.039,16.746337890625,-17.487060546875,1.451416015625
0.0395,18.427978515625,-15.445068359375,-2.272216796875
0.04,19.629150390625,-13.282958984375,-5.635498046875
0.0405,19.829345703125,-10.400146484375,-8.678466796875
0.041,19.909423828125,-7.076904296875,-12.161865234375
0.0415,19.268798828125,-3.473388671875,-15.084716796875
0.042,17.587158203125,0.810791015625,-17.567138671875
0.0425,15.385009765625,4.134033203125,-18.728271484375
0.043,12.982666015625,7.177001953125,-19.489013671875
0.0435,10.340087890625,10.219970703125,-19.969482421875
0.044,5.455322265625,14.143798828125,-19.088623046875
0.0445,1.571533203125,16.466064453125,-17.847412109375
0.045,-2.672607421875,18.267822265625,-15.685302734375
0.0455,-5.915771484375,19.348876953125,-13.763427734375
0.046,-8.998779296875,19.468994140625,-10.920654296875
0.0465,-11.921630859375,19.669189453125,-8.318115234375
0.047,-15.405029296875,18.748291015625,-4.154052734375
0.0475,-17.847412109375,16.666259765625,0.370361328125
0.048,-19.168701171875,14.704345703125,3.613525390625
0.0485,-20.089599609375,12.221923828125,6.936767578125
0.049,-20.329833984375,9.459228515625,9.939697265625
0.0495,-19.969482421875,5.255126953125,13.743408203125
0.05,-19.128662109375,1.931884765625,16.305908203125
0.0505,-17.206787109375,-2.272216796875,18.548095703125
0.051,-14.964599609375,-5.635498046875,19.749267578125
0.0515,-12.121826171875,-8.718505859375,20.029541015625
0.052,-9.279052734375,-11.801513671875,20.469970703125
0.0525,-4.154052734375,-15.525146484375,19.228759765625
0.053,0.490478515625,-17.807373046875,17.186767578125
0.0535,3.973876953125,-19.168701171875,15.224853515625
0.054,7.377197265625,-20.129638671875,13.062744140625
0.0545,10.540283203125,-20.129638671875,10.019775390625
0.055,13.863525390625,-19.729248046875,6.456298828125
0.0555,16.946533203125,-18.568115234375,2.612548828125
0.056,19.188720703125,-16.365966796875,-2.112060546875
0.0565,20.109619140625,-14.163818359375,-5.235107421875
0.057,20.710205078125,-11.401123046875,-8.598388671875
0.0575,20.950439453125,-8.518310546875,-11.681396484375
0.058,20.229736328125,-3.913818359375,-15.445068359375
0.0585,18.708251953125,0.010009765625,-17.807373046875
0.059,16.626220703125,3.733642578125,-19.529052734375
0.0595,14.223876953125,7.136962890625,-20.690185546875
0.06,10.820556640625,10.420166015625,-20.650146484375
0.0605,7.177001953125,13.823486328125,-20.570068359375
0.061,2.532470703125,17.026611328125,-19.368896484375
0.0615,-2.632568359375,19.188720703125,-16.646240234375
0.062,-5.715576171875,20.069580078125,-14.684326171875
0.0625,-9.118896484375,20.830322265625,-12.201904296875
0.063,-12.281982421875,20.750244140625,-9.118896484375
0.0635,-15.805419921875,19.709228515625,-4.674560546875
0.064,-18.407958984375,18.187744140625,-0.670654296875
0.0645,-20.369873046875,15.705322265625,3.733642578125
0.065,-21.090576171875,13.142822265625,7.016845703125
0.0655,-21.370849609375,9.859619140625,10.540283203125
0.066,-21.330810546875,6.656494140625,13.743408203125
0.0665,-20.449951171875,2.372314453125,17.106689453125
0.067,-18.287841796875,-2.072021484375,19.348876953125
0.0675,-15.965576171875,-5.475341796875,20.469970703125
0.068,-13.483154296875,-8.838623046875,21.470947265625
0.0685,-9.759521484375,-12.121826171875,21.270751953125
0.069,-5.235107421875,-15.645263671875,20.469970703125
0.0695,-0.790771484375,-18.327880859375,18.908447265625
0.07,4.134033203125,-20.209716796875,16.145751953125
0.0705,7.096923828125,-20.730224609375,13.903564453125
0.071,10.580322265625,-21.130615234375,11.020751953125
0.0715,13.703369140625,-20.890380859375,7.857666015625
0.072,17.146728515625,-19.729248046875,3.293212890625
0.0725,19.509033203125,-17.567138671875,-1.311279296875
0.073,21.030517578125,-15.324951171875,-4.994873046875
0.0735,21.671142578125,-12.522216796875,-8.358154296875
0.074,21.751220703125,-8.998779296875,-11.841552734375
0.0745,21.270751953125,-5.155029296875,-15.244873046875
0.075,20.189697265625,-1.231201171875,-18.127685546875
0.0755,17.667236328125,3.453369140625,-20.209716796875
0.076,15.064697265625,6.656494140625,-21.010498046875
0.0765,12.302001953125,10.099853515625,-21.771240234375
0.077,8.378173828125,13.583251953125,-21.490966796875
0.0775,3.533447265625,16.946533203125,-20.209716796875
0.078,-1.151123046875,19.268798828125,-18.207763671875
0.0785,-5.355224609375,20.910400390625,-15.845458984375
0.079,-8.558349609375,21.270751953125,-13.202880859375
0.0795,-12.001708984375,21.390869140625,-10.119873046875
0.08,-15.405029296875,20.950439453125,-6.356201171875
0.0805,-18.528076171875,19.468994140625,-1.871826171875
0.081,-20.730224609375,16.786376953125,3.052978515625
0.0815,-21.771240234375,14.384033203125,6.416259765625
0.082,-22.411865234375,11.501220703125,9.939697265625
0.0825,-22.291748046875,7.697509765625,13.663330078125
0.083,-21.410888671875,3.453369140625,16.946533203125
0.0835,-19.889404296875,-0.750732421875,19.629150390625
0.084,-17.447021484375,-5.114990234375,21.551025390625
0.0845,-14.564208984375,-8.318115234375,21.951416015625
0.085,-11.481201171875,-11.721435546875,22.431884765625
0.0855,-6.996826171875,-15.445068359375,21.911376953125
0.086,-1.951904296875,-18.568115234375,20.189697265625
0.0865,3.093017578125,-20.489990234375,17.467041015625
0.087,6.736572265625,-21.811279296875,15.304931640625
0.0875,10.139892578125,-22.091552734375,12.422119140625
0.088,13.583251953125,-21.931396484375,8.938720703125
0.0885,17.026611328125,-21.130615234375,4.734619140625
0.089,19.869384765625,-19.288818359375,0.130126953125
0.0895,21.831298828125,-16.526123046875,-4.514404296875
0.09,22.431884765625,-13.763427734375,-7.797607421875
0.0905,22.912353515625,-10.600341796875,-11.401123046875
0.091,22.471923828125,-6.396240234375,-15.324951171875
0.0915,21.310791015625,-2.192138671875,-18.287841796875
0.092,19.188720703125,2.252197265625,-20.489990234375
0.0925,16.666259765625,6.336181640625,-22.171630859375
0.093,13.423095703125,9.619384765625,-22.291748046875
0.0935,9.939697265625,13.062744140625,-22.451904296875
0.094,5.175048828125,16.786376953125,-21.611083984375
0.0945,0.210205078125,19.589111328125,-19.729248046875
0.095,-4.634521484375,21.190673828125,-16.806396484375
0.0955,-7.917724609375,21.991455078125,-14.444091796875
0.096,-11.401123046875,22.271728515625,-11.521240234375
0.0965,-14.924560546875,21.751220703125,-7.557373046875
0.097,-18.007568359375,20.510009765625,-3.393310546875
0.0975,-20.570068359375,18.187744140625,1.531494140625
0.098,-22.211669921875,15.585205078125,5.695556640625
0.0985,-22.451904296875,12.502197265625,8.978759765625
0.099,-22.852294921875,9.299072265625,12.542236328125
0.0995,-22.171630859375,4.774658203125,16.385986328125
0.1,-20.890380859375,0.650634765625,19.228759765625
0.1005,-18.247802734375,-3.713623046875,20.950439453125
0.101,-15.885498046875,-7.357177734375,22.271728515625
0.1015,-12.642333984375,-10.640380859375,22.431884765625
0.102,-8.638427734375,-14.163818359375,22.151611328125
0.1025,-3.993896484375,-17.366943359375,20.990478515625
0.103,1.291259765625,-20.009521484375,18.668212890625
0.1035,5.535400390625,-21.410888671875,16.025634765625
0.104,8.738525390625,-21.771240234375,13.383056640625
0.1045,12.101806640625,-22.211669921875,10.580322265625
0.105,15.905517578125,-21.330810546875,6.095947265625
0.1055,18.708251953125,-19.849365234375,1.971923828125
0.106,20.870361328125,-17.406982421875,-2.712646484375
0.1065,22.271728515625,-14.924560546875,-6.476318359375
0.107,22.431884765625,-11.641357421875,-9.759521484375
0.1075,22.511962890625,-8.278076171875,-13.403076171875
0.108,21.671142578125,-3.953857421875,-16.846435546875
0.1085,20.109619140625,0.490478515625,-19.649169921875
0.109,17.346923828125,4.614501953125,-21.090576171875
0.1095,14.744384765625,7.977783203125,-21.931396484375
0.11,11.661376953125,11.381103515625,-22.411865234375
0.1105,6.656494140625,15.344970703125,-21.611083984375
0.111,2.572509765625,18.067626953125,-20.329833984375
0.1115,-2.712646484375,20.349853515625,-17.727294921875
0.112,-6.556396484375,21.631103515625,-15.485107421875
0.1125,-9.759521484375,21.671142578125,-12.482177734375
0.113,-12.962646484375,21.951416015625,-9.719482421875
0.1135,-16.846435546875,20.950439453125,-4.874755859375
0.114,-19.569091796875,19.028564453125,-0.310302734375
0.1145,-21.290771484375,16.506103515625,3.853759765625
0.115,-22.491943359375,13.863525390625,7.537353515625
0.1155,-22.572021484375,10.620361328125,10.980712890625
0.116,-22.371826171875,6.456298828125,14.864501953125
0.1165,-21.410888671875,2.572509765625,17.787353515625
0.117,-19.408935546875,-2.072021484375,20.429931640625
0.1175,-16.766357421875,-5.995849609375,21.791259765625
0.118,-13.803466796875,-9.198974609375,22.111572265625
0.1185,-10.840576171875,-12.482177734375,22.632080078125
0.119,-5.195068359375,-16.526123046875,21.470947265625
0.1195,-0.670654296875,-19.168701171875,19.589111328125
0.12,3.893798828125,-20.890380859375,17.026611328125
0.1205,7.697509765625,-22.091552734375,14.744384765625
0.121,11.020751953125,-22.051513671875,11.381103515625
0.1215,14.384033203125,-21.851318359375,8.097900390625
0.122,17.907470703125,-20.810302734375,3.693603515625
0.1225,20.550048828125,-18.447998046875,-1.471435546875
0.123,21.871337890625,-16.005615234375,-5.114990234375
0.1235,22.712158203125,-12.962646484375,-8.838623046875
0.124,22.912353515625,-9.879638671875,-12.201904296875
0.1245,22.271728515625,-4.994873046875,-16.406005859375
0.125,20.990478515625,-1.191162109375,-18.928466796875
0.1255,18.668212890625,3.333251953125,-21.090576171875
0.126,16.025634765625,7.217041015625,-22.491943359375
0.1265,12.462158203125,10.700439453125,-22.411865234375
0.127,9.018798828125,14.063720703125,-22.612060546875
0.1275,3.773681640625,17.907470703125,-21.370849609375
0.128,-1.591552734375,20.389892578125,-18.928466796875
0.1285,-5.435302734375,21.591064453125,-16.486083984375
0.129,-9.118896484375,22.511962890625,-13.963623046875
0.1295,-12.522216796875,22.431884765625,-10.560302734375
0.13,-16.325927734375,21.591064453125,-6.115966796875
0.1305,-19.288818359375,20.349853515625,-1.951904296875
0.131,-21.731201171875,17.547119140625,3.173095703125
0.1315,-22.732177734375,14.904541015625,6.776611328125
0.132,-23.052490234375,11.541259765625,10.420166015625
0.1325,-23.252685546875,8.378173828125,13.783447265625
0.133,-22.291748046875,3.333251953125,17.867431640625
0.1335,-20.449951171875,-1.031005859375,20.389892578125
0.134,-17.927490234375,-5.034912109375,21.911376953125
0.1345,-15.405029296875,-8.678466796875,23.232666015625
0.135,-11.521240234375,-12.322021484375,22.952392578125
0.1355,-7.156982421875,-15.885498046875,22.471923828125
0.136,-2.312255859375,-19.088623046875,20.910400390625
0.1365,3.333251953125,-21.410888671875,18.027587890625
0.137,6.816650390625,-22.171630859375,15.625244140625
0.1375,10.500244140625,-22.692138671875,12.662353515625
0.138,13.783447265625,-22.692138671875,9.539306640625
0.1385,17.667236328125,-21.490966796875,4.334228515625
0.139,20.429931640625,-19.408935546875,0.010009765625
0.1395,22.151611328125,-16.926513671875,-4.354248046875
0.14,23.032470703125,-14.083740234375,-8.037841796875
0.1405,22.992431640625,-10.440185546875,-11.641357421875
0.141,22.832275390625,-6.876708984375,-15.084716796875
0.1415,21.791259765625,-2.432373046875,-18.447998046875
0.142,19.388916015625,2.492431640625,-20.930419921875
0.1425,16.706298828125,6.015869140625,-22.091552734375
0.143,13.903564453125,9.739501953125,-22.812255859375
0.1435,10.219970703125,13.102783203125,-22.692138671875
0.144,4.854736328125,17.026611328125,-21.490966796875
0.1445,0.570556640625,19.509033203125,-20.009521484375
0.145,-4.554443359375,21.470947265625,-17.166748046875
0.1455,-7.957763671875,22.151611328125,-14.604248046875
0.146,-11.521240234375,22.271728515625,-11.281005859375
0.1465,-14.684326171875,22.151611328125,-8.318115234375
0.147,-18.287841796875,20.630126953125,-3.273193359375
0.1475,-20.770263671875,18.187744140625,1.771728515625
0.148,-22.051513671875,15.665283203125,5.375244140625
0.1485,-22.852294921875,12.822509765625,9.018798828125
0.149,-22.732177734375,9.218994140625,12.502197265625
0.1495,-22.171630859375,4.934814453125,16.225830078125
0.15,-21.090576171875,0.970947265625,19.028564453125
0.1505,-18.568115234375,-3.793701171875,21.390869140625
0.151,-15.885498046875,-7.317138671875,22.111572265625
0.1515,-12.762451171875,-10.760498046875,22.672119140625
0.152,-9.118896484375,-14.123779296875,22.552001953125
0.1525,-3.553466796875,-17.887451171875,21.070556640625
0.153,1.291259765625,-20.249755859375,18.628173828125
0.1535,5.375244140625,-21.611083984375,16.426025390625
0.154,8.818603515625,-22.291748046875,13.783447265625
0.1545,12.302001953125,-21.971435546875,10.340087890625
0.155,15.705322265625,-21.611083984375,6.536376953125
0.1555,18.868408203125,-20.169677734375,2.092041015625
0.156,21.270751953125,-17.366943359375,-3.113037109375
0.1565,22.071533203125,-14.844482421875,-6.396240234375
0.157,22.752197265625,-11.881591796875,-9.999755859375
0.1575,22.592041015625,-8.318115234375,-13.443115234375
0.158,21.711181640625,-3.753662109375,-17.006591796875
0.1585,19.989501953125,0.330322265625,-19.448974609375
0.159,17.747314453125,4.574462890625,-21.290771484375
0.1595,14.784423828125,8.057861328125,-22.011474609375
0.16,11.341064453125,11.541259765625,-22.131591796875
0.1605,7.337158203125,15.024658203125,-21.891357421875
0.161,2.412353515625,18.307861328125,-20.449951171875
0.1615,-2.952880859375,20.429931640625,-17.487060546875
0.162,-6.276123046875,21.390869140625,-15.405029296875
0.1625,-9.799560546875,21.991455078125,-12.842529296875
0.163,-13.202880859375,21.751220703125,-9.279052734375
0.1635,-16.646240234375,20.750244140625,-4.994873046875
0.164,-19.288818359375,19.068603515625,-0.670654296875
0.1645,-21.330810546875,16.426025390625,4.013916015625
0.165,-21.891357421875,13.663330078125,7.257080078125
0.1655,-22.291748046875,10.500244140625,10.860595703125
0.166,-22.051513671875,6.896728515625,14.303955078125
0.1665,-21.130615234375,2.532470703125,17.667236328125
0.167,-18.888427734375,-1.951904296875,19.869384765625
0.1675,-16.726318359375,-5.515380859375,21.270751953125
0.168,-14.003662109375,-8.958740234375,22.031494140625
0.1685,-10.239990234375,-12.281982421875,21.831298828125
0.169,-5.915771484375,-15.845458984375,21.190673828125
0.1695,-1.071044921875,-18.648193359375,19.468994140625
0.17,3.853759765625,-20.489990234375,16.666259765625
0.1705,7.056884765625,-21.010498046875,14.384033203125
0.171,10.460205078125,-21.611083984375,11.661376953125
0.1715,13.783447265625,-21.290771484375,8.097900390625
0.172,17.026611328125,-20.049560546875,3.773681640625
0.1725,19.468994140625,-17.967529296875,-0.790771484375
0.173,21.110595703125,-15.685302734375,-4.674560546875
0.1735,21.551025390625,-12.842529296875,-7.957763671875
0.174,21.791259765625,-9.479248046875,-11.361083984375
0.1745,21.310791015625,-5.715576171875,-14.924560546875
0.175,20.349853515625,-1.551513671875,-17.887451171875
0.1755,17.827392578125,2.932861328125,-19.889404296875
0.176,15.505126953125,6.135986328125,-20.810302734375
0.1765,12.782470703125,9.459228515625,-21.611083984375
0.177,8.818603515625,12.942626953125,-21.290771484375
0.1775,4.214111328125,16.185791015625,-20.209716796875
0.178,-0.590576171875,18.708251953125,-18.247802734375
0.1785,-4.834716796875,20.349853515625,-15.965576171875
0.179,-7.797607421875,20.750244140625,-13.403076171875
0.1795,-11.080810546875,21.110595703125,-10.600341796875
0.18,-14.604248046875,20.590087890625,-6.756591796875
0.1805,-17.527099609375,19.188720703125,-2.512451171875
0.181,-19.689208984375,16.786376953125,2.052001953125
