wavelength,x,y,z
0.0,6.10595703125,-6.14599609375,0.02001953125
0.0005,6.10595703125,-4.98486328125,-1.26123046875
0.001,6.38623046875,-4.18408203125,-2.38232421875
0.0015,6.46630859375,-2.82275390625,-3.90380859375
0.002,6.14599609375,-1.58154296875,-4.82470703125
0.0025,5.54541015625,-0.22021484375,-5.50537109375
0.003,5.02490234375,0.90087890625,-6.10595703125
0.0035,3.94384765625,2.26220703125,-6.34619140625
0.004,3.14306640625,3.46337890625,-6.70654296875
0.0045,1.86181640625,4.82470703125,-6.86669921875
0.005,0.62060546875,5.42529296875,-6.22607421875
0.0055,-0.26025390625,6.22607421875,-6.22607421875
0.006,-1.78173828125,6.46630859375,-4.94482421875
0.0065,-2.98291015625,6.78662109375,-4.10400390625
0.007,-4.46435546875,6.90673828125,-2.74267578125
0.0075,-5.34521484375,6.70654296875,-1.62158203125
0.008,-5.78564453125,6.10595703125,-0.62060546875
0.0085,-6.22607421875,5.74560546875,0.10009765625
0.009,-6.22607421875,4.46435546875,1.50146484375
0.0095,-6.38623046875,3.58349609375,2.58251953125
0.01,-6.50634765625,2.26220703125,4.10400390625
0.0105,-5.82568359375,0.98095703125,4.74462890625
0.011,-5.54541015625,-0.14013671875,5.58544921875
0.0115,-4.66455078125,-1.34130859375,5.82568359375
0.012,-3.70361328125,-2.66259765625,6.14599609375
0.0125,-2.62255859375,-3.86376953125,6.34619140625
0.013,-1.46142578125,-5.06494140625,6.34619140625
0.0135,-0.38037109375,-5.50537109375,5.74560546875
0.014,0.50048828125,-6.26611328125,5.62548828125
0.0145,2.18212890625,-6.42626953125,4.14404296875
0.015,3.34326171875,-6.74658203125,3.42333984375
0.0155,4.74462890625,-6.78662109375,2.06201171875
0.016,5.34521484375,-6.46630859375,1.06103515625
0.0165,5.78564453125,-6.10595703125,0.18017578125
0.017,6.06591796875,-5.50537109375,-0.70068359375
0.0175,6.18603515625,-4.34423828125,-2.02197265625
0.018,6.26611328125,-3.34326171875,-3.14306640625
0.0185,6.38623046875,-2.10205078125,-4.50439453125
0.019,5.50537109375,-0.74072265625,-4.98486328125
0.0195,5.38525390625,0.30029296875,-5.82568359375
0.02,4.22412109375,1.62158203125,-6.02587890625
0.0205,3.54345703125,2.86279296875,-6.54638671875
0.021,2.34228515625,4.14404296875,-6.58642578125
0.0215,1.18115234375,5.10498046875,-6.42626953125
0.022,0.18017578125,5.62548828125,-5.94580078125
0.0225,-0.90087890625,6.26611328125,-5.62548828125
0.023,-2.46240234375,6.42626953125,-4.18408203125
0.0235,-3.54345703125,6.70654296875,-3.46337890625
0.024,-4.82470703125,6.70654296875,-2.18212890625
0.0245,-5.30517578125,6.14599609375,-1.18115234375
0.025,-5.86572265625,5.90576171875,-0.38037109375
0.0255,-5.94580078125,4.94482421875,0.70068359375
0.026,-6.22607421875,4.02392578125,1.94189453125
0.0265,-6.22607421875,2.90283203125,3.18310546875
0.027,-6.22607421875,1.78173828125,4.30419921875
0.0275,-5.38525390625,0.46044921875,4.82470703125
0.028,-5.26513671875,-0.50048828125,5.62548828125
0.0285,-3.94384765625,-1.94189453125,5.74560546875
0.029,-3.26318359375,-3.14306640625,6.26611328125
0.0295,-1.98193359375,-4.34423828125,6.14599609375
0.03,-0.94091796875,-5.18505859375,5.94580078125
0.0305,0.02001953125,-5.74560546875,5.58544921875
0.031,1.30126953125,-6.26611328125,4.86474609375
0.0315,2.82275390625,-6.50634765625,3.66357421875
0.032,3.90380859375,-6.70654296875,2.74267578125
0.0325,4.94482421875,-6.66650390625,1.66162109375
0.033,5.26513671875,-6.10595703125,0.74072265625
0.0335,5.90576171875,-5.94580078125,-0.06005859375
0.034,5.86572265625,-4.62451171875,-1.34130859375
0.0345,6.22607421875,-3.82373046875,-2.54248046875
0.035,6.10595703125,-2.50244140625,-3.82373046875
0.0355,5.90576171875,-1.38134765625,-4.74462890625
0.036,5.10498046875,-0.10009765625,-5.18505859375
0.0365,4.82470703125,0.90087890625,-5.90576171875
0.037,3.54345703125,2.38232421875,-6.10595703125
0.0375,2.90283203125,3.46337890625,-6.54638671875
0.038,1.62158203125,4.62451171875,-6.42626953125
0.0385,0.62060546875,5.26513671875,-6.06591796875
0.039,-0.34033203125,5.86572265625,-5.74560546875
0.0395,-1.82177734375,6.22607421875,-4.62451171875
0.04,-3.14306640625,6.54638671875,-3.70361328125
0.0405,-4.18408203125,6.46630859375,-2.58251953125
0.041,-5.02490234375,6.38623046875,-1.66162109375
0.0415,-5.26513671875,5.70556640625,-0.78076171875
0.042,-5.78564453125,5.50537109375,0.02001953125
0.0425,-5.74560546875,4.14404296875,1.38134765625
0.043,-6.10595703125,3.46337890625,2.46240234375
0.0435,-5.94580078125,2.10205078125,3.70361328125
0.044,-5.58544921875,1.06103515625,4.38427734375
0.0445,-5.10498046875,-0.10009765625,5.02490234375
0.045,-4.50439453125,-1.14111328125,5.46533203125
0.0455,-3.50341796875,-2.50244140625,5.78564453125
0.046,-2.66259765625,-3.54345703125,6.02587890625
0.0465,-1.54150390625,-4.62451171875,5.98583984375
0.047,-0.62060546875,-5.10498046875,5.54541015625
0.0475,0.38037109375,-5.82568359375,5.34521484375
0.048,1.94189453125,-6.06591796875,3.98388671875
0.0485,3.18310546875,-6.58642578125,3.26318359375
0.049,4.22412109375,-6.42626953125,2.10205078125
0.0495,4.98486328125,-6.38623046875,1.30126953125
0.05,5.26513671875,-5.74560546875,0.46044921875
0.0505,5.66552734375,-5.38525390625,-0.38037109375
0.051,5.82568359375,-4.10400390625,-1.86181640625
0.0515,6.06591796875,-3.30322265625,-2.90283203125
0.052,5.98583984375,-2.02197265625,-4.14404296875
0.0525,5.38525390625,-0.90087890625,-4.74462890625
0.053,5.10498046875,0.26025390625,-5.50537109375
0.0535,4.14404296875,1.58154296875,-5.82568359375
0.054,3.34326171875,2.90283203125,-6.42626953125
0.0545,2.26220703125,3.90380859375,-6.34619140625
0.055,1.22119140625,4.94482421875,-6.30615234375
0.0555,0.22021484375,5.34521484375,-5.74560546875
0.056,-0.86083984375,6.06591796875,-5.42529296875
0.0565,-2.54248046875,6.22607421875,-3.98388671875
0.057,-3.70361328125,6.54638671875,-3.18310546875
0.0575,-4.66455078125,6.26611328125,-1.98193359375
0.058,-5.22509765625,6.06591796875,-1.14111328125
0.0585,-5.58544921875,5.50537109375,-0.26025390625
0.059,-5.74560546875,4.74462890625,0.86083984375
0.0595,-6.10595703125,3.62353515625,2.26220703125
0.06,-5.98583984375,2.62255859375,3.18310546875
0.0605,-5.90576171875,1.42138671875,4.30419921875
0.061,-5.14501953125,0.22021484375,4.74462890625
0.0615,-4.90478515625,-0.78076171875,5.46533203125
0.062,-3.58349609375,-2.22216796875,5.62548828125
0.0625,-2.86279296875,-3.42333984375,6.06591796875
0.063,-1.66162109375,-4.34423828125,5.78564453125
0.0635,-0.78076171875,-5.18505859375,5.78564453125
0.064,0.26025390625,-5.54541015625,5.14501953125
0.0645,1.42138671875,-6.14599609375,4.54443359375
0.065,3.06298828125,-6.38623046875,3.22314453125
0.0655,3.98388671875,-6.46630859375,2.38232421875
0.066,4.90478515625,-6.26611328125,1.34130859375
0.0665,5.14501953125,-5.82568359375,0.62060546875
0.067,5.66552734375,-5.46533203125,-0.30029296875
0.0675,5.66552734375,-4.30419921875,-1.54150390625
0.068,6.06591796875,-3.46337890625,-2.78271484375
0.0685,5.74560546875,-2.22216796875,-3.74365234375
0.069,5.62548828125,-1.14111328125,-4.66455078125
0.0695,4.82470703125,0.06005859375,-5.06494140625
0.07,4.58447265625,0.98095703125,-5.74560546875
0.0705,3.34326171875,2.50244140625,-6.02587890625
0.071,2.66259765625,3.54345703125,-6.34619140625
0.0715,1.46142578125,4.50439453125,-6.10595703125
0.072,0.58056640625,5.14501953125,-5.94580078125
0.0725,-0.50048828125,5.62548828125,-5.42529296875
0.073,-1.86181640625,6.02587890625,-4.46435546875
0.0735,-3.26318359375,6.42626953125,-3.46337890625
0.074,-4.10400390625,6.22607421875,-2.42236328125
0.0745,-4.94482421875,6.26611328125,-1.58154296875
0.075,-5.14501953125,5.62548828125,-0.70068359375
0.0755,-5.62548828125,5.26513671875,0.10009765625
0.076,-5.66552734375,3.98388671875,1.50146484375
0.0765,-6.06591796875,3.22314453125,2.62255859375
0.077,-5.70556640625,1.90185546875,3.62353515625
0.0775,-5.54541015625,0.94091796875,4.46435546875
0.078,-4.82470703125,-0.30029296875,4.98486328125
0.0785,-4.34423828125,-1.30126953125,5.46533203125
0.079,-3.22314453125,-2.82275390625,5.82568359375
0.0795,-2.38232421875,-3.70361328125,5.90576171875
0.08,-1.34130859375,-4.74462890625,5.90576171875
0.0805,-0.42041015625,-5.26513671875,5.46533203125
0.081,0.70068359375,-5.90576171875,5.06494140625
0.0815,2.26220703125,-6.22607421875,3.78369140625
0.082,3.70361328125,-6.58642578125,2.86279296875
0.0825,4.42431640625,-6.18603515625,1.74169921875
0.083,5.14501953125,-6.26611328125,1.06103515625
0.0835,5.34521484375,-5.46533203125,0.06005859375
0.084,5.74560546875,-4.98486328125,-0.82080078125
0.0845,5.94580078125,-3.70361328125,-2.38232421875
0.085,6.02587890625,-2.82275390625,-3.38330078125
0.0855,5.70556640625,-1.46142578125,-4.42431640625
0.086,5.22509765625,-0.38037109375,-5.06494140625
0.0865,4.62451171875,0.82080078125,-5.62548828125
0.087,3.82373046875,2.06201171875,-6.02587890625
0.0875,2.86279296875,3.54345703125,-6.50634765625
0.088,1.74169921875,4.30419921875,-6.14599609375
0.0885,0.82080078125,5.18505859375,-6.26611328125
0.089,-0.30029296875,5.50537109375,-5.46533203125
0.0895,-1.38134765625,6.10595703125,-5.02490234375
0.09,-3.14306640625,6.38623046875,-3.54345703125
0.0905,-4.22412109375,6.54638671875,-2.58251953125
0.091,-4.94482421875,6.06591796875,-1.42138671875
0.0915,-5.42529296875,5.90576171875,-0.78076171875
0.092,-5.62548828125,5.10498046875,0.26025390625
0.0925,-5.78564453125,4.30419921875,1.26123046875
0.093,-6.10595703125,3.18310546875,2.74267578125
0.0935,-5.78564453125,2.14208984375,3.54345703125
0.094,-5.62548828125,0.98095703125,4.50439453125
0.0945,-4.94482421875,-0.14013671875,4.86474609375
0.095,-4.46435546875,-1.14111328125,5.42529296875
0.0955,-3.34326171875,-2.54248046875,5.70556640625
0.096,-2.46240234375,-3.74365234375,6.02587890625
0.0965,-1.34130859375,-4.46435546875,5.62548828125
0.097,-0.62060546875,-5.30517578125,5.74560546875
0.0975,0.58056640625,-5.62548828125,4.86474609375
0.098,1.66162109375,-6.10595703125,4.30419921875
0.0985,3.34326171875,-6.42626953125,3.02294921875
0.099,4.14404296875,-6.34619140625,2.06201171875
0.0995,4.98486328125,-6.14599609375,1.18115234375
0.1,5.26513671875,-5.74560546875,0.50048828125
0.1005,5.62548828125,-5.14501953125,-0.58056640625
0.101,5.70556640625,-4.14404296875,-1.74169921875
0.1015,6.14599609375,-3.18310546875,-3.06298828125
0.102,5.62548828125,-1.94189453125,-3.86376953125
0.1025,5.62548828125,-0.98095703125,-4.82470703125
0.103,4.78466796875,0.30029296875,-5.18505859375
0.1035,4.46435546875,1.26123046875,-5.86572265625
0.104,3.22314453125,2.82275390625,-6.22607421875
0.1045,2.34228515625,3.82373046875,-6.38623046875
0.105,1.22119140625,4.66455078125,-6.10595703125
0.1055,0.38037109375,5.34521484375,-6.02587890625
0.106,-0.90087890625,5.78564453125,-5.14501953125
0.1065,-2.18212890625,6.26611328125,-4.34423828125
0.107,-3.78369140625,6.58642578125,-3.14306640625
0.1075,-4.46435546875,6.18603515625,-2.06201171875
0.108,-5.26513671875,6.26611328125,-1.26123046875
0.1085,-5.42529296875,5.46533203125,-0.34033203125
0.109,-5.78564453125,4.90478515625,0.66064453125
0.1095,-5.90576171875,3.62353515625,2.06201171875
0.11,-6.18603515625,2.70263671875,3.30322265625
0.1105,-5.50537109375,1.30126953125,4.02392578125
0.111,-5.50537109375,0.42041015625,4.94482421875
0.1115,-4.54443359375,-0.82080078125,5.18505859375
0.112,-3.98388671875,-1.94189453125,5.74560546875
0.1125,-2.82275390625,-3.54345703125,6.06591796875
0.113,-1.78173828125,-4.34423828125,5.90576171875
0.1135,-0.86083984375,-5.18505859375,5.78564453125
0.114,0.18017578125,-5.62548828125,5.26513671875
0.1145,1.46142578125,-6.06591796875,4.50439453125
0.115,2.90283203125,-6.38623046875,3.34326171875
0.1155,4.30419921875,-6.66650390625,2.30224609375
0.116,4.82470703125,-6.10595703125,1.22119140625
0.1165,5.46533203125,-6.14599609375,0.62060546875
0.117,5.58544921875,-5.18505859375,-0.46044921875
0.1175,5.86572265625,-4.54443359375,-1.42138671875
0.118,6.06591796875,-3.26318359375,-2.94287109375
0.1185,6.02587890625,-2.26220703125,-3.90380859375
0.119,5.42529296875,-0.90087890625,-4.74462890625
0.1195,5.10498046875,0.10009765625,-5.38525390625
0.12,4.30419921875,1.30126953125,-5.74560546875
0.1205,3.54345703125,2.42236328125,-6.18603515625
0.121,2.42236328125,3.86376953125,-6.54638671875
0.1215,1.30126953125,4.54443359375,-6.10595703125
0.122,0.54052734375,5.42529296875,-6.18603515625
0.1225,-0.74072265625,5.74560546875,-5.26513671875
0.123,-1.90185546875,6.18603515625,-4.62451171875
0.1235,-3.46337890625,6.46630859375,-3.26318359375
0.124,-4.50439453125,6.46630859375,-2.30224609375
0.1245,-5.02490234375,5.98583984375,-1.26123046875
0.125,-5.50537109375,5.90576171875,-0.66064453125
0.1255,-5.62548828125,4.86474609375,0.50048828125
0.126,-5.90576171875,4.14404296875,1.54150390625
0.1265,-6.18603515625,2.94287109375,3.06298828125
0.127,-5.82568359375,1.86181640625,3.82373046875
0.1275,-5.58544921875,0.66064453125,4.74462890625
0.128,-4.94482421875,-0.38037109375,5.14501953125
0.1285,-4.22412109375,-1.58154296875,5.58544921875
0.129,-3.26318359375,-2.94287109375,5.94580078125
0.1295,-2.18212890625,-4.18408203125,6.14599609375
0.13,-1.10107421875,-4.78466796875,5.70556640625
0.1305,-0.34033203125,-5.62548828125,5.78564453125
0.131,1.14111328125,-5.90576171875,4.66455078125
0.1315,2.26220703125,-6.38623046875,3.98388671875
0.132,3.86376953125,-6.66650390625,2.70263671875
0.1325,4.66455078125,-6.38623046875,1.70166015625
0.133,5.26513671875,-6.10595703125,0.82080078125
0.1335,5.62548828125,-5.74560546875,0.06005859375
0.134,5.78564453125,-4.78466796875,-1.14111328125
0.1345,6.02587890625,-3.78369140625,-2.34228515625
0.135,6.26611328125,-2.70263671875,-3.78369140625
0.1355,5.58544921875,-1.34130859375,-4.42431640625
0.136,5.46533203125,-0.34033203125,-5.30517578125
0.1365,4.50439453125,0.90087890625,-5.62548828125
0.137,3.90380859375,2.02197265625,-6.10595703125
0.1375,2.74267578125,3.46337890625,-6.42626953125
0.138,1.66162109375,4.54443359375,-6.38623046875
0.1385,0.62060546875,5.14501953125,-5.94580078125
0.139,-0.30029296875,5.82568359375,-5.74560546875
0.1395,-1.74169921875,6.02587890625,-4.54443359375
0.14,-2.86279296875,6.42626953125,-3.82373046875
0.1405,-4.34423828125,6.58642578125,-2.54248046875
0.141,-4.86474609375,6.10595703125,-1.54150390625
0.1415,-5.46533203125,5.94580078125,-0.78076171875
0.142,-5.62548828125,5.18505859375,0.14013671875
0.1425,-5.78564453125,4.34423828125,1.26123046875
0.143,-5.90576171875,3.22314453125,2.54248046875
0.1435,-6.10595703125,2.26220703125,3.70361328125
0.144,-5.30517578125,0.94091796875,4.26416015625
0.1445,-5.34521484375,0.06005859375,5.10498046875
0.145,-4.22412109375,-1.26123046875,5.26513671875
0.1455,-3.70361328125,-2.30224609375,5.82568359375
0.146,-2.50244140625,-3.70361328125,6.02587890625
0.1465,-1.46142578125,-4.50439453125,5.78564453125
0.147,-0.58056640625,-5.18505859375,5.62548828125
0.1475,0.50048828125,-5.74560546875,5.10498046875
0.148,1.90185546875,-6.02587890625,4.10400390625
0.1485,3.14306640625,-6.38623046875,3.18310546875
0.149,4.34423828125,-6.50634765625,2.18212890625
0.1495,4.82470703125,-6.10595703125,1.22119140625
0.15,5.42529296875,-6.06591796875,0.58056640625
0.1505,5.50537109375,-5.06494140625,-0.58056640625
0.151,5.90576171875,-4.30419921875,-1.66162109375
0.1515,6.02587890625,-3.10302734375,-3.10302734375
0.152,5.94580078125,-2.06201171875,-4.10400390625
0.1525,5.26513671875,-0.78076171875,-4.70458984375
0.153,5.10498046875,0.14013671875,-5.46533203125
0.1535,4.06396484375,1.50146484375,-5.74560546875
0.154,3.46337890625,2.70263671875,-6.34619140625
0.1545,2.26220703125,4.02392578125,-6.42626953125
0.155,1.14111328125,4.78466796875,-6.10595703125
0.1555,0.30029296875,5.46533203125,-5.98583984375
0.156,-1.10107421875,5.90576171875,-5.06494140625
0.1565,-2.38232421875,6.26611328125,-4.14404296875
0.157,-3.70361328125,6.46630859375,-3.06298828125
0.1575,-4.66455078125,6.42626953125,-2.02197265625
0.158,-5.10498046875,5.86572265625,-1.06103515625
0.1585,-5.62548828125,5.74560546875,-0.46044921875
0.159,-5.66552734375,4.50439453125,0.94091796875
0.1595,-6.02587890625,3.82373046875,1.98193359375
0.16,-6.10595703125,2.54248046875,3.38330078125
0.1605,-5.70556640625,1.38134765625,4.14404296875
0.161,-5.26513671875,0.26025390625,4.86474609375
0.1615,-4.70458984375,-0.82080078125,5.34521484375
0.162,-3.70361328125,-2.14208984375,5.66552734375
0.1625,-2.86279296875,-3.34326171875,5.98583984375
0.163,-1.74169921875,-4.46435546875,6.02587890625
0.1635,-0.70068359375,-5.06494140625,5.58544921875
0.164,0.18017578125,-5.74560546875,5.50537109375
0.1645,1.74169921875,-6.06591796875,4.18408203125
0.165,2.90283203125,-6.42626953125,3.46337890625
0.1655,4.18408203125,-6.46630859375,2.26220703125
0.166,4.94482421875,-6.34619140625,1.34130859375
0.1665,5.30517578125,-5.82568359375,0.50048828125
0.167,5.74560546875,-5.50537109375,-0.30029296875
0.1675,5.78564453125,-4.22412109375,-1.66162109375
0.168,6.06591796875,-3.42333984375,-2.78271484375
0.1685,6.10595703125,-2.22216796875,-4.10400390625
0.169,5.42529296875,-0.98095703125,-4.70458984375
0.1695,5.14501953125,0.06005859375,-5.46533203125
0.17,4.22412109375,1.38134765625,-5.78564453125
0.1705,3.46337890625,2.66259765625,-6.26611328125
0.171,2.42236328125,3.82373046875,-6.38623046875
0.1715,1.30126953125,4.86474609375,-6.34619140625
0.172,0.34033203125,5.34521484375,-5.82568359375
0.1725,-0.70068359375,6.06591796875,-5.58544921875
0.173,-2.34228515625,6.22607421875,-4.14404296875
0.1735,-3.50341796875,6.58642578125,-3.38330078125
0.174,-4.66455078125,6.46630859375,-2.10205078125
0.1745,-5.18505859375,6.10595703125,-1.26123046875
0.175,-5.62548828125,5.74560546875,-0.38037109375
0.1755,-5.82568359375,4.98486328125,0.62060546875
0.176,-6.06591796875,3.90380859375,1.94189453125
0.1765,-6.10595703125,2.86279296875,3.06298828125
0.177,-6.10595703125,1.70166015625,4.22412109375
0.1775,-5.30517578125,0.34033203125,4.74462890625
0.178,-5.14501953125,-0.54052734375,5.50537109375
0.1785,-3.86376953125,-1.98193359375,5.70556640625
0.179,-3.18310546875,-3.18310546875,6.14599609375
0.1795,-1.94189453125,-4.34423828125,6.06591796875
0.18,-0.90087890625,-5.22509765625,5.98583984375
0.1805,0.14013671875,-5.70556640625,5.42529296875
0.181,1.34130859375,-6.34619140625,4.90478515625
0.1815,3.06298828125,-6.54638671875,3.46337890625
0.182,4.14404296875,-6.74658203125,2.58251953125
0.1825,5.14501953125,-6.58642578125,1.42138671875
0.183,5.62548828125,-6.10595703125,0.46044921875
0.1835,6.06591796875,-5.74560546875,-0.38037109375
0.184,6.10595703125,-4.58447265625,-1.66162109375
0.1845,6.42626953125,-3.62353515625,-2.94287109375
0.185,6.22607421875,-2.30224609375,-4.14404296875
0.1855,6.06591796875,-1.14111328125,-5.14501953125
0.186,5.10498046875,0.30029296875,-5.58544921875
0.1865,4.82470703125,1.30126953125,-6.26611328125
0.187,3.34326171875,2.94287109375,-6.42626953125
0.1875,2.58251953125,4.06396484375,-6.78662109375
0.188,1.22119140625,5.10498046875,-6.54638671875
0.1885,0.18017578125,5.86572265625,-6.22607421875
0.189,-0.94091796875,6.26611328125,-5.62548828125
0.1895,-2.34228515625,6.70654296875,-4.62451171875
0.19,-3.98388671875,6.90673828125,-3.22314453125
0.1905,-4.98486328125,6.70654296875,-2.10205078125
0.191,-5.82568359375,6.54638671875,-1.02099609375
0.1915,-6.06591796875,5.78564453125,0.02001953125
0.192,-6.42626953125,5.38525390625,0.78076171875
0.1925,-6.34619140625,3.86376953125,2.26220703125
0.193,-6.54638671875,2.90283203125,3.46337890625
0.1935,-6.14599609375,1.46142578125,4.50439453125
0.194,-5.82568359375,0.38037109375,5.26513671875
0.1945,-4.86474609375,-0.94091796875,5.62548828125
0.195,-4.42431640625,-1.94189453125,6.14599609375
0.1955,-2.90283203125,-3.54345703125,6.30615234375
0.196,-1.98193359375,-4.50439453125,6.34619140625
0.1965,-0.78076171875,-5.50537109375,6.10595703125
0.197,0.26025390625,-6.06591796875,5.66552734375
0.1975,1.30126953125,-6.46630859375,5.10498046875
0.198,2.86279296875,-6.70654296875,3.86376953125
0.1985,4.34423828125,-7.02685546875,2.62255859375
0.199,5.10498046875,-6.58642578125,1.46142578125
0.1995,5.90576171875,-6.50634765625,0.62060546875
