wavelength,x,y,z
0.0,-19.39892578125,-3.50341796875,22.60205078125
0.0005,-15.27490234375,-8.58837890625,23.52294921875
0.001,-11.39111328125,-13.43310546875,24.48388671875
0.0015,-7.18701171875,-16.63623046875,23.44287109375
0.002,-3.46337890625,-19.19873046875,22.36181640625
0.0025,1.86181640625,-21.32080078125,19.35888671875
0.003,6.62646484375,-23.88330078125,17.27685546875
0.0035,11.83154296875,-23.72314453125,11.91162109375
0.004,16.15576171875,-24.48388671875,8.50830078125
0.0045,18.71826171875,-23.68310546875,5.14501953125
0.005,21.72119140625,-21.80126953125,0.30029296875
0.0055,23.36279296875,-19.31884765625,-3.94384765625
0.006,25.00439453125,-15.95556640625,-8.98876953125
0.0065,24.72412109375,-11.67138671875,-13.11279296875
0.007,24.36376953125,-7.70751953125,-16.79638671875
0.0075,23.56298828125,-4.74462890625,-18.91845703125
0.008,20.88037109375,0.78076171875,-21.72119140625
0.0085,18.43798828125,5.54541015625,-24.04345703125
0.009,13.19287109375,10.87060546875,-24.16357421875
0.0095,9.98974609375,14.99462890625,-25.12451171875
0.01,5.62548828125,17.99755859375,-23.68310546875
0.0105,1.06103515625,20.56005859375,-21.76123046875
0.011,-3.78369140625,22.48193359375,-18.95849609375
0.0115,-9.02880859375,24.72412109375,-16.07568359375
0.012,-13.99365234375,24.20361328125,-10.63037109375
0.0125,-17.67724609375,24.48388671875,-7.38720703125
0.013,-20.03955078125,23.24267578125,-3.82373046875
0.0135,-22.76220703125,21.00048828125,1.30126953125
0.014,-24.20361328125,18.23779296875,5.54541015625
0.0145,-25.04443359375,13.87353515625,10.83056640625
0.015,-25.00439453125,10.22998046875,14.43408203125
0.0155,-24.24365234375,6.14599609375,17.87744140625
0.016,-22.72216796875,2.78271484375,19.71923828125
0.0165,-20.15966796875,-2.42236328125,22.24169921875
0.017,-17.15673828125,-7.62744140625,24.40380859375
0.0175,-11.55126953125,-12.75244140625,23.96337890625
0.018,-8.74853515625,-16.19580078125,24.64404296875
0.0185,-4.26416015625,-18.75830078125,22.76220703125
0.019,0.78076171875,-21.28076171875,20.31982421875
0.0195,4.98486328125,-22.80224609375,17.83740234375
0.02,10.79052734375,-24.64404296875,13.95361328125
0.0205,15.07470703125,-24.08349609375,9.14892578125
0.021,18.51806640625,-24.08349609375,5.78564453125
0.0215,20.64013671875,-22.44189453125,2.02197265625
0.022,23.08251953125,-20.15966796875,-2.82275390625
0.0225,24.36376953125,-17.15673828125,-7.10693359375
0.023,24.52392578125,-12.43212890625,-12.11181640625
0.0235,24.68408203125,-9.54931640625,-15.23486328125
0.024,23.44287109375,-5.22509765625,-18.31787109375
0.0245,21.60107421875,-1.42138671875,-20.35986328125
0.025,19.19873046875,3.26318359375,-22.56201171875
0.0255,15.51513671875,8.82861328125,-24.48388671875
0.026,10.31005859375,13.35302734375,-23.76318359375
0.0265,7.54736328125,16.59619140625,-24.20361328125
0.027,3.10302734375,18.87841796875,-22.04150390625
0.0275,-1.98193359375,21.48095703125,-19.75927734375
0.028,-6.02587890625,22.72216796875,-17.03662109375
0.0285,-11.91162109375,24.08349609375,-12.55224609375
0.029,-15.43505859375,23.76318359375,-8.82861328125
0.0295,-18.67822265625,23.28271484375,-5.10498046875
0.03,-20.56005859375,21.40087890625,-1.34130859375
0.0305,-22.76220703125,19.15869140625,3.18310546875
0.031,-24.00341796875,15.75537109375,7.86767578125
0.0315,-23.72314453125,10.95068359375,12.43212890625
0.032,-24.20361328125,8.54833984375,15.39501953125
0.0325,-22.56201171875,4.22412109375,18.07763671875
0.033,-20.72021484375,0.02001953125,20.43994140625
0.0335,-18.07763671875,-4.42431640625,22.12158203125
0.034,-14.07373046875,-10.06982421875,23.84326171875
0.0345,-9.58935546875,-13.95361328125,23.24267578125
0.035,-6.38623046875,-17.15673828125,23.20263671875
0.0355,-1.94189453125,-18.99853515625,20.72021484375
0.036,2.98291015625,-21.76123046875,18.71826171875
0.0365,7.30712890625,-22.68212890625,15.39501953125
0.037,13.11279296875,-23.68310546875,10.71044921875
0.0375,16.03564453125,-23.68310546875,7.86767578125
0.038,19.35888671875,-22.60205078125,3.46337890625
0.0385,21.28076171875,-20.60009765625,-0.50048828125
0.039,23.16259765625,-18.27783203125,-4.78466796875
0.0395,24.20361328125,-14.63427734375,-9.58935546875
0.04,23.64306640625,-9.98974609375,-13.71337890625
0.0405,24.04345703125,-7.54736328125,-16.63623046875
0.041,21.80126953125,-2.90283203125,-19.07861328125
0.0415,19.95947265625,1.74169921875,-21.84130859375
0.042,16.55615234375,6.18603515625,-22.80224609375
0.0425,12.39208984375,11.87158203125,-24.36376953125
0.043,8.46826171875,15.19482421875,-23.68310546875
0.0435,4.34423828125,18.47802734375,-22.92236328125
0.044,-0.30029296875,20.19970703125,-20.11962890625
0.0445,-4.98486328125,22.92236328125,-18.23779296875
0.045,-9.74951171875,23.44287109375,-14.07373046875
0.0455,-14.91455078125,23.96337890625,-9.46923828125
0.046,-17.47705078125,23.88330078125,-6.94677734375
0.0465,-20.64013671875,22.08154296875,-1.94189453125
0.047,-22.60205078125,19.79931640625,2.34228515625
0.0475,-23.88330078125,16.79638671875,6.70654296875
0.048,-24.72412109375,12.87255859375,11.55126953125
0.0485,-23.96337890625,8.46826171875,15.11474609375
0.049,-23.84326171875,5.62548828125,17.99755859375
0.0495,-21.16064453125,0.70068359375,20.15966796875
0.05,-19.27880859375,-4.18408203125,23.20263671875
0.0505,-14.83447265625,-8.82861328125,23.36279296875
0.051,-10.83056640625,-14.07373046875,24.52392578125
0.0515,-7.10693359375,-16.83642578125,23.68310546875
0.052,-2.34228515625,-19.87939453125,22.00146484375
0.0525,2.38232421875,-21.60107421875,19.15869140625
0.053,7.18701171875,-24.00341796875,16.79638671875
0.0535,12.19189453125,-24.16357421875,12.03173828125
0.054,16.63623046875,-24.24365234375,7.78759765625
0.0545,19.15869140625,-23.84326171875,4.94482421875
0.055,21.92138671875,-21.52099609375,-0.30029296875
0.0555,24.08349609375,-19.15869140625,-4.82470703125
0.056,24.52392578125,-15.23486328125,-9.26904296875
0.0565,25.20458984375,-11.67138671875,-13.63330078125
0.057,24.12353515625,-7.42724609375,-16.83642578125
0.0575,23.32275390625,-3.94384765625,-19.55908203125
0.058,20.47998046875,1.14111328125,-21.64111328125
0.0585,18.23779296875,6.22607421875,-24.48388671875
0.059,12.95263671875,11.03076171875,-24.04345703125
0.0595,9.34912109375,15.51513671875,-24.92431640625
0.06,5.74560546875,17.99755859375,-23.84326171875
0.0605,0.30029296875,20.96044921875,-21.40087890625
0.061,-4.18408203125,22.68212890625,-18.71826171875
0.0615,-9.34912109375,24.44384765625,-15.43505859375
0.062,-14.07373046875,24.52392578125,-10.95068359375
0.0625,-17.75732421875,24.16357421875,-6.90673828125
0.063,-20.07958984375,23.32275390625,-3.78369140625
0.0635,-22.52197265625,20.76025390625,1.30126953125
0.064,-24.72412109375,18.19775390625,6.10595703125
0.0645,-24.40380859375,13.35302734375,10.71044921875
0.065,-25.24462890625,10.27001953125,14.59423828125
0.0655,-24.04345703125,6.22607421875,17.51708984375
0.066,-22.52197265625,2.22216796875,20.11962890625
0.0665,-19.79931640625,-2.54248046875,22.08154296875
0.067,-16.91650390625,-7.98779296875,24.60400390625
0.0675,-11.67138671875,-12.59228515625,24.00341796875
0.068,-8.22802734375,-16.51611328125,24.40380859375
0.0685,-4.58447265625,-18.55810546875,22.92236328125
0.069,1.10107421875,-21.44091796875,20.19970703125
0.0695,5.38525390625,-23.20263671875,17.75732421875
0.07,11.03076171875,-24.32373046875,13.31298828125
0.0705,15.11474609375,-24.64404296875,9.66943359375
0.071,18.55810546875,-23.88330078125,5.50537109375
0.0715,20.96044921875,-22.44189453125,1.78173828125
0.072,23.04248046875,-20.07958984375,-2.82275390625
0.0725,25.24462890625,-17.31689453125,-7.86767578125
0.073,24.36376953125,-12.19189453125,-12.19189453125
0.0735,25.12451171875,-9.46923828125,-15.87548828125
0.074,23.64306640625,-5.34521484375,-18.43798828125
0.0745,21.72119140625,-0.70068359375,-21.16064453125
0.075,19.07861328125,3.86376953125,-23.04248046875
0.0755,15.23486328125,9.66943359375,-25.00439453125
0.076,10.59033203125,13.75341796875,-24.44384765625
0.0765,6.86669921875,17.43701171875,-24.36376953125
0.077,2.74267578125,19.47900390625,-22.32177734375
0.0775,-2.66259765625,22.24169921875,-19.83935546875
0.078,-7.22705078125,24.00341796875,-17.07666015625
0.0785,-12.95263671875,24.40380859375,-11.87158203125
0.079,-16.39599609375,24.84423828125,-8.94873046875
0.0795,-19.67919921875,23.60302734375,-4.50439453125
0.08,-21.88134765625,21.72119140625,-0.34033203125
0.0805,-23.68310546875,19.23876953125,3.98388671875
0.081,-25.48486328125,15.67529296875,9.34912109375
0.0815,-24.36376953125,10.59033203125,13.35302734375
0.082,-25.00439453125,7.94775390625,16.83642578125
0.0825,-23.00244140625,3.78369140625,19.03857421875
0.083,-21.00048828125,-1.22119140625,21.96142578125
0.0835,-17.91748046875,-5.82568359375,23.44287109375
0.084,-13.43310546875,-11.67138671875,24.76416015625
0.0845,-9.46923828125,-15.07470703125,24.32373046875
0.085,-5.38525390625,-18.55810546875,23.64306640625
0.0855,-0.86083984375,-20.35986328125,21.04052734375
0.086,3.98388671875,-22.88232421875,18.83837890625
0.0865,9.10888671875,-24.40380859375,15.35498046875
0.087,14.47412109375,-24.32373046875,9.90966796875
0.0875,17.43701171875,-24.72412109375,7.54736328125
0.088,20.64013671875,-22.96240234375,2.58251953125
0.0885,22.88232421875,-20.96044921875,-1.82177734375
0.089,24.08349609375,-18.23779296875,-5.78564453125
0.0895,25.48486328125,-14.35400390625,-11.23095703125
0.09,24.28369140625,-9.66943359375,-14.63427734375
0.0905,24.60400390625,-6.70654296875,-18.03759765625
0.091,22.08154296875,-2.34228515625,-19.87939453125
0.0915,20.19970703125,2.58251953125,-22.84228515625
0.092,16.47607421875,7.38720703125,-23.92333984375
0.0925,11.63134765625,13.07275390625,-24.76416015625
0.093,8.58837890625,15.95556640625,-24.60400390625
0.0935,3.66357421875,19.23876953125,-23.00244140625
0.094,-1.02099609375,21.12060546875,-20.27978515625
0.0945,-5.30517578125,23.20263671875,-18.23779296875
0.095,-10.91064453125,24.64404296875,-14.11376953125
0.0955,-15.51513671875,24.00341796875,-8.98876953125
0.096,-18.23779296875,24.44384765625,-6.78662109375
0.0965,-21.00048828125,22.04150390625,-1.62158203125
0.097,-23.32275390625,20.07958984375,2.78271484375
0.0975,-24.04345703125,16.71630859375,6.86669921875
0.098,-25.20458984375,12.67236328125,12.23193359375
0.0985,-24.20361328125,8.70849609375,15.19482421875
0.099,-23.96337890625,5.18505859375,18.51806640625
0.0995,-21.28076171875,0.90087890625,20.19970703125
0.1,-19.39892578125,-4.06396484375,23.20263671875
0.1005,-15.07470703125,-9.10888671875,23.92333984375
0.101,-10.31005859375,-14.15380859375,24.16357421875
0.1015,-7.70751953125,-16.71630859375,24.08349609375
0.102,-2.22216796875,-19.75927734375,21.76123046875
0.1025,2.42236328125,-21.80126953125,19.23876953125
0.103,6.70654296875,-23.36279296875,16.63623046875
0.1035,12.51220703125,-24.72412109375,12.31201171875
0.104,16.31591796875,-23.84326171875,7.70751953125
0.1045,19.23876953125,-24.04345703125,4.94482421875
0.105,21.64111328125,-21.40087890625,-0.14013671875
0.1055,24.12353515625,-19.39892578125,-4.66455078125
0.106,24.24365234375,-15.39501953125,-8.82861328125
0.1065,25.16455078125,-11.47119140625,-13.75341796875
0.107,24.24365234375,-7.94775390625,-16.43603515625
0.1075,23.20263671875,-3.70361328125,-19.63916015625
0.108,20.47998046875,0.98095703125,-21.52099609375
0.1085,18.15771484375,5.78564453125,-24.00341796875
0.109,13.39306640625,10.99072265625,-24.44384765625
0.1095,8.94873046875,15.39501953125,-24.32373046875
0.11,6.22607421875,17.79736328125,-24.08349609375
0.1105,0.38037109375,20.64013671875,-21.12060546875
0.111,-4.34423828125,22.88232421875,-18.87841796875
0.1115,-8.90869140625,23.76318359375,-15.19482421875
0.112,-14.23388671875,24.96435546875,-11.23095703125
0.1125,-17.43701171875,23.76318359375,-6.90673828125
0.113,-20.23974609375,23.28271484375,-3.58349609375
0.1135,-22.40185546875,20.47998046875,1.42138671875
0.114,-24.72412109375,18.23779296875,6.10595703125
0.1145,-24.32373046875,13.47314453125,10.51025390625
0.115,-25.00439453125,9.86962890625,14.79443359375
0.1155,-24.20361328125,6.70654296875,17.27685546875
0.116,-22.36181640625,1.98193359375,20.15966796875
0.1165,-19.67919921875,-2.74267578125,22.16162109375
0.117,-16.51611328125,-7.74755859375,23.96337890625
0.1175,-12.11181640625,-12.71240234375,24.48388671875
0.118,-7.66748046875,-16.43603515625,23.76318359375
0.1185,-4.62451171875,-18.59814453125,22.96240234375
0.119,1.14111328125,-21.12060546875,19.83935546875
0.1195,5.74560546875,-23.44287109375,17.75732421875
0.12,10.83056640625,-23.68310546875,12.95263671875
0.1205,15.39501953125,-24.84423828125,9.58935546875
0.121,18.23779296875,-23.64306640625,5.58544921875
0.1215,20.96044921875,-22.40185546875,1.58154296875
0.122,22.80224609375,-19.71923828125,-2.98291015625
0.1225,24.84423828125,-16.95654296875,-7.82763671875
0.123,24.28369140625,-12.31201171875,-11.99169921875
0.1235,24.48388671875,-8.78857421875,-15.75537109375
0.124,23.56298828125,-5.82568359375,-17.87744140625
0.1245,21.28076171875,-0.66064453125,-20.76025390625
0.125,18.83837890625,4.02392578125,-22.96240234375
0.1255,14.55419921875,9.26904296875,-23.84326171875
0.126,10.95068359375,13.59326171875,-24.64404296875
0.1265,6.54638671875,16.83642578125,-23.44287109375
0.127,2.90283203125,19.07861328125,-22.04150390625
0.1275,-2.30224609375,21.36083984375,-19.23876953125
0.128,-7.14697265625,23.68310546875,-16.91650390625
0.1285,-12.19189453125,23.36279296875,-11.59130859375
0.129,-15.95556640625,24.20361328125,-8.82861328125
0.1295,-18.43798828125,22.96240234375,-5.14501953125
0.13,-21.04052734375,21.20068359375,-0.74072265625
0.1305,-22.76220703125,18.71826171875,3.54345703125
0.131,-24.20361328125,15.15478515625,8.66845703125
0.1315,-23.88330078125,11.11083984375,12.51220703125
0.132,-23.72314453125,7.54736328125,15.95556640625
0.1325,-22.60205078125,4.62451171875,17.75732421875
0.133,-20.27978515625,-0.54052734375,20.52001953125
0.1335,-17.75732421875,-5.34521484375,22.80224609375
0.134,-12.79248046875,-10.51025390625,23.04248046875
0.1345,-10.10986328125,-14.19384765625,24.00341796875
0.135,-5.74560546875,-16.99658203125,22.48193359375
0.1355,-1.54150390625,-19.23876953125,20.60009765625
0.136,2.94287109375,-21.32080078125,18.27783203125
0.1365,8.30810546875,-23.56298828125,15.23486328125
0.137,12.95263671875,-23.12255859375,10.18994140625
0.1375,16.39599609375,-23.84326171875,7.50732421875
0.138,18.79833984375,-22.36181640625,3.74365234375
0.1385,21.44091796875,-20.39990234375,-0.90087890625
0.139,23.04248046875,-17.91748046875,-5.06494140625
0.1395,23.92333984375,-13.79345703125,-10.14990234375
0.14,24.00341796875,-10.55029296875,-13.51318359375
0.1405,23.36279296875,-6.58642578125,-16.83642578125
0.141,21.76123046875,-3.18310546875,-18.71826171875
0.1415,19.59912109375,1.74169921875,-21.44091796875
0.142,16.51611328125,6.98681640625,-23.56298828125
0.1425,11.31103515625,11.91162109375,-23.32275390625
0.143,8.98876953125,15.23486328125,-24.28369140625
0.1435,4.18408203125,17.91748046875,-22.16162109375
0.144,-0.54052734375,20.31982421875,-19.99951171875
0.1445,-4.62451171875,22.08154296875,-17.75732421875
0.145,-10.43017578125,23.92333984375,-13.83349609375
0.1455,-14.51416015625,23.32275390625,-9.34912109375
0.146,-17.79736328125,23.60302734375,-6.38623046875
0.1465,-19.87939453125,21.64111328125,-2.26220703125
0.147,-22.36181640625,19.63916015625,2.30224609375
0.1475,-23.68310546875,16.51611328125,6.74658203125
0.148,-24.00341796875,11.87158203125,11.79150390625
0.1485,-24.20361328125,9.26904296875,14.71435546875
0.149,-22.92236328125,4.82470703125,17.83740234375
0.1495,-20.96044921875,1.02099609375,19.71923828125
0.15,-18.75830078125,-3.70361328125,22.16162109375
0.1505,-14.91455078125,-9.26904296875,23.92333984375
0.151,-9.82958984375,-13.59326171875,23.16259765625
0.1515,-7.42724609375,-16.59619140625,23.72314453125
0.152,-2.34228515625,-18.91845703125,21.00048828125
0.1525,2.38232421875,-21.48095703125,18.91845703125
0.153,6.46630859375,-22.68212890625,16.15576171875
0.1535,12.47216796875,-24.08349609375,11.59130859375
0.154,15.63525390625,-23.44287109375,8.02783203125
0.1545,18.95849609375,-23.04248046875,4.30419921875
0.155,20.80029296875,-20.76025390625,0.14013671875
0.1555,23.08251953125,-18.79833984375,-4.14404296875
0.156,23.96337890625,-15.11474609375,-8.78857421875
0.1565,23.68310546875,-10.55029296875,-13.19287109375
0.157,24.04345703125,-8.34814453125,-15.75537109375
0.1575,22.00146484375,-3.58349609375,-18.55810546875
0.158,20.03955078125,0.62060546875,-20.80029296875
0.1585,17.39697265625,4.98486328125,-22.44189453125
0.159,13.19287109375,10.71044921875,-24.00341796875
0.1595,8.82861328125,14.23388671875,-23.16259765625
0.16,5.86572265625,17.19677734375,-23.12255859375
0.1605,0.98095703125,19.15869140625,-20.19970703125
0.161,-3.54345703125,21.72119140625,-18.51806640625
0.1615,-7.94775390625,22.48193359375,-14.99462890625
0.162,-13.39306640625,23.44287109375,-10.47021484375
0.1625,-15.87548828125,23.20263671875,-7.86767578125
0.163,-18.99853515625,22.04150390625,-3.54345703125
0.1635,-20.76025390625,19.83935546875,0.46044921875
0.164,-22.60205078125,17.63720703125,4.54443359375
0.1645,-23.52294921875,13.75341796875,9.42919921875
0.165,-23.00244140625,9.46923828125,13.23291015625
0.1655,-23.40283203125,7.38720703125,15.75537109375
0.166,-21.00048828125,2.70263671875,18.03759765625
0.1665,-19.35888671875,-1.58154296875,20.72021484375
0.167,-15.99560546875,-6.06591796875,21.80126953125
0.1675,-12.07177734375,-11.51123046875,23.32275390625
0.168,-8.38818359375,-14.43408203125,22.56201171875
0.1685,-4.74462890625,-17.39697265625,21.80126953125
0.169,-0.14013671875,-19.15869140625,19.03857421875
0.1695,4.14404296875,-21.72119140625,17.43701171875
0.17,9.14892578125,-22.40185546875,13.23291015625
0.1705,13.95361328125,-22.92236328125,9.10888671875
0.171,16.27587890625,-23.00244140625,6.90673828125
0.1715,19.23876953125,-21.16064453125,2.10205078125
0.172,21.28076171875,-19.19873046875,-1.98193359375
0.1725,22.56201171875,-16.47607421875,-6.06591796875
0.173,23.60302734375,-12.79248046875,-10.83056640625
0.1735,22.76220703125,-8.66845703125,-14.15380859375
0.174,22.80224609375,-6.10595703125,-16.79638671875
0.1745,20.19970703125,-1.30126953125,-18.99853515625
0.175,18.63818359375,3.18310546875,-21.92138671875
0.1755,14.27392578125,7.94775390625,-22.28173828125
0.176,10.67041015625,12.79248046875,-23.56298828125
0.1765,7.34716796875,15.39501953125,-22.80224609375
0.177,2.74267578125,18.31787109375,-21.16064453125
0.1775,-1.86181640625,20.19970703125,-18.67822265625
0.178,-6.34619140625,22.40185546875,-16.39599609375
0.1785,-11.39111328125,23.00244140625,-12.03173828125
0.179,-15.39501953125,23.00244140625,-8.06787109375
0.1795,-17.67724609375,22.76220703125,-5.70556640625
0.18,-20.35986328125,20.47998046875,-0.66064453125
0.1805,-22.52197265625,18.39794921875,3.70361328125
0.181,-23.00244140625,14.55419921875,8.06787109375
0.1815,-24.04345703125,11.23095703125,12.47216796875
0.182,-23.00244140625,7.30712890625,15.47509765625
0.1825,-22.36181640625,4.14404296875,17.99755859375
0.183,-19.67919921875,-0.78076171875,20.19970703125
0.1835,-17.55712890625,-5.62548828125,22.92236328125
0.184,-12.59228515625,-10.43017578125,22.76220703125
0.1845,-9.18896484375,-14.75439453125,23.60302734375
0.185,-5.90576171875,-16.99658203125,22.56201171875
0.1855,-0.62060546875,-19.87939453125,20.19970703125
0.186,3.82373046875,-21.64111328125,17.79736328125
0.1865,8.90869140625,-23.28271484375,14.39404296875
0.187,13.59326171875,-23.76318359375,10.35009765625
0.1875,17.23681640625,-23.36279296875,6.34619140625
0.188,19.39892578125,-22.48193359375,3.26318359375
0.1885,21.84130859375,-19.99951171875,-1.70166015625
0.189,23.96337890625,-17.59716796875,-6.26611328125
0.1895,23.68310546875,-12.99267578125,-10.71044921875
0.19,24.64404296875,-10.14990234375,-14.55419921875
0.1905,23.20263671875,-6.06591796875,-17.31689453125
0.191,21.76123046875,-2.10205078125,-19.79931640625
