wavelength,x,y,z
0.0,2.0419921875,-4.244140625,2.2021484375
0.0005,2.5625,-4.32421875,1.76171875
0.001,3.123046875,-4.2041015625,1.0810546875
0.0015,3.443359375,-3.7236328125,0.3203125
0.002,3.84375,-3.5634765625,-0.240234375
0.0025,3.9638671875,-2.5625,-1.3212890625
0.003,4.1240234375,-2.08203125,-1.921875
0.0035,4.1240234375,-1.28125,-2.72265625
0.004,3.84375,-0.560546875,-3.1630859375
0.0045,3.5634765625,0.1201171875,-3.603515625
0.005,3.1630859375,0.8408203125,-3.923828125
0.0055,2.4423828125,1.7216796875,-4.1240234375
0.006,1.921875,2.2822265625,-4.2041015625
0.0065,1.0810546875,3.0029296875,-4.0439453125
0.007,0.2802734375,3.36328125,-3.6435546875
0.0075,-0.3203125,3.84375,-3.5634765625
0.008,-1.3212890625,3.9638671875,-2.72265625
0.0085,-1.9619140625,4.083984375,-2.2822265625
0.009,-2.5224609375,4.00390625,-1.681640625
0.0095,-2.962890625,3.84375,-1.0810546875
0.01,-3.283203125,3.4833984375,-0.3203125
0.0105,-3.68359375,3.1630859375,0.2802734375
0.011,-3.7236328125,2.2421875,1.28125
0.0115,-3.8837890625,1.8818359375,1.841796875
0.012,-3.8037109375,1.0009765625,2.5625
0.0125,-3.5634765625,0.3603515625,2.962890625
0.013,-3.36328125,-0.240234375,3.4833984375
0.0135,-2.8427734375,-1.0810546875,3.7236328125
0.014,-2.2421875,-1.8017578125,3.84375
0.0145,-1.6015625,-2.40234375,3.84375
0.015,-0.80078125,-2.962890625,3.7236328125
0.0155,-0.0400390625,-3.36328125,3.3232421875
0.016,0.560546875,-3.84375,3.203125
0.0165,1.521484375,-3.9638671875,2.3623046875
0.017,1.9619140625,-4.1240234375,2.1220703125
0.0175,2.5224609375,-4.0439453125,1.44140625
0.018,2.8828125,-3.8037109375,0.9208984375
0.0185,3.3232421875,-3.5634765625,0.2802734375
0.019,3.5634765625,-3.04296875,-0.48046875
0.0195,3.68359375,-2.3623046875,-1.2412109375
0.02,3.84375,-1.9619140625,-1.8017578125
0.0205,3.8037109375,-1.2412109375,-2.4423828125
0.021,3.5234375,-0.6005859375,-2.8828125
0.0215,3.443359375,0.0,-3.36328125
0.022,2.8427734375,0.80078125,-3.603515625
0.0225,2.4423828125,1.44140625,-3.84375
0.023,1.76171875,2.08203125,-3.8037109375
0.0235,1.0810546875,2.642578125,-3.7236328125
0.024,0.3603515625,3.123046875,-3.4833984375
0.0245,-0.2802734375,3.443359375,-3.2431640625
0.025,-1.0810546875,3.6435546875,-2.642578125
0.0255,-1.5615234375,3.84375,-2.4423828125
0.026,-2.1220703125,3.763671875,-1.76171875
0.0265,-2.5224609375,3.5634765625,-1.201171875
0.027,-3.0830078125,3.443359375,-0.560546875
0.0275,-3.2431640625,2.7626953125,0.2802734375
0.028,-3.5234375,2.3623046875,0.9609375
0.0285,-3.603515625,1.76171875,1.6015625
0.029,-3.5634765625,1.1611328125,2.2021484375
0.0295,-3.4033203125,0.5205078125,2.6826171875
0.03,-3.2431640625,-0.16015625,3.203125
0.0305,-2.6025390625,-1.0009765625,3.443359375
0.031,-2.2421875,-1.6015625,3.68359375
0.0315,-1.44140625,-2.2822265625,3.603515625
0.032,-0.7607421875,-2.802734375,3.4833984375
0.0325,-0.0400390625,-3.36328125,3.283203125
0.033,0.6806640625,-3.5634765625,2.8427734375
0.0335,1.361328125,-3.8837890625,2.3623046875
0.034,1.841796875,-3.8837890625,2.0419921875
0.0345,2.40234375,-3.84375,1.44140625
0.035,2.802734375,-3.5634765625,0.80078125
0.0355,3.283203125,-3.36328125,0.16015625
0.036,3.443359375,-2.5625,-0.7607421875
0.0365,3.68359375,-2.2822265625,-1.3212890625
0.037,3.6435546875,-1.5615234375,-2.001953125
0.0375,3.603515625,-1.0009765625,-2.5224609375
0.038,3.4033203125,-0.3203125,-3.0029296875
0.0385,3.0830078125,0.3203125,-3.36328125
0.039,2.5224609375,1.12109375,-3.6435546875
0.0395,2.0419921875,1.681640625,-3.7236328125
0.04,1.3212890625,2.3623046875,-3.68359375
0.0405,0.640625,2.802734375,-3.4833984375
0.041,0.0,3.2431640625,-3.36328125
0.0415,-0.80078125,3.4033203125,-2.72265625
0.042,-1.3212890625,3.68359375,-2.4423828125
0.0425,-1.8017578125,3.6435546875,-1.921875
0.043,-2.322265625,3.603515625,-1.44140625
0.0435,-2.6826171875,3.3232421875,-0.7607421875
0.044,-3.0830078125,3.0029296875,-0.080078125
0.0445,-3.283203125,2.322265625,0.720703125
0.045,-3.5234375,2.001953125,1.28125
0.0455,-3.443359375,1.28125,1.921875
0.046,-3.36328125,0.7607421875,2.40234375
0.0465,-3.203125,0.080078125,2.962890625
0.047,-2.7626953125,-0.640625,3.203125
0.0475,-2.3623046875,-1.3212890625,3.5234375
0.048,-1.681640625,-1.8818359375,3.4833984375
0.0485,-1.0810546875,-2.5625,3.4833984375
0.049,-0.3203125,-3.0029296875,3.203125
0.0495,0.240234375,-3.4833984375,3.04296875
0.05,1.12109375,-3.603515625,2.482421875
0.0505,1.5615234375,-3.84375,2.2421875
0.051,2.0419921875,-3.763671875,1.6416015625
0.0515,2.5224609375,-3.68359375,1.201171875
0.052,3.0029296875,-3.4033203125,0.48046875
0.0525,3.2431640625,-2.8828125,-0.2802734375
0.053,3.5234375,-2.40234375,-1.0009765625
0.0535,3.6435546875,-1.921875,-1.6015625
0.054,3.6435546875,-1.28125,-2.2421875
0.0545,3.443359375,-0.640625,-2.6826171875
0.055,3.283203125,0.0,-3.203125
0.0555,2.72265625,0.7607421875,-3.4833984375
0.056,2.3623046875,1.4013671875,-3.7236328125
0.0565,1.6015625,1.9619140625,-3.5634765625
0.057,1.0009765625,2.5625,-3.603515625
0.0575,0.2802734375,3.0029296875,-3.3232421875
0.058,-0.3603515625,3.3232421875,-2.962890625
0.0585,-1.1611328125,3.603515625,-2.5224609375
0.059,-1.6015625,3.6435546875,-2.162109375
0.0595,-2.162109375,3.6435546875,-1.6015625
0.06,-2.5224609375,3.4033203125,-1.0009765625
0.0605,-3.0029296875,3.1630859375,-0.3203125
0.061,-3.123046875,2.482421875,0.48046875
0.0615,-3.443359375,2.08203125,1.12109375
0.062,-3.36328125,1.4814453125,1.681640625
0.0625,-3.443359375,0.9609375,2.2421875
0.063,-3.1630859375,0.2802734375,2.6826171875
0.0635,-2.9228515625,-0.3603515625,3.123046875
0.064,-2.3623046875,-1.1611328125,3.3232421875
0.0645,-1.8818359375,-1.76171875,3.443359375
0.065,-1.201171875,-2.322265625,3.36328125
0.0655,-0.560546875,-2.8828125,3.203125
0.066,0.080078125,-3.203125,3.04296875
0.0665,0.8408203125,-3.443359375,2.5625
0.067,1.44140625,-3.7236328125,2.2822265625
0.0675,1.841796875,-3.603515625,1.8017578125
0.068,2.3623046875,-3.7236328125,1.4013671875
0.0685,2.6826171875,-3.36328125,0.6806640625
0.069,3.1630859375,-3.1630859375,0.0400390625
0.0695,3.2431640625,-2.4423828125,-0.720703125
0.07,3.5634765625,-2.162109375,-1.28125
0.0705,3.443359375,-1.4814453125,-1.841796875
0.071,3.4833984375,-1.0009765625,-2.3623046875
0.0715,3.203125,-0.3203125,-2.8427734375
0.072,2.962890625,0.2802734375,-3.1630859375
0.0725,2.5224609375,0.9609375,-3.5234375
0.073,1.9619140625,1.4814453125,-3.5234375
0.0735,1.361328125,2.162109375,-3.603515625
0.074,0.6806640625,2.6025390625,-3.36328125
0.0745,0.1201171875,3.0830078125,-3.203125
0.075,-0.6005859375,3.2431640625,-2.6826171875
0.0755,-1.12109375,3.603515625,-2.5625
0.076,-1.5615234375,3.4833984375,-2.001953125
0.0765,-2.08203125,3.5634765625,-1.6015625
0.077,-2.482421875,3.203125,-0.880859375
0.0775,-2.8828125,2.8828125,-0.16015625
0.078,-3.1630859375,2.40234375,0.560546875
0.0785,-3.36328125,2.0419921875,1.0810546875
0.079,-3.36328125,1.44140625,1.7216796875
0.0795,-3.3232421875,0.880859375,2.2421875
0.08,-3.203125,0.16015625,2.802734375
0.0805,-2.72265625,-0.560546875,3.04296875
0.081,-2.4423828125,-1.2412109375,3.443359375
0.0815,-1.6416015625,-1.8017578125,3.2431640625
0.082,-1.1611328125,-2.4423828125,3.443359375
0.0825,-0.3603515625,-2.8427734375,3.123046875
0.083,0.240234375,-3.2431640625,2.962890625
0.0835,0.9609375,-3.5234375,2.482421875
0.084,1.4013671875,-3.7236328125,2.2421875
0.0845,1.921875,-3.68359375,1.7216796875
0.085,2.40234375,-3.5634765625,1.1611328125
0.0855,2.8427734375,-3.2431640625,0.48046875
0.086,3.123046875,-2.72265625,-0.2802734375
0.0865,3.443359375,-2.40234375,-0.9609375
0.087,3.36328125,-1.76171875,-1.4814453125
0.0875,3.5634765625,-1.3212890625,-2.1220703125
0.088,3.2431640625,-0.640625,-2.5625
0.0885,3.1630859375,-0.0400390625,-3.0830078125
0.089,2.5625,0.720703125,-3.3232421875
0.0895,2.2421875,1.28125,-3.5634765625
0.09,1.521484375,1.921875,-3.4033203125
0.0905,0.9609375,2.4423828125,-3.4833984375
0.091,0.2802734375,2.8427734375,-3.203125
0.0915,-0.3603515625,3.1630859375,-2.8828125
0.092,-1.0009765625,3.4833984375,-2.5625
0.0925,-1.4013671875,3.443359375,-2.1220703125
0.093,-1.9619140625,3.5634765625,-1.7216796875
0.0935,-2.322265625,3.203125,-1.0009765625
0.094,-2.7626953125,3.04296875,-0.400390625
0.0945,-2.962890625,2.40234375,0.400390625
0.095,-3.3232421875,2.2021484375,0.9609375
0.0955,-3.203125,1.44140625,1.521484375
0.096,-3.4033203125,1.12109375,2.0419921875
0.0965,-3.0830078125,0.2802734375,2.5224609375
0.097,-2.8828125,-0.2802734375,2.9228515625
0.0975,-2.4423828125,-1.041015625,3.203125
0.098,-1.8818359375,-1.5615234375,3.283203125
0.0985,-1.28125,-2.2021484375,3.3232421875
0.099,-0.6005859375,-2.6826171875,3.1630859375
0.0995,0.0,-3.0830078125,3.04296875
0.1,0.7607421875,-3.36328125,2.5224609375
0.1005,1.28125,-3.68359375,2.40234375
0.101,1.7216796875,-3.5634765625,1.841796875
0.1015,2.2421875,-3.7236328125,1.521484375
0.102,2.6025390625,-3.2431640625,0.640625
0.1025,3.04296875,-3.0830078125,0.0400390625
0.103,3.2431640625,-2.40234375,-0.7607421875
0.1035,3.5234375,-2.1220703125,-1.28125
0.104,3.443359375,-1.4013671875,-1.921875
0.1045,3.4833984375,-1.0009765625,-2.4423828125
0.105,3.203125,-0.240234375,-2.9228515625
0.1055,2.8427734375,0.4404296875,-3.283203125
0.106,2.482421875,1.201171875,-3.603515625
0.1065,1.7216796875,1.76171875,-3.443359375
0.107,1.201171875,2.4423828125,-3.603515625
0.1075,0.4404296875,2.8427734375,-3.2431640625
0.108,-0.16015625,3.203125,-3.0830078125
0.1085,-1.0009765625,3.4833984375,-2.5625
0.109,-1.44140625,3.6435546875,-2.2822265625
0.1095,-1.9619140625,3.4833984375,-1.6416015625
0.11,-2.4423828125,3.5234375,-1.2412109375
0.1105,-2.7626953125,3.0029296875,-0.400390625
0.111,-3.0830078125,2.6025390625,0.2802734375
0.1115,-3.36328125,2.0419921875,1.12109375
0.112,-3.36328125,1.5615234375,1.6015625
0.1125,-3.4033203125,0.9609375,2.2421875
0.113,-3.1630859375,0.2802734375,2.6826171875
0.1135,-2.962890625,-0.3603515625,3.0830078125
0.114,-2.3623046875,-1.1611328125,3.3232421875
0.1145,-1.921875,-1.76171875,3.5234375
0.115,-1.0810546875,-2.2822265625,3.2431640625
0.1155,-0.560546875,-2.8828125,3.3232421875
0.116,0.240234375,-3.203125,2.8427734375
0.1165,0.880859375,-3.5234375,2.6025390625
0.117,1.6015625,-3.7236328125,2.08203125
0.1175,1.9619140625,-3.68359375,1.681640625
0.118,2.5224609375,-3.68359375,1.201171875
0.1185,2.8427734375,-3.36328125,0.560546875
0.119,3.1630859375,-2.962890625,-0.1201171875
0.1195,3.36328125,-2.322265625,-0.9609375
0.12,3.6435546875,-1.9619140625,-1.6015625
0.1205,3.36328125,-1.2412109375,-2.0419921875
0.121,3.5634765625,-0.8408203125,-2.642578125
0.1215,3.0830078125,-0.080078125,-2.962890625
0.122,2.8828125,0.48046875,-3.36328125
0.1225,2.2421875,1.3212890625,-3.5634765625
0.123,1.76171875,1.841796875,-3.603515625
0.1235,1.041015625,2.4423828125,-3.4833984375
0.124,0.48046875,2.8828125,-3.36328125
0.1245,-0.240234375,3.1630859375,-2.962890625
0.125,-0.9208984375,3.443359375,-2.6025390625
0.1255,-1.5615234375,3.68359375,-2.2021484375
0.126,-1.8818359375,3.4833984375,-1.681640625
0.1265,-2.482421875,3.603515625,-1.28125
0.127,-2.72265625,3.0830078125,-0.5205078125
0.1275,-3.1630859375,2.802734375,0.1201171875
0.128,-3.283203125,2.1220703125,0.9609375
0.1285,-3.4833984375,1.76171875,1.521484375
0.129,-3.283203125,0.9609375,2.08203125
0.1295,-3.4033203125,0.6005859375,2.5625
0.13,-2.962890625,-0.2001953125,3.0029296875
0.1305,-2.6025390625,-0.8408203125,3.3232421875
0.131,-2.08203125,-1.681640625,3.5634765625
0.1315,-1.361328125,-2.1220703125,3.36328125
0.132,-0.720703125,-2.8427734375,3.4833984375
0.1325,0.0,-3.203125,3.123046875
0.133,0.640625,-3.5634765625,2.802734375
0.1335,1.4013671875,-3.7236328125,2.2822265625
0.134,1.9619140625,-3.923828125,1.921875
0.1345,2.3623046875,-3.603515625,1.28125
0.135,2.9228515625,-3.7236328125,0.8408203125
0.1355,3.1630859375,-3.04296875,-0.0400390625
0.136,3.5234375,-2.72265625,-0.6806640625
0.1365,3.7236328125,-2.001953125,-1.6416015625
0.137,3.6435546875,-1.4814453125,-2.08203125
0.1375,3.5634765625,-0.80078125,-2.72265625
0.138,3.36328125,-0.16015625,-3.0830078125
0.1385,2.962890625,0.6005859375,-3.4833984375
0.139,2.4423828125,1.3212890625,-3.7236328125
0.1395,1.841796875,2.0419921875,-3.8837890625
0.14,1.0009765625,2.5224609375,-3.5634765625
0.1405,0.48046875,3.1630859375,-3.6435546875
0.141,-0.400390625,3.4033203125,-3.04296875
0.1415,-1.0009765625,3.6435546875,-2.6826171875
0.142,-1.841796875,3.84375,-2.1220703125
0.1425,-2.2822265625,3.763671875,-1.6015625
0.143,-2.72265625,3.5234375,-1.0009765625
0.1435,-3.0830078125,3.36328125,-0.4404296875
0.144,-3.3232421875,2.6025390625,0.48046875
0.1445,-3.5234375,2.162109375,1.12109375
0.145,-3.7236328125,1.521484375,2.001953125
0.1455,-3.4033203125,0.80078125,2.3623046875
0.146,-3.5234375,0.2802734375,2.962890625
0.1465,-3.0029296875,-0.4404296875,3.2431640625
0.147,-2.6025390625,-1.1611328125,3.5634765625
0.1475,-1.9619140625,-1.9619140625,3.7236328125
0.148,-1.28125,-2.5625,3.68359375
0.1485,-0.48046875,-3.0029296875,3.3232421875
0.149,0.1201171875,-3.5634765625,3.36328125
0.1495,1.0810546875,-3.7236328125,2.6025390625
0.15,1.6015625,-3.923828125,2.2822265625
0.1505,2.40234375,-4.1240234375,1.7216796875
0.151,2.72265625,-3.8037109375,1.12109375
0.1515,3.2431640625,-3.7236328125,0.560546875
0.152,3.4833984375,-3.203125,-0.16015625
0.1525,3.763671875,-2.6025390625,-1.0009765625
0.153,3.84375,-2.08203125,-1.7216796875
0.1535,3.9638671875,-1.4013671875,-2.5224609375
0.154,3.5634765625,-0.6005859375,-2.8427734375
0.1545,3.6435546875,-0.080078125,-3.4833984375
0.155,2.962890625,0.7607421875,-3.68359375
0.1555,2.5224609375,1.4013671875,-3.923828125
0.156,1.841796875,2.2421875,-4.083984375
0.1565,1.0810546875,2.7626953125,-3.84375
0.157,0.3203125,3.2431640625,-3.603515625
0.1575,-0.3203125,3.68359375,-3.36328125
0.158,-1.28125,3.84375,-2.642578125
0.1585,-1.8017578125,3.9638671875,-2.2822265625
0.159,-2.5625,4.083984375,-1.6015625
0.1595,-2.8828125,3.6435546875,-0.9609375
0.16,-3.4033203125,3.603515625,-0.3603515625
0.1605,-3.603515625,2.8427734375,0.560546875
0.161,-3.8037109375,2.2421875,1.28125
0.1615,-3.8837890625,1.5615234375,2.0419921875
0.162,-3.84375,0.9208984375,2.6826171875
0.1625,-3.4833984375,0.16015625,3.04296875
0.163,-3.36328125,-0.400390625,3.5634765625
0.1635,-2.5625,-1.361328125,3.8037109375
0.164,-2.08203125,-1.9619140625,3.923828125
0.1645,-1.3212890625,-2.8427734375,3.9638671875
0.165,-0.48046875,-3.203125,3.603515625
0.1655,0.240234375,-3.7236328125,3.443359375
0.166,1.0810546875,-4.00390625,2.8828125
0.1665,1.921875,-4.1640625,2.2021484375
0.167,2.482421875,-4.2041015625,1.76171875
0.1675,3.123046875,-4.1640625,1.12109375
0.168,3.3232421875,-3.7236328125,0.400390625
0.1685,3.84375,-3.6435546875,-0.16015625
0.169,3.9638671875,-2.6025390625,-1.2412109375
0.1695,4.083984375,-2.1220703125,-1.8818359375
0.17,4.083984375,-1.3212890625,-2.642578125
0.1705,3.84375,-0.6005859375,-3.1630859375
0.171,3.5634765625,0.0400390625,-3.5634765625
0.1715,3.2431640625,0.720703125,-3.8837890625
0.172,2.482421875,1.6416015625,-4.1240234375
0.1725,1.921875,2.2421875,-4.1640625
0.173,1.12109375,3.0029296875,-4.1240234375
0.1735,0.2802734375,3.3232421875,-3.68359375
0.174,-0.3203125,3.84375,-3.5634765625
0.1745,-1.28125,3.9638671875,-2.7626953125
0.175,-2.001953125,4.1240234375,-2.2421875
0.1755,-2.5224609375,4.083984375,-1.681640625
0.176,-3.0830078125,3.8837890625,-1.0009765625
0.1765,-3.283203125,3.4833984375,-0.3603515625
0.177,-3.7236328125,3.2431640625,0.240234375
0.1775,-3.84375,2.2021484375,1.28125
0.178,-3.8837890625,1.841796875,1.841796875
0.1785,-3.8837890625,1.0009765625,2.642578125
0.179,-3.5634765625,0.3203125,3.0029296875
0.1795,-3.4033203125,-0.2802734375,3.4833984375
0.18,-2.8828125,-1.041015625,3.763671875
0.1805,-2.2822265625,-1.8818359375,3.9638671875
0.181,-1.6416015625,-2.4423828125,3.923828125
0.1815,-0.80078125,-3.1630859375,3.84375
0.182,0.0,-3.5234375,3.4033203125
0.1825,0.6005859375,-4.00390625,3.3232421875
0.183,1.6015625,-4.0439453125,2.40234375
0.1835,2.2021484375,-4.2041015625,2.0419921875
0.184,2.7626953125,-4.1640625,1.4013671875
0.1845,3.203125,-3.9638671875,0.80078125
0.185,3.5234375,-3.603515625,0.1201171875
0.1855,3.84375,-3.203125,-0.640625
0.186,4.00390625,-2.2822265625,-1.6015625
0.1865,4.083984375,-1.8017578125,-2.1220703125
0.187,4.00390625,-1.0009765625,-2.8828125
0.1875,3.68359375,-0.3203125,-3.2431640625
0.188,3.5234375,0.3203125,-3.8037109375
0.1885,2.8427734375,1.201171875,-4.00390625
0.189,2.2822265625,1.9619140625,-4.2041015625
0.1895,1.5615234375,2.5625,-4.1240234375
0.19,0.720703125,3.203125,-3.9638671875
0.1905,-0.0400390625,3.5234375,-3.5234375
0.191,-0.720703125,3.9638671875,-3.283203125
0.1915,-1.76171875,4.083984375,-2.40234375
0.192,-2.2421875,4.1640625,-2.0419921875
0.1925,-2.8427734375,4.00390625,-1.3212890625
0.193,-3.2431640625,3.68359375,-0.6806640625
0.1935,-3.6435546875,3.3232421875,0.0
0.194,-3.8037109375,2.72265625,0.880859375
0.1945,-3.9638671875,1.921875,1.8017578125
0.195,-3.923828125,1.3212890625,2.322265625
0.1955,-3.84375,0.6005859375,3.0029296875
0.196,-3.4033203125,-0.1201171875,3.3232421875
0.1965,-3.203125,-0.80078125,3.84375
0.197,-2.40234375,-1.76171875,3.9638671875
0.1975,-1.841796875,-2.40234375,4.1240234375
0.198,-0.9609375,-3.0029296875,3.84375
0.1985,-0.2001953125,-3.5634765625,3.68359375
0.199,0.6005859375,-3.84375,3.203125
0.1995,1.28125,-4.1640625,2.802734375
0.2,2.2822265625,-4.244140625,2.001953125
0.2005,2.642578125,-4.2041015625,1.5615234375
0.201,3.2431640625,-4.1240234375,0.880859375
0.2015,3.5234375,-3.7236328125,0.16015625
0.202,3.8837890625,-3.3232421875,-0.48046875
0.2025,3.9638671875,-2.4423828125,-1.4013671875
0.203,4.1640625,-1.8818359375,-2.162109375
0.2035,3.9638671875,-1.1611328125,-2.72265625
0.204,3.84375,-0.4404296875,-3.3232421875
0.2045,3.443359375,0.240234375,-3.603515625
0.205,3.1630859375,0.9208984375,-4.00390625
0.2055,2.322265625,1.8818359375,-4.1640625
0.206,1.841796875,2.40234375,-4.2041015625
0.2065,0.880859375,3.04296875,-3.923828125
0.207,0.16015625,3.5234375,-3.7236328125
0.2075,-0.560546875,3.84375,-3.36328125
0.208,-1.361328125,4.00390625,-2.72265625
0.2085,-2.2421875,4.1640625,-2.1220703125
0.209,-2.5625,3.9638671875,-1.6015625
0.2095,-3.203125,3.8837890625,-0.9609375
0.21,-3.443359375,3.443359375,-0.2001953125
0.2105,-3.84375,3.1630859375,0.48046875
0.211,-3.8837890625,2.162109375,1.521484375
0.2115,-4.083984375,1.6416015625,2.2021484375
0.212,-3.8037109375,0.80078125,2.72265625
0.2125,-3.7236328125,0.16015625,3.3232421875
0.213,-3.2431640625,-0.560546875,3.6435546875
0.2135,-2.8427734375,-1.28125,3.9638671875
0.214,-2.08203125,-2.2822265625,4.1240234375
0.2145,-1.3212890625,-2.7626953125,3.9638671875
0.215,-0.5205078125,-3.4033203125,3.84375
0.2155,0.2802734375,-3.8037109375,3.4033203125
0.216,1.0009765625,-4.1640625,3.04296875
0.2165,1.921875,-4.244140625,2.2421875
0.217,2.642578125,-4.4443359375,1.76171875
0.2175,2.9228515625,-4.0439453125,1.0810546875
0.218,3.5634765625,-4.00390625,0.5205078125
0.2185,3.68359375,-3.36328125,-0.2802734375
0.219,4.083984375,-2.962890625,-1.0009765625
0.2195,4.083984375,-1.9619140625,-1.9619140625
0.22,4.1240234375,-1.4814453125,-2.5625
0.2205,3.8037109375,-0.6005859375,-3.0830078125
0.221,3.68359375,0.0,-3.5634765625
0.2215,3.1630859375,0.720703125,-3.84375
0.222,2.642578125,1.44140625,-4.0439453125
0.2225,1.9619140625,2.2822265625,-4.244140625
0.223,1.201171875,2.6826171875,-3.8837890625
0.2235,0.48046875,3.4033203125,-3.84375
0.224,-0.3203125,3.603515625,-3.3232421875
0.2245,-1.0009765625,3.923828125,-3.0830078125
0.225,-1.841796875,3.9638671875,-2.2421875
0.2255,-2.4423828125,4.083984375,-1.841796875
0.226,-2.7626953125,3.7236328125,-1.12109375
0.2265,-3.2431640625,3.68359375,-0.640625
0.227,-3.4033203125,3.04296875,0.1201171875
0.2275,-3.7236328125,2.6025390625,0.880859375
0.228,-3.84375,1.8017578125,1.76171875
0.2285,-3.763671875,1.28125,2.2421875
0.229,-3.603515625,0.560546875,2.8427734375
0.2295,-3.3232421875,-0.0400390625,3.1630859375
