wavelength,x,y,z
0.0,-0.850830078125,-21.631103515625,22.331787109375
0.0005,4.474365234375,-24.473876953125,19.929443359375
0.001,10.280029296875,-25.995361328125,15.725341796875
0.0015,15.004638671875,-25.474853515625,10.520263671875
0.002,18.247802734375,-25.715087890625,7.717529296875
0.0025,21.651123046875,-23.833251953125,2.512451171875
0.003,24.173583984375,-21.911376953125,-2.052001953125
0.0035,25.574951171875,-18.708251953125,-6.736572265625
0.004,26.976318359375,-14.464111328125,-12.502197265625
0.0045,25.614990234375,-9.619384765625,-15.985595703125
0.005,25.534912109375,-6.176025390625,-19.509033203125
0.0055,23.092529296875,-1.371337890625,-21.831298828125
0.006,21.330810546875,3.793701171875,-25.194580078125
0.0065,16.966552734375,9.158935546875,-26.115478515625
0.007,12.241943359375,14.524169921875,-26.796142578125
0.0075,8.638427734375,17.447021484375,-26.115478515625
0.008,3.273193359375,21.130615234375,-24.433837890625
0.0085,-1.451416015625,23.012451171875,-21.751220703125
0.009,-6.696533203125,25.534912109375,-19.188720703125
0.0095,-12.582275390625,26.455810546875,-14.384033203125
0.01,-16.786376953125,25.534912109375,-9.259033203125
0.0105,-19.829345703125,25.655029296875,-6.376220703125
0.011,-22.872314453125,23.252685546875,-0.970947265625
0.0115,-25.314697265625,21.010498046875,3.873779296875
0.012,-26.075439453125,17.006591796875,8.638427734375
0.0125,-27.076416015625,12.722412109375,14.083740234375
0.013,-25.594970703125,8.157958984375,17.206787109375
0.0135,-25.114501953125,4.354248046875,20.650146484375
0.014,-22.351806640625,-0.610595703125,22.772216796875
0.0145,-20.429931640625,-5.895751953125,26.095458984375
0.015,-15.385009765625,-11.140869140625,26.255615234375
0.0155,-10.740478515625,-15.945556640625,26.375732421875
0.016,-7.417236328125,-18.548095703125,25.735107421875
0.0165,-1.491455078125,-22.071533203125,23.332763671875
0.017,3.193115234375,-23.873291015625,20.650146484375
0.0175,8.598388671875,-25.995361328125,17.326904296875
0.018,13.923583984375,-26.475830078125,12.722412109375
0.0185,17.847412109375,-25.314697265625,7.717529296875
0.019,20.810302734375,-25.154541015625,4.634521484375
0.0195,23.572998046875,-22.511962890625,-0.810791015625
0.02,26.135498046875,-20.189697265625,-5.775634765625
0.0205,26.135498046875,-15.545166015625,-10.500244140625
0.021,26.896240234375,-11.501220703125,-15.385009765625
0.0215,25.454833984375,-7.377197265625,-18.187744140625
0.022,24.413818359375,-2.932861328125,-21.631103515625
0.0225,21.691162109375,1.831787109375,-23.552978515625
0.023,19.168701171875,7.437255859375,-26.635986328125
0.0235,13.883544921875,12.442138671875,-26.355712890625
0.024,9.359130859375,16.846435546875,-26.235595703125
0.0245,6.236083984375,19.208740234375,-25.514892578125
0.025,0.150146484375,22.451904296875,-22.752197265625
0.0255,-4.654541015625,24.493896484375,-20.189697265625
0.026,-10.260009765625,25.855224609375,-15.865478515625
0.0265,-14.904541015625,26.255615234375,-11.821533203125
0.027,-18.508056640625,25.014404296875,-7.056884765625
0.0275,-21.310791015625,24.373779296875,-3.653564453125
0.028,-23.673095703125,21.731201171875,1.471435546875
0.0285,-26.235595703125,18.968505859375,6.836669921875
0.029,-25.635009765625,13.803466796875,11.481201171875
0.0295,-26.275634765625,10.119873046875,15.885498046875
0.03,-24.994384765625,6.396240234375,18.407958984375
0.0305,-23.472900390625,1.551513671875,21.811279296875
0.031,-20.830322265625,-3.173095703125,23.813232421875
0.0315,-17.587158203125,-9.018798828125,26.375732421875
0.032,-12.742431640625,-13.463134765625,25.975341796875
0.0325,-8.258056640625,-17.427001953125,25.414794921875
0.033,-4.894775390625,-19.709228515625,24.373779296875
0.0335,1.031005859375,-22.752197265625,21.531005859375
0.034,6.075927734375,-24.914306640625,18.928466796875
0.0345,11.681396484375,-25.354736328125,13.803466796875
0.035,15.645263671875,-25.915283203125,10.480224609375
0.0355,19.088623046875,-24.513916015625,5.755615234375
0.036,21.891357421875,-23.552978515625,1.951904296875
0.0365,24.053466796875,-20.870361328125,-3.052978515625
0.037,26.415771484375,-17.747314453125,-8.618408203125
0.0375,25.374755859375,-12.502197265625,-12.862548828125
0.038,25.855224609375,-9.058837890625,-16.826416015625
0.0385,24.453857421875,-5.375244140625,-19.188720703125
0.039,22.692138671875,-0.250244140625,-22.592041015625
0.0395,19.889404296875,4.674560546875,-24.634033203125
0.04,15.685302734375,10.560302734375,-26.275634765625
0.0405,11.441162109375,14.404052734375,-25.955322265625
0.041,7.036865234375,18.127685546875,-25.154541015625
0.0415,3.233154296875,20.209716796875,-23.673095703125
0.042,-2.292236328125,23.092529296875,-21.030517578125
0.0425,-7.777587890625,25.334716796875,-17.867431640625
0.043,-13.062744140625,25.014404296875,-12.422119140625
0.0435,-16.626220703125,25.574951171875,-9.459228515625
0.044,-19.789306640625,24.053466796875,-4.814697265625
0.0445,-22.391845703125,22.572021484375,-0.770751953125
0.045,-24.273681640625,19.769287109375,4.033935546875
0.0455,-26.075439453125,16.005615234375,9.679443359375
0.046,-24.994384765625,11.040771484375,13.643310546875
0.0465,-25.234619140625,7.677490234375,17.326904296875
0.047,-23.593017578125,3.993896484375,19.408935546875
0.0475,-21.751220703125,-1.211181640625,22.732177734375
0.048,-18.588134765625,-6.256103515625,24.614013671875
0.0485,-13.983642578125,-11.781494140625,25.494873046875
0.049,-10.500244140625,-15.144775390625,25.334716796875
0.0495,-5.815673828125,-18.588134765625,24.053466796875
0.05,-1.691650390625,-20.590087890625,22.091552734375
0.0505,3.353271484375,-23.032470703125,19.689208984375
0.051,9.158935546875,-25.034423828125,15.965576171875
0.0515,13.643310546875,-24.313720703125,10.840576171875
0.052,17.086669921875,-24.834228515625,7.997802734375
0.0525,19.889404296875,-23.192626953125,3.593505859375
0.053,22.531982421875,-21.510986328125,-0.850830078125
0.0535,24.093505859375,-18.548095703125,-5.375244140625
0.054,25.374755859375,-14.504150390625,-10.860595703125
0.0545,24.493896484375,-10.260009765625,-14.223876953125
0.055,24.373779296875,-6.736572265625,-17.667236328125
0.0555,22.531982421875,-2.932861328125,-19.709228515625
0.056,20.810302734375,1.951904296875,-22.792236328125
0.0565,17.126708984375,7.397216796875,-24.593994140625
0.057,12.442138671875,12.322021484375,-24.794189453125
0.0575,9.479248046875,15.405029296875,-24.994384765625
0.058,4.754638671875,18.528076171875,-23.312744140625
0.0585,0.510498046875,20.690185546875,-21.310791015625
0.059,-4.174072265625,22.932373046875,-18.948486328125
0.0595,-10.179931640625,24.614013671875,-14.784423828125
0.06,-14.063720703125,23.693115234375,-10.059814453125
0.0605,-17.346923828125,24.133544921875,-7.337158203125
0.061,-19.749267578125,22.291748046875,-3.093017578125
0.0615,-22.431884765625,20.570068359375,1.431396484375
0.062,-23.673095703125,17.166748046875,6.075927734375
0.0625,-24.593994140625,12.962646484375,11.321044921875
0.063,-24.033447265625,9.439208984375,14.323974609375
0.0635,-23.432861328125,5.555419921875,17.727294921875
0.064,-21.671142578125,1.791748046875,19.729248046875
0.0645,-19.909423828125,-3.052978515625,22.772216796875
0.065,-15.865478515625,-8.658447265625,24.213623046875
0.0655,-11.220947265625,-12.982666015625,23.853271484375
0.066,-8.618408203125,-15.945556640625,24.253662109375
0.0665,-3.533447265625,-18.788330078125,22.051513671875
0.067,0.830810546875,-21.110595703125,20.209716796875
0.0675,5.635498046875,-22.912353515625,17.326904296875
0.068,11.200927734375,-24.273681640625,13.162841796875
0.0685,14.724365234375,-23.312744140625,8.798583984375
0.069,18.087646484375,-23.552978515625,5.755615234375
0.0695,20.369873046875,-21.510986328125,1.431396484375
0.07,23.132568359375,-19.709228515625,-3.213134765625
0.0705,23.693115234375,-15.745361328125,-7.897705078125
0.071,24.293701171875,-11.621337890625,-12.662353515625
0.0715,23.933349609375,-8.658447265625,-15.385009765625
0.072,22.772216796875,-4.134033203125,-18.708251953125
0.0725,20.890380859375,-0.290283203125,-20.790283203125
0.073,18.568115234375,4.754638671875,-23.392822265625
0.0735,14.283935546875,10.079833984375,-24.513916015625
0.074,9.759521484375,14.003662109375,-23.753173828125
0.0745,7.116943359375,16.846435546875,-24.033447265625
0.075,1.871826171875,19.448974609375,-21.430908203125
0.0755,-2.612548828125,21.971435546875,-19.589111328125
0.076,-7.537353515625,23.012451171875,-15.825439453125
0.0765,-12.542236328125,24.093505859375,-11.901611328125
0.077,-15.665283203125,23.132568359375,-8.017822265625
0.0775,-18.908447265625,22.772216796875,-4.414306640625
0.078,-20.750244140625,20.610107421875,-0.410400390625
0.0785,-23.352783203125,18.447998046875,4.514404296875
0.079,-23.432861328125,14.083740234375,8.998779296875
0.0795,-23.673095703125,10.039794921875,13.322998046875
0.08,-23.552978515625,7.517333984375,15.805419921875
0.0805,-21.791259765625,2.712646484375,18.888427734375
0.081,-19.989501953125,-1.291259765625,21.090576171875
0.0815,-17.026611328125,-6.336181640625,23.012451171875
0.082,-13.142822265625,-11.060791015625,24.013427734375
0.0825,-8.738525390625,-14.504150390625,22.972412109375
0.083,-5.735595703125,-17.226806640625,22.732177734375
0.0835,-0.850830078125,-19.468994140625,20.129638671875
0.084,3.833740234375,-22.231689453125,18.407958984375
0.0845,8.678466796875,-22.511962890625,13.883544921875
0.085,13.082763671875,-23.392822265625,10.440185546875
0.0855,15.965576171875,-22.752197265625,7.076904296875
0.086,19.008544921875,-21.831298828125,3.072998046875
0.0865,20.890380859375,-19.709228515625,-0.970947265625
0.087,23.092529296875,-17.226806640625,-5.735595703125
0.0875,23.132568359375,-13.062744140625,-10.059814453125
0.088,23.012451171875,-9.178955078125,-13.863525390625
0.0885,22.932373046875,-6.816650390625,-16.265869140625
0.089,20.890380859375,-1.971923828125,-19.108642578125
0.0895,19.288818359375,2.272216796875,-21.751220703125
0.09,15.324951171875,7.357177734375,-22.712158203125
0.0905,12.001708984375,11.681396484375,-23.753173828125
0.091,7.957763671875,14.804443359375,-22.752197265625
0.0915,4.434326171875,17.607177734375,-22.071533203125
0.092,-0.170166015625,19.689208984375,-19.669189453125
0.0925,-5.135009765625,22.451904296875,-17.627197265625
0.093,-9.859619140625,22.331787109375,-12.862548828125
0.0935,-13.823486328125,22.932373046875,-9.539306640625
0.094,-16.385986328125,22.451904296875,-6.576416015625
0.0945,-19.308837890625,21.090576171875,-2.292236328125
0.095,-21.270751953125,18.928466796875,1.951904296875
0.0955,-22.752197265625,15.645263671875,6.756591796875
0.096,-23.032470703125,11.841552734375,10.880615234375
0.0965,-22.592041015625,7.997802734375,14.323974609375
0.097,-22.351806640625,5.355224609375,16.766357421875
0.0975,-20.309814453125,0.590576171875,19.529052734375
0.098,-18.508056640625,-4.134033203125,22.411865234375
0.0985,-13.823486328125,-8.978759765625,22.572021484375
0.099,-10.860595703125,-12.862548828125,23.492919921875
0.0995,-6.936767578125,-15.745361328125,22.451904296875
0.1,-2.692626953125,-18.548095703125,21.010498046875
0.1005,1.671630859375,-20.469970703125,18.728271484375
0.101,7.116943359375,-22.992431640625,15.885498046875
0.1015,11.321044921875,-22.592041015625,11.401123046875
0.102,15.204833984375,-22.912353515625,7.957763671875
0.1025,17.647216796875,-22.271728515625,4.874755859375
0.103,20.489990234375,-20.550048828125,0.270263671875
0.1035,22.451904296875,-18.187744140625,-4.214111328125
0.104,23.252685546875,-14.143798828125,-9.098876953125
0.1045,23.572998046875,-10.900634765625,-12.702392578125
0.105,22.772216796875,-6.896728515625,-15.985595703125
0.1055,21.851318359375,-3.573486328125,-18.508056640625
0.106,19.889404296875,1.151123046875,-21.030517578125
0.1065,17.166748046875,6.556396484375,-23.753173828125
0.107,12.241943359375,10.960693359375,-23.272705078125
0.1075,9.439208984375,14.484130859375,-23.953369140625
0.108,5.315185546875,17.166748046875,-22.511962890625
0.1085,0.630615234375,19.969482421875,-20.750244140625
0.109,-3.733642578125,21.811279296875,-18.307861328125
0.1095,-9.539306640625,23.653076171875,-14.464111328125
0.11,-13.102783203125,23.052490234375,-10.380126953125
0.1105,-16.866455078125,23.052490234375,-6.696533203125
0.111,-19.028564453125,21.851318359375,-3.373291015625
0.1115,-21.631103515625,19.929443359375,1.231201171875
0.112,-23.312744140625,16.926513671875,6.035888671875
0.1125,-23.392822265625,12.322021484375,10.640380859375
0.113,-23.673095703125,9.519287109375,13.923583984375
0.1135,-22.592041015625,5.355224609375,16.966552734375
0.114,-21.270751953125,1.591552734375,19.489013671875
0.1145,-19.148681640625,-2.852783203125,21.771240234375
0.115,-15.785400390625,-8.458251953125,24.013427734375
0.1155,-11.020751953125,-12.302001953125,23.092529296875
0.116,-8.057861328125,-15.745361328125,23.572998046875
0.1165,-3.773681640625,-18.067626953125,21.611083984375
0.117,0.910888671875,-20.750244140625,19.769287109375
0.1175,5.435302734375,-22.311767578125,16.926513671875
0.118,10.840576171875,-23.392822265625,12.642333984375
0.1185,14.123779296875,-23.032470703125,9.118896484375
0.119,17.687255859375,-22.632080078125,5.195068359375
0.1195,19.729248046875,-21.150634765625,1.671630859375
0.12,22.091552734375,-19.188720703125,-2.732666015625
0.1205,23.492919921875,-15.825439453125,-7.617431640625
0.121,23.052490234375,-11.260986328125,-11.821533203125
0.1215,23.492919921875,-8.818603515625,-14.784423828125
0.122,21.931396484375,-4.414306640625,-17.627197265625
0.1225,20.610107421875,-0.490478515625,-20.229736328125
0.123,18.127685546875,3.993896484375,-22.151611328125
0.1235,14.283935546875,9.559326171875,-23.873291015625
0.124,10.039794921875,12.922607421875,-23.032470703125
0.1245,6.836669921875,16.285888671875,-23.192626953125
0.125,2.752685546875,18.247802734375,-21.070556640625
0.1255,-1.891845703125,21.010498046875,-19.348876953125
0.126,-6.696533203125,22.371826171875,-15.985595703125
0.1265,-11.661376953125,22.892333984375,-11.581298828125
0.127,-14.584228515625,22.852294921875,-8.778564453125
0.1275,-17.947509765625,21.931396484375,-4.534423828125
0.128,-19.869384765625,20.449951171875,-1.131103515625
0.1285,-21.951416015625,18.247802734375,3.233154296875
0.129,-23.192626953125,14.484130859375,8.318115234375
0.1295,-22.552001953125,10.119873046875,12.121826171875
0.13,-23.072509765625,7.757568359375,15.084716796875
0.1305,-21.270751953125,3.433349609375,17.687255859375
0.131,-20.069580078125,-0.690673828125,20.570068359375
0.1315,-17.026611328125,-5.295166015625,22.091552734375
0.132,-13.182861328125,-10.540283203125,23.492919921875
0.1325,-9.339111328125,-13.583251953125,22.732177734375
0.133,-5.615478515625,-16.946533203125,22.291748046875
0.1335,-1.491455078125,-18.828369140625,20.129638671875
0.134,3.072998046875,-21.631103515625,18.488037109375
0.1345,8.197998046875,-22.511962890625,14.364013671875
0.135,12.602294921875,-22.752197265625,10.239990234375
0.1355,15.565185546875,-22.992431640625,7.677490234375
0.136,18.808349609375,-21.631103515625,3.032958984375
0.1365,20.970458984375,-19.949462890625,-0.930908203125
0.137,22.572021484375,-17.306884765625,-5.255126953125
0.1375,23.572998046875,-13.463134765625,-10.179931640625
0.138,22.772216796875,-9.218994140625,-13.623291015625
0.1385,23.052490234375,-6.456298828125,-16.706298828125
0.139,20.890380859375,-1.931884765625,-19.148681640625
0.1395,19.569091796875,2.632568359375,-22.271728515625
0.14,15.525146484375,7.397216796875,-22.992431640625
0.1405,11.721435546875,12.161865234375,-23.953369140625
0.141,8.238037109375,15.084716796875,-23.352783203125
0.1415,3.753662109375,18.407958984375,-22.191650390625
0.142,-0.610595703125,20.249755859375,-19.829345703125
0.1425,-5.455322265625,22.892333984375,-17.707275390625
0.143,-10.460205078125,23.292724609375,-13.182861328125
0.1435,-14.464111328125,23.052490234375,-9.058837890625
0.144,-17.306884765625,23.132568359375,-6.376220703125
0.1445,-20.149658203125,21.210693359375,-1.611572265625
0.145,-22.431884765625,19.208740234375,2.752685546875
0.1455,-23.312744140625,15.605224609375,7.197021484375
0.146,-24.033447265625,11.921630859375,11.841552734375
0.1465,-23.032470703125,7.837646484375,15.004638671875
0.147,-22.792236328125,4.554443359375,18.047607421875
0.1475,-20.389892578125,-0.090087890625,20.289794921875
0.148,-18.748291015625,-4.934814453125,23.412841796875
0.1485,-14.063720703125,-9.619384765625,23.412841796875
0.149,-10.300048828125,-13.863525390625,23.933349609375
0.1495,-7.016845703125,-16.466064453125,23.252685546875
0.15,-1.851806640625,-19.669189453125,21.290771484375
0.1505,2.432373046875,-21.470947265625,18.928466796875
0.151,7.677490234375,-23.552978515625,15.925537109375
0.1515,12.121826171875,-23.673095703125,11.681396484375
0.152,15.925537109375,-23.152587890625,7.437255859375
0.1525,18.568115234375,-22.992431640625,4.554443359375
0.153,21.210693359375,-20.830322265625,-0.290283203125
0.1535,23.572998046875,-18.628173828125,-4.934814453125
0.154,23.693115234375,-14.263916015625,-9.299072265625
0.1545,24.333740234375,-10.860595703125,-13.463134765625
0.155,23.212646484375,-6.976806640625,-16.345947265625
0.1555,22.371826171875,-3.052978515625,-19.468994140625
0.156,20.009521484375,1.431396484375,-21.470947265625
0.1565,17.527099609375,6.796630859375,-24.353759765625
0.157,12.682373046875,11.200927734375,-23.953369140625
0.1575,8.958740234375,15.084716796875,-24.073486328125
0.158,5.755615234375,17.487060546875,-23.312744140625
0.1585,0.390380859375,20.489990234375,-21.030517578125
0.159,-4.013916015625,22.451904296875,-18.708251953125
0.1595,-9.539306640625,23.773193359375,-14.584228515625
0.16,-13.423095703125,23.973388671875,-10.940673828125
0.1605,-17.026611328125,23.132568359375,-6.616455078125
0.161,-19.589111328125,22.451904296875,-3.413330078125
0.1615,-21.831298828125,20.209716796875,1.111083984375
0.162,-24.193603515625,17.527099609375,6.276123046875
0.1625,-23.673095703125,12.722412109375,10.560302734375
0.163,-24.233642578125,9.599365234375,14.404052734375
0.1635,-23.072509765625,5.795654296875,17.046630859375
0.164,-21.791259765625,1.431396484375,20.209716796875
0.1645,-19.509033203125,-2.972900390625,22.251708984375
0.165,-16.225830078125,-8.618408203125,24.614013671875
0.1655,-11.701416015625,-12.502197265625,24.013427734375
0.166,-7.857666015625,-16.265869140625,23.853271484375
0.1665,-4.174072265625,-18.548095703125,22.572021484375
0.167,0.990966796875,-21.390869140625,20.329833984375
0.1675,5.835693359375,-23.432861328125,17.647216796875
0.168,11.200927734375,-23.953369140625,12.842529296875
0.1685,14.764404296875,-24.273681640625,9.679443359375
0.169,18.407958984375,-23.312744140625,5.074951171875
0.1695,20.930419921875,-22.151611328125,1.351318359375
0.17,23.012451171875,-19.709228515625,-3.133056640625
0.1705,25.054443359375,-16.506103515625,-8.458251953125
0.171,24.093505859375,-11.541259765625,-12.542236328125
0.1715,24.654052734375,-8.578369140625,-16.145751953125
0.172,23.092529296875,-4.374267578125,-18.828369140625
0.1725,21.531005859375,0.390380859375,-21.951416015625
0.173,18.768310546875,4.914794921875,-23.713134765625
0.1735,14.684326171875,10.720458984375,-25.434814453125
0.174,10.520263671875,14.243896484375,-24.794189453125
0.1745,6.276123046875,18.047607421875,-24.353759765625
0.175,2.152099609375,20.129638671875,-22.391845703125
0.1755,-2.972900390625,22.852294921875,-20.109619140625
0.176,-8.177978515625,24.614013671875,-16.746337890625
0.1765,-13.302978515625,24.413818359375,-11.541259765625
0.177,-16.626220703125,24.694091796875,-8.658447265625
0.1775,-20.149658203125,23.212646484375,-3.693603515625
0.178,-22.391845703125,21.611083984375,0.310302734375
0.1785,-24.073486328125,18.888427734375,4.794677734375
0.179,-25.675048828125,15.044677734375,10.280029296875
0.1795,-24.473876953125,10.079833984375,14.123779296875
0.18,-24.754150390625,6.996826171875,17.607177734375
0.1805,-22.712158203125,2.432373046875,20.049560546875
