wavelength,x,y,z
0.0,2.852783203125,3.653564453125,-5.915771484375
0.0005,3.973876953125,2.412353515625,-6.156005859375
0.001,4.654541015625,1.571533203125,-6.276123046875
0.0015,4.974853515625,0.850830078125,-6.156005859375
0.002,5.014892578125,0.010009765625,-5.595458984375
0.0025,5.014892578125,-1.151123046875,-4.794677734375
0.003,5.094970703125,-2.472412109375,-3.833740234375
0.0035,5.014892578125,-3.633544921875,-2.792724609375
0.004,4.814697265625,-4.474365234375,-1.951904296875
0.0045,4.334228515625,-4.994873046875,-1.151123046875
0.005,3.373291015625,-5.275146484375,0.050048828125
0.0055,2.412353515625,-5.755615234375,1.331298828125
0.006,1.291259765625,-6.115966796875,2.812744140625
0.0065,0.570556640625,-6.356201171875,3.813720703125
0.007,-0.310302734375,-6.396240234375,4.614501953125
0.0075,-1.311279296875,-5.795654296875,5.094970703125
0.008,-2.592529296875,-4.834716796875,5.615478515625
0.0085,-3.913818359375,-3.713623046875,6.015869140625
0.009,-4.874755859375,-2.592529296875,6.095947265625
0.0095,-5.355224609375,-1.911865234375,6.135986328125
0.01,-5.435302734375,-1.111083984375,5.775634765625
0.0105,-5.355224609375,0.010009765625,5.014892578125
0.011,-5.395263671875,1.131103515625,4.174072265625
0.0115,-5.395263671875,2.492431640625,3.133056640625
0.012,-5.275146484375,3.453369140625,2.212158203125
0.0125,-4.954833984375,4.134033203125,1.411376953125
0.013,-4.354248046875,4.534423828125,0.530517578125
0.0135,-3.353271484375,4.854736328125,-0.790771484375
0.014,-2.312255859375,5.335205078125,-2.192138671875
0.0145,-1.311279296875,5.615478515625,-3.433349609375
0.015,-0.630615234375,5.855712890625,-4.354248046875
0.0155,0.330322265625,5.695556640625,-5.074951171875
0.016,1.531494140625,4.814697265625,-5.595458984375
0.0165,2.892822265625,3.693603515625,-6.075927734375
0.017,4.134033203125,2.492431640625,-6.356201171875
0.0175,4.854736328125,1.451416015625,-6.476318359375
0.018,5.255126953125,0.770751953125,-6.316162109375
0.0185,5.255126953125,0.010009765625,-5.755615234375
0.019,5.175048828125,-1.231201171875,-4.914794921875
0.0195,5.175048828125,-2.552490234375,-3.873779296875
0.02,5.094970703125,-3.833740234375,-2.832763671875
0.0205,4.894775390625,-4.674560546875,-1.951904296875
0.021,4.454345703125,-5.195068359375,-1.111083984375
0.0215,3.533447265625,-5.515380859375,0.050048828125
0.022,2.492431640625,-5.835693359375,1.371337890625
0.0225,1.291259765625,-6.196044921875,2.892822265625
0.023,0.410400390625,-6.436279296875,4.013916015625
0.0235,-0.390380859375,-6.556396484375,4.814697265625
0.024,-1.351318359375,-6.075927734375,5.415283203125
0.0245,-2.672607421875,-4.994873046875,5.815673828125
0.025,-4.033935546875,-3.833740234375,6.216064453125
0.0255,-5.114990234375,-2.592529296875,6.336181640625
0.026,-5.635498046875,-1.711669921875,6.376220703125
0.0265,-5.755615234375,-0.990966796875,6.055908203125
0.027,-5.635498046875,0.130126953125,5.255126953125
0.0275,-5.595458984375,1.291259765625,4.294189453125
0.028,-5.595458984375,2.692626953125,3.133056640625
0.0285,-5.435302734375,3.853759765625,2.052001953125
0.029,-5.114990234375,4.534423828125,1.251220703125
0.0295,-4.514404296875,4.974853515625,0.370361328125
0.03,-3.353271484375,5.135009765625,-0.990966796875
0.0305,-2.232177734375,5.575439453125,-2.432373046875
0.031,-1.031005859375,5.815673828125,-3.873779296875
0.0315,-0.310302734375,6.055908203125,-4.834716796875
0.032,0.610595703125,5.895751953125,-5.595458984375
0.0325,1.811767578125,5.054931640625,-6.075927734375
0.033,3.253173828125,3.773681640625,-6.436279296875
0.0335,4.614501953125,2.412353515625,-6.796630859375
0.034,5.455322265625,1.251220703125,-6.796630859375
0.0345,5.775634765625,0.450439453125,-6.596435546875
0.035,5.735595703125,-0.510498046875,-6.035888671875
0.0355,5.575439453125,-1.711669921875,-4.954833984375
0.036,5.455322265625,-3.113037109375,-3.793701171875
0.0365,5.375244140625,-4.514404296875,-2.512451171875
0.037,5.054931640625,-5.435302734375,-1.471435546875
0.0375,4.534423828125,-5.915771484375,-0.630615234375
0.038,3.533447265625,-6.156005859375,0.530517578125
0.0385,2.172119140625,-6.356201171875,1.971923828125
0.039,0.850830078125,-6.596435546875,3.613525390625
0.0395,-0.310302734375,-6.716552734375,4.814697265625
0.04,-1.031005859375,-6.756591796875,5.615478515625
0.0405,-1.951904296875,-6.276123046875,6.135986328125
0.041,-3.313232421875,-5.074951171875,6.456298828125
0.0415,-4.754638671875,-3.673583984375,6.776611328125
0.042,-5.835693359375,-2.272216796875,6.896728515625
0.0425,-6.396240234375,-1.191162109375,6.696533203125
0.043,-6.436279296875,-0.390380859375,6.336181640625
0.0435,-6.236083984375,0.650634765625,5.415283203125
0.044,-5.955810546875,1.931884765625,4.134033203125
0.0445,-5.835693359375,3.373291015625,2.892822265625
0.045,-5.555419921875,4.574462890625,1.651611328125
0.0455,-5.155029296875,5.255126953125,0.770751953125
0.046,-4.434326171875,5.575439453125,-0.190185546875
0.0465,-3.273193359375,5.695556640625,-1.351318359375
0.047,-1.871826171875,5.895751953125,-2.912841796875
0.0475,-0.630615234375,6.095947265625,-4.434326171875
0.048,0.370361328125,6.176025390625,-5.435302734375
0.0485,1.010986328125,6.095947265625,-6.115966796875
0.049,2.092041015625,5.255126953125,-6.516357421875
0.0495,3.533447265625,3.853759765625,-6.836669921875
0.05,4.854736328125,2.532470703125,-7.076904296875
0.0505,5.855712890625,1.171142578125,-7.076904296875
0.051,6.216064453125,0.250244140625,-6.836669921875
0.0515,6.135986328125,-0.630615234375,-6.356201171875
0.052,5.895751953125,-1.751708984375,-5.315185546875
0.0525,5.655517578125,-3.072998046875,-3.993896484375
0.053,5.495361328125,-4.514404296875,-2.712646484375
0.0535,5.175048828125,-5.555419921875,-1.511474609375
0.054,4.734619140625,-6.115966796875,-0.670654296875
0.0545,3.853759765625,-6.396240234375,0.370361328125
0.055,2.532470703125,-6.436279296875,1.691650390625
0.0555,1.131103515625,-6.716552734375,3.333251953125
0.056,-0.270263671875,-6.796630859375,4.694580078125
0.0565,-0.990966796875,-6.916748046875,5.575439453125
0.057,-1.751708984375,-6.676513671875,6.135986328125
0.0575,-2.952880859375,-5.675537109375,6.456298828125
0.058,-4.394287109375,-4.154052734375,6.856689453125
0.0585,-5.635498046875,-2.752685546875,7.056884765625
0.059,-6.396240234375,-1.511474609375,6.896728515625
0.0595,-6.556396484375,-0.710693359375,6.616455078125
0.06,-6.396240234375,0.250244140625,5.935791015625
0.0605,-6.115966796875,1.451416015625,4.774658203125
0.061,-5.955810546875,2.852783203125,3.453369140625
0.0615,-5.755615234375,4.214111328125,2.172119140625
0.062,-5.395263671875,5.094970703125,1.131103515625
0.0625,-4.834716796875,5.535400390625,0.290283203125
0.063,-3.873779296875,5.735595703125,-0.830810546875
0.0635,-2.472412109375,5.855712890625,-2.312255859375
0.064,-1.151123046875,6.135986328125,-3.913818359375
0.0645,0.130126953125,6.176025390625,-5.155029296875
0.065,0.770751953125,6.256103515625,-5.915771484375
0.0655,1.731689453125,5.735595703125,-6.476318359375
0.066,3.052978515625,4.494384765625,-6.756591796875
0.0665,4.494384765625,3.052978515625,-7.076904296875
0.067,5.615478515625,1.611572265625,-7.156982421875
0.0675,6.216064453125,0.570556640625,-7.036865234375
0.068,6.256103515625,-0.350341796875,-6.636474609375
0.0685,6.055908203125,-1.311279296875,-5.755615234375
0.069,5.775634765625,-2.632568359375,-4.514404296875
0.0695,5.655517578125,-4.114013671875,-3.193115234375
0.07,5.375244140625,-5.315185546875,-1.871826171875
0.0705,4.934814453125,-6.035888671875,-0.950927734375
0.071,4.214111328125,-6.396240234375,0.050048828125
0.0715,3.012939453125,-6.476318359375,1.291259765625
0.072,1.571533203125,-6.716552734375,2.852783203125
0.0725,0.170166015625,-6.876708984375,4.414306640625
0.073,-0.830810546875,-6.916748046875,5.415283203125
0.0735,-1.511474609375,-6.796630859375,6.095947265625
0.074,-2.552490234375,-6.035888671875,6.536376953125
0.0745,-3.993896484375,-4.594482421875,6.776611328125
0.075,-5.395263671875,-3.193115234375,7.056884765625
0.0755,-6.316162109375,-1.791748046875,7.016845703125
0.076,-6.676513671875,-0.910888671875,6.776611328125
0.0765,-6.556396484375,0.010009765625,6.256103515625
0.077,-6.276123046875,1.131103515625,5.135009765625
0.0775,-6.075927734375,2.492431640625,3.853759765625
0.078,-5.915771484375,3.933837890625,2.532470703125
0.0785,-5.555419921875,4.974853515625,1.331298828125
0.079,-5.074951171875,5.535400390625,0.490478515625
0.0795,-4.194091796875,5.735595703125,-0.590576171875
0.08,-2.872802734375,5.855712890625,-1.911865234375
0.0805,-1.471435546875,6.095947265625,-3.513427734375
0.081,-0.230224609375,6.176025390625,-4.874755859375
0.0815,0.610595703125,6.296142578125,-5.755615234375
0.082,1.371337890625,5.975830078125,-6.356201171875
0.0825,2.572509765625,4.974853515625,-6.716552734375
0.083,4.013916015625,3.533447265625,-6.996826171875
0.0835,5.295166015625,2.092041015625,-7.156982421875
0.084,6.055908203125,0.850830078125,-6.996826171875
0.0845,6.216064453125,0.050048828125,-6.716552734375
0.085,6.095947265625,-0.910888671875,-6.115966796875
0.0855,5.775634765625,-2.072021484375,-4.914794921875
0.086,5.575439453125,-3.433349609375,-3.673583984375
0.0865,5.415283203125,-4.794677734375,-2.392333984375
0.087,5.054931640625,-5.635498046875,-1.311279296875
0.0875,4.494384765625,-6.115966796875,-0.510498046875
0.088,3.533447265625,-6.276123046875,0.610595703125
0.0885,2.212158203125,-6.476318359375,1.971923828125
0.089,0.810791015625,-6.716552734375,3.573486328125
0.0895,-0.310302734375,-6.756591796875,4.694580078125
0.09,-1.031005859375,-6.796630859375,5.575439453125
0.0905,-1.871826171875,-6.356201171875,6.055908203125
0.091,-3.153076171875,-5.195068359375,6.376220703125
0.0915,-4.514404296875,-3.913818359375,6.696533203125
0.092,-5.635498046875,-2.552490234375,6.816650390625
0.0925,-6.156005859375,-1.511474609375,6.696533203125
0.093,-6.276123046875,-0.790771484375,6.376220703125
0.0935,-6.115966796875,0.210205078125,5.655517578125
0.094,-5.915771484375,1.371337890625,4.574462890625
0.0945,-5.795654296875,2.772705078125,3.333251953125
0.095,-5.635498046875,3.973876953125,2.132080078125
0.0955,-5.275146484375,4.814697265625,1.251220703125
0.096,-4.674560546875,5.175048828125,0.410400390625
0.0965,-3.673583984375,5.415283203125,-0.790771484375
0.097,-2.472412109375,5.655517578125,-2.232177734375
0.0975,-1.151123046875,5.895751953125,-3.793701171875
0.098,-0.310302734375,6.095947265625,-4.834716796875
0.0985,0.530517578125,6.135986328125,-5.635498046875
0.099,1.531494140625,5.535400390625,-6.115966796875
0.0995,2.892822265625,4.334228515625,-6.436279296875
0.1,4.254150390625,3.012939453125,-6.796630859375
0.1005,5.255126953125,1.691650390625,-6.876708984375
0.101,5.735595703125,0.770751953125,-6.756591796875
0.1015,5.815673828125,0.050048828125,-6.396240234375
0.102,5.655517578125,-1.071044921875,-5.515380859375
0.1025,5.495361328125,-2.312255859375,-4.434326171875
0.103,5.415283203125,-3.713623046875,-3.193115234375
0.1035,5.175048828125,-4.834716796875,-2.031982421875
0.104,4.814697265625,-5.515380859375,-1.231201171875
0.1045,4.134033203125,-5.915771484375,-0.310302734375
0.105,2.932861328125,-6.115966796875,1.010986328125
0.1055,1.731689453125,-6.396240234375,2.532470703125
0.106,0.450439453125,-6.516357421875,3.893798828125
0.1065,-0.430419921875,-6.676513671875,4.854736328125
0.107,-1.151123046875,-6.556396484375,5.495361328125
0.1075,-2.232177734375,-5.715576171875,5.895751953125
0.108,-3.593505859375,-4.474365234375,6.296142578125
0.1085,-4.874755859375,-3.193115234375,6.536376953125
0.109,-5.675537109375,-1.991943359375,6.536376953125
0.1095,-5.955810546875,-1.271240234375,6.416259765625
0.11,-5.915771484375,-0.510498046875,5.855712890625
0.1105,-5.715576171875,0.610595703125,4.934814453125
0.111,-5.635498046875,1.931884765625,3.853759765625
0.1115,-5.555419921875,3.253173828125,2.692626953125
0.112,-5.275146484375,4.134033203125,1.771728515625
0.1125,-4.834716796875,4.694580078125,0.930908203125
0.113,-4.114013671875,4.974853515625,0.010009765625
0.1135,-2.952880859375,5.215087890625,-1.391357421875
0.114,-1.871826171875,5.615478515625,-2.752685546875
0.1145,-0.830810546875,5.735595703125,-3.993896484375
0.115,-0.190185546875,5.975830078125,-4.874755859375
0.1155,0.770751953125,5.695556640625,-5.475341796875
0.116,1.931884765625,4.774658203125,-5.915771484375
0.1165,3.293212890625,3.613525390625,-6.356201171875
0.117,4.494384765625,2.372314453125,-6.516357421875
0.1175,5.135009765625,1.371337890625,-6.556396484375
0.118,5.415283203125,0.650634765625,-6.396240234375
0.1185,5.375244140625,-0.270263671875,-5.795654296875
0.119,5.255126953125,-1.311279296875,-4.914794921875
0.1195,5.255126953125,-2.592529296875,-3.873779296875
0.12,5.135009765625,-3.833740234375,-2.832763671875
0.1205,4.934814453125,-4.674560546875,-1.951904296875
0.121,4.494384765625,-5.235107421875,-1.151123046875
0.1215,3.613525390625,-5.475341796875,0.010009765625
0.122,2.572509765625,-5.835693359375,1.291259765625
0.1225,1.371337890625,-6.156005859375,2.692626953125
0.123,0.530517578125,-6.396240234375,3.813720703125
0.1235,-0.270263671875,-6.556396484375,4.614501953125
0.124,-1.191162109375,-6.115966796875,5.175048828125
0.1245,-2.432373046875,-5.155029296875,5.615478515625
0.125,-3.713623046875,-4.073974609375,6.055908203125
0.1255,-4.754638671875,-2.872802734375,6.216064453125
0.126,-5.315185546875,-2.112060546875,6.256103515625
0.1265,-5.475341796875,-1.391357421875,6.055908203125
0.127,-5.435302734375,-0.510498046875,5.375244140625
0.1275,-5.435302734375,0.650634765625,4.614501953125
0.128,-5.435302734375,1.971923828125,3.573486328125
0.1285,-5.315185546875,3.052978515625,2.612548828125
0.129,-5.114990234375,3.853759765625,1.811767578125
0.1295,-4.634521484375,4.334228515625,0.970947265625
0.13,-3.753662109375,4.614501953125,-0.190185546875
0.1305,-2.832763671875,5.135009765625,-1.511474609375
0.131,-1.751708984375,5.415283203125,-2.872802734375
0.1315,-1.031005859375,5.735595703125,-3.833740234375
0.132,-0.270263671875,5.775634765625,-4.634521484375
0.1325,0.890869140625,5.215087890625,-5.195068359375
0.133,2.172119140625,4.294189453125,-5.715576171875
0.1335,3.453369140625,3.173095703125,-6.115966796875
0.134,4.374267578125,2.092041015625,-6.276123046875
0.1345,4.854736328125,1.331298828125,-6.316162109375
0.135,5.014892578125,0.650634765625,-6.035888671875
0.1355,4.974853515625,-0.390380859375,-5.315185546875
0.136,5.054931640625,-1.551513671875,-4.514404296875
0.1365,5.094970703125,-2.872802734375,-3.513427734375
0.137,4.934814453125,-3.873779296875,-2.592529296875
0.1375,4.654541015625,-4.514404296875,-1.791748046875
0.138,4.093994140625,-4.994873046875,-0.950927734375
0.1385,3.173095703125,-5.395263671875,0.330322265625
0.139,2.172119140625,-5.795654296875,1.731689453125
0.1395,1.171142578125,-6.156005859375,2.932861328125
0.14,0.490478515625,-6.396240234375,3.893798828125
0.1405,-0.430419921875,-6.316162109375,4.614501953125
0.141,-1.591552734375,-5.555419921875,5.135009765625
0.1415,-2.872802734375,-4.594482421875,5.695556640625
0.142,-4.033935546875,-3.473388671875,5.975830078125
0.1425,-4.834716796875,-2.552490234375,6.095947265625
0.143,-5.235107421875,-1.911865234375,6.095947265625
0.1435,-5.275146484375,-1.111083984375,5.615478515625
0.144,-5.275146484375,0.010009765625,4.934814453125
0.1445,-5.435302734375,1.251220703125,4.093994140625
0.145,-5.395263671875,2.492431640625,3.052978515625
0.1455,-5.315185546875,3.373291015625,2.252197265625
0.146,-4.874755859375,3.973876953125,1.451416015625
0.1465,-4.154052734375,4.414306640625,0.450439453125
0.147,-3.233154296875,4.854736328125,-0.950927734375
0.1475,-2.232177734375,5.295166015625,-2.272216796875
0.148,-1.351318359375,5.615478515625,-3.393310546875
0.1485,-0.670654296875,5.815673828125,-4.314208984375
0.149,0.410400390625,5.455322265625,-4.994873046875
0.1495,1.651611328125,4.534423828125,-5.475341796875
0.15,3.052978515625,3.533447265625,-5.995849609375
0.1505,4.134033203125,2.372314453125,-6.236083984375
0.151,4.734619140625,1.571533203125,-6.316162109375
0.1515,4.974853515625,0.890869140625,-6.115966796875
0.152,5.014892578125,0.010009765625,-5.515380859375
0.1525,5.014892578125,-1.271240234375,-4.754638671875
0.153,5.094970703125,-2.592529296875,-3.753662109375
0.1535,4.934814453125,-3.793701171875,-2.752685546875
0.154,4.814697265625,-4.514404296875,-1.951904296875
0.1545,4.294189453125,-4.954833984375,-1.151123046875
0.155,3.333251953125,-5.315185546875,0.130126953125
0.1555,2.372314453125,-5.755615234375,1.451416015625
0.156,1.291259765625,-6.115966796875,2.852783203125
0.1565,0.570556640625,-6.396240234375,3.853759765625
0.157,-0.310302734375,-6.396240234375,4.614501953125
0.1575,-1.391357421875,-5.755615234375,5.135009765625
0.158,-2.672607421875,-4.754638671875,5.615478515625
0.1585,-3.953857421875,-3.593505859375,6.015869140625
0.159,-4.874755859375,-2.552490234375,6.135986328125
0.1595,-5.275146484375,-1.871826171875,6.135986328125
0.16,-5.395263671875,-1.111083984375,5.775634765625
0.1605,-5.355224609375,-0.150146484375,4.974853515625
0.161,-5.395263671875,1.131103515625,4.134033203125
0.1615,-5.515380859375,2.412353515625,3.133056640625
0.162,-5.235107421875,3.453369140625,2.252197265625
0.1625,-4.954833984375,4.134033203125,1.411376953125
0.163,-4.274169921875,4.494384765625,0.530517578125
0.1635,-3.273193359375,4.854736328125,-0.790771484375
0.164,-2.272216796875,5.335205078125,-2.232177734375
0.1645,-1.311279296875,5.615478515625,-3.473388671875
0.165,-0.630615234375,5.895751953125,-4.394287109375
0.1655,0.370361328125,5.615478515625,-5.114990234375
0.166,1.571533203125,4.774658203125,-5.595458984375
0.1665,3.012939453125,3.693603515625,-6.075927734375
0.167,4.174072265625,2.452392578125,-6.356201171875
0.1675,4.934814453125,1.531494140625,-6.436279296875
0.168,5.255126953125,0.770751953125,-6.316162109375
0.1685,5.175048828125,-0.190185546875,-5.755615234375
0.169,5.135009765625,-1.311279296875,-4.834716796875
0.1695,5.135009765625,-2.752685546875,-3.833740234375
0.17,5.135009765625,-3.913818359375,-2.712646484375
0.1705,4.934814453125,-4.754638671875,-1.871826171875
0.171,4.414306640625,-5.275146484375,-1.031005859375
0.1715,3.453369140625,-5.515380859375,0.170166015625
0.172,2.372314453125,-5.915771484375,1.571533203125
0.1725,1.171142578125,-6.236083984375,3.052978515625
0.173,0.330322265625,-6.476318359375,4.093994140625
0.1735,-0.510498046875,-6.556396484375,4.934814453125
0.174,-1.471435546875,-5.955810546875,5.415283203125
0.1745,-2.832763671875,-4.834716796875,5.855712890625
0.175,-4.194091796875,-3.633544921875,6.296142578125
0.1755,-5.195068359375,-2.432373046875,6.416259765625
0.176,-5.675537109375,-1.631591796875,6.376220703125
0.1765,-5.755615234375,-0.910888671875,6.015869140625
0.177,-5.635498046875,0.210205078125,5.094970703125
0.1775,-5.635498046875,1.371337890625,4.134033203125
0.178,-5.555419921875,2.852783203125,2.972900390625
0.1785,-5.395263671875,3.933837890625,1.931884765625
0.179,-5.034912109375,4.574462890625,1.131103515625
0.1795,-4.314208984375,4.934814453125,0.250244140625
0.18,-3.233154296875,5.094970703125,-1.071044921875
0.1805,-2.072021484375,5.575439453125,-2.592529296875
0.181,-0.990966796875,5.775634765625,-3.913818359375
0.1815,-0.270263671875,6.015869140625,-4.874755859375
0.182,0.650634765625,5.855712890625,-5.595458984375
0.1825,1.891845703125,4.934814453125,-6.035888671875
0.183,3.333251953125,3.693603515625,-6.436279296875
0.1835,4.614501953125,2.372314453125,-6.716552734375
0.184,5.415283203125,1.251220703125,-6.716552734375
0.1845,5.695556640625,0.370361328125,-6.556396484375
0.185,5.655517578125,-0.550537109375,-5.955810546875
0.1855,5.415283203125,-1.791748046875,-4.914794921875
0.186,5.415283203125,-3.072998046875,-3.713623046875
0.1865,5.335205078125,-4.434326171875,-2.512451171875
0.187,5.054931640625,-5.315185546875,-1.551513671875
0.1875,4.494384765625,-5.795654296875,-0.710693359375
0.188,3.493408203125,-6.035888671875,0.490478515625
