wavelength,x,y,z
0.0,-6.6865234375,20.5400390625,-14.25390625
0.0005,-10.1298828125,20.8203125,-11.291015625
0.001,-14.2138671875,20.0595703125,-6.56640625
0.0015,-17.3369140625,19.138671875,-2.802734375
0.002,-19.7392578125,17.376953125,1.4013671875
0.0025,-21.1806640625,15.21484375,4.96484375
0.003,-21.3408203125,12.171875,8.087890625
0.0035,-21.6611328125,8.96875,11.611328125
0.004,-21.140625,4.6044921875,15.4951171875
0.0045,-20.01953125,0.6005859375,18.41796875
0.005,-17.9775390625,-3.0830078125,19.9794921875
0.0055,-15.85546875,-6.2861328125,21.140625
0.006,-12.5322265625,-9.529296875,21.1806640625
0.0065,-7.7275390625,-13.533203125,20.580078125
0.007,-3.603515625,-16.6162109375,19.7392578125
0.0075,1.201171875,-19.05859375,17.77734375
0.008,4.8046875,-20.3798828125,15.6953125
0.0085,7.767578125,-20.580078125,13.0927734375
0.009,11.0908203125,-20.740234375,10.169921875
0.0095,15.21484375,-19.8994140625,5.28515625
0.01,18.09765625,-18.4580078125,1.201171875
0.0105,19.859375,-16.65625,-2.4423828125
0.011,20.98046875,-14.4140625,-5.7255859375
0.0115,21.0205078125,-11.2509765625,-8.9287109375
0.012,20.98046875,-7.4072265625,-12.6923828125
0.0125,20.5,-3.7236328125,-15.8955078125
0.013,19.1787109375,0.400390625,-18.5380859375
0.0135,16.9765625,3.84375,-19.8994140625
0.014,14.3740234375,6.7666015625,-20.3798828125
0.0145,11.4111328125,9.9697265625,-20.740234375
0.015,6.0859375,14.2138671875,-19.8193359375
0.0155,2.001953125,16.9365234375,-18.658203125
0.016,-1.9619140625,18.818359375,-16.8564453125
0.0165,-5.4052734375,19.9794921875,-14.89453125
0.017,-8.5283203125,19.8994140625,-11.8515625
0.0175,-12.01171875,19.859375,-8.6083984375
0.018,-15.6552734375,19.21875,-4.4443359375
0.0185,-18.41796875,17.537109375,0.0
0.019,-19.859375,15.6552734375,3.283203125
0.0195,-20.66015625,13.2529296875,6.4462890625
0.02,-21.1005859375,10.2900390625,9.609375
0.0205,-20.6201171875,5.8857421875,13.7333984375
0.021,-19.8994140625,2.40234375,16.49609375
0.0215,-18.5380859375,-1.3212890625,18.73828125
0.022,-16.416015625,-4.724609375,20.1796875
0.0225,-13.3330078125,-7.7275390625,20.1796875
0.023,-10.08984375,-11.1708984375,20.4599609375
0.0235,-5.044921875,-15.0947265625,19.5390625
0.024,-0.48046875,-17.697265625,17.857421875
0.0245,2.9228515625,-19.1787109375,16.1357421875
0.025,6.24609375,-20.1396484375,14.1337890625
0.0255,9.44921875,-20.1396484375,11.0107421875
0.026,13.373046875,-19.5390625,6.7666015625
0.0265,16.5361328125,-18.8583984375,3.04296875
0.027,18.8984375,-17.056640625,-1.0810546875
0.0275,20.099609375,-15.0146484375,-4.2041015625
0.028,20.5,-12.251953125,-7.607421875
0.0285,20.7802734375,-9.208984375,-10.6904296875
0.029,20.3798828125,-4.8447265625,-14.6943359375
0.0295,19.2587890625,-1.0810546875,-17.2568359375
0.03,17.6171875,2.2822265625,-18.978515625
0.0305,15.4951171875,5.60546875,-20.2197265625
0.031,12.091796875,8.728515625,-20.0595703125
0.0315,7.927734375,12.4921875,-19.859375
0.032,3.6435546875,15.8955078125,-19.1787109375
0.0325,-1.041015625,18.177734375,-17.13671875
0.033,-4.1640625,19.298828125,-15.3349609375
0.0335,-7.3271484375,19.859375,-13.0126953125
0.034,-10.5703125,19.8994140625,-9.9296875
0.0345,-14.57421875,19.1787109375,-5.3251953125
0.035,-17.4970703125,17.9775390625,-1.3212890625
0.0355,-19.37890625,16.17578125,2.322265625
0.036,-20.3798828125,14.0537109375,5.365234375
0.0365,-20.5400390625,10.8505859375,8.6884765625
0.037,-20.6201171875,7.447265625,12.171875
0.0375,-20.33984375,3.5234375,15.615234375
0.038,-18.73828125,-0.48046875,18.177734375
0.0385,-16.736328125,-3.603515625,19.3388671875
0.039,-14.494140625,-6.7666015625,20.33984375
0.0395,-11.0107421875,-9.9697265625,20.2197265625
0.04,-6.1259765625,-13.93359375,19.37890625
0.0405,-1.9619140625,-16.7763671875,18.41796875
0.041,2.162109375,-18.73828125,16.49609375
0.0415,5.205078125,-19.619140625,14.4541015625
0.042,8.4482421875,-19.7392578125,11.5712890625
0.0425,11.8115234375,-19.619140625,8.328125
0.043,15.455078125,-18.8583984375,4.083984375
0.0435,18.017578125,-17.216796875,0.0
0.044,19.37890625,-15.4150390625,-3.203125
0.0445,20.1796875,-13.0927734375,-6.24609375
0.045,20.1796875,-9.9296875,-9.4091796875
0.0455,19.8994140625,-5.92578125,-13.0927734375
0.046,19.37890625,-2.5224609375,-16.015625
0.0465,17.857421875,1.2412109375,-18.2177734375
0.047,15.6552734375,4.2841796875,-19.138671875
0.0475,13.0126953125,7.3671875,-19.619140625
0.048,9.5693359375,10.73046875,-19.69921875
0.0485,4.7646484375,14.4140625,-18.7783203125
0.049,0.560546875,16.896484375,-17.296875
0.0495,-2.8427734375,18.41796875,-15.7353515625
0.05,-5.845703125,19.21875,-13.6533203125
0.0505,-9.0087890625,19.1787109375,-10.650390625
0.051,-12.6923828125,18.8583984375,-6.88671875
0.0515,-15.85546875,18.0576171875,-3.04296875
0.052,-18.1376953125,16.3359375,1.041015625
0.0525,-19.138671875,14.3740234375,3.84375
0.053,-19.7392578125,11.931640625,6.88671875
0.0535,-19.8994140625,8.8486328125,10.08984375
0.054,-19.4990234375,4.8046875,13.693359375
0.0545,-18.578125,1.3212890625,16.3359375
0.055,-17.056640625,-2.0419921875,18.177734375
0.0555,-14.9345703125,-5.0048828125,19.0986328125
0.056,-11.8515625,-8.087890625,19.1787109375
0.0565,-8.087890625,-11.7314453125,19.138671875
0.057,-3.603515625,-14.974609375,18.2978515625
0.0575,0.6005859375,-17.296875,16.3759765625
0.058,3.5234375,-18.337890625,14.8544921875
0.0585,6.56640625,-19.05859375,12.7724609375
0.059,9.8095703125,-18.9384765625,9.5693359375
0.0595,13.4130859375,-18.4580078125,5.60546875
0.06,16.3359375,-17.45703125,1.921875
0.0605,18.2978515625,-15.7353515625,-1.841796875
0.061,19.0185546875,-13.7333984375,-4.5244140625
0.0615,19.458984375,-10.890625,-7.767578125
0.062,19.5390625,-7.5673828125,-11.1708984375
0.0625,19.21875,-3.84375,-14.494140625
0.063,17.8173828125,-0.2001953125,-16.8564453125
0.0635,16.1357421875,2.6826171875,-18.3779296875
0.064,13.93359375,5.92578125,-19.0986328125
0.0645,10.5302734375,9.0087890625,-18.978515625
0.065,6.3662109375,12.65234375,-18.578125
0.0655,2.162109375,15.7353515625,-17.697265625
0.066,-1.8818359375,17.6572265625,-15.8154296875
0.0665,-4.64453125,18.41796875,-14.0537109375
0.067,-7.8076171875,18.9384765625,-11.5712890625
0.0675,-11.2509765625,18.73828125,-8.1279296875
0.068,-14.6943359375,18.09765625,-4.2041015625
0.0685,-17.2568359375,16.6962890625,-0.3603515625
0.069,-18.9384765625,14.974609375,3.04296875
0.0695,-19.5390625,12.732421875,5.8857421875
0.07,-19.859375,9.609375,9.2490234375
0.0705,-19.619140625,5.92578125,12.732421875
0.071,-19.21875,2.3623046875,15.85546875
0.0715,-17.537109375,-1.44140625,17.9775390625
0.072,-15.53515625,-4.32421875,18.9384765625
0.0725,-13.052734375,-7.4873046875,19.6591796875
0.073,-9.12890625,-11.05078125,19.37890625
0.0735,-4.8046875,-14.4140625,18.5380859375
0.074,-0.6005859375,-16.9765625,17.216796875
0.0745,3.203125,-18.658203125,15.4951171875
0.075,6.0458984375,-19.138671875,13.3330078125
0.0755,9.208984375,-19.37890625,10.5703125
0.076,12.97265625,-19.0185546875,6.646484375
0.0765,16.1357421875,-18.09765625,2.642578125
0.077,18.2978515625,-16.3759765625,-1.201171875
0.0775,19.4990234375,-14.4541015625,-4.2041015625
0.078,19.9794921875,-11.8515625,-7.287109375
0.0785,20.0595703125,-8.328125,-10.890625
0.079,19.6591796875,-4.64453125,-14.1337890625
0.0795,18.7783203125,-1.0009765625,-16.9765625
0.08,16.9765625,2.7626953125,-18.8583984375
0.0805,14.6142578125,5.525390625,-19.3388671875
0.081,11.8515625,8.6484375,-19.859375
0.0815,7.3671875,12.572265625,-19.5390625
0.082,3.0830078125,15.775390625,-18.5380859375
0.0825,-1.0810546875,17.8173828125,-16.736328125
0.083,-4.404296875,19.21875,-15.21484375
0.0835,-7.4072265625,19.4990234375,-12.572265625
0.084,-10.7705078125,19.4990234375,-9.2890625
0.0845,-14.4140625,19.0185546875,-5.4052734375
0.085,-17.45703125,17.697265625,-1.1611328125
0.0855,-19.4189453125,15.85546875,2.6826171875
0.086,-20.099609375,13.5732421875,5.5654296875
0.0865,-20.580078125,10.73046875,8.8486328125
0.087,-20.5,6.7666015625,12.732421875
0.0875,-19.8994140625,3.123046875,15.775390625
0.088,-18.5380859375,-0.640625,18.0576171875
0.0885,-16.65625,-4.2041015625,19.8193359375
0.089,-13.8134765625,-7.1669921875,20.0595703125
0.0895,-10.650390625,-10.41015625,20.1796875
0.09,-5.9658203125,-14.173828125,19.5791015625
0.0905,-1.3212890625,-17.2568359375,18.2177734375
0.091,2.642578125,-18.9384765625,16.255859375
0.0915,5.685546875,-19.859375,14.333984375
0.092,8.96875,-20.0595703125,11.5712890625
0.0925,12.65234375,-19.6591796875,7.5673828125
0.093,15.85546875,-18.978515625,3.84375
0.0935,18.5380859375,-17.4169921875,-0.3603515625
0.094,20.1796875,-15.4150390625,-4.00390625
0.0945,20.4599609375,-12.6923828125,-6.88671875
0.095,20.8203125,-9.76953125,-10.25
0.0955,20.4599609375,-5.4453125,-14.09375
0.096,19.6591796875,-1.681640625,-17.056640625
0.0965,17.857421875,1.921875,-18.8583984375
0.097,15.85546875,5.125,-20.1796875
0.0975,12.732421875,8.2880859375,-20.3798828125
0.098,8.6884765625,11.9716796875,-20.0595703125
0.0985,4.5244140625,15.294921875,-19.4189453125
0.099,-0.2802734375,18.0576171875,-17.6572265625
0.0995,-3.923828125,19.4990234375,-15.7353515625
0.1,-6.8466796875,19.939453125,-13.453125
0.1005,-10.0498046875,20.3798828125,-10.6103515625
0.101,-14.1337890625,19.4990234375,-6.1259765625
0.1015,-17.1767578125,18.4580078125,-2.2021484375
0.102,-19.298828125,16.6962890625,1.681640625
0.1025,-20.7001953125,14.6142578125,5.125
0.103,-20.8203125,11.611328125,8.16796875
0.1035,-20.98046875,8.248046875,11.771484375
0.104,-20.5,4.2841796875,15.21484375
0.1045,-19.37890625,0.240234375,18.09765625
0.105,-17.296875,-3.36328125,19.5791015625
0.1055,-15.0947265625,-6.3662109375,20.419921875
0.106,-12.0517578125,-9.5693359375,20.740234375
0.1065,-7.046875,-13.61328125,19.9794921875
0.107,-2.9228515625,-16.5361328125,19.05859375
0.1075,1.4814453125,-18.73828125,17.13671875
0.108,5.0048828125,-20.099609375,15.21484375
0.1085,7.927734375,-20.1396484375,12.4521484375
0.109,11.291015625,-20.2998046875,9.44921875
0.1095,15.294921875,-19.5390625,4.96484375
0.11,18.177734375,-18.09765625,0.6806640625
0.1105,19.859375,-16.2158203125,-2.8427734375
0.111,20.8203125,-13.9736328125,-6.0458984375
0.1115,20.98046875,-10.8505859375,-9.2890625
0.112,20.8203125,-6.7265625,-13.2529296875
0.1125,20.2998046875,-3.203125,-16.2158203125
0.113,18.8984375,0.80078125,-18.73828125
0.1135,16.65625,4.32421875,-20.259765625
0.114,13.853515625,7.3671875,-20.4599609375
0.1145,10.8505859375,10.6904296875,-20.8603515625
0.115,5.4853515625,14.89453125,-19.939453125
0.1155,1.041015625,17.697265625,-18.578125
0.116,-2.7626953125,19.37890625,-16.736328125
0.1165,-6.166015625,20.6201171875,-14.7744140625
0.117,-9.4892578125,20.4599609375,-11.53125
0.1175,-13.1728515625,20.1796875,-7.7275390625
0.118,-16.7763671875,19.4990234375,-3.603515625
0.1185,-19.7392578125,17.6171875,0.9609375
0.119,-20.900390625,15.615234375,4.3642578125
0.1195,-21.5009765625,12.9326171875,7.5673828125
0.12,-21.78125,9.8095703125,10.890625
0.1205,-21.30078125,5.0849609375,15.134765625
0.121,-20.33984375,1.3212890625,17.9375
0.1215,-18.6982421875,-2.4423828125,19.9794921875
0.122,-16.416015625,-5.92578125,21.4208984375
0.1225,-12.8525390625,-9.1689453125,21.140625
0.123,-9.1689453125,-12.7724609375,21.1806640625
0.1235,-4.1640625,-16.6162109375,20.2197265625
0.124,0.880859375,-19.21875,18.1376953125
0.1245,4.32421875,-20.5,16.2158203125
0.125,7.6875,-21.220703125,13.8935546875
0.1255,11.130859375,-21.140625,10.5302734375
0.126,15.1748046875,-20.33984375,5.8056640625
0.1265,18.2978515625,-19.2587890625,1.76171875
0.127,20.580078125,-17.296875,-2.4423828125
0.1275,21.5810546875,-14.89453125,-5.7255859375
0.128,21.701171875,-11.8515625,-9.2490234375
0.1285,21.861328125,-8.4482421875,-12.4921875
0.129,21.2607421875,-3.8837890625,-16.416015625
0.1295,19.69921875,0.2802734375,-19.0986328125
0.13,17.77734375,3.763671875,-20.5400390625
0.1305,15.3349609375,7.126953125,-21.62109375
0.131,11.4912109375,10.5302734375,-21.30078125
0.1315,6.88671875,14.4140625,-20.7802734375
0.132,2.482421875,17.6171875,-19.8193359375
0.1325,-2.4423828125,19.8994140625,-17.4970703125
0.133,-5.7255859375,20.7802734375,-15.4150390625
0.1335,-9.0087890625,21.1005859375,-12.572265625
0.134,-12.4521484375,20.98046875,-9.2890625
0.1345,-16.4560546875,19.939453125,-4.3642578125
0.135,-19.3388671875,18.3779296875,0.0400390625
0.1355,-21.1005859375,16.3359375,3.7236328125
0.136,-21.8212890625,13.8935546875,6.966796875
0.1365,-21.8212890625,10.25,10.490234375
0.137,-21.701171875,6.486328125,14.09375
0.1375,-21.1005859375,2.5625,17.4169921875
0.138,-19.1787109375,-1.8017578125,19.8994140625
0.1385,-16.9765625,-5.0849609375,20.9404296875
0.139,-14.3740234375,-8.328125,21.701171875
0.1395,-10.5703125,-11.7314453125,21.5009765625
0.14,-5.205078125,-15.7353515625,20.3798828125
0.1405,-0.8408203125,-18.5380859375,19.05859375
0.141,3.4033203125,-20.3798828125,16.9765625
0.1415,6.646484375,-21.1005859375,14.6943359375
0.142,10.169921875,-21.060546875,11.3310546875
0.1425,13.693359375,-20.8203125,7.7275390625
0.143,17.296875,-19.8193359375,3.2431640625
0.1435,19.939453125,-17.8173828125,-1.28125
0.144,21.140625,-15.775390625,-4.5244140625
0.1445,21.8212890625,-13.1328125,-7.84765625
0.145,21.78125,-9.5693359375,-11.291015625
0.1455,21.2607421875,-5.28515625,-15.21484375
0.146,20.4599609375,-1.44140625,-18.09765625
0.1465,18.6982421875,2.5625,-20.33984375
0.147,16.1357421875,5.845703125,-21.1005859375
0.1475,12.97265625,9.208984375,-21.4208984375
0.148,8.96875,12.9326171875,-21.30078125
0.1485,3.84375,16.65625,-20.1796875
0.149,-0.8408203125,19.138671875,-18.2177734375
0.1495,-4.3642578125,20.580078125,-16.416015625
0.15,-7.6474609375,21.1806640625,-13.9736328125
0.1505,-11.2109375,20.98046875,-10.3701171875
0.151,-15.0146484375,20.419921875,-6.166015625
0.1515,-18.2978515625,19.2587890625,-1.921875
0.152,-20.66015625,17.13671875,2.5625
0.1525,-21.5009765625,14.7744140625,5.685546875
0.153,-22.0615234375,11.771484375,9.208984375
0.1535,-22.0615234375,8.087890625,12.7724609375
0.154,-21.3408203125,3.763671875,16.5361328125
0.1545,-19.9794921875,-0.3203125,19.1787109375
0.155,-18.09765625,-4.00390625,21.060546875
0.1555,-15.4150390625,-7.2470703125,21.6611328125
0.156,-11.69140625,-10.7705078125,21.62109375
0.1565,-7.3271484375,-14.57421875,21.220703125
0.157,-2.322265625,-18.017578125,19.9794921875
0.1575,2.482421875,-20.1396484375,17.6171875
0.158,5.6455078125,-21.140625,15.6552734375
0.1585,9.0888671875,-21.62109375,12.892578125
0.159,12.8125,-21.140625,8.96875
0.1595,16.49609375,-20.3798828125,4.6044921875
0.16,19.4990234375,-18.9384765625,0.2802734375
0.1605,21.5009765625,-16.736328125,-3.923828125
0.161,21.94140625,-14.09375,-7.0068359375
0.1615,22.2216796875,-10.6904296875,-10.6904296875
0.162,21.9814453125,-6.6064453125,-14.4140625
0.1625,21.2607421875,-2.482421875,-17.8173828125
0.163,19.3388671875,1.7216796875,-20.01953125
0.1635,17.216796875,5.125,-21.4208984375
0.164,14.25390625,8.4482421875,-21.94140625
0.1645,10.08984375,12.1318359375,-21.541015625
0.165,5.4453125,15.8154296875,-20.7802734375
0.1655,0.6005859375,18.8984375,-19.298828125
0.166,-3.84375,20.7001953125,-17.0166015625
0.1665,-6.88671875,21.1806640625,-14.734375
0.167,-10.41015625,21.4609375,-11.69140625
0.1675,-14.25390625,20.8603515625,-7.4072265625
0.168,-17.6572265625,19.859375,-3.0830078125
0.1685,-20.2197265625,17.9375,1.28125
0.169,-21.8212890625,15.7353515625,5.0849609375
0.1695,-22.1416015625,12.8525390625,8.16796875
0.17,-22.2216796875,9.208984375,11.8916015625
0.1705,-21.701171875,5.0849609375,15.4951171875
0.171,-20.7802734375,1.0810546875,18.658203125
0.1715,-18.73828125,-3.123046875,20.7001953125
0.172,-16.2158203125,-6.166015625,21.4208984375
0.1725,-13.212890625,-9.529296875,21.861328125
0.173,-8.568359375,-13.373046875,21.2607421875
0.1735,-4.083984375,-16.65625,20.1796875
0.174,0.6806640625,-19.1787109375,18.2978515625
0.1745,4.64453125,-20.8203125,16.255859375
0.175,7.6875,-20.98046875,13.5732421875
0.1755,11.05078125,-21.1005859375,10.5302734375
0.176,15.0546875,-20.419921875,6.0859375
0.1765,18.2177734375,-19.21875,1.76171875
0.177,20.2998046875,-17.1767578125,-2.2822265625
0.1775,21.3408203125,-15.0146484375,-5.525390625
0.178,21.701171875,-11.8916015625,-8.8486328125
0.1785,21.62109375,-8.0078125,-12.6923828125
0.179,20.98046875,-4.1240234375,-15.935546875
0.1795,19.859375,-0.16015625,-18.73828125
0.18,17.7373046875,3.763671875,-20.5400390625
0.1805,14.974609375,6.6865234375,-20.8603515625
0.181,11.931640625,9.9697265625,-21.2607421875
0.1815,7.046875,14.09375,-20.900390625
0.182,2.482421875,17.296875,-19.458984375
0.1825,-1.841796875,19.21875,-17.45703125
0.183,-5.3251953125,20.6201171875,-15.53515625
0.1835,-8.48828125,20.740234375,-12.732421875
0.184,-12.0517578125,20.5,-9.12890625
0.1845,-15.7353515625,19.8994140625,-5.0048828125
0.185,-18.7783203125,18.41796875,-0.6005859375
0.1855,-20.7802734375,16.3359375,3.36328125
0.186,-21.3408203125,13.8935546875,6.40625
0.1865,-21.8212890625,10.8505859375,9.8896484375
0.187,-21.541015625,6.4462890625,14.0537109375
0.1875,-20.8603515625,2.6826171875,17.13671875
0.188,-19.298828125,-1.201171875,19.458984375
0.1885,-17.3369140625,-4.9248046875,21.140625
0.189,-14.173828125,-7.9677734375,21.2607421875
0.1895,-10.650390625,-11.4912109375,21.3408203125
0.19,-5.8056640625,-15.4150390625,20.6201171875
0.1905,-0.880859375,-18.4580078125,19.0185546875
0.191,3.1630859375,-20.1396484375,16.896484375
0.1915,6.3662109375,-21.0205078125,14.8544921875
0.192,9.849609375,-21.1806640625,11.8515625
0.1925,13.8134765625,-20.6201171875,7.3671875
0.193,17.0166015625,-19.939453125,3.5234375
0.1935,19.69921875,-18.1376953125,-0.8408203125
0.194,21.4208984375,-15.935546875,-4.6044921875
0.1945,21.62109375,-12.97265625,-7.7275390625
0.195,21.94140625,-9.76953125,-11.2509765625
0.1955,21.4609375,-5.205078125,-15.3349609375
0.196,20.5,-1.2412109375,-18.337890625
0.1965,18.5380859375,2.5224609375,-20.099609375
0.197,16.416015625,5.92578125,-21.4609375
0.1975,12.97265625,9.2490234375,-21.5009765625
0.198,8.48828125,13.1728515625,-21.1005859375
0.1985,4.244140625,16.576171875,-20.33984375
0.199,-0.9208984375,19.21875,-18.41796875
0.1995,-4.564453125,20.66015625,-16.3359375
0.2,-7.6474609375,21.0205078125,-13.8134765625
0.2005,-11.0908203125,21.2607421875,-10.810546875
0.201,-15.4150390625,20.33984375,-5.9658203125
0.2015,-18.4580078125,19.138671875,-1.6416015625
0.202,-20.5,17.2568359375,2.2822265625
0.2025,-21.861328125,14.974609375,5.8857421875
0.203,-21.861328125,11.6513671875,9.12890625
0.2035,-21.94140625,8.0078125,12.8525390625
0.204,-21.4208984375,3.923828125,16.416015625
0.2045,-20.01953125,-0.3603515625,19.2587890625
0.205,-17.7373046875,-4.00390625,20.7001953125
0.2055,-15.294921875,-7.126953125,21.4609375
0.206,-12.0517578125,-10.4501953125,21.6611328125
0.2065,-6.6865234375,-14.6943359375,20.7001953125
0.207,-2.5224609375,-17.5771484375,19.5791015625
0.2075,2.001953125,-19.69921875,17.5771484375
0.208,5.6455078125,-20.98046875,15.455078125
0.2085,8.80859375,-20.8203125,12.4521484375
0.209,12.171875,-20.98046875,9.2890625
0.2095,16.1357421875,-20.1796875,4.6044921875
0.21,19.05859375,-18.4580078125,0.16015625
0.2105,20.6201171875,-16.4560546875,-3.3232421875
0.211,21.5009765625,-14.0537109375,-6.6064453125
0.2115,21.62109375,-10.8505859375,-9.8095703125
0.212,21.3408203125,-6.486328125,-13.9736328125
0.2125,20.7001953125,-2.9228515625,-16.8564453125
0.213,19.21875,1.12109375,-19.37890625
0.2135,16.896484375,4.6845703125,-20.7001953125
0.214,13.8935546875,7.7275390625,-20.8203125
0.2145,10.73046875,11.05078125,-21.140625
0.215,5.4052734375,15.2548828125,-20.1796875
0.2155,0.8408203125,17.9775390625,-18.578125
0.216,-2.8427734375,19.5791015625,-16.81640625
0.2165,-6.2861328125,20.66015625,-14.734375
0.217,-9.5693359375,20.4599609375,-11.4912109375
0.2175,-13.3330078125,20.099609375,-7.52734375
0.218,-16.736328125,19.4189453125,-3.5634765625
0.2185,-19.37890625,17.5771484375,0.9208984375
