wavelength,x,y,z
0.0,17.4970703125,6.326171875,-23.0224609375
0.0005,13.93359375,9.609375,-22.7822265625
0.001,9.8896484375,13.212890625,-22.58203125
0.0015,5.044921875,17.13671875,-21.6611328125
0.002,-0.4404296875,20.2998046875,-19.69921875
0.0025,-4.564453125,21.9013671875,-17.45703125
0.003,-7.6474609375,22.4619140625,-15.2548828125
0.0035,-11.1708984375,22.5419921875,-12.01171875
0.004,-15.2548828125,21.62109375,-7.1669921875
0.0045,-18.578125,20.4599609375,-2.8828125
0.005,-21.2607421875,18.5380859375,1.76171875
0.0055,-22.982421875,16.3759765625,5.525390625
0.006,-22.90234375,13.0927734375,8.6884765625
0.0065,-22.8623046875,9.44921875,12.251953125
0.007,-22.2216796875,4.7646484375,16.4560546875
0.0075,-20.9404296875,0.16015625,19.779296875
0.008,-18.73828125,-3.923828125,21.701171875
0.0085,-16.6962890625,-7.1669921875,22.90234375
0.009,-13.1728515625,-10.6103515625,22.8623046875
0.0095,-8.2880859375,-14.6142578125,22.1015625
0.01,-3.68359375,-17.8974609375,21.060546875
0.0105,1.521484375,-20.66015625,18.978515625
0.011,5.365234375,-22.2216796875,16.9365234375
0.0115,8.3681640625,-22.2216796875,14.173828125
0.012,11.8115234375,-22.3017578125,11.0107421875
0.0125,16.1357421875,-21.30078125,5.92578125
0.013,19.37890625,-19.8193359375,1.28125
0.0135,21.541015625,-17.857421875,-2.7626953125
0.014,22.7822265625,-15.6953125,-6.1259765625
0.0145,22.6220703125,-12.2119140625,-9.44921875
0.015,22.3818359375,-7.9677734375,-13.533203125
0.0155,21.6611328125,-3.8037109375,-17.0166015625
0.016,20.1796875,0.7607421875,-20.0595703125
0.0165,17.9375,4.6845703125,-21.8212890625
0.017,15.21484375,7.7275390625,-22.3017578125
0.0175,12.0517578125,11.130859375,-22.501953125
0.018,6.40625,15.53515625,-21.4609375
0.0185,1.8818359375,18.5380859375,-20.099609375
0.019,-2.6025390625,20.7802734375,-18.1376953125
0.0195,-6.24609375,22.1416015625,-16.17578125
0.02,-9.4091796875,21.78125,-12.9326171875
0.0205,-12.9326171875,21.62109375,-9.4091796875
0.021,-16.9765625,20.7802734375,-4.724609375
0.0215,-20.0595703125,18.8583984375,0.240234375
0.022,-21.78125,16.896484375,3.84375
0.0225,-22.5419921875,14.4140625,7.046875
0.023,-22.4619140625,11.0908203125,10.3701171875
0.0235,-21.9814453125,6.2060546875,14.734375
0.024,-21.1005859375,2.2021484375,17.9375
0.0245,-19.458984375,-2.1220703125,20.5400390625
0.025,-17.3369140625,-5.845703125,22.2216796875
0.0255,-13.9736328125,-8.96875,22.0615234375
0.026,-10.650390625,-12.33203125,22.26171875
0.0265,-5.125,-16.576171875,21.1005859375
0.027,0.0,-19.4990234375,19.21875
0.0275,3.68359375,-21.1005859375,17.4169921875
0.028,7.046875,-22.1015625,15.294921875
0.0285,10.4501953125,-21.8212890625,11.8115234375
0.029,14.3740234375,-21.140625,7.4873046875
0.0295,17.8974609375,-20.259765625,3.203125
0.03,20.6201171875,-18.2578125,-1.4814453125
0.0305,22.021484375,-16.255859375,-4.8447265625
0.031,22.181640625,-13.212890625,-8.0478515625
0.0315,22.26171875,-9.9697265625,-11.4111328125
0.032,21.541015625,-5.0048828125,-15.6953125
0.0325,20.2998046875,-0.80078125,-18.73828125
0.033,18.498046875,3.04296875,-20.7802734375
0.0335,16.416015625,6.5263671875,-22.181640625
0.034,12.6123046875,9.8896484375,-21.7412109375
0.0345,8.48828125,13.5732421875,-21.5009765625
0.035,3.7236328125,17.296875,-20.6201171875
0.0355,-1.4814453125,19.9794921875,-18.41796875
0.036,-4.8046875,21.220703125,-16.576171875
0.0365,-8.0078125,21.701171875,-14.09375
0.037,-11.37109375,21.5810546875,-10.890625
0.0375,-15.5751953125,20.580078125,-5.845703125
0.038,-18.73828125,19.2587890625,-1.521484375
0.0385,-20.900390625,17.376953125,2.5224609375
0.039,-21.94140625,15.2548828125,5.685546875
0.0395,-21.8212890625,11.8115234375,8.96875
0.04,-21.78125,8.16796875,12.5322265625
0.0405,-21.140625,3.68359375,16.4560546875
0.041,-19.5390625,-0.80078125,19.2587890625
0.0415,-17.537109375,-4.2041015625,20.7802734375
0.042,-15.4150390625,-7.3271484375,21.78125
0.0425,-11.69140625,-10.5703125,21.4609375
0.043,-6.646484375,-14.6142578125,20.6201171875
0.0435,-2.2822265625,-17.77734375,19.5390625
0.044,2.2822265625,-19.9794921875,17.5771484375
0.0445,5.4453125,-21.0205078125,15.6953125
0.045,8.6083984375,-21.0205078125,12.8125
0.0455,11.8916015625,-20.9404296875,9.609375
0.046,15.935546875,-19.939453125,4.7646484375
0.0465,18.818359375,-18.2578125,0.2802734375
0.047,20.4599609375,-16.5361328125,-3.0830078125
0.0475,21.220703125,-14.25390625,-6.1259765625
0.048,21.0205078125,-10.970703125,-9.1689453125
0.0485,20.66015625,-6.806640625,-13.1328125
0.049,20.0595703125,-2.9228515625,-16.49609375
0.0495,18.5380859375,1.3212890625,-19.05859375
0.05,16.49609375,4.564453125,-20.33984375
0.0505,13.7734375,7.6474609375,-20.7001953125
0.051,10.490234375,10.8505859375,-20.7802734375
0.0515,5.2451171875,14.9345703125,-19.7392578125
0.052,0.8408203125,17.7373046875,-18.2578125
0.0525,-2.8427734375,19.4990234375,-16.6962890625
0.053,-5.765625,20.4599609375,-14.7744140625
0.0535,-9.12890625,20.1796875,-11.611328125
0.054,-12.6123046875,19.8994140625,-7.9677734375
0.0545,-16.17578125,19.05859375,-3.763671875
0.055,-18.73828125,17.216796875,0.640625
0.0555,-20.01953125,15.53515625,3.4833984375
0.056,-20.5,12.9326171875,6.56640625
0.0565,-20.5,9.76953125,9.6494140625
0.057,-19.9794921875,5.2451171875,13.7333984375
0.0575,-19.0986328125,1.44140625,16.736328125
0.058,-17.6572265625,-2.2421875,18.978515625
0.0585,-15.6953125,-5.28515625,20.099609375
0.059,-12.5322265625,-8.328125,20.01953125
0.0595,-8.96875,-11.8115234375,20.0595703125
0.06,-4.1240234375,-15.53515625,19.138671875
0.0605,0.4404296875,-17.9375,17.296875
0.061,3.3232421875,-19.2587890625,15.935546875
0.0615,6.24609375,-20.2197265625,13.7734375
0.062,9.44921875,-19.7392578125,10.6904296875
0.0625,13.29296875,-19.1787109375,6.40625
0.063,16.4560546875,-18.2177734375,2.5224609375
0.0635,18.658203125,-16.49609375,-1.4013671875
0.064,19.5390625,-14.7744140625,-4.00390625
0.0645,19.7392578125,-11.8916015625,-7.0869140625
0.065,19.69921875,-8.6884765625,-10.41015625
0.0655,19.3388671875,-4.4443359375,-14.173828125
0.066,18.0576171875,-0.5205078125,-16.8564453125
0.0665,16.6162109375,2.72265625,-18.578125
0.067,14.5341796875,5.7255859375,-19.5791015625
0.0675,11.291015625,8.728515625,-19.4189453125
0.068,7.126953125,12.4921875,-19.0986328125
0.0685,2.8828125,15.7353515625,-18.2978515625
0.069,-1.4013671875,17.9375,-16.416015625
0.0695,-4.0439453125,18.8984375,-14.974609375
0.07,-7.0869140625,19.2587890625,-12.572265625
0.0705,-10.25,19.1787109375,-9.4892578125
0.071,-14.013671875,18.41796875,-5.1650390625
0.0715,-16.81640625,17.13671875,-1.2412109375
0.072,-18.6181640625,15.615234375,2.08203125
0.0725,-19.5791015625,13.5732421875,4.8447265625
0.073,-19.37890625,10.5703125,7.8076171875
0.0735,-19.2587890625,6.966796875,11.37109375
0.074,-18.8583984375,3.123046875,14.8544921875
0.0745,-17.4169921875,-0.8408203125,17.3369140625
0.075,-15.8955078125,-3.68359375,18.658203125
0.0755,-13.4931640625,-6.6865234375,19.37890625
0.076,-10.2099609375,-9.8095703125,19.2587890625
0.0765,-5.5654296875,-13.533203125,18.5380859375
0.077,-1.44140625,-16.3759765625,17.4169921875
0.0775,2.2421875,-18.2578125,15.935546875
0.078,4.884765625,-18.9384765625,14.173828125
0.0785,7.9677734375,-19.0986328125,11.451171875
0.079,11.451171875,-18.9384765625,8.0078125
0.0795,14.8544921875,-18.1376953125,3.8837890625
0.08,17.3369140625,-16.6162109375,0.0
0.0805,18.73828125,-15.21484375,-2.8427734375
0.081,19.21875,-12.7724609375,-5.765625
0.0815,19.1787109375,-9.6494140625,-8.80859375
0.082,18.8583984375,-5.6455078125,-12.4521484375
0.0825,18.2177734375,-1.9619140625,-15.53515625
0.083,16.7763671875,1.7216796875,-17.77734375
0.0835,14.9345703125,4.484375,-18.658203125
0.084,12.251953125,7.4873046875,-19.0986328125
0.0845,8.6083984375,11.0107421875,-19.05859375
0.085,4.083984375,14.5341796875,-18.2177734375
0.0855,-0.16015625,16.9365234375,-16.65625
0.086,-3.1630859375,18.498046875,-15.4150390625
0.0865,-5.9658203125,18.9384765625,-13.29296875
0.087,-9.0087890625,18.8583984375,-10.330078125
0.0875,-12.65234375,18.5380859375,-6.56640625
0.088,-15.85546875,17.4970703125,-2.5224609375
0.0885,-18.09765625,15.85546875,1.3212890625
0.089,-18.9384765625,14.173828125,3.84375
0.0895,-19.37890625,11.53125,6.88671875
0.09,-19.2587890625,8.0478515625,10.2900390625
0.0905,-18.8583984375,4.1240234375,13.8134765625
0.091,-17.77734375,0.4404296875,16.49609375
0.0915,-16.416015625,-3.0029296875,18.5380859375
0.092,-14.2138671875,-5.765625,19.138671875
0.0925,-11.2509765625,-8.728515625,19.21875
0.093,-7.126953125,-12.412109375,18.9384765625
0.0935,-2.6025390625,-15.6953125,17.8974609375
0.094,1.44140625,-17.7373046875,16.1357421875
0.0945,4.083984375,-18.7783203125,14.7744140625
0.095,7.046875,-19.21875,12.412109375
0.0955,10.3701171875,-18.8583984375,8.96875
0.096,13.8134765625,-18.337890625,5.125
0.0965,16.65625,-17.056640625,1.201171875
0.097,18.4580078125,-15.5751953125,-2.4423828125
0.0975,19.0185546875,-13.3330078125,-4.96484375
0.098,19.21875,-10.5302734375,-7.9677734375
0.0985,19.0185546875,-6.7265625,-11.5712890625
0.099,18.5380859375,-2.9228515625,-14.9345703125
0.0995,17.0966796875,0.7607421875,-17.13671875
0.1,15.6552734375,3.68359375,-18.658203125
0.1005,13.1328125,6.646484375,-19.0986328125
0.101,9.6494140625,9.849609375,-18.9384765625
0.1015,5.60546875,13.2529296875,-18.4580078125
0.102,1.201171875,16.255859375,-17.1767578125
0.1025,-2.5625,18.0576171875,-15.53515625
0.103,-5.0048828125,18.6181640625,-13.853515625
0.1035,-8.0078125,18.9384765625,-11.4111328125
0.104,-11.611328125,18.498046875,-7.52734375
0.1045,-14.814453125,17.697265625,-3.7236328125
0.105,-17.1767578125,16.255859375,0.16015625
0.1055,-18.818359375,14.7744140625,3.123046875
0.106,-19.05859375,12.2919921875,5.845703125
0.1065,-19.1787109375,9.208984375,9.048828125
0.107,-18.8583984375,5.4453125,12.5322265625
0.1075,-18.1376953125,1.5615234375,15.7353515625
0.108,-16.6162109375,-2.0419921875,17.77734375
0.1085,-14.9345703125,-4.6044921875,18.6982421875
0.109,-12.33203125,-7.607421875,19.1787109375
0.1095,-8.2880859375,-11.1708984375,18.7783203125
0.11,-4.1640625,-14.2939453125,17.9775390625
0.1105,0.0,-16.6962890625,16.5361328125
0.111,3.2431640625,-18.41796875,15.134765625
0.1115,5.8857421875,-18.6181640625,12.97265625
0.112,8.80859375,-18.8583984375,10.41015625
0.1125,12.5322265625,-18.4580078125,6.40625
0.113,15.615234375,-17.376953125,2.3623046875
0.1135,17.697265625,-15.775390625,-1.201171875
0.114,18.818359375,-14.173828125,-3.84375
0.1145,19.05859375,-11.4912109375,-6.806640625
0.115,19.0185546875,-7.927734375,-10.330078125
0.1155,18.6181640625,-4.3642578125,-13.533203125
0.116,17.6171875,-0.560546875,-16.3759765625
0.1165,15.9755859375,2.8427734375,-18.2978515625
0.117,13.8134765625,5.525390625,-18.658203125
0.1175,11.291015625,8.4482421875,-19.138671875
0.118,6.6865234375,12.33203125,-18.6181640625
0.1185,2.482421875,15.375,-17.5771484375
0.119,-1.28125,17.3369140625,-16.015625
0.1195,-4.32421875,18.7783203125,-14.654296875
0.12,-7.1669921875,18.818359375,-12.0517578125
0.1205,-10.330078125,18.658203125,-8.9287109375
0.121,-13.8935546875,18.2177734375,-5.1650390625
0.1215,-16.6962890625,16.896484375,-1.0009765625
0.122,-18.578125,15.294921875,2.482421875
0.1225,-19.21875,13.1728515625,5.044921875
0.123,-19.4990234375,10.5302734375,8.0478515625
0.1235,-19.21875,6.326171875,12.01171875
0.124,-18.73828125,2.6025390625,15.1748046875
0.1245,-17.3369140625,-1.0009765625,17.3369140625
0.125,-15.8955078125,-4.244140625,19.2587890625
0.1255,-13.0126953125,-7.046875,19.2587890625
0.126,-9.9296875,-10.1298828125,19.37890625
0.1265,-5.4453125,-13.8935546875,18.7783203125
0.127,-0.880859375,-16.7763671875,17.296875
0.1275,2.5625,-18.41796875,15.7353515625
0.128,5.3251953125,-19.298828125,14.09375
0.1285,8.3681640625,-19.4990234375,11.4111328125
0.129,12.1318359375,-18.9384765625,7.287109375
0.1295,15.21484375,-18.2177734375,3.68359375
0.13,17.77734375,-16.6962890625,-0.3203125
0.1305,19.37890625,-15.0947265625,-3.5634765625
0.131,19.4990234375,-12.412109375,-6.2861328125
0.1315,19.7392578125,-9.4892578125,-9.44921875
0.132,19.37890625,-5.2451171875,-13.3330078125
0.1325,18.41796875,-1.3212890625,-16.3759765625
0.133,16.81640625,2.162109375,-18.2578125
0.1335,15.21484375,5.125,-19.619140625
0.134,12.1318359375,8.16796875,-19.6591796875
0.1345,8.0078125,11.771484375,-19.2587890625
0.135,4.00390625,15.0146484375,-18.6181640625
0.1355,-0.6005859375,17.6171875,-16.81640625
0.136,-3.84375,19.05859375,-15.3349609375
0.1365,-6.56640625,19.3388671875,-13.0927734375
0.137,-9.6494140625,19.5390625,-10.5703125
0.1375,-13.6533203125,18.8583984375,-5.92578125
0.138,-16.65625,17.697265625,-1.9619140625
0.1385,-18.6181640625,16.1357421875,1.6416015625
0.139,-19.939453125,14.3740234375,4.6044921875
0.1395,-19.8994140625,11.37109375,7.607421875
0.14,-19.8994140625,7.8076171875,11.1708984375
0.1405,-19.4990234375,3.923828125,14.654296875
0.141,-18.2578125,-0.2802734375,17.5771484375
0.1415,-16.4560546875,-3.603515625,19.21875
0.142,-14.333984375,-6.4462890625,19.9794921875
0.1425,-11.4111328125,-9.529296875,20.1796875
0.143,-6.3662109375,-13.61328125,19.3388671875
0.1435,-2.1220703125,-16.6162109375,18.2578125
0.144,1.841796875,-18.658203125,16.65625
0.1445,5.0048828125,-19.9794921875,15.0146484375
0.145,7.9677734375,-19.8994140625,12.1318359375
0.1455,11.2109375,-19.859375,9.12890625
0.146,15.1748046875,-19.0986328125,4.724609375
0.1465,18.0576171875,-17.4970703125,0.2802734375
0.147,19.6591796875,-15.8955078125,-2.962890625
0.1475,20.4599609375,-13.693359375,-5.92578125
0.148,20.419921875,-10.6103515625,-8.96875
0.1485,20.099609375,-6.24609375,-13.0927734375
0.149,19.458984375,-2.5224609375,-16.17578125
0.1495,17.9775390625,1.521484375,-18.73828125
0.15,16.095703125,4.8447265625,-20.1796875
0.1505,13.052734375,7.84765625,-20.259765625
0.151,10.009765625,11.05078125,-20.5
0.1515,4.724609375,15.21484375,-19.4990234375
0.152,0.080078125,17.9375,-17.8173828125
0.1525,-3.36328125,19.4990234375,-16.255859375
0.153,-6.486328125,20.5,-14.3740234375
0.1535,-9.7294921875,20.1796875,-11.05078125
0.154,-13.3330078125,19.779296875,-7.1669921875
0.1545,-16.736328125,18.8984375,-3.0830078125
0.155,-19.37890625,17.0166015625,1.44140625
0.1555,-20.580078125,15.21484375,4.4443359375
0.156,-20.900390625,12.412109375,7.52734375
0.1565,-20.900390625,9.2490234375,10.6103515625
0.157,-20.259765625,4.5244140625,14.7744140625
0.1575,-19.0986328125,0.560546875,17.6572265625
0.158,-17.4970703125,-3.0830078125,19.69921875
0.1585,-15.53515625,-6.2861328125,20.900390625
0.159,-11.8916015625,-9.4091796875,20.5
0.1595,-8.2080078125,-12.8525390625,20.5
0.16,-3.36328125,-16.6162109375,19.4189453125
0.1605,1.521484375,-18.978515625,17.2568359375
0.161,4.484375,-20.0595703125,15.6552734375
0.1615,7.52734375,-20.66015625,13.373046875
0.162,10.6904296875,-20.3798828125,10.2099609375
0.1625,14.654296875,-19.5390625,5.60546875
0.163,17.697265625,-18.41796875,1.4814453125
0.1635,19.859375,-16.6162109375,-2.4423828125
0.164,20.7001953125,-14.57421875,-5.28515625
0.1645,20.66015625,-11.37109375,-8.48828125
0.165,20.580078125,-7.9677734375,-11.8115234375
0.1655,19.9794921875,-3.6435546875,-15.5751953125
0.166,18.4580078125,0.640625,-18.2578125
0.1665,16.6962890625,3.84375,-19.779296875
0.167,14.4541015625,6.966796875,-20.7001953125
0.1675,10.890625,9.9296875,-20.4599609375
0.168,6.326171875,13.8935546875,-19.7392578125
0.1685,2.0419921875,17.0166015625,-18.73828125
0.169,-2.5224609375,19.2587890625,-16.736328125
0.1695,-5.3251953125,20.1796875,-15.0546875
0.17,-8.48828125,20.33984375,-12.251953125
0.1705,-11.771484375,20.1396484375,-9.048828125
0.171,-15.6552734375,19.21875,-4.4443359375
0.1715,-18.5380859375,17.6171875,0.0
0.172,-20.1796875,15.935546875,3.3232421875
0.1725,-20.8603515625,13.61328125,6.2861328125
0.173,-20.7001953125,10.2099609375,9.4892578125
0.1735,-20.419921875,6.2861328125,13.1728515625
0.174,-19.8193359375,2.2421875,16.65625
0.1745,-18.09765625,-1.9619140625,19.1787109375
0.175,-16.17578125,-5.0048828125,20.33984375
0.1755,-13.453125,-8.1279296875,20.7802734375
0.176,-9.8896484375,-11.53125,20.66015625
0.1765,-4.8046875,-15.4150390625,19.5791015625
0.177,-0.400390625,-18.09765625,18.177734375
0.1775,3.4833984375,-19.9794921875,16.4560546875
0.178,6.40625,-20.66015625,14.4140625
0.1785,9.7294921875,-20.5400390625,11.2109375
0.179,13.3330078125,-20.2197265625,7.4873046875
0.1795,16.9365234375,-19.37890625,2.8828125
0.18,19.4990234375,-17.296875,-1.44140625
0.1805,20.7802734375,-15.53515625,-4.404296875
0.181,21.2607421875,-12.7724609375,-7.6474609375
0.1815,21.060546875,-9.12890625,-11.05078125
0.182,20.4599609375,-4.8046875,-14.8544921875
0.1825,19.458984375,-0.80078125,-17.8974609375
0.183,17.697265625,3.2431640625,-20.1796875
0.1835,15.4150390625,6.2861328125,-20.8203125
0.184,12.171875,9.529296875,-21.0205078125
0.1845,8.087890625,13.1728515625,-20.8203125
0.185,3.04296875,16.896484375,-19.619140625
0.1855,-1.6015625,19.21875,-17.5771484375
0.186,-4.9248046875,20.740234375,-16.015625
0.1865,-8.087890625,21.140625,-13.4931640625
0.187,-11.611328125,20.7802734375,-9.9697265625
0.1875,-15.2548828125,20.1796875,-5.765625
0.188,-18.578125,18.8583984375,-1.2412109375
0.1885,-20.8203125,16.7763671875,3.123046875
0.189,-21.5810546875,14.654296875,5.92578125
0.1895,-21.861328125,11.4912109375,9.4091796875
0.19,-21.541015625,7.447265625,13.0927734375
0.1905,-20.7802734375,3.04296875,16.7763671875
0.191,-19.1787109375,-1.201171875,19.37890625
0.1915,-17.4169921875,-5.0048828125,21.4208984375
0.192,-14.6142578125,-8.0078125,21.7412109375
0.1925,-10.9306640625,-11.4111328125,21.5810546875
0.193,-6.40625,-15.21484375,20.9404296875
0.1935,-1.28125,-18.578125,19.4990234375
0.194,3.2431640625,-20.6201171875,17.296875
0.1945,6.24609375,-21.541015625,15.455078125
0.195,9.689453125,-21.8212890625,12.4921875
0.1955,13.3330078125,-21.140625,8.4482421875
0.196,16.9365234375,-20.259765625,4.083984375
0.1965,19.8994140625,-18.578125,-0.5205078125
0.197,21.9013671875,-16.5361328125,-4.484375
0.1975,22.1416015625,-13.853515625,-7.3671875
0.198,22.1416015625,-10.41015625,-10.890625
0.1985,21.62109375,-6.0458984375,-14.7744140625
0.199,20.740234375,-1.6416015625,-18.2578125
0.1995,18.6982421875,2.482421875,-20.4599609375
0.2,16.81640625,5.92578125,-21.9814453125
0.2005,13.61328125,9.2490234375,-22.1416015625
0.201,9.2890625,12.9326171875,-21.6611328125
0.2015,4.724609375,16.49609375,-20.7802734375
0.202,-0.4404296875,19.5791015625,-19.05859375
0.2025,-4.64453125,21.4208984375,-16.9365234375
0.203,-7.52734375,21.8212890625,-14.6943359375
0.2035,-10.970703125,21.94140625,-11.611328125
0.204,-15.0546875,21.140625,-6.9267578125
0.2045,-18.41796875,19.939453125,-2.482421875
0.205,-20.900390625,18.017578125,1.921875
0.2055,-22.58203125,16.015625,5.525390625
0.206,-22.58203125,12.8125,8.6884765625
0.2065,-22.4619140625,9.048828125,12.6123046875
0.207,-21.78125,4.6044921875,16.2158203125
0.2075,-20.5400390625,0.0400390625,19.4990234375
0.208,-18.3779296875,-4.1640625,21.5810546875
0.2085,-16.17578125,-7.20703125,22.421875
0.209,-12.8125,-10.6904296875,22.662109375
0.2095,-7.7275390625,-14.7744140625,21.8212890625
0.21,-3.0830078125,-18.017578125,20.6201171875
0.2105,1.841796875,-20.580078125,18.578125
0.211,5.7255859375,-22.26171875,16.65625
0.2115,8.7685546875,-22.1416015625,13.7333984375
0.212,12.251953125,-22.1416015625,10.490234375
0.2125,16.4560546875,-21.2607421875,5.60546875
0.213,19.779296875,-19.6591796875,0.7607421875
0.2135,21.8212890625,-17.5771484375,-3.36328125
0.214,22.90234375,-15.3349609375,-6.646484375
0.2145,22.7421875,-11.8916015625,-10.009765625
0.215,22.3017578125,-7.5673828125,-14.2138671875
0.2155,21.701171875,-3.283203125,-17.4970703125
0.216,20.099609375,1.2412109375,-20.5
0.2165,17.8974609375,5.3251953125,-22.3818359375
0.217,14.814453125,8.4482421875,-22.501953125
0.2175,11.5712890625,11.8515625,-22.822265625
0.218,5.92578125,16.2958984375,-21.7412109375
0.2185,1.0810546875,19.3388671875,-20.1796875
