wavelength,x,y,z
0.0,26.756103515625,-11.481201171875,-15.324951171875
0.0005,24.153564453125,-5.875732421875,-18.327880859375
0.001,22.311767578125,-2.312255859375,-20.049560546875
0.0015,19.388916015625,3.213134765625,-22.652099609375
0.002,17.306884765625,8.898681640625,-26.215576171875
0.0025,12.502197265625,13.302978515625,-25.895263671875
0.003,9.739501953125,16.546142578125,-26.415771484375
0.0035,4.334228515625,18.427978515625,-23.012451171875
0.004,-0.390380859375,20.870361328125,-20.850341796875
0.0045,-5.755615234375,23.232666015625,-18.007568359375
0.005,-11.281005859375,25.474853515625,-14.724365234375
0.0055,-14.764404296875,25.594970703125,-11.401123046875
0.006,-18.367919921875,23.873291015625,-6.035888671875
0.0065,-19.689208984375,21.871337890625,-2.712646484375
0.007,-22.692138671875,19.388916015625,2.892822265625
0.0075,-25.334716796875,16.946533203125,8.057861328125
0.008,-25.574951171875,12.502197265625,12.742431640625
0.0085,-26.335693359375,10.179931640625,15.745361328125
0.009,-23.132568359375,4.494384765625,18.187744140625
0.0095,-21.490966796875,0.930908203125,20.109619140625
0.01,-18.848388671875,-4.514404296875,22.872314453125
0.0105,-16.285888671875,-10.119873046875,25.995361328125
0.011,-12.121826171875,-13.723388671875,25.514892578125
0.0115,-8.197998046875,-17.006591796875,24.954345703125
0.012,-3.553466796875,-18.367919921875,21.791259765625
0.0125,1.651611328125,-21.210693359375,19.549072265625
0.013,6.696533203125,-23.693115234375,17.026611328125
0.0135,12.302001953125,-25.294677734375,13.062744140625
0.014,15.184814453125,-25.374755859375,10.340087890625
0.0145,18.628173828125,-22.812255859375,4.294189453125
0.015,20.029541015625,-21.250732421875,1.291259765625
0.0155,23.432861328125,-18.928466796875,-4.554443359375
0.016,25.594970703125,-16.245849609375,-9.439208984375
0.0165,25.635009765625,-12.001708984375,-13.723388671875
0.017,25.795166015625,-9.078857421875,-16.766357421875
0.0175,22.471923828125,-3.633544921875,-18.928466796875
0.018,20.710205078125,0.690673828125,-21.410888671875
0.0185,18.267822265625,5.895751953125,-24.173583984375
0.019,14.864501953125,11.661376953125,-26.615966796875
0.0195,11.140869140625,14.624267578125,-25.895263671875
0.02,6.095947265625,18.067626953125,-24.333740234375
0.0205,1.971923828125,19.228759765625,-21.571044921875
0.021,-3.873779296875,22.672119140625,-19.208740234375
0.0215,-8.718505859375,24.513916015625,-16.365966796875
0.022,-13.963623046875,25.795166015625,-12.322021484375
0.0225,-16.806396484375,25.194580078125,-8.958740234375
0.023,-19.889404296875,22.431884765625,-3.072998046875
0.0235,-21.531005859375,20.469970703125,0.610595703125
0.024,-24.934326171875,18.187744140625,6.376220703125
0.0245,-26.295654296875,14.664306640625,11.301025390625
0.025,-26.135498046875,10.540283203125,15.184814453125
0.0255,-25.214599609375,6.736572265625,17.987548828125
0.026,-22.091552734375,1.771728515625,19.949462890625
0.0265,-20.089599609375,-3.353271484375,23.032470703125
0.027,-17.326904296875,-8.197998046875,25.114501953125
0.0275,-13.763427734375,-13.723388671875,27.156494140625
0.028,-9.599365234375,-16.406005859375,25.795166015625
0.0285,-4.154052734375,-19.368896484375,23.352783203125
0.029,0.250244140625,-20.690185546875,20.469970703125
0.0295,6.216064453125,-24.373779296875,18.307861328125
0.03,10.980712890625,-25.334716796875,14.424072265625
0.0305,15.625244140625,-26.295654296875,10.860595703125
0.031,18.227783203125,-24.614013671875,6.456298828125
0.0315,21.070556640625,-22.131591796875,1.131103515625
0.032,23.232666015625,-19.729248046875,-3.593505859375
0.0325,26.075439453125,-17.366943359375,-8.798583984375
0.033,27.036376953125,-13.523193359375,-13.603271484375
0.0335,26.395751953125,-9.479248046875,-17.046630859375
0.034,24.473876953125,-5.195068359375,-19.328857421875
0.0345,21.430908203125,0.010009765625,-21.410888671875
0.035,19.468994140625,5.415283203125,-24.894287109375
0.0355,15.745361328125,10.380126953125,-26.135498046875
0.036,12.662353515625,14.904541015625,-27.737060546875
0.0365,7.577392578125,17.627197265625,-25.414794921875
0.037,2.532470703125,20.149658203125,-23.012451171875
0.0375,-2.392333984375,21.791259765625,-19.889404296875
0.038,-8.117919921875,25.474853515625,-17.927490234375
0.0385,-12.922607421875,25.635009765625,-13.322998046875
0.039,-16.806396484375,26.195556640625,-9.919677734375
0.0395,-19.048583984375,23.673095703125,-5.155029296875
0.04,-21.571044921875,21.430908203125,-0.350341796875
0.0405,-24.293701171875,18.868408203125,5.094970703125
0.041,-26.135498046875,15.825439453125,9.899658203125
0.0415,-26.976318359375,12.422119140625,14.103759765625
0.042,-25.494873046875,7.617431640625,17.507080078125
0.0425,-23.572998046875,3.853759765625,19.388916015625
0.043,-20.530029296875,-1.471435546875,21.591064453125
0.0435,-18.848388671875,-6.876708984375,25.314697265625
0.044,-14.323974609375,-11.721435546875,25.715087890625
0.0445,-11.841552734375,-15.405029296875,26.956298828125
0.045,-6.276123046875,-17.807373046875,23.873291015625
0.0455,-1.671630859375,-20.089599609375,21.631103515625
0.046,3.533447265625,-22.091552734375,18.588134765625
0.0465,8.978759765625,-25.174560546875,16.385986328125
0.047,13.383056640625,-25.374755859375,12.181884765625
0.0475,17.026611328125,-25.014404296875,8.097900390625
0.048,18.868408203125,-22.732177734375,3.973876953125
0.0485,21.591064453125,-20.570068359375,-1.071044921875
0.049,24.634033203125,-18.327880859375,-6.396240234375
0.0495,25.594970703125,-14.644287109375,-11.080810546875
0.05,26.635986328125,-12.081787109375,-14.604248046875
0.0505,24.193603515625,-6.596435546875,-17.647216796875
0.051,22.471923828125,-3.072998046875,-19.408935546875
0.0515,19.709228515625,2.412353515625,-22.051513671875
0.052,17.907470703125,7.897705078125,-25.815185546875
0.0525,13.182861328125,12.462158203125,-25.775146484375
0.053,10.540283203125,15.785400390625,-26.495849609375
0.0535,5.094970703125,17.747314453125,-23.092529296875
0.054,0.490478515625,20.229736328125,-21.090576171875
0.0545,-4.914794921875,22.792236328125,-18.327880859375
0.055,-10.400146484375,25.314697265625,-15.445068359375
0.0555,-14.203857421875,25.594970703125,-12.041748046875
0.056,-17.767333984375,24.073486328125,-6.796630859375
0.0565,-19.248779296875,22.031494140625,-3.353271484375
0.057,-22.411865234375,19.709228515625,2.292236328125
0.0575,-25.334716796875,17.346923828125,7.537353515625
0.058,-25.855224609375,13.022705078125,12.462158203125
0.0585,-26.736083984375,10.740478515625,15.545166015625
0.059,-23.532958984375,4.854736328125,18.227783203125
0.0595,-21.851318359375,1.291259765625,20.189697265625
0.06,-19.168701171875,-4.434326171875,23.112548828125
0.0605,-16.806396484375,-10.079833984375,26.475830078125
0.061,-12.322021484375,-14.003662109375,26.035400390625
0.0615,-8.678466796875,-17.246826171875,25.675048828125
0.062,-3.473388671875,-18.848388671875,22.151611328125
0.0625,1.771728515625,-21.771240234375,19.989501953125
0.063,7.056884765625,-24.253662109375,17.306884765625
0.0635,12.862548828125,-26.055419921875,13.343017578125
0.064,15.865478515625,-25.975341796875,10.300048828125
0.0645,19.348876953125,-23.653076171875,4.294189453125
0.065,20.790283203125,-21.651123046875,0.890869140625
0.0655,24.273681640625,-19.248779296875,-5.155029296875
0.066,26.395751953125,-16.365966796875,-10.119873046875
0.0665,26.595947265625,-11.881591796875,-14.724365234375
0.067,26.555908203125,-8.998779296875,-17.527099609375
0.0675,23.032470703125,-3.193115234375,-19.809326171875
0.068,20.990478515625,1.131103515625,-22.131591796875
0.0685,18.427978515625,6.536376953125,-24.974365234375
0.069,14.984619140625,12.422119140625,-27.496826171875
0.0695,10.900634765625,15.545166015625,-26.615966796875
0.07,6.135986328125,18.708251953125,-25.054443359375
0.0705,1.571533203125,19.989501953125,-21.851318359375
0.071,-4.314208984375,23.232666015625,-19.448974609375
0.0715,-9.158935546875,25.114501953125,-16.486083984375
0.072,-14.604248046875,26.515869140625,-12.442138671875
0.0725,-17.286865234375,25.675048828125,-8.998779296875
0.073,-20.249755859375,22.792236328125,-3.072998046875
0.0735,-21.771240234375,20.670166015625,0.650634765625
0.074,-25.254638671875,18.347900390625,6.496337890625
0.0745,-26.615966796875,14.824462890625,11.461181640625
0.075,-26.535888671875,10.740478515625,15.385009765625
0.0755,-25.454833984375,7.056884765625,17.987548828125
0.076,-22.251708984375,1.931884765625,19.869384765625
0.0765,-20.209716796875,-3.032958984375,22.792236328125
0.077,-17.607177734375,-7.957763671875,25.114501953125
0.0775,-14.003662109375,-13.483154296875,27.156494140625
0.078,-9.959716796875,-16.165771484375,25.915283203125
0.0785,-4.754638671875,-18.928466796875,23.512939453125
0.079,-0.510498046875,-20.169677734375,20.550048828125
0.0795,5.455322265625,-23.773193359375,18.427978515625
0.08,10.179931640625,-24.934326171875,14.864501953125
0.0805,14.824462890625,-26.095458984375,11.341064453125
0.081,17.467041015625,-24.573974609375,7.177001953125
0.0815,20.109619140625,-22.051513671875,1.931884765625
0.082,22.271728515625,-19.729248046875,-2.552490234375
0.0825,25.154541015625,-17.607177734375,-7.597412109375
0.083,26.395751953125,-13.963623046875,-12.522216796875
0.0835,25.915283203125,-9.999755859375,-15.965576171875
0.084,24.233642578125,-5.955810546875,-18.247802734375
0.0845,21.310791015625,-1.231201171875,-20.129638671875
0.085,19.468994140625,4.214111328125,-23.693115234375
0.0855,16.265869140625,9.018798828125,-25.254638671875
0.086,13.182861328125,13.783447265625,-27.056396484375
0.0865,8.498291015625,16.506103515625,-25.134521484375
0.087,3.493408203125,18.948486328125,-22.692138671875
0.0875,-1.151123046875,20.590087890625,-19.889404296875
0.088,-6.796630859375,24.393798828125,-18.127685546875
0.0885,-11.601318359375,24.954345703125,-13.883544921875
0.089,-15.645263671875,25.594970703125,-10.560302734375
0.0895,-17.887451171875,23.392822265625,-6.115966796875
0.09,-20.329833984375,21.190673828125,-1.351318359375
0.0905,-23.172607421875,18.868408203125,3.973876953125
0.091,-25.254638671875,16.145751953125,8.738525390625
0.0915,-26.415771484375,12.862548828125,13.182861328125
0.092,-25.214599609375,8.298095703125,16.546142578125
0.0925,-23.332763671875,4.494384765625,18.468017578125
0.093,-20.449951171875,-0.630615234375,20.630126953125
0.0935,-18.888427734375,-6.115966796875,24.553955078125
0.094,-14.724365234375,-10.880615234375,25.234619140625
0.0945,-12.201904296875,-14.724365234375,26.635986328125
0.095,-6.836669921875,-17.126708984375,23.753173828125
0.0955,-2.192138671875,-19.368896484375,21.470947265625
0.096,3.012939453125,-21.490966796875,18.548095703125
0.0965,8.458251953125,-24.934326171875,16.506103515625
0.097,12.902587890625,-25.214599609375,12.382080078125
0.0975,16.586181640625,-25.054443359375,8.458251953125
0.098,18.468017578125,-22.572021484375,4.214111328125
0.0985,21.150634765625,-20.449951171875,-0.750732421875
0.099,24.313720703125,-18.247802734375,-6.115966796875
0.0995,25.474853515625,-14.724365234375,-10.760498046875
0.1,26.515869140625,-12.121826171875,-14.404052734375
0.1005,24.233642578125,-6.756591796875,-17.447021484375
0.101,22.311767578125,-3.193115234375,-19.168701171875
0.1015,19.509033203125,2.252197265625,-21.771240234375
0.102,17.787353515625,7.737548828125,-25.614990234375
0.1025,13.142822265625,12.342041015625,-25.574951171875
0.103,10.620361328125,15.665283203125,-26.415771484375
0.1035,5.175048828125,17.587158203125,-23.012451171875
0.104,0.610595703125,19.869384765625,-20.850341796875
0.1045,-4.794677734375,22.351806640625,-18.087646484375
0.105,-10.239990234375,24.994384765625,-15.405029296875
0.1055,-13.923583984375,25.314697265625,-12.041748046875
0.106,-17.366943359375,23.873291015625,-7.036865234375
0.1065,-18.728271484375,21.831298828125,-3.553466796875
0.107,-21.691162109375,19.388916015625,1.891845703125
0.1075,-24.694091796875,17.226806640625,7.096923828125
0.108,-25.134521484375,12.982666015625,11.781494140625
0.1085,-26.095458984375,10.860595703125,14.864501953125
0.109,-22.932373046875,5.295166015625,17.226806640625
0.1095,-21.250732421875,1.851806640625,19.028564453125
0.11,-18.648193359375,-3.593505859375,21.831298828125
0.1105,-16.646240234375,-9.078857421875,25.314697265625
0.111,-12.522216796875,-12.802490234375,25.034423828125
0.1115,-8.998779296875,-16.005615234375,24.674072265625
0.112,-4.434326171875,-17.246826171875,21.510986328125
0.1125,0.610595703125,-20.009521484375,19.308837890625
0.113,5.615478515625,-22.692138671875,17.066650390625
0.1135,11.060791015625,-24.413818359375,13.383056640625
0.114,13.983642578125,-24.814208984375,10.980712890625
0.1145,17.226806640625,-22.371826171875,5.255126953125
0.115,18.508056640625,-20.850341796875,2.412353515625
0.1155,21.751220703125,-18.568115234375,-3.193115234375
0.116,24.393798828125,-16.406005859375,-8.037841796875
0.1165,24.433837890625,-12.241943359375,-12.201904296875
0.117,24.994384765625,-9.759521484375,-15.244873046875
0.1175,21.791259765625,-4.834716796875,-16.966552734375
0.118,20.149658203125,-0.790771484375,-19.368896484375
0.1185,17.987548828125,4.294189453125,-22.291748046875
0.119,15.104736328125,9.819580078125,-25.014404296875
0.1195,11.901611328125,12.782470703125,-24.814208984375
0.12,7.177001953125,15.945556640625,-23.252685546875
0.1205,3.693603515625,16.906494140625,-20.890380859375
0.121,-1.871826171875,20.109619140625,-18.728271484375
0.1215,-6.596435546875,22.672119140625,-16.646240234375
0.122,-11.641357421875,23.833251953125,-12.722412109375
0.1225,-14.444091796875,24.073486328125,-10.199951171875
0.123,-17.006591796875,21.150634765625,-4.634521484375
0.1235,-18.728271484375,19.789306640625,-1.551513671875
0.124,-22.051513671875,17.787353515625,3.853759765625
0.1245,-24.213623046875,15.064697265625,8.818603515625
0.125,-24.053466796875,11.341064453125,12.382080078125
0.1255,-23.653076171875,7.937744140625,15.344970703125
0.126,-20.890380859375,3.813720703125,16.666259765625
0.1265,-19.288818359375,-0.950927734375,19.829345703125
0.127,-17.286865234375,-5.635498046875,22.471923828125
0.1275,-14.003662109375,-11.000732421875,24.634033203125
0.128,-11.040771484375,-13.523193359375,24.273681640625
0.1285,-5.715576171875,-16.365966796875,21.791259765625
0.129,-2.312255859375,-17.447021484375,19.589111328125
0.1295,3.213134765625,-20.930419921875,17.627197265625
0.13,8.097900390625,-22.972412109375,14.984619140625
0.1305,12.502197265625,-23.693115234375,11.341064453125
0.131,15.144775390625,-23.092529296875,8.017822265625
0.1315,17.306884765625,-20.449951171875,3.173095703125
0.132,19.829345703125,-18.888427734375,-0.990966796875
0.1325,22.552001953125,-17.046630859375,-5.555419921875
0.133,24.473876953125,-13.843505859375,-10.640380859375
0.1335,23.993408203125,-10.360107421875,-13.643310546875
0.134,22.552001953125,-6.436279296875,-16.165771484375
0.1345,19.989501953125,-2.512451171875,-17.567138671875
0.135,18.548095703125,2.692626953125,-21.290771484375
0.1355,15.945556640625,7.297119140625,-23.252685546875
0.136,12.742431640625,12.021728515625,-24.894287109375
0.1365,9.259033203125,14.343994140625,-23.853271484375
0.137,4.093994140625,16.706298828125,-21.090576171875
0.1375,0.290283203125,18.267822265625,-18.928466796875
0.138,-4.954833984375,21.831298828125,-17.326904296875
0.1385,-9.959716796875,23.352783203125,-13.963623046875
0.139,-13.563232421875,23.593017578125,-10.520263671875
0.1395,-15.925537109375,22.071533203125,-6.676513671875
0.14,-17.887451171875,19.749267578125,-2.392333984375
0.1405,-21.010498046875,17.987548828125,2.572509765625
0.141,-22.812255859375,15.745361328125,6.696533203125
0.1415,-24.533935546875,12.702392578125,11.461181640625
0.142,-23.412841796875,8.858642578125,14.183837890625
0.1425,-21.651123046875,4.934814453125,16.345947265625
0.143,-19.328857421875,0.970947265625,17.987548828125
0.1435,-18.207763671875,-4.234130859375,21.991455078125
0.144,-14.804443359375,-8.798583984375,23.232666015625
0.1445,-11.881591796875,-12.802490234375,24.313720703125
0.145,-7.837646484375,-14.924560546875,22.431884765625
0.1455,-3.072998046875,-17.086669921875,19.909423828125
0.146,1.331298828125,-19.128662109375,17.787353515625
0.1465,6.135986328125,-22.091552734375,16.025634765625
0.147,10.860595703125,-23.492919921875,12.702392578125
0.1475,14.143798828125,-22.892333984375,8.818603515625
0.148,16.225830078125,-21.170654296875,5.014892578125
0.1485,18.307861328125,-19.168701171875,0.850830078125
0.149,21.911376953125,-17.647216796875,-4.314208984375
0.1495,22.792236328125,-14.644287109375,-8.278076171875
0.15,24.473876953125,-12.201904296875,-12.362060546875
0.1505,22.552001953125,-7.837646484375,-14.764404296875
0.151,20.830322265625,-3.993896484375,-16.926513671875
0.1515,18.548095703125,0.490478515625,-19.048583984375
0.152,17.346923828125,5.575439453125,-22.932373046875
0.1525,13.583251953125,10.019775390625,-23.693115234375
0.153,10.620361328125,13.423095703125,-24.173583984375
0.1535,6.376220703125,15.224853515625,-21.851318359375
0.154,1.851806640625,17.427001953125,-19.569091796875
0.1545,-3.153076171875,20.189697265625,-17.527099609375
0.155,-7.837646484375,22.431884765625,-15.044677734375
0.1555,-11.961669921875,23.833251953125,-12.442138671875
0.156,-15.044677734375,22.111572265625,-7.597412109375
0.1565,-16.846435546875,20.630126953125,-4.234130859375
0.157,-19.328857421875,18.508056640625,0.410400390625
0.1575,-22.892333984375,16.986572265625,5.535400390625
0.158,-23.092529296875,13.102783203125,9.659423828125
0.1585,-24.493896484375,10.820556640625,13.302978515625
0.159,-21.931396484375,6.296142578125,15.304931640625
0.1595,-20.289794921875,2.412353515625,17.507080078125
0.16,-18.047607421875,-2.472412109375,20.109619140625
0.1605,-16.205810546875,-7.677490234375,23.432861328125
0.161,-12.842529296875,-11.521240234375,24.033447265625
0.1615,-8.838623046875,-14.764404296875,23.232666015625
0.162,-4.994873046875,-16.045654296875,20.870361328125
0.1625,-0.150146484375,-18.568115234375,18.548095703125
0.163,4.974853515625,-21.691162109375,16.786376953125
0.1635,9.899658203125,-22.852294921875,13.062744140625
0.164,13.302978515625,-24.213623046875,11.060791015625
0.1645,16.145751953125,-21.490966796875,5.455322265625
0.165,17.867431640625,-20.209716796875,2.412353515625
0.1655,20.750244140625,-17.967529296875,-2.832763671875
0.166,23.833251953125,-16.205810546875,-7.717529296875
0.1665,23.713134765625,-12.201904296875,-11.601318359375
0.167,24.313720703125,-9.319091796875,-15.004638671875
0.1675,21.470947265625,-5.034912109375,-16.406005859375
0.168,19.709228515625,-0.670654296875,-19.088623046875
0.1685,17.587158203125,4.334228515625,-22.011474609375
0.169,14.624267578125,9.659423828125,-24.373779296875
0.1695,11.981689453125,12.702392578125,-24.854248046875
0.17,6.736572265625,15.865478515625,-22.812255859375
0.1705,3.453369140625,16.946533203125,-20.690185546875
0.171,-1.951904296875,19.829345703125,-18.287841796875
0.1715,-6.996826171875,22.872314453125,-16.406005859375
0.172,-11.721435546875,23.352783203125,-12.161865234375
0.1725,-14.724365234375,24.113525390625,-9.959716796875
0.173,-17.006591796875,20.950439453125,-4.434326171875
0.1735,-18.928466796875,19.589111328125,-1.071044921875
0.174,-21.851318359375,17.306884765625,4.134033203125
0.1745,-24.213623046875,14.744384765625,9.138916015625
0.175,-23.973388671875,11.180908203125,12.422119140625
0.1755,-23.372802734375,7.377197265625,15.665283203125
0.176,-20.850341796875,3.853759765625,16.586181640625
0.1765,-18.968505859375,-1.231201171875,19.709228515625
0.177,-16.966552734375,-5.995849609375,22.552001953125
0.1775,-13.403076171875,-11.160888671875,24.073486328125
0.178,-11.160888671875,-13.523193359375,24.433837890625
0.1785,-5.395263671875,-16.205810546875,21.390869140625
0.179,-2.272216796875,-17.366943359375,19.509033203125
0.1795,3.173095703125,-20.409912109375,17.306884765625
0.18,8.177978515625,-23.052490234375,14.984619140625
