wavelength,x,y,z
0.0,-11.220947265625,22.451904296875,-11.581298828125
0.0005,-14.744384765625,23.212646484375,-8.978759765625
0.001,-17.547119140625,21.931396484375,-4.934814453125
0.0015,-19.869384765625,20.650146484375,-1.291259765625
0.002,-21.551025390625,18.007568359375,3.153076171875
0.0025,-23.352783203125,14.644287109375,8.358154296875
0.003,-22.992431640625,10.680419921875,12.041748046875
0.0035,-23.232666015625,7.557373046875,15.445068359375
0.004,-21.911376953125,4.434326171875,17.326904296875
0.0045,-20.189697265625,-0.170166015625,20.129638671875
0.005,-17.266845703125,-4.814697265625,21.811279296875
0.0055,-13.262939453125,-9.899658203125,22.892333984375
0.006,-10.219970703125,-13.262939453125,23.252685546875
0.0065,-5.935791015625,-16.305908203125,21.971435546875
0.007,-2.292236328125,-18.187744140625,20.289794921875
0.0075,2.192138671875,-20.229736328125,18.007568359375
0.008,7.717529296875,-22.151611328125,14.484130859375
0.0085,11.841552734375,-22.071533203125,10.320068359375
0.009,15.324951171875,-22.872314453125,7.637451171875
0.0095,17.887451171875,-21.350830078125,3.593505859375
0.01,20.449951171875,-19.789306640625,-0.490478515625
0.0105,21.771240234375,-16.986572265625,-4.654541015625
0.011,23.292724609375,-13.543212890625,-9.699462890625
0.0115,23.012451171875,-10.059814453125,-12.982666015625
0.012,22.812255859375,-6.616455078125,-16.265869140625
0.0125,21.290771484375,-3.293212890625,-18.107666015625
0.013,19.569091796875,1.311279296875,-20.870361328125
0.0135,15.925537109375,6.436279296875,-22.391845703125
0.014,11.841552734375,11.200927734375,-23.072509765625
0.0145,9.118896484375,14.364013671875,-23.552978515625
0.015,4.554443359375,17.166748046875,-21.831298828125
0.0155,0.470458984375,19.288818359375,-19.909423828125
0.016,-3.973876953125,21.010498046875,-17.306884765625
0.0165,-9.659423828125,22.932373046875,-13.623291015625
0.017,-13.423095703125,22.371826171875,-9.379150390625
0.0175,-16.826416015625,22.892333984375,-6.616455078125
0.018,-19.188720703125,21.050537109375,-2.412353515625
0.0185,-21.751220703125,19.248779296875,2.072021484375
0.019,-22.552001953125,15.805419921875,6.436279296875
0.0195,-23.833251953125,12.121826171875,11.481201171875
0.02,-23.472900390625,8.758544921875,14.444091796875
0.0205,-22.792236328125,4.754638671875,17.807373046875
0.021,-20.790283203125,0.950927734375,19.649169921875
0.0215,-18.708251953125,-3.773681640625,22.251708984375
0.022,-14.744384765625,-8.978759765625,23.492919921875
0.0225,-10.380126953125,-13.383056640625,23.452880859375
0.023,-7.657470703125,-16.185791015625,23.572998046875
0.0235,-2.332275390625,-19.028564453125,21.130615234375
0.024,2.072021484375,-21.150634765625,19.048583984375
0.0245,6.716552734375,-22.271728515625,15.525146484375
0.025,12.001708984375,-23.953369140625,12.001708984375
0.0255,15.565185546875,-22.992431640625,7.517333984375
0.026,18.888427734375,-22.912353515625,4.274169921875
0.0265,21.090576171875,-20.550048828125,-0.370361328125
0.027,23.653076171875,-18.347900390625,-5.135009765625
0.0275,23.733154296875,-14.384033203125,-9.339111328125
0.028,24.533935546875,-10.580322265625,-14.023681640625
0.0285,23.973388671875,-7.497314453125,-16.506103515625
0.029,22.531982421875,-2.892822265625,-19.709228515625
0.0295,20.209716796875,1.231201171875,-21.510986328125
0.03,17.286865234375,6.276123046875,-23.512939453125
0.0305,13.322998046875,11.240966796875,-24.593994140625
0.031,8.598388671875,15.244873046875,-23.833251953125
0.0315,5.915771484375,17.727294921875,-23.673095703125
0.032,0.390380859375,20.209716796875,-20.750244140625
0.0325,-4.093994140625,22.371826171875,-18.548095703125
0.033,-9.058837890625,22.812255859375,-14.103759765625
0.0335,-13.783447265625,24.133544921875,-10.860595703125
0.034,-16.946533203125,23.092529296875,-6.656494140625
0.0345,-19.909423828125,22.451904296875,-3.012939453125
0.035,-21.711181640625,19.849365234375,1.431396484375
0.0355,-23.993408203125,17.166748046875,6.436279296875
0.036,-23.873291015625,13.002685546875,10.520263671875
0.0365,-24.193603515625,9.118896484375,14.804443359375
0.037,-23.673095703125,6.436279296875,17.006591796875
0.0375,-21.751220703125,1.551513671875,19.969482421875
0.038,-19.549072265625,-2.612548828125,21.931396484375
0.0385,-15.865478515625,-7.617431640625,23.212646484375
0.039,-12.462158203125,-12.181884765625,24.373779296875
0.0395,-7.817626953125,-15.625244140625,23.132568359375
0.04,-4.734619140625,-18.067626953125,22.572021484375
0.0405,0.510498046875,-20.269775390625,19.569091796875
0.041,5.195068359375,-22.511962890625,17.286865234375
0.0415,9.959716796875,-22.632080078125,12.682373046875
0.042,14.203857421875,-23.552978515625,9.519287109375
0.0425,17.126708984375,-22.752197265625,5.875732421875
0.043,20.009521484375,-21.470947265625,1.671630859375
0.0435,21.811279296875,-19.028564453125,-2.612548828125
0.044,23.693115234375,-16.025634765625,-7.537353515625
0.0445,23.693115234375,-12.221923828125,-11.461181640625
0.045,23.572998046875,-8.378173828125,-15.184814453125
0.0455,23.092529296875,-5.815673828125,-17.346923828125
0.046,20.930419921875,-0.930908203125,-20.109619140625
0.0465,18.648193359375,3.593505859375,-22.311767578125
0.047,14.404052734375,8.678466796875,-23.072509765625
0.0475,11.361083984375,12.882568359375,-24.273681640625
0.048,6.996826171875,15.885498046875,-22.952392578125
0.0485,3.393310546875,18.327880859375,-21.831298828125
0.049,-1.411376953125,20.369873046875,-19.188720703125
0.0495,-6.576416015625,22.652099609375,-16.426025390625
0.05,-11.100830078125,22.572021484375,-11.901611328125
0.0505,-15.064697265625,23.252685546875,-8.658447265625
0.051,-17.667236328125,22.451904296875,-5.255126953125
0.0515,-20.429931640625,20.850341796875,-0.970947265625
0.052,-22.151611328125,18.207763671875,3.593505859375
0.0525,-23.633056640625,14.724365234375,8.558349609375
0.053,-23.833251953125,11.200927734375,12.362060546875
0.0535,-23.312744140625,7.197021484375,15.885498046875
0.054,-22.552001953125,4.234130859375,18.087646484375
0.0545,-20.349853515625,-0.610595703125,20.690185546875
0.055,-17.667236328125,-5.615478515625,23.052490234375
0.0555,-13.102783203125,-10.380126953125,23.212646484375
0.056,-10.179931640625,-14.183837890625,24.053466796875
0.0565,-5.735595703125,-17.026611328125,22.491943359375
0.057,-1.411376953125,-19.589111328125,20.810302734375
0.0575,3.072998046875,-21.310791015625,18.127685546875
0.058,8.798583984375,-23.392822265625,14.724365234375
0.0585,12.802490234375,-23.032470703125,10.400146484375
0.059,16.726318359375,-23.392822265625,6.876708984375
0.0595,19.208740234375,-22.111572265625,3.193115234375
0.06,21.851318359375,-20.189697265625,-1.531494140625
0.0605,23.332763671875,-17.186767578125,-6.095947265625
0.061,24.253662109375,-13.262939453125,-10.940673828125
0.0615,24.373779296875,-10.059814453125,-14.384033203125
0.062,23.412841796875,-5.815673828125,-17.667236328125
0.0625,22.051513671875,-2.372314453125,-19.789306640625
0.063,19.729248046875,2.392333984375,-22.111572265625
0.0635,16.165771484375,7.957763671875,-24.153564453125
0.064,11.481201171875,12.402099609375,-23.913330078125
0.0645,8.478271484375,15.885498046875,-24.473876953125
0.065,3.953857421875,18.447998046875,-22.471923828125
0.0655,-0.770751953125,20.930419921875,-20.429931640625
0.066,-5.135009765625,22.211669921875,-17.346923828125
0.0665,-11.020751953125,24.093505859375,-13.423095703125
0.067,-14.584228515625,23.412841796875,-9.299072265625
0.0675,-18.307861328125,23.372802734375,-5.615478515625
0.068,-20.349853515625,21.611083984375,-1.811767578125
0.0685,-22.792236328125,19.489013671875,2.912841796875
0.069,-23.913330078125,15.965576171875,7.637451171875
0.0695,-24.353759765625,11.641357421875,12.362060546875
0.07,-24.473876953125,8.758544921875,15.485107421875
0.0705,-23.032470703125,4.234130859375,18.568115234375
0.071,-21.310791015625,0.510498046875,20.650146484375
0.0715,-18.748291015625,-4.013916015625,22.531982421875
0.072,-15.024658203125,-9.739501953125,24.493896484375
0.0725,-10.300048828125,-13.663330078125,23.693115234375
0.073,-7.217041015625,-16.906494140625,23.773193359375
0.0735,-2.492431640625,-19.148681640625,21.330810546875
0.074,2.192138671875,-21.591064453125,19.368896484375
0.0745,6.716552734375,-22.431884765625,15.725341796875
0.075,12.201904296875,-23.953369140625,11.881591796875
0.0755,15.405029296875,-23.312744140625,8.157958984375
0.076,18.928466796875,-22.752197265625,3.993896484375
0.0765,20.810302734375,-20.790283203125,0.190185546875
0.077,23.052490234375,-18.468017578125,-4.414306640625
0.0775,24.013427734375,-14.824462890625,-9.058837890625
0.078,23.853271484375,-10.540283203125,-13.302978515625
0.0785,24.013427734375,-7.977783203125,-16.065673828125
0.079,22.131591796875,-3.333251953125,-18.908447265625
0.0795,20.489990234375,0.590576171875,-21.150634765625
0.08,17.326904296875,5.155029296875,-22.552001953125
0.0805,13.763427734375,10.560302734375,-24.393798828125
0.081,9.279052734375,14.043701171875,-23.352783203125
0.0815,5.995849609375,17.166748046875,-23.232666015625
0.082,1.551513671875,19.088623046875,-20.710205078125
0.0825,-2.972900390625,21.531005859375,-18.828369140625
0.083,-7.817626953125,22.171630859375,-14.744384765625
0.0835,-12.702392578125,23.212646484375,-10.860595703125
0.084,-15.665283203125,23.012451171875,-7.817626953125
0.0845,-18.908447265625,21.811279296875,-3.453369140625
0.085,-20.670166015625,19.929443359375,0.310302734375
0.0855,-22.511962890625,17.246826171875,4.874755859375
0.086,-23.633056640625,13.723388671875,9.559326171875
0.0865,-23.112548828125,9.359130859375,13.443115234375
0.087,-23.392822265625,6.956787109375,16.205810546875
0.0875,-21.270751953125,2.352294921875,18.728271484375
0.088,-19.829345703125,-1.731689453125,21.290771484375
0.0885,-16.025634765625,-6.336181640625,22.091552734375
0.089,-12.782470703125,-11.381103515625,23.853271484375
0.0895,-8.698486328125,-14.464111328125,22.812255859375
0.09,-4.814697265625,-17.507080078125,22.091552734375
0.0905,-0.490478515625,-19.228759765625,19.529052734375
0.091,4.154052734375,-21.631103515625,17.447021484375
0.0915,9.078857421875,-22.271728515625,13.282958984375
0.092,13.483154296875,-22.712158203125,9.359130859375
0.0925,16.325927734375,-22.752197265625,6.676513671875
0.093,19.368896484375,-21.070556640625,1.911865234375
0.0935,21.450927734375,-19.068603515625,-2.212158203125
0.094,22.732177734375,-15.985595703125,-6.616455078125
0.0945,23.853271484375,-12.742431640625,-11.100830078125
0.095,23.012451171875,-8.498291015625,-14.584228515625
0.0955,22.972412109375,-5.735595703125,-17.346923828125
0.096,20.690185546875,-1.131103515625,-19.629150390625
0.0965,18.928466796875,3.353271484375,-22.391845703125
0.097,14.484130859375,8.157958984375,-22.712158203125
0.0975,11.200927734375,12.802490234375,-24.073486328125
0.098,7.557373046875,15.525146484375,-23.112548828125
0.0985,3.072998046875,18.568115234375,-21.711181640625
0.099,-1.331298828125,20.329833984375,-19.188720703125
0.0995,-6.376220703125,22.411865234375,-16.345947265625
0.1,-11.100830078125,23.012451171875,-12.342041015625
0.1005,-15.184814453125,22.932373046875,-8.258056640625
0.101,-17.827392578125,22.772216796875,-5.455322265625
0.1015,-20.550048828125,20.730224609375,-0.650634765625
0.102,-22.752197265625,18.327880859375,3.993896484375
0.1025,-23.392822265625,14.484130859375,8.558349609375
0.103,-24.473876953125,11.401123046875,12.802490234375
0.1035,-23.352783203125,7.116943359375,15.965576171875
0.104,-22.792236328125,3.833740234375,18.768310546875
0.1045,-20.229736328125,-0.970947265625,20.970458984375
0.105,-17.947509765625,-6.015869140625,23.693115234375
0.1055,-13.262939453125,-10.660400390625,23.572998046875
0.106,-9.699462890625,-14.784423828125,24.253662109375
0.1065,-6.095947265625,-17.226806640625,23.052490234375
0.107,-0.890869140625,-20.189697265625,20.970458984375
0.1075,3.593505859375,-21.831298828125,18.207763671875
0.108,9.158935546875,-23.633056640625,14.484130859375
0.1085,13.242919921875,-23.953369140625,10.840576171875
0.109,17.246826171875,-23.352783203125,6.356201171875
0.1095,19.729248046875,-22.592041015625,3.153076171875
0.11,22.291748046875,-20.189697265625,-1.931884765625
0.1105,24.373779296875,-17.427001953125,-6.856689453125
0.111,24.333740234375,-13.022705078125,-11.301025390625
0.1115,25.134521484375,-10.099853515625,-15.064697265625
0.112,23.653076171875,-5.815673828125,-17.867431640625
0.1125,22.411865234375,-1.931884765625,-20.590087890625
0.113,19.649169921875,2.832763671875,-22.511962890625
0.1135,16.325927734375,8.478271484375,-24.914306640625
0.114,11.681396484375,12.722412109375,-24.473876953125
0.1145,7.997802734375,16.606201171875,-24.634033203125
0.115,4.354248046875,18.728271484375,-23.112548828125
0.1155,-1.131103515625,21.611083984375,-20.630126953125
0.116,-5.695556640625,23.012451171875,-17.587158203125
0.1165,-11.421142578125,24.333740234375,-13.262939453125
0.117,-15.024658203125,24.373779296875,-9.899658203125
0.1175,-18.708251953125,23.492919921875,-5.255126953125
0.118,-20.950439453125,22.171630859375,-1.771728515625
0.1185,-23.192626953125,19.609130859375,3.153076171875
0.119,-25.034423828125,16.325927734375,8.358154296875
0.1195,-24.634033203125,11.601318359375,12.722412109375
0.12,-25.234619140625,8.758544921875,16.205810546875
0.1205,-23.512939453125,4.354248046875,18.928466796875
0.121,-21.831298828125,-0.090087890625,21.691162109375
0.1215,-18.948486328125,-4.574462890625,23.212646484375
0.122,-15.224853515625,-10.380126953125,25.334716796875
0.1225,-10.820556640625,-14.103759765625,24.654052734375
0.123,-6.776611328125,-17.707275390625,24.253662109375
0.1235,-2.612548828125,-19.709228515625,22.091552734375
0.124,2.592529296875,-22.431884765625,19.769287109375
0.1245,7.557373046875,-23.633056640625,16.165771484375
0.125,12.842529296875,-24.433837890625,11.721435546875
0.1255,16.205810546875,-24.513916015625,8.518310546875
0.126,19.849365234375,-23.232666015625,3.673583984375
0.1265,22.011474609375,-21.470947265625,-0.370361328125
0.127,23.973388671875,-18.788330078125,-5.054931640625
0.1275,25.614990234375,-15.224853515625,-10.300048828125
0.128,24.734130859375,-10.500244140625,-14.263916015625
0.1285,25.054443359375,-7.737548828125,-17.467041015625
0.129,23.012451171875,-3.173095703125,-19.909423828125
0.1295,21.250732421875,1.391357421875,-22.752197265625
0.13,17.687255859375,6.236083984375,-23.953369140625
0.1305,13.763427734375,11.921630859375,-25.715087890625
0.131,9.559326171875,15.324951171875,-24.914306640625
0.1315,5.315185546875,18.768310546875,-24.153564453125
0.132,0.990966796875,20.570068359375,-21.631103515625
0.1325,-4.013916015625,23.092529296875,-19.348876953125
0.133,-9.419189453125,24.213623046875,-15.104736328125
0.1335,-14.343994140625,24.493896484375,-10.580322265625
0.134,-17.427001953125,24.573974609375,-7.697509765625
0.1345,-20.750244140625,22.812255859375,-2.572509765625
0.135,-22.832275390625,20.810302734375,1.591552734375
0.1355,-24.353759765625,17.687255859375,6.276123046875
0.136,-25.875244140625,14.003662109375,11.561279296875
0.1365,-24.794189453125,9.198974609375,15.284912109375
0.137,-24.914306640625,6.156005859375,18.447998046875
0.1375,-22.431884765625,1.471435546875,20.730224609375
0.138,-20.670166015625,-3.173095703125,23.613037109375
0.1385,-16.466064453125,-8.137939453125,24.293701171875
0.139,-12.502197265625,-13.423095703125,25.695068359375
0.1395,-8.578369140625,-16.426025390625,24.694091796875
0.14,-3.733642578125,-19.829345703125,23.372802734375
0.1405,0.910888671875,-21.510986328125,20.570068359375
0.141,5.835693359375,-23.793212890625,17.967529296875
0.1415,11.281005859375,-24.714111328125,13.603271484375
0.142,15.725341796875,-24.473876953125,8.918701171875
0.1425,18.688232421875,-24.593994140625,6.156005859375
0.143,21.811279296875,-22.271728515625,0.670654296875
0.1435,24.053466796875,-20.029541015625,-3.853759765625
0.144,24.934326171875,-16.385986328125,-8.458251953125
0.1445,26.215576171875,-12.862548828125,-13.423095703125
0.145,24.894287109375,-8.298095703125,-16.666259765625
0.1455,24.533935546875,-4.894775390625,-19.829345703125
0.146,21.771240234375,0.030029296875,-21.831298828125
0.1465,19.729248046875,4.994873046875,-24.754150390625
0.147,14.884521484375,10.079833984375,-24.994384765625
0.1475,10.920654296875,15.004638671875,-25.915283203125
0.148,7.357177734375,17.607177734375,-24.994384765625
0.1485,1.991943359375,20.850341796875,-22.912353515625
0.149,-2.652587890625,22.491943359375,-20.109619140625
0.1495,-7.857666015625,24.413818359375,-16.906494140625
0.15,-12.982666015625,25.254638671875,-12.702392578125
0.1505,-17.066650390625,24.493896484375,-7.897705078125
0.151,-19.829345703125,24.333740234375,-5.054931640625
0.1515,-22.552001953125,21.731201171875,0.390380859375
0.152,-24.954345703125,19.208740234375,5.355224609375
0.1525,-25.154541015625,14.844482421875,9.959716796875
0.153,-26.315673828125,11.441162109375,14.604248046875
0.1535,-24.874267578125,6.996826171875,17.567138671875
0.154,-24.033447265625,3.153076171875,20.730224609375
0.1545,-21.150634765625,-1.731689453125,22.612060546875
0.155,-18.708251953125,-7.056884765625,25.494873046875
0.1555,-13.783447265625,-11.821533203125,25.334716796875
0.156,-9.579345703125,-16.305908203125,25.614990234375
0.1565,-6.216064453125,-18.548095703125,24.533935546875
0.157,-0.330322265625,-21.711181640625,21.891357421875
0.1575,4.354248046875,-23.392822265625,19.088623046875
0.158,9.959716796875,-24.834228515625,15.004638671875
0.1585,14.404052734375,-25.554931640625,11.321044921875
0.159,18.367919921875,-24.473876953125,6.356201171875
0.1595,21.050537109375,-23.753173828125,3.032958984375
0.16,23.572998046875,-21.030517578125,-2.292236328125
0.1605,25.935302734375,-18.227783203125,-7.617431640625
0.161,25.574951171875,-13.503173828125,-12.021728515625
0.1615,26.415771484375,-10.300048828125,-16.185791015625
0.162,24.854248046875,-6.095947265625,-18.748291015625
0.1625,23.372802734375,-1.611572265625,-21.871337890625
0.163,20.449951171875,3.193115234375,-23.633056640625
0.1635,16.966552734375,8.998779296875,-25.995361328125
0.164,12.322021484375,13.443115234375,-25.795166015625
0.1645,7.997802734375,17.447021484375,-25.474853515625
0.165,4.674560546875,19.529052734375,-24.273681640625
0.1655,-1.331298828125,22.451904296875,-21.350830078125
0.166,-6.095947265625,24.133544921875,-18.267822265625
0.1665,-11.901611328125,25.094482421875,-13.543212890625
0.167,-15.785400390625,25.574951171875,-10.260009765625
0.1675,-19.388916015625,24.293701171875,-5.415283203125
0.168,-21.791259765625,23.052490234375,-1.771728515625
0.1685,-23.913330078125,20.209716796875,3.273193359375
0.169,-26.115478515625,16.926513671875,8.838623046875
0.1695,-25.474853515625,11.961669921875,13.162841796875
0.17,-25.995361328125,8.798583984375,16.966552734375
0.1705,-24.353759765625,4.794677734375,19.368896484375
0.171,-22.552001953125,-0.090087890625,22.411865234375
0.1715,-19.509033203125,-4.774658203125,24.013427734375
0.172,-15.545166015625,-10.700439453125,25.935302734375
0.1725,-11.341064453125,-14.544189453125,25.614990234375
0.173,-6.856689453125,-18.187744140625,24.774169921875
0.1735,-3.052978515625,-20.069580078125,22.932373046875
0.174,2.592529296875,-22.792236328125,20.169677734375
0.1745,7.837646484375,-24.473876953125,16.686279296875
0.175,13.122802734375,-24.834228515625,11.881591796875
0.1755,16.646240234375,-25.274658203125,8.838623046875
0.176,20.009521484375,-23.713134765625,3.993896484375
0.1765,22.451904296875,-22.151611328125,-0.210205078125
0.177,24.253662109375,-19.228759765625,-4.894775390625
0.1775,26.215576171875,-15.705322265625,-10.540283203125
0.178,25.294677734375,-10.940673828125,-14.343994140625
0.1785,25.534912109375,-7.777587890625,-17.787353515625
0.179,23.653076171875,-3.813720703125,-19.909423828125
0.1795,21.651123046875,1.271240234375,-22.952392578125
0.18,18.167724609375,6.156005859375,-24.353759765625
0.1805,13.923583984375,11.921630859375,-25.875244140625
