wavelength,x,y,z
0.0,-2.98291015625,-0.86083984375,3.46337890625
0.0005,-2.46240234375,-1.62158203125,3.66357421875
0.001,-1.86181640625,-2.42236328125,3.86376953125
0.0015,-1.02099609375,-2.90283203125,3.50341796875
0.002,-0.50048828125,-3.50341796875,3.62353515625
0.0025,0.30029296875,-3.66357421875,3.02294921875
0.003,0.94091796875,-3.98388671875,2.78271484375
0.0035,1.78173828125,-4.14404296875,2.10205078125
0.004,2.30224609375,-4.18408203125,1.66162109375
0.0045,2.66259765625,-3.94384765625,1.02099609375
0.005,3.02294921875,-3.82373046875,0.58056640625
0.0055,3.18310546875,-3.18310546875,-0.34033203125
0.006,3.50341796875,-2.78271484375,-0.98095703125
0.0065,3.66357421875,-2.06201171875,-1.94189453125
0.007,3.50341796875,-1.46142578125,-2.34228515625
0.0075,3.50341796875,-0.94091796875,-2.90283203125
0.008,3.10302734375,-0.30029296875,-3.18310546875
0.0085,2.74267578125,0.46044921875,-3.58349609375
0.009,2.10205078125,1.26123046875,-3.78369140625
0.0095,1.54150390625,1.94189453125,-3.90380859375
0.01,0.74072265625,2.46240234375,-3.54345703125
0.0105,0.22021484375,2.98291015625,-3.58349609375
0.011,-0.62060546875,3.14306640625,-2.94287109375
0.0115,-1.26123046875,3.50341796875,-2.70263671875
0.012,-2.06201171875,3.66357421875,-2.06201171875
0.0125,-2.42236328125,3.50341796875,-1.54150390625
0.013,-2.86279296875,3.38330078125,-0.98095703125
0.0135,-3.14306640625,3.02294921875,-0.38037109375
0.014,-3.34326171875,2.54248046875,0.46044921875
0.0145,-3.54345703125,1.94189453125,1.26123046875
0.015,-3.78369140625,1.38134765625,1.98193359375
0.0155,-3.46337890625,0.70068359375,2.38232421875
0.016,-3.58349609375,0.30029296875,2.94287109375
0.0165,-3.06298828125,-0.58056640625,3.14306640625
0.017,-2.74267578125,-1.22119140625,3.54345703125
0.0175,-2.02197265625,-2.06201171875,3.70361328125
0.018,-1.42138671875,-2.58251953125,3.66357421875
0.0185,-0.70068359375,-3.10302734375,3.46337890625
0.019,-0.14013671875,-3.54345703125,3.30322265625
0.0195,0.66064453125,-3.74365234375,2.78271484375
0.02,1.30126953125,-4.02392578125,2.46240234375
0.0205,2.06201171875,-4.18408203125,1.90185546875
0.021,2.38232421875,-3.94384765625,1.30126953125
0.0215,2.90283203125,-3.98388671875,0.86083984375
0.022,3.06298828125,-3.34326171875,0.06005859375
0.0225,3.34326171875,-3.02294921875,-0.66064453125
0.023,3.54345703125,-2.26220703125,-1.54150390625
0.0235,3.62353515625,-1.82177734375,-2.18212890625
0.024,3.34326171875,-1.14111328125,-2.62255859375
0.0245,3.38330078125,-0.66064453125,-3.10302734375
0.025,2.82275390625,0.22021484375,-3.42333984375
0.0255,2.46240234375,0.90087890625,-3.74365234375
0.026,1.74169921875,1.82177734375,-3.86376953125
0.0265,0.98095703125,2.30224609375,-3.70361328125
0.027,0.34033203125,2.86279296875,-3.58349609375
0.0275,-0.38037109375,3.14306640625,-3.18310546875
0.028,-1.14111328125,3.42333984375,-2.70263671875
0.0285,-1.82177734375,3.58349609375,-2.22216796875
0.029,-2.46240234375,3.70361328125,-1.70166015625
0.0295,-2.70263671875,3.34326171875,-1.06103515625
0.03,-3.18310546875,3.34326171875,-0.62060546875
0.0305,-3.26318359375,2.50244140625,0.38037109375
0.031,-3.58349609375,2.18212890625,1.02099609375
0.0315,-3.70361328125,1.34130859375,1.94189453125
0.032,-3.58349609375,0.82080078125,2.42236328125
0.0325,-3.42333984375,0.18017578125,2.86279296875
0.033,-3.18310546875,-0.42041015625,3.18310546875
0.0335,-2.70263671875,-1.22119140625,3.46337890625
0.034,-2.14208984375,-1.90185546875,3.66357421875
0.0345,-1.50146484375,-2.62255859375,3.78369140625
0.035,-0.70068359375,-3.06298828125,3.38330078125
0.0355,-0.18017578125,-3.54345703125,3.42333984375
0.036,0.66064453125,-3.70361328125,2.74267578125
0.0365,1.26123046875,-4.02392578125,2.50244140625
0.037,1.98193359375,-4.10400390625,1.90185546875
0.0375,2.46240234375,-4.10400390625,1.42138671875
0.038,2.78271484375,-3.82373046875,0.78076171875
0.0385,3.14306640625,-3.66357421875,0.26025390625
0.039,3.26318359375,-2.90283203125,-0.70068359375
0.0395,3.54345703125,-2.50244140625,-1.34130859375
0.04,3.66357421875,-1.78173828125,-2.22216796875
0.0405,3.42333984375,-1.22119140625,-2.58251953125
0.041,3.38330078125,-0.62060546875,-3.18310546875
0.0415,2.94287109375,0.10009765625,-3.46337890625
0.042,2.54248046875,0.94091796875,-3.78369140625
0.0425,1.82177734375,1.70166015625,-3.86376953125
0.043,1.18115234375,2.42236328125,-3.94384765625
0.0435,0.38037109375,2.82275390625,-3.54345703125
0.044,-0.26025390625,3.30322265625,-3.54345703125
0.0445,-1.18115234375,3.46337890625,-2.70263671875
0.045,-1.78173828125,3.78369140625,-2.42236328125
0.0455,-2.54248046875,3.82373046875,-1.74169921875
0.046,-2.94287109375,3.58349609375,-1.14111328125
0.0465,-3.26318359375,3.34326171875,-0.50048828125
0.047,-3.54345703125,2.86279296875,0.30029296875
0.0475,-3.74365234375,2.10205078125,1.22119140625
0.048,-3.82373046875,1.54150390625,1.94189453125
0.0485,-3.90380859375,0.78076171875,2.70263671875
0.049,-3.54345703125,0.14013671875,3.02294921875
0.0495,-3.46337890625,-0.50048828125,3.46337890625
0.05,-2.70263671875,-1.34130859375,3.70361328125
0.0505,-2.22216796875,-2.10205078125,3.94384765625
0.051,-1.38134765625,-2.82275390625,3.86376953125
0.0515,-0.66064453125,-3.38330078125,3.78369140625
0.052,0.10009765625,-3.70361328125,3.30322265625
0.0525,0.74072265625,-4.06396484375,3.06298828125
0.053,1.66162109375,-4.18408203125,2.26220703125
0.0535,2.18212890625,-4.26416015625,1.86181640625
0.054,2.86279296875,-4.26416015625,1.18115234375
0.0545,3.10302734375,-3.90380859375,0.62060546875
0.055,3.42333984375,-3.70361328125,0.02001953125
0.0555,3.54345703125,-2.90283203125,-0.90087890625
0.056,3.70361328125,-2.38232421875,-1.66162109375
0.0565,3.66357421875,-1.74169921875,-2.34228515625
0.057,3.66357421875,-1.14111328125,-2.94287109375
0.0575,3.22314453125,-0.46044921875,-3.22314453125
0.058,3.14306640625,0.18017578125,-3.66357421875
0.0585,2.38232421875,1.14111328125,-3.82373046875
0.059,1.90185546875,1.78173828125,-3.98388671875
0.0595,1.06103515625,2.50244140625,-3.90380859375
0.06,0.38037109375,2.98291015625,-3.70361328125
0.0605,-0.38037109375,3.34326171875,-3.38330078125
0.061,-1.10107421875,3.58349609375,-2.94287109375
0.0615,-1.94189453125,3.82373046875,-2.34228515625
0.062,-2.42236328125,3.82373046875,-1.86181640625
0.0625,-3.06298828125,3.86376953125,-1.26123046875
0.063,-3.26318359375,3.34326171875,-0.58056640625
0.0635,-3.70361328125,3.18310546875,0.10009765625
0.064,-3.78369140625,2.26220703125,1.14111328125
0.0645,-4.02392578125,1.78173828125,1.86181640625
0.065,-3.86376953125,0.90087890625,2.54248046875
0.0655,-3.82373046875,0.30029296875,3.10302734375
0.066,-3.42333984375,-0.42041015625,3.46337890625
0.0665,-3.14306640625,-1.06103515625,3.82373046875
0.067,-2.34228515625,-2.06201171875,4.02392578125
0.0675,-1.70166015625,-2.70263671875,4.02392578125
0.068,-0.90087890625,-3.50341796875,3.98388671875
0.0685,-0.10009765625,-3.82373046875,3.58349609375
0.069,0.62060546875,-4.18408203125,3.30322265625
0.0695,1.50146484375,-4.34423828125,2.58251953125
0.07,2.30224609375,-4.54443359375,1.98193359375
0.0705,2.78271484375,-4.34423828125,1.30126953125
0.071,3.38330078125,-4.34423828125,0.70068359375
0.0715,3.50341796875,-3.70361328125,0.02001953125
0.072,3.86376953125,-3.46337890625,-0.66064453125
0.0725,3.86376953125,-2.46240234375,-1.82177734375
0.073,3.98388671875,-1.94189453125,-2.46240234375
0.0735,3.78369140625,-1.06103515625,-3.18310546875
0.074,3.58349609375,-0.38037109375,-3.54345703125
0.0745,3.14306640625,0.34033203125,-3.82373046875
0.075,2.62255859375,1.14111328125,-4.10400390625
0.0755,1.90185546875,2.10205078125,-4.34423828125
0.076,1.06103515625,2.62255859375,-4.06396484375
0.0765,0.30029296875,3.34326171875,-4.02392578125
0.077,-0.54052734375,3.54345703125,-3.46337890625
0.0775,-1.14111328125,3.86376953125,-3.18310546875
0.078,-2.18212890625,3.98388671875,-2.30224609375
0.0785,-2.86279296875,4.14404296875,-1.74169921875
0.079,-3.30322265625,3.82373046875,-0.98095703125
0.0795,-3.78369140625,3.70361328125,-0.46044921875
0.08,-3.82373046875,3.02294921875,0.38037109375
0.0805,-4.10400390625,2.54248046875,1.10107421875
0.081,-4.18408203125,1.54150390625,2.22216796875
0.0815,-4.10400390625,0.94091796875,2.82275390625
0.082,-3.94384765625,0.14013671875,3.46337890625
0.0825,-3.54345703125,-0.58056640625,3.74365234375
0.083,-3.18310546875,-1.22119140625,4.02392578125
0.0835,-2.46240234375,-2.10205078125,4.18408203125
0.084,-1.78173828125,-2.98291015625,4.42431640625
0.0845,-0.82080078125,-3.50341796875,3.98388671875
0.085,-0.18017578125,-4.14404296875,3.98388671875
0.0855,0.70068359375,-4.26416015625,3.26318359375
0.086,1.34130859375,-4.58447265625,2.98291015625
0.0865,2.42236328125,-4.66455078125,2.02197265625
0.087,2.98291015625,-4.66455078125,1.42138671875
0.0875,3.50341796875,-4.38427734375,0.66064453125
0.088,3.82373046875,-4.14404296875,0.06005859375
0.0885,3.94384765625,-3.54345703125,-0.78076171875
0.089,4.14404296875,-2.90283203125,-1.58154296875
0.0895,4.30419921875,-1.94189453125,-2.70263671875
0.09,3.98388671875,-1.22119140625,-3.14306640625
0.0905,3.90380859375,-0.50048828125,-3.82373046875
0.091,3.34326171875,0.30029296875,-3.98388671875
0.0915,3.02294921875,0.98095703125,-4.34423828125
0.092,2.10205078125,1.98193359375,-4.50439453125
0.0925,1.42138671875,2.86279296875,-4.58447265625
0.093,0.38037109375,3.34326171875,-4.10400390625
0.0935,-0.34033203125,3.90380859375,-3.98388671875
0.094,-1.26123046875,3.98388671875,-3.18310546875
0.0945,-1.90185546875,4.18408203125,-2.78271484375
0.095,-3.02294921875,4.34423828125,-1.82177734375
0.0955,-3.46337890625,4.06396484375,-1.10107421875
0.096,-3.86376953125,3.86376953125,-0.42041015625
0.0965,-4.10400390625,3.34326171875,0.30029296875
0.097,-4.22412109375,2.70263671875,1.10107421875
0.0975,-4.26416015625,1.94189453125,1.98193359375
0.098,-4.42431640625,1.02099609375,3.02294921875
0.0985,-3.90380859375,0.22021484375,3.34326171875
0.099,-3.90380859375,-0.42041015625,3.90380859375
0.0995,-3.18310546875,-1.14111328125,3.98388671875
0.1,-2.82275390625,-1.82177734375,4.22412109375
0.1005,-1.90185546875,-2.82275390625,4.34423828125
0.101,-1.14111328125,-3.46337890625,4.22412109375
0.1015,-0.26025390625,-3.90380859375,3.86376953125
0.102,0.46044921875,-4.34423828125,3.58349609375
0.1025,1.26123046875,-4.46435546875,2.94287109375
0.103,1.94189453125,-4.62451171875,2.42236328125
0.1035,2.90283203125,-4.78466796875,1.62158203125
0.104,3.18310546875,-4.34423828125,0.94091796875
0.1045,3.74365234375,-4.38427734375,0.34033203125
0.105,3.78369140625,-3.70361328125,-0.46044921875
0.1055,4.06396484375,-3.22314453125,-1.14111328125
0.106,4.10400390625,-2.30224609375,-2.10205078125
0.1065,4.22412109375,-1.62158203125,-2.90283203125
0.107,3.78369140625,-0.78076171875,-3.34326171875
0.1075,3.78369140625,-0.26025390625,-3.86376953125
0.108,3.10302734375,0.62060546875,-4.06396484375
0.1085,2.70263671875,1.30126953125,-4.34423828125
0.109,1.78173828125,2.42236328125,-4.54443359375
0.1095,0.94091796875,2.98291015625,-4.26416015625
0.11,0.10009765625,3.58349609375,-4.06396484375
0.1105,-0.70068359375,3.86376953125,-3.62353515625
0.111,-1.50146484375,4.10400390625,-3.06298828125
0.1115,-2.30224609375,4.18408203125,-2.38232421875
0.112,-3.22314453125,4.34423828125,-1.62158203125
0.1125,-3.54345703125,3.78369140625,-0.78076171875
0.113,-4.02392578125,3.82373046875,-0.30029296875
0.1135,-4.02392578125,2.90283203125,0.74072265625
0.114,-4.30419921875,2.46240234375,1.46142578125
0.1145,-4.34423828125,1.42138671875,2.54248046875
0.115,-4.30419921875,0.70068359375,3.22314453125
0.1155,-3.82373046875,-0.18017578125,3.66357421875
0.116,-3.70361328125,-0.74072265625,4.02392578125
0.1165,-2.90283203125,-1.62158203125,4.14404296875
0.117,-2.30224609375,-2.34228515625,4.34423828125
0.1175,-1.42138671875,-3.34326171875,4.50439453125
0.118,-0.54052734375,-3.74365234375,3.90380859375
0.1185,0.18017578125,-4.34423828125,3.86376953125
0.119,1.06103515625,-4.46435546875,3.14306640625
0.1195,1.74169921875,-4.62451171875,2.62255859375
0.12,2.42236328125,-4.78466796875,1.86181640625
0.1205,3.26318359375,-4.74462890625,1.14111328125
0.121,3.50341796875,-4.14404296875,0.38037109375
0.1215,3.90380859375,-4.10400390625,-0.10009765625
0.122,3.86376953125,-3.14306640625,-1.06103515625
0.1225,4.06396484375,-2.70263671875,-1.66162109375
0.123,4.14404296875,-1.70166015625,-2.74267578125
0.1235,3.86376953125,-1.02099609375,-3.18310546875
0.124,3.66357421875,-0.34033203125,-3.70361328125
0.1245,3.30322265625,0.30029296875,-3.94384765625
0.125,2.70263671875,1.14111328125,-4.18408203125
0.1255,2.06201171875,1.90185546875,-4.26416015625
0.126,1.30126953125,2.74267578125,-4.42431640625
0.1265,0.38037109375,3.14306640625,-3.86376953125
0.127,-0.30029296875,3.74365234375,-3.86376953125
0.1275,-1.22119140625,3.82373046875,-3.10302734375
0.128,-1.94189453125,3.98388671875,-2.66259765625
0.1285,-2.70263671875,4.10400390625,-1.94189453125
0.129,-3.26318359375,3.98388671875,-1.26123046875
0.1295,-3.54345703125,3.66357421875,-0.58056640625
0.13,-3.90380859375,3.42333984375,0.06005859375
0.1305,-4.02392578125,2.54248046875,1.06103515625
0.131,-4.14404296875,1.98193359375,1.74169921875
0.1315,-4.30419921875,1.14111328125,2.78271484375
0.132,-3.90380859375,0.34033203125,3.18310546875
0.1325,-3.82373046875,-0.30029296875,3.70361328125
0.133,-3.18310546875,-1.06103515625,3.90380859375
0.1335,-2.70263671875,-1.82177734375,4.18408203125
0.134,-1.90185546875,-2.66259765625,4.18408203125
0.1345,-1.14111328125,-3.42333984375,4.22412109375
0.135,-0.26025390625,-3.78369140625,3.66357421875
0.1355,0.38037109375,-4.30419921875,3.62353515625
0.136,1.34130859375,-4.34423828125,2.74267578125
0.1365,1.90185546875,-4.58447265625,2.34228515625
0.137,2.86279296875,-4.50439453125,1.54150390625
0.1375,3.14306640625,-4.26416015625,0.90087890625
0.138,3.54345703125,-4.02392578125,0.30029296875
0.1385,3.70361328125,-3.54345703125,-0.46044921875
0.139,3.82373046875,-2.82275390625,-1.26123046875
0.1395,3.86376953125,-2.18212890625,-2.02197265625
0.14,3.94384765625,-1.46142578125,-2.86279296875
0.1405,3.50341796875,-0.70068359375,-3.14306640625
0.141,3.54345703125,-0.22021484375,-3.66357421875
0.1415,2.82275390625,0.66064453125,-3.82373046875
0.142,2.42236328125,1.34130859375,-4.10400390625
0.1425,1.58154296875,2.22216796875,-4.14404296875
0.143,0.86083984375,2.78271484375,-3.98388671875
0.1435,0.06005859375,3.18310546875,-3.66357421875
0.144,-0.58056640625,3.58349609375,-3.42333984375
0.1445,-1.46142578125,3.70361328125,-2.70263671875
0.145,-1.94189453125,3.86376953125,-2.42236328125
0.1455,-2.86279296875,3.98388671875,-1.62158203125
0.146,-3.10302734375,3.58349609375,-0.98095703125
0.1465,-3.58349609375,3.54345703125,-0.46044921875
0.147,-3.70361328125,2.74267578125,0.50048828125
0.1475,-3.90380859375,2.30224609375,1.22119140625
0.148,-3.98388671875,1.50146484375,2.06201171875
0.1485,-3.98388671875,0.90087890625,2.74267578125
0.149,-3.58349609375,0.14013671875,3.10302734375
0.1495,-3.58349609375,-0.38037109375,3.58349609375
0.15,-2.82275390625,-1.34130859375,3.78369140625
0.1505,-2.38232421875,-1.98193359375,3.98388671875
0.151,-1.54150390625,-2.86279296875,4.06396484375
0.1515,-0.78076171875,-3.34326171875,3.78369140625
0.152,-0.10009765625,-3.86376953125,3.58349609375
0.1525,0.66064453125,-4.10400390625,3.14306640625
0.153,1.54150390625,-4.30419921875,2.50244140625
0.1535,2.06201171875,-4.34423828125,2.02197265625
0.154,2.74267578125,-4.42431640625,1.42138671875
0.1545,2.98291015625,-3.94384765625,0.70068359375
0.155,3.46337890625,-3.90380859375,0.22021484375
0.1555,3.46337890625,-3.02294921875,-0.78076171875
0.156,3.74365234375,-2.62255859375,-1.42138671875
0.1565,3.74365234375,-1.82177734375,-2.26220703125
0.157,3.66357421875,-1.26123046875,-2.74267578125
0.1575,3.34326171875,-0.58056640625,-3.18310546875
0.158,3.18310546875,0.02001953125,-3.54345703125
0.1585,2.54248046875,0.94091796875,-3.82373046875
0.159,1.98193359375,1.58154296875,-3.94384765625
0.1595,1.30126953125,2.38232421875,-3.98388671875
0.16,0.50048828125,2.70263671875,-3.62353515625
0.1605,-0.14013671875,3.22314453125,-3.58349609375
0.161,-0.98095703125,3.34326171875,-2.90283203125
0.1615,-1.58154296875,3.70361328125,-2.54248046875
0.162,-2.26220703125,3.70361328125,-1.94189453125
0.1625,-2.82275390625,3.70361328125,-1.38134765625
0.163,-3.06298828125,3.30322265625,-0.74072265625
0.1635,-3.46337890625,3.18310546875,-0.18017578125
0.164,-3.54345703125,2.30224609375,0.82080078125
0.1645,-3.78369140625,1.94189453125,1.46142578125
0.165,-3.82373046875,1.14111328125,2.30224609375
0.1655,-3.58349609375,0.58056640625,2.70263671875
0.166,-3.50341796875,-0.10009765625,3.18310546875
0.1665,-3.06298828125,-0.78076171875,3.46337890625
0.167,-2.58251953125,-1.58154296875,3.78369140625
0.1675,-1.90185546875,-2.26220703125,3.78369140625
0.168,-1.26123046875,-2.98291015625,3.82373046875
0.1685,-0.46044921875,-3.34326171875,3.38330078125
0.169,0.14013671875,-3.86376953125,3.38330078125
0.1695,1.02099609375,-3.90380859375,2.62255859375
0.17,1.58154296875,-4.22412109375,2.38232421875
0.1705,2.26220703125,-4.22412109375,1.66162109375
0.171,2.66259765625,-4.10400390625,1.18115234375
0.1715,3.02294921875,-3.78369140625,0.54052734375
0.172,3.26318359375,-3.42333984375,-0.14013671875
0.1725,3.46337890625,-2.74267578125,-0.98095703125
0.173,3.62353515625,-2.26220703125,-1.66162109375
0.1735,3.70361328125,-1.58154296875,-2.42236328125
0.174,3.38330078125,-0.98095703125,-2.74267578125
0.1745,3.34326171875,-0.42041015625,-3.26318359375
0.175,2.74267578125,0.46044921875,-3.54345703125
0.1755,2.30224609375,1.22119140625,-3.82373046875
0.176,1.58154296875,1.86181640625,-3.82373046875
0.1765,0.94091796875,2.46240234375,-3.82373046875
0.177,0.18017578125,2.78271484375,-3.46337890625
0.1775,-0.46044921875,3.26318359375,-3.26318359375
0.178,-1.30126953125,3.46337890625,-2.58251953125
0.1785,-1.86181640625,3.62353515625,-2.26220703125
0.179,-2.50244140625,3.66357421875,-1.62158203125
0.1795,-2.74267578125,3.38330078125,-1.06103515625
0.18,-3.18310546875,3.22314453125,-0.50048828125
0.1805,-3.34326171875,2.54248046875,0.38037109375
0.181,-3.58349609375,2.06201171875,1.14111328125
0.1815,-3.62353515625,1.42138671875,1.82177734375
0.182,-3.70361328125,0.90087890625,2.42236328125
0.1825,-3.34326171875,0.22021484375,2.78271484375
0.183,-3.34326171875,-0.30029296875,3.22314453125
0.1835,-2.62255859375,-1.22119140625,3.46337890625
0.184,-2.22216796875,-1.94189453125,3.66357421875
0.1845,-1.46142578125,-2.62255859375,3.66357421875
0.185,-0.82080078125,-3.06298828125,3.50341796875
0.1855,-0.18017578125,-3.50341796875,3.30322265625
0.186,0.50048828125,-3.70361328125,2.90283203125
0.1865,1.30126953125,-3.98388671875,2.42236328125
0.187,1.78173828125,-4.10400390625,1.98193359375
0.1875,2.38232421875,-4.14404296875,1.50146484375
0.188,2.66259765625,-3.78369140625,0.86083984375
0.1885,3.10302734375,-3.70361328125,0.34033203125
0.189,3.18310546875,-2.90283203125,-0.62060546875
0.1895,3.54345703125,-2.58251953125,-1.26123046875
0.19,3.50341796875,-1.86181640625,-1.98193359375
0.1905,3.54345703125,-1.38134765625,-2.50244140625
0.191,3.22314453125,-0.66064453125,-2.90283203125
0.1915,3.10302734375,-0.10009765625,-3.34326171875
0.192,2.50244140625,0.82080078125,-3.70361328125
0.1925,1.94189453125,1.42138671875,-3.82373046875
0.193,1.22119140625,2.22216796875,-3.86376953125
0.1935,0.50048828125,2.66259765625,-3.54345703125
0.194,-0.14013671875,3.14306640625,-3.42333984375
0.1945,-0.98095703125,3.34326171875,-2.82275390625
0.195,-1.66162109375,3.66357421875,-2.42236328125
0.1955,-2.18212890625,3.58349609375,-1.82177734375
0.196,-2.70263671875,3.58349609375,-1.34130859375
0.1965,-2.94287109375,3.18310546875,-0.66064453125
0.197,-3.34326171875,2.90283203125,0.02001953125
0.1975,-3.50341796875,2.06201171875,0.98095703125
0.198,-3.70361328125,1.66162109375,1.62158203125
0.1985,-3.66357421875,0.94091796875,2.30224609375
0.199,-3.50341796875,0.38037109375,2.70263671875
