wavelength,x,y,z
0.0,-4.834716796875,1.851806640625,2.572509765625
0.0005,-4.754638671875,0.770751953125,3.493408203125
0.001,-4.354248046875,-0.190185546875,3.973876953125
0.0015,-3.793701171875,-1.031005859375,4.334228515625
0.002,-3.313232421875,-1.871826171875,4.574462890625
0.0025,-2.192138671875,-3.032958984375,4.614501953125
0.003,-1.551513671875,-3.553466796875,4.494384765625
0.0035,-0.590576171875,-4.474365234375,4.334228515625
0.004,0.330322265625,-4.674560546875,3.733642578125
0.0045,0.930908203125,-5.074951171875,3.493408203125
0.005,2.252197265625,-5.235107421875,2.372314453125
0.0055,3.052978515625,-5.275146484375,1.571533203125
0.006,3.733642578125,-4.994873046875,0.650634765625
0.0065,4.374267578125,-4.834716796875,-0.110107421875
0.007,4.414306640625,-4.114013671875,-0.910888671875
0.0075,4.694580078125,-3.793701171875,-1.431396484375
0.008,4.694580078125,-2.552490234375,-2.632568359375
0.0085,4.494384765625,-1.951904296875,-3.113037109375
0.009,4.374267578125,-0.910888671875,-3.993896484375
0.0095,3.813720703125,0.130126953125,-4.354248046875
0.01,3.253173828125,0.970947265625,-4.634521484375
0.0105,2.492431640625,1.971923828125,-4.834716796875
0.011,1.531494140625,3.052978515625,-4.834716796875
0.0115,0.690673828125,3.533447265625,-4.514404296875
0.012,-0.270263671875,4.334228515625,-4.434326171875
0.0125,-1.151123046875,4.494384765625,-3.673583984375
0.013,-1.791748046875,4.854736328125,-3.393310546875
0.0135,-3.193115234375,4.974853515625,-2.112060546875
0.014,-3.913818359375,4.894775390625,-1.351318359375
0.0145,-4.554443359375,4.494384765625,-0.310302734375
0.015,-5.114990234375,4.294189453125,0.450439453125
0.0155,-5.155029296875,3.493408203125,1.251220703125
0.016,-5.395263671875,2.932861328125,1.931884765625
0.0165,-5.395263671875,1.771728515625,3.133056640625
0.017,-5.074951171875,0.970947265625,3.533447265625
0.0175,-4.834716796875,-0.070068359375,4.454345703125
0.018,-4.154052734375,-1.111083984375,4.694580078125
0.0185,-3.593505859375,-1.911865234375,4.934814453125
0.019,-2.632568359375,-2.952880859375,4.974853515625
0.0195,-1.671630859375,-4.033935546875,5.014892578125
0.02,-0.670654296875,-4.434326171875,4.454345703125
0.0205,0.210205078125,-5.195068359375,4.374267578125
0.021,1.131103515625,-5.235107421875,3.493408203125
0.0215,1.851806640625,-5.515380859375,3.133056640625
0.022,3.253173828125,-5.635498046875,1.771728515625
0.0225,3.973876953125,-5.435302734375,0.930908203125
0.023,4.494384765625,-4.954833984375,-0.110107421875
0.0235,4.894775390625,-4.674560546875,-0.790771484375
0.024,4.974853515625,-3.833740234375,-1.591552734375
0.0245,4.934814453125,-3.193115234375,-2.312255859375
0.025,5.054931640625,-2.072021484375,-3.553466796875
0.0255,4.494384765625,-1.111083984375,-3.873779296875
0.026,4.294189453125,-0.110107421875,-4.634521484375
0.0265,3.453369140625,0.930908203125,-4.794677734375
0.027,2.932861328125,1.691650390625,-4.994873046875
0.0275,1.851806640625,2.852783203125,-4.994873046875
0.028,0.970947265625,3.773681640625,-5.034912109375
0.0285,-0.150146484375,4.134033203125,-4.314208984375
0.029,-0.830810546875,4.774658203125,-4.274169921875
0.0295,-1.751708984375,4.814697265625,-3.313232421875
0.03,-2.512451171875,5.014892578125,-2.872802734375
0.0305,-3.913818359375,5.094970703125,-1.551513671875
0.031,-4.434326171875,4.774658203125,-0.710693359375
0.0315,-4.994873046875,4.334228515625,0.290283203125
0.032,-5.355224609375,3.853759765625,0.970947265625
0.0325,-5.275146484375,3.133056640625,1.611572265625
0.033,-5.275146484375,2.292236328125,2.532470703125
0.0335,-5.435302734375,1.331298828125,3.613525390625
0.034,-4.754638671875,0.330322265625,3.893798828125
0.0345,-4.634521484375,-0.590576171875,4.654541015625
0.035,-3.713623046875,-1.591552734375,4.734619140625
0.0355,-3.233154296875,-2.272216796875,4.934814453125
0.036,-2.112060546875,-3.513427734375,4.934814453125
0.0365,-1.231201171875,-4.234130859375,4.814697265625
0.037,-0.150146484375,-4.674560546875,4.134033203125
0.0375,0.490478515625,-5.235107421875,4.093994140625
0.038,1.451416015625,-5.275146484375,3.133056640625
0.0385,2.252197265625,-5.435302734375,2.572509765625
0.039,3.613525390625,-5.555419921875,1.331298828125
0.0395,3.973876953125,-5.034912109375,0.490478515625
0.04,4.574462890625,-4.794677734375,-0.390380859375
0.0405,4.654541015625,-4.234130859375,-1.031005859375
0.041,4.694580078125,-3.673583984375,-1.831787109375
0.0415,4.654541015625,-2.592529296875,-2.592529296875
0.042,4.814697265625,-1.751708984375,-3.553466796875
0.0425,3.973876953125,-0.590576171875,-3.873779296875
0.043,3.973876953125,0.130126953125,-4.514404296875
0.0435,2.932861328125,1.171142578125,-4.514404296875
0.044,2.532470703125,1.851806640625,-4.714599609375
0.0445,1.411376953125,3.012939453125,-4.754638671875
0.045,0.610595703125,3.533447265625,-4.514404296875
0.0455,-0.310302734375,3.973876953125,-4.033935546875
0.046,-0.950927734375,4.414306640625,-3.793701171875
0.0465,-1.871826171875,4.494384765625,-2.952880859375
0.047,-2.632568359375,4.614501953125,-2.312255859375
0.0475,-3.833740234375,4.734619140625,-1.311279296875
0.048,-4.114013671875,4.093994140625,-0.390380859375
0.0485,-4.674560546875,4.053955078125,0.170166015625
0.049,-4.594482421875,3.333251953125,0.930908203125
0.0495,-4.834716796875,2.852783203125,1.571533203125
0.05,-4.834716796875,1.891845703125,2.532470703125
0.0505,-4.874755859375,1.131103515625,3.213134765625
0.051,-4.194091796875,0.050048828125,3.653564453125
0.0515,-4.194091796875,-0.590576171875,4.174072265625
0.052,-3.233154296875,-1.551513671875,4.214111328125
0.0525,-2.872802734375,-2.192138671875,4.454345703125
0.053,-1.831787109375,-3.313232421875,4.494384765625
0.0535,-1.031005859375,-3.713623046875,4.093994140625
0.054,-0.310302734375,-4.314208984375,3.933837890625
0.0545,0.450439453125,-4.554443359375,3.493408203125
0.055,1.291259765625,-4.754638671875,2.852783203125
0.0555,2.212158203125,-4.874755859375,2.092041015625
0.056,3.133056640625,-5.074951171875,1.251220703125
0.0565,3.373291015625,-4.474365234375,0.410400390625
0.057,3.893798828125,-4.554443359375,0.010009765625
0.0575,3.933837890625,-3.673583984375,-0.830810546875
0.058,4.134033203125,-3.273193359375,-1.431396484375
0.0585,4.214111328125,-2.352294921875,-2.432373046875
0.059,4.053955078125,-1.631591796875,-2.912841796875
0.0595,3.653564453125,-0.630615234375,-3.513427734375
0.06,3.453369140625,0.050048828125,-3.873779296875
0.0605,2.652587890625,0.970947265625,-3.993896484375
0.061,2.212158203125,1.651611328125,-4.234130859375
0.0615,1.331298828125,2.652587890625,-4.354248046875
0.062,0.490478515625,3.012939453125,-3.833740234375
0.0625,0.010009765625,3.613525390625,-3.913818359375
0.063,-0.950927734375,3.813720703125,-3.193115234375
0.0635,-1.631591796875,4.093994140625,-2.832763671875
0.064,-2.632568359375,4.134033203125,-1.871826171875
0.0645,-3.353271484375,4.134033203125,-1.231201171875
0.065,-3.673583984375,3.613525390625,-0.470458984375
0.0655,-4.114013671875,3.693603515625,0.010009765625
0.066,-4.114013671875,2.852783203125,0.850830078125
0.0665,-4.314208984375,2.492431640625,1.411376953125
0.067,-4.474365234375,1.611572265625,2.372314453125
0.0675,-4.114013671875,0.890869140625,2.732666015625
0.068,-3.993896484375,0.130126953125,3.373291015625
0.0685,-3.553466796875,-0.630615234375,3.573486328125
0.069,-3.032958984375,-1.391357421875,3.853759765625
0.0695,-2.392333984375,-2.192138671875,3.973876953125
0.07,-1.671630859375,-2.952880859375,4.013916015625
0.0705,-0.910888671875,-3.273193359375,3.573486328125
0.071,-0.510498046875,-3.913818359375,3.733642578125
0.0715,0.490478515625,-3.993896484375,2.892822265625
0.072,1.131103515625,-4.434326171875,2.612548828125
0.0725,2.172119140625,-4.514404296875,1.731689453125
0.073,2.572509765625,-4.394287109375,1.131103515625
0.0735,3.052978515625,-4.194091796875,0.570556640625
0.074,3.333251953125,-3.993896484375,0.090087890625
0.0745,3.533447265625,-3.353271484375,-0.710693359375
0.075,3.693603515625,-2.872802734375,-1.311279296875
0.0755,3.893798828125,-2.232177734375,-2.192138671875
0.076,3.453369140625,-1.311279296875,-2.592529296875
0.0765,3.573486328125,-0.710693359375,-3.273193359375
0.077,2.852783203125,0.170166015625,-3.433349609375
0.0775,2.572509765625,0.810791015625,-3.833740234375
0.078,1.851806640625,1.731689453125,-3.873779296875
0.0785,1.251220703125,2.292236328125,-3.873779296875
0.079,0.530517578125,2.732666015625,-3.593505859375
0.0795,0.010009765625,3.253173828125,-3.593505859375
0.08,-0.990966796875,3.413330078125,-2.832763671875
0.0805,-1.671630859375,3.733642578125,-2.472412109375
0.081,-2.592529296875,3.853759765625,-1.671630859375
0.0815,-2.952880859375,3.573486328125,-0.990966796875
0.082,-3.553466796875,3.613525390625,-0.550537109375
0.0825,-3.593505859375,3.093017578125,0.130126953125
0.083,-3.873779296875,2.692626953125,0.770751953125
0.0835,-3.993896484375,2.052001953125,1.531494140625
0.084,-4.154052734375,1.451416015625,2.212158203125
0.0845,-3.673583984375,0.570556640625,2.612548828125
0.085,-3.833740234375,0.090087890625,3.253173828125
0.0855,-3.032958984375,-0.870849609375,3.333251953125
0.086,-2.872802734375,-1.431396484375,3.693603515625
0.0865,-1.991943359375,-2.312255859375,3.733642578125
0.087,-1.391357421875,-2.792724609375,3.573486328125
0.0875,-0.830810546875,-3.273193359375,3.533447265625
0.088,-0.150146484375,-3.713623046875,3.213134765625
0.0885,0.690673828125,-3.953857421875,2.612548828125
0.089,1.411376953125,-4.194091796875,2.092041015625
0.0895,2.212158203125,-4.274169921875,1.531494140625
0.09,2.532470703125,-3.913818359375,0.890869140625
0.0905,3.052978515625,-4.114013671875,0.530517578125
0.091,3.133056640625,-3.393310546875,-0.270263671875
0.0915,3.493408203125,-3.193115234375,-0.830810546875
0.092,3.573486328125,-2.432373046875,-1.671630859375
0.0925,3.573486328125,-1.871826171875,-2.232177734375
0.093,3.253173828125,-0.990966796875,-2.792724609375
0.0935,3.173095703125,-0.390380859375,-3.233154296875
0.094,2.532470703125,0.570556640625,-3.513427734375
0.0945,2.212158203125,1.211181640625,-3.833740234375
0.095,1.451416015625,2.052001953125,-3.873779296875
0.0955,0.770751953125,2.492431640625,-3.593505859375
0.096,0.290283203125,3.052978515625,-3.713623046875
0.0965,-0.670654296875,3.253173828125,-3.032958984375
0.097,-1.431396484375,3.613525390625,-2.592529296875
0.0975,-2.272216796875,3.733642578125,-1.871826171875
0.098,-2.912841796875,3.813720703125,-1.271240234375
0.0985,-3.233154296875,3.413330078125,-0.590576171875
0.099,-3.673583984375,3.453369140625,-0.190185546875
0.0995,-3.753662109375,2.612548828125,0.730712890625
0.1,-4.033935546875,2.292236328125,1.291259765625
0.1005,-4.114013671875,1.491455078125,2.172119140625
0.101,-3.833740234375,0.770751953125,2.612548828125
0.1015,-3.713623046875,0.010009765625,3.173095703125
0.102,-3.233154296875,-0.710693359375,3.413330078125
0.1025,-2.672607421875,-1.551513671875,3.653564453125
0.103,-2.112060546875,-2.192138671875,3.773681640625
0.1035,-1.431396484375,-2.912841796875,3.773681640625
0.104,-0.790771484375,-3.273193359375,3.373291015625
0.1045,-0.270263671875,-3.833740234375,3.453369140625
0.105,0.850830078125,-4.033935546875,2.492431640625
0.1055,1.451416015625,-4.274169921875,2.212158203125
0.106,2.252197265625,-4.234130859375,1.411376953125
0.1065,2.732666015625,-4.154052734375,0.850830078125
0.107,3.052978515625,-3.913818359375,0.290283203125
0.1075,3.333251953125,-3.673583984375,-0.190185546875
0.108,3.453369140625,-2.952880859375,-1.071044921875
0.1085,3.573486328125,-2.512451171875,-1.631591796875
0.109,3.693603515625,-1.751708984375,-2.432373046875
0.1095,3.213134765625,-0.910888671875,-2.832763671875
0.11,3.213134765625,-0.310302734375,-3.353271484375
0.1105,2.492431640625,0.610595703125,-3.553466796875
0.111,2.132080078125,1.331298828125,-3.873779296875
0.1115,1.411376953125,2.052001953125,-3.833740234375
0.112,0.770751953125,2.652587890625,-3.833740234375
0.1125,0.050048828125,2.972900390625,-3.473388671875
0.113,-0.550537109375,3.533447265625,-3.393310546875
0.1135,-1.671630859375,3.733642578125,-2.392333984375
0.114,-2.312255859375,3.933837890625,-1.991943359375
0.1145,-3.153076171875,3.893798828125,-1.151123046875
0.115,-3.553466796875,3.653564453125,-0.550537109375
0.1155,-3.873779296875,3.453369140625,0.050048828125
0.116,-4.033935546875,2.852783203125,0.770751953125
0.1165,-4.274169921875,2.252197265625,1.571533203125
0.117,-4.194091796875,1.571533203125,2.212158203125
0.1175,-4.274169921875,0.770751953125,3.012939453125
0.118,-3.673583984375,-0.190185546875,3.333251953125
0.1185,-3.633544921875,-0.790771484375,3.853759765625
0.119,-2.592529296875,-1.871826171875,3.893798828125
0.1195,-2.152099609375,-2.552490234375,4.134033203125
0.12,-1.271240234375,-3.273193359375,3.853759765625
0.1205,-0.590576171875,-3.873779296875,3.773681640625
0.121,0.130126953125,-4.154052734375,3.293212890625
0.1215,0.930908203125,-4.514404296875,2.932861328125
0.122,2.092041015625,-4.634521484375,1.931884765625
0.1225,2.612548828125,-4.554443359375,1.331298828125
0.123,3.333251953125,-4.474365234375,0.570556640625
0.1235,3.573486328125,-3.993896484375,-0.110107421875
0.124,3.853759765625,-3.793701171875,-0.630615234375
0.1245,3.893798828125,-2.912841796875,-1.551513671875
0.125,4.093994140625,-2.272216796875,-2.272216796875
0.1255,3.773681640625,-1.431396484375,-2.872802734375
0.126,3.733642578125,-0.670654296875,-3.553466796875
0.1265,3.012939453125,0.290283203125,-3.713623046875
0.127,2.852783203125,0.890869140625,-4.114013671875
0.1275,1.771728515625,2.052001953125,-4.154052734375
0.128,1.291259765625,2.572509765625,-4.274169921875
0.1285,0.330322265625,3.253173828125,-3.953857421875
0.129,-0.310302734375,3.653564453125,-3.753662109375
0.1295,-1.031005859375,3.973876953125,-3.273193359375
0.13,-1.991943359375,4.214111328125,-2.592529296875
0.1305,-3.153076171875,4.454345703125,-1.711669921875
0.131,-3.593505859375,4.134033203125,-0.950927734375
0.1315,-4.314208984375,4.134033203125,-0.230224609375
0.132,-4.434326171875,3.493408203125,0.570556640625
0.1325,-4.674560546875,3.173095703125,1.091064453125
0.133,-4.794677734375,2.132080078125,2.172119140625
0.1335,-4.874755859375,1.451416015625,2.892822265625
0.134,-4.434326171875,0.450439453125,3.493408203125
0.1345,-4.314208984375,-0.350341796875,4.134033203125
0.135,-3.513427734375,-1.311279296875,4.214111328125
0.1355,-3.113037109375,-2.031982421875,4.534423828125
0.136,-1.951904296875,-3.353271484375,4.614501953125
0.1365,-1.151123046875,-3.873779296875,4.334228515625
0.137,-0.270263671875,-4.514404296875,4.053955078125
0.1375,0.490478515625,-4.834716796875,3.693603515625
0.138,1.331298828125,-4.994873046875,3.052978515625
0.1385,2.412353515625,-5.155029296875,2.172119140625
0.139,3.533447265625,-5.315185546875,1.211181640625
0.1395,3.893798828125,-4.674560546875,0.250244140625
0.14,4.494384765625,-4.674560546875,-0.390380859375
0.1405,4.494384765625,-3.873779296875,-1.151123046875
0.141,4.574462890625,-3.353271484375,-1.791748046875
0.1415,4.654541015625,-2.272216796875,-2.912841796875
0.142,4.534423828125,-1.431396484375,-3.593505859375
0.1425,3.933837890625,-0.310302734375,-4.114013671875
0.143,3.693603515625,0.490478515625,-4.554443359375
0.1435,2.772705078125,1.411376953125,-4.554443359375
0.144,2.212158203125,2.172119140625,-4.754638671875
0.1445,1.091064453125,3.453369140625,-4.874755859375
0.145,0.130126953125,3.773681640625,-4.354248046875
0.1455,-0.590576171875,4.414306640625,-4.154052734375
0.146,-1.431396484375,4.614501953125,-3.513427734375
0.1465,-2.272216796875,4.774658203125,-2.832763671875
0.147,-3.353271484375,4.814697265625,-1.871826171875
0.1475,-4.394287109375,4.854736328125,-0.910888671875
0.148,-4.634521484375,4.134033203125,0.130126953125
0.1485,-5.195068359375,4.134033203125,0.690673828125
0.149,-5.155029296875,3.173095703125,1.571533203125
0.1495,-5.195068359375,2.572509765625,2.172119140625
0.15,-5.275146484375,1.451416015625,3.413330078125
0.1505,-4.954833984375,0.530517578125,3.933837890625
0.151,-4.434326171875,-0.590576171875,4.494384765625
0.1515,-4.114013671875,-1.311279296875,4.894775390625
0.152,-3.072998046875,-2.352294921875,4.814697265625
0.1525,-2.432373046875,-3.193115234375,4.934814453125
0.153,-1.271240234375,-4.514404296875,4.974853515625
0.1535,-0.230224609375,-4.714599609375,4.294189453125
0.154,0.450439453125,-5.275146484375,4.174072265625
0.1545,1.531494140625,-5.475341796875,3.293212890625
0.155,2.372314453125,-5.595458984375,2.532470703125
0.1555,3.533447265625,-5.635498046875,1.531494140625
0.156,4.414306640625,-5.475341796875,0.530517578125
0.1565,4.574462890625,-4.674560546875,-0.470458984375
0.157,5.094970703125,-4.634521484375,-0.990966796875
0.1575,4.974853515625,-3.473388671875,-2.072021484375
0.158,4.934814453125,-2.832763671875,-2.592529296875
0.1585,5.014892578125,-1.631591796875,-3.873779296875
0.159,4.454345703125,-0.630615234375,-4.314208984375
0.1595,3.893798828125,0.450439453125,-4.754638671875
0.16,3.333251953125,1.251220703125,-5.074951171875
0.1605,2.292236328125,2.292236328125,-5.034912109375
0.161,1.571533203125,3.052978515625,-5.034912109375
0.1615,0.490478515625,4.214111328125,-4.994873046875
0.162,-0.630615234375,4.414306640625,-4.114013671875
0.1625,-1.151123046875,4.974853515625,-4.114013671875
0.163,-2.432373046875,5.054931640625,-2.912841796875
0.1635,-3.153076171875,5.094970703125,-2.272216796875
0.164,-4.234130859375,5.014892578125,-1.151123046875
0.1645,-4.914794921875,4.774658203125,-0.270263671875
0.165,-5.114990234375,4.013916015625,0.650634765625
0.1655,-5.435302734375,3.853759765625,1.211181640625
0.166,-5.395263671875,2.572509765625,2.332275390625
0.1665,-5.275146484375,2.011962890625,2.852783203125
0.167,-5.355224609375,0.890869140625,4.013916015625
0.1675,-4.634521484375,-0.230224609375,4.334228515625
0.168,-4.314208984375,-1.111083984375,4.814697265625
0.1685,-3.553466796875,-2.072021484375,4.934814453125
0.169,-2.592529296875,-3.072998046875,4.974853515625
0.1695,-1.791748046875,-3.793701171875,4.854736328125
0.17,-0.710693359375,-4.754638671875,4.814697265625
0.1705,0.290283203125,-4.954833984375,3.973876953125
0.171,0.890869140625,-5.475341796875,3.973876953125
0.1715,2.252197265625,-5.515380859375,2.612548828125
0.172,2.852783203125,-5.595458984375,2.052001953125
0.1725,3.973876953125,-5.475341796875,0.970947265625
0.173,4.494384765625,-5.114990234375,0.050048828125
0.1735,4.654541015625,-4.514404296875,-0.710693359375
0.174,4.934814453125,-4.114013671875,-1.351318359375
0.1745,4.934814453125,-2.952880859375,-2.472412109375
0.175,4.774658203125,-2.272216796875,-2.992919921875
0.1755,4.814697265625,-1.231201171875,-4.033935546875
0.176,3.933837890625,-0.150146484375,-4.314208984375
0.1765,3.733642578125,0.610595703125,-4.834716796875
0.177,2.692626953125,1.771728515625,-4.874755859375
0.1775,1.971923828125,2.612548828125,-4.914794921875
0.178,1.051025390625,3.373291015625,-4.754638671875
0.1785,0.090087890625,4.134033203125,-4.514404296875
0.179,-0.830810546875,4.334228515625,-3.793701171875
0.1795,-1.431396484375,4.814697265625,-3.673583984375
0.18,-2.832763671875,4.774658203125,-2.312255859375
0.1805,-3.273193359375,4.774658203125,-1.871826171875
0.181,-4.314208984375,4.654541015625,-0.750732421875
0.1815,-4.594482421875,4.134033203125,0.050048828125
0.182,-4.914794921875,3.813720703125,0.690673828125
0.1825,-4.994873046875,3.133056640625,1.451416015625
0.183,-5.074951171875,2.252197265625,2.372314453125
0.1835,-4.834716796875,1.451416015625,2.892822265625
0.184,-4.874755859375,0.570556640625,3.813720703125
0.1845,-4.033935546875,-0.590576171875,3.973876953125
0.185,-4.033935546875,-1.151123046875,4.494384765625
0.1855,-2.832763671875,-2.272216796875,4.494384765625
0.186,-2.392333984375,-2.912841796875,4.654541015625
0.1865,-1.311279296875,-3.713623046875,4.414306640625
0.187,-0.470458984375,-4.354248046875,4.134033203125
0.1875,0.290283203125,-4.634521484375,3.653564453125
0.188,1.051025390625,-4.994873046875,3.333251953125
