wavelength,x,y,z
0.0,-22.146606445312,20.134643554688,1.5565185546875
0.0005,-23.588012695312,17.572143554688,5.5203857421875
0.001,-24.508911132812,13.928588867188,10.204956054688
0.0015,-23.507934570312,9.0838623046875,13.928588867188
0.002,-23.588012695312,6.2410888671875,16.931518554688
0.0025,-21.105590820312,1.2362060546875,19.413940429688
0.003,-19.744262695312,-3.0079345703125,22.336791992188
0.0035,-16.020629882812,-7.2120361328125,22.737182617188
0.004,-12.457153320312,-11.896606445312,23.938354492188
0.0045,-8.2530517578125,-15.019653320312,22.977416992188
0.005,-3.5684814453125,-18.302856445312,21.656127929688
0.0055,0.9158935546875,-20.224731445312,20.494995117188
0.006,5.2801513671875,-22.627075195312,17.331909179688
0.0065,9.8446044921875,-23.147583007812,13.368041992188
0.007,14.008666992188,-22.987426757812,10.244995117188
0.0075,16.931518554688,-21.786254882812,6.2410888671875
0.008,19.934448242188,-21.145629882812,1.1561279296875
0.0085,22.136596679688,-19.383911132812,-2.8878173828125
0.009,22.977416992188,-16.421020507812,-6.6915283203125
0.0095,24.018432617188,-13.057739257812,-11.135864257812
0.01,22.857299804688,-8.5733642578125,-14.419067382812
0.0105,22.536987304688,-5.2100830078125,-17.462036132812
0.011,20.174682617188,-0.5255126953125,-19.784301757812
0.0115,18.693237304688,3.9188232421875,-22.667114257812
0.012,14.449096679688,8.2430419921875,-22.787231445312
0.0125,10.685424804688,12.647338867188,-23.427856445312
0.013,7.0819091796875,15.490112304688,-22.787231445312
0.0135,1.9969482421875,18.653198242188,-20.985473632812
0.014,-2.2471923828125,20.615112304688,-18.823364257812
0.0145,-6.7716064453125,22.536987304688,-16.300903320312
0.015,-11.095825195312,23.137573242188,-12.577270507812
0.0155,-15.019653320312,22.536987304688,-8.0928955078125
0.016,-17.702270507812,22.376831054688,-5.2100830078125
0.0165,-20.384887695312,20.214721679688,-0.3653564453125
0.017,-22.587036132812,18.372924804688,3.7586669921875
0.0175,-22.747192382812,14.649291992188,7.6024169921875
0.018,-23.708129882812,11.366088867188,11.966674804688
0.0185,-22.506958007812,7.1619873046875,14.969604492188
0.019,-21.706176757812,3.3182373046875,18.012573242188
0.0195,-19.463989257812,-1.1661376953125,20.134643554688
0.02,-17.502075195312,-5.6905517578125,22.697143554688
0.0205,-13.257934570312,-9.6944580078125,22.536987304688
0.021,-9.2139892578125,-13.858520507812,22.737182617188
0.0215,-5.8106689453125,-16.340942382812,21.856323242188
0.022,-0.4454345703125,-19.383911132812,19.654174804688
0.0225,3.6385498046875,-21.265747070312,17.612182617188
0.023,8.2830810546875,-22.466918945312,14.208862304688
0.0235,12.166870117188,-23.027465820312,10.925659179688
0.024,15.850463867188,-22.226684570312,6.4412841796875
0.0245,18.412963867188,-21.706176757812,3.1981201171875
0.025,20.815307617188,-19.544067382812,-1.4464111328125
0.0255,22.977416992188,-17.502075195312,-5.6505126953125
0.026,22.536987304688,-13.418090820312,-9.2540283203125
0.0265,23.337768554688,-10.174926757812,-13.297973632812
0.027,22.056518554688,-6.3712158203125,-15.820434570312
0.0275,20.735229492188,-1.9268798828125,-18.943481445312
0.028,18.613159179688,2.1971435546875,-20.865356445312
0.0285,15.770385742188,7.0018310546875,-22.827270507812
0.029,11.806518554688,10.765502929688,-22.707153320312
0.0295,7.6424560546875,14.649291992188,-22.466918945312
0.03,4.2791748046875,16.851440429688,-21.425903320312
0.0305,-0.9259033203125,19.734252929688,-17.942504882812
0.031,-4.9698486328125,21.616088867188,-17.181762695312
0.0315,-9.4942626953125,22.176635742188,-13.177856445312
0.032,-13.177856445312,22.737182617188,-10.094848632812
0.0325,-16.461059570312,21.656127929688,-5.7706298828125
0.033,-18.983520507812,20.775268554688,-2.2872314453125
0.0335,-20.905395507812,18.613159179688,1.7967529296875
0.034,-22.827270507812,16.170776367188,6.2410888671875
0.0345,-22.186645507812,12.006713867188,9.8446044921875
0.035,-22.747192382812,8.6434326171875,13.688354492188
0.0355,-21.505981445312,6.4012451171875,15.970581054688
0.036,-19.984497070312,0.5155029296875,19.053588867188
0.0365,-16.661254882812,-3.3682861328125,20.815307617188
0.037,-14.619262695312,-8.0928955078125,22.256713867188
0.0375,-11.055786132812,-11.576293945312,22.256713867188
0.038,-6.6915283203125,-15.099731445312,21.495971679688
0.0385,-2.9278564453125,-17.341918945312,20.014526367188
0.039,1.7967529296875,-19.944458007812,18.092651367188
0.0395,6.1209716796875,-21.826293945312,15.730346679688
0.04,10.204956054688,-21.826293945312,11.606323242188
0.0405,13.928588867188,-22.587036132812,8.6033935546875
0.041,16.931518554688,-21.305786132812,4.3192138671875
0.0415,19.654174804688,-20.104614257812,0.3953857421875
0.042,21.175659179688,-18.022583007812,-3.2081298828125
0.0425,22.857299804688,-15.179809570312,-7.7725830078125
0.043,22.256713867188,-11.175903320312,-11.215942382812
0.0435,22.416870117188,-6.4112548828125,-14.859497070312
0.044,20.935424804688,-3.9288330078125,-17.101684570312
0.0445,19.453979492188,0.7156982421875,-20.224731445312
0.045,16.811401367188,4.8397216796875,-21.746215820312
0.0455,13.007690429688,9.5242919921875,-22.587036132812
0.046,9.6444091796875,12.927612304688,-22.787231445312
0.0465,4.9998779296875,16.290893554688,-21.546020507812
0.047,0.9158935546875,18.613159179688,-19.864379882812
0.0475,-3.2882080078125,20.855346679688,-18.022583007812
0.048,-8.1729736328125,22.536987304688,-14.939575195312
0.0485,-12.136840820312,22.056518554688,-10.535278320312
0.049,-15.660278320312,22.577026367188,-7.5723876953125
0.0495,-18.463012695312,20.895385742188,-3.0880126953125
0.05,-21.105590820312,19.494018554688,1.1561279296875
0.0505,-22.066528320312,16.931518554688,4.6795654296875
0.051,-23.347778320312,13.488159179688,9.4041748046875
0.0515,-22.627075195312,9.4442138671875,12.767456054688
0.052,-22.346801757812,5.6805419921875,16.250854492188
0.0525,-20.384887695312,1.5565185546875,18.412963867188
0.053,-18.983520507812,-2.8077392578125,21.335815429688
0.0535,-15.700317382812,-7.1719970703125,22.416870117188
0.054,-10.255004882812,-11.496215820312,22.657104492188
0.0545,-8.3331298828125,-14.699340820312,22.697143554688
0.055,-3.0479736328125,-17.862426757812,20.695190429688
0.0555,1.3162841796875,-20.184692382812,18.733276367188
0.056,5.2401123046875,-21.826293945312,16.611206054688
0.0565,10.084838867188,-23.267700195312,13.167846679688
0.057,13.768432617188,-22.346801757812,8.5233154296875
0.0575,17.211791992188,-22.627075195312,5.4002685546875
0.058,19.734252929688,-20.464965820312,0.7557373046875
0.0585,22.256713867188,-18.903442382812,-3.4083251953125
0.059,22.617065429688,-15.860473632812,-6.9317626953125
0.0595,23.537963867188,-12.216918945312,-11.416137695312
0.06,22.777221679688,-8.4932861328125,-14.419067382812
0.0605,21.816284179688,-4.1690673828125,-17.782348632812
0.061,19.774291992188,0.0350341796875,-19.824340820312
0.0615,17.972534179688,4.2791748046875,-22.306762695312
0.062,14.208862304688,8.8035888671875,-21.786254882812
0.0625,9.7244873046875,12.767456054688,-22.667114257812
0.063,6.7215576171875,15.730346679688,-22.747192382812
0.0635,1.3563232421875,18.653198242188,-20.304809570312
0.064,-2.8477783203125,20.935424804688,-18.583129882812
0.0645,-6.8116455078125,22.016479492188,-15.700317382812
0.065,-11.416137695312,23.217651367188,-12.377075195312
0.0655,-14.859497070312,22.136596679688,-7.8927001953125
0.066,-18.062622070312,21.936401367188,-4.4493408203125
0.0665,-20.224731445312,19.774291992188,1.2762451171875
0.067,-22.466918945312,18.052612304688,3.9588623046875
0.0675,-22.466918945312,14.449096679688,7.5623779296875
0.068,-23.027465820312,10.725463867188,11.886596679688
0.0685,-22.546997070312,7.4822998046875,14.689331054688
0.069,-21.025512695312,2.7176513671875,17.892456054688
0.0695,-19.263793945312,-1.2061767578125,19.974487304688
0.07,-16.941528320312,-5.3302001953125,21.816284179688
0.0705,-13.538208007812,-9.6143798828125,22.777221679688
0.071,-8.9337158203125,-13.338012695312,21.896362304688
0.0715,-5.7706298828125,-16.180786132812,21.736206054688
0.072,-0.5255126953125,-18.823364257812,19.173706054688
0.0725,3.5985107421875,-21.305786132812,17.612182617188
0.073,8.9637451171875,-20.505004882812,14.008666992188
0.0735,11.886596679688,-22.827270507812,10.845581054688
0.074,15.209838867188,-21.946411132812,6.8416748046875
0.0745,18.372924804688,-21.265747070312,2.9178466796875
0.075,20.454956054688,-19.183715820312,-0.0050048828125
0.0755,22.536987304688,-17.301879882812,-5.3302001953125
0.076,22.456909179688,-13.658325195312,-8.9337158203125
0.0765,22.657104492188,-9.7745361328125,-13.017700195312
0.077,22.296752929688,-6.8516845703125,-15.580200195312
0.0775,20.334838867188,-1.7266845703125,-18.663208007812
0.078,18.693237304688,2.2371826171875,-20.985473632812
0.0785,15.490112304688,6.6014404296875,-22.106567382812
0.079,12.206909179688,10.725463867188,-21.786254882812
0.0795,7.5623779296875,14.328979492188,-22.066528320312
0.08,3.9989013671875,17.131713867188,-21.425903320312
0.0805,-1.0860595703125,19.534057617188,-18.943481445312
0.081,-5.3302001953125,22.056518554688,-17.261840820312
0.0815,-9.5343017578125,22.016479492188,-13.137817382812
0.082,-13.578247070312,22.817260742188,-9.7745361328125
0.0825,-16.581176757812,21.976440429688,-5.9708251953125
0.083,-19.584106445312,20.775268554688,-1.6866455078125
0.0835,-21.425903320312,18.573120117188,2.3973388671875
0.084,-23.107543945312,15.970581054688,6.7215576171875
0.0845,-22.947387695312,12.166870117188,10.365112304688
0.085,-22.707153320312,7.9627685546875,14.369018554688
0.0855,-22.066528320312,4.9197998046875,16.731323242188
0.086,-19.944458007812,-0.3653564453125,19.854370117188
0.0865,-18.062622070312,-4.4893798828125,22.056518554688
0.087,-14.138793945312,-8.9337158203125,22.577026367188
0.0875,-10.935668945312,-12.697387695312,23.257690429688
0.088,-6.1710205078125,-16.020629882812,21.896362304688
0.0885,-1.9268798828125,-18.783325195312,20.454956054688
0.089,2.8778076171875,-21.025512695312,18.052612304688
0.0895,7.5623779296875,-23.307739257812,15.690307617188
0.09,11.486206054688,-22.747192382812,11.326049804688
0.0905,15.450073242188,-23.147583007812,7.7225341796875
0.091,18.252807617188,-21.986450195312,3.7987060546875
0.0915,21.255737304688,-20.384887695312,-0.9659423828125
0.092,22.737182617188,-18.022583007812,-4.8096923828125
0.0925,23.938354492188,-14.739379882812,-9.2940673828125
0.093,23.698120117188,-11.095825195312,-12.737426757812
0.0935,22.977416992188,-6.7315673828125,-16.380981445312
0.094,21.736206054688,-3.0880126953125,-18.743286132812
0.0945,19.574096679688,1.9969482421875,-21.626098632812
0.095,16.931518554688,6.6014404296875,-23.588012695312
0.0955,12.407104492188,10.965698242188,-23.467895507812
0.096,9.2039794921875,14.529174804688,-23.908325195312
0.0965,4.2391357421875,17.612182617188,-22.186645507812
0.097,-0.4854736328125,20.374877929688,-20.384887695312
0.0975,-4.6495361328125,22.136596679688,-18.022583007812
0.098,-9.8145751953125,24.058471679688,-14.819458007812
0.0985,-13.458129882812,23.217651367188,-10.295043945312
0.099,-17.301879882812,23.337768554688,-6.6514892578125
0.0995,-19.744262695312,21.736206054688,-2.5274658203125
0.1,-22.506958007812,19.814331054688,2.2772216796875
0.1005,-23.588012695312,17.011596679688,6.1209716796875
0.101,-24.228637695312,13.087768554688,10.725463867188
0.1015,-24.028442382812,9.6043701171875,14.048706054688
0.102,-22.827270507812,4.9598388671875,17.411987304688
0.1025,-21.145629882812,0.9559326171875,19.774291992188
0.103,-19.143676757812,-3.5684814453125,22.216674804688
0.1035,-16.020629882812,-8.3731689453125,23.978393554688
0.104,-11.296020507812,-12.337036132812,23.217651367188
0.1045,-8.0928955078125,-15.860473632812,23.537963867188
0.105,-2.8477783203125,-18.663208007812,21.215698242188
0.1055,2.0369873046875,-21.425903320312,20.494995117188
0.106,5.9207763671875,-22.667114257812,16.771362304688
0.1065,11.085815429688,-24.228637695312,13.167846679688
0.107,14.529174804688,-23.227661132812,8.7635498046875
0.1075,18.292846679688,-21.786254882812,4.7996826171875
0.108,20.575073242188,-21.185668945312,0.6356201171875
0.1085,23.097534179688,-19.303833007812,-3.8887939453125
0.109,23.938354492188,-16.180786132812,-7.8126220703125
0.1095,24.098510742188,-12.056762695312,-12.176879882812
0.11,24.018432617188,-8.8536376953125,-15.259887695312
0.1105,22.336791992188,-3.8887939453125,-18.583129882812
0.111,20.535034179688,0.3553466796875,-20.985473632812
0.1115,18.292846679688,4.6395263671875,-22.987426757812
0.112,14.729370117188,9.7244873046875,-24.548950195312
0.1125,9.7645263671875,13.488159179688,-23.467895507812
0.113,6.4412841796875,16.931518554688,-23.628051757812
0.1135,1.2362060546875,19.494018554688,-21.105590820312
0.114,-3.5684814453125,22.296752929688,-17.942504882812
0.1145,-7.6124267578125,23.097534179688,-16.020629882812
0.115,-12.617309570312,25.619995117188,-12.256958007812
0.1155,-15.940551757812,23.417846679688,-8.0928955078125
0.116,-19.544067382812,22.737182617188,-3.7286376953125
0.1165,-21.586059570312,20.615112304688,0.5155029296875
0.117,-23.868286132812,18.533081054688,4.8397216796875
0.1175,-24.308715820312,14.849487304688,9.0838623046875
0.118,-24.148559570312,10.365112304688,13.408081054688
0.1185,-24.068481445312,7.3621826171875,16.290893554688
0.119,-21.946411132812,1.9168701171875,19.534057617188
0.1195,-20.144653320312,-2.3272705078125,22.016479492188
0.12,-17.261840820312,-6.5714111328125,23.377807617188
0.1205,-13.738403320312,-11.496215820312,24.779174804688
0.121,-8.6134033203125,-15.099731445312,23.337768554688
0.1215,-4.8497314453125,-18.302856445312,22.817260742188
0.122,0.6756591796875,-20.745239257812,19.974487304688
0.1225,5.2401123046875,-23.467895507812,18.212768554688
0.123,9.5242919921875,-23.668090820312,14.128784179688
0.1235,14.128784179688,-24.428833007812,10.365112304688
0.124,17.291870117188,-23.668090820312,7.6824951171875
0.1245,20.815307617188,-22.386840820312,1.5965576171875
0.125,22.857299804688,-19.984497070312,-2.9278564453125
0.1255,24.779174804688,-17.662231445312,-7.1719970703125
0.126,24.899291992188,-13.778442382812,-11.255981445312
0.1265,25.619995117188,-9.1339111328125,-15.339965820312
0.127,23.938354492188,-6.1309814453125,-17.902465820312
0.1275,21.335815429688,-0.3653564453125,-21.105590820312
0.128,19.494018554688,3.9989013671875,-23.588012695312
0.1285,15.570190429688,8.4832763671875,-24.228637695312
0.129,12.086791992188,13.047729492188,-25.309692382812
0.1295,6.9217529296875,16.571166992188,-23.748168945312
0.13,2.7977294921875,19.614135742188,-22.707153320312
0.1305,-1.2862548828125,21.896362304688,-19.824340820312
0.131,-7.2120361328125,24.498901367188,-17.822387695312
0.1315,-11.576293945312,24.218627929688,-13.177856445312
0.132,-15.940551757812,24.578979492188,-9.2139892578125
0.1325,-18.743286132812,23.658081054688,-5.4503173828125
0.133,-22.066528320312,21.856323242188,-0.3653564453125
0.1335,-23.788208007812,19.333862304688,4.0789794921875
0.134,-25.189575195312,16.250854492188,8.5633544921875
0.1345,-25.189575195312,12.286987304688,12.527221679688
0.135,-24.268676757812,7.4022216796875,16.451049804688
0.1355,-23.547973632812,4.1990966796875,18.893432617188
0.136,-20.905395507812,-1.4864501953125,21.896362304688
0.1365,-18.903442382812,-6.0108642578125,25.619995117188
0.137,-14.379028320312,-10.495239257812,25.619995117188
0.1375,-10.895629882812,-14.619262695312,25.059448242188
0.138,-5.8907470703125,-17.702270507812,23.337768554688
0.1385,-1.0460205078125,-20.705200195312,21.576049804688
0.139,3.9588623046875,-22.787231445312,18.813354492188
0.1395,10.244995117188,-25.029418945312,16.130737304688
0.14,12.967651367188,-24.388793945312,12.807495117188
0.1405,17.131713867188,-24.508911132812,7.4422607421875
0.141,19.774291992188,-23.387817382812,3.6385498046875
0.1415,23.017456054688,-21.305786132812,-1.7266845703125
0.142,24.578979492188,-18.663208007812,-5.9708251953125
0.1425,25.379760742188,-15.019653320312,-10.455200195312
0.143,25.419799804688,-11.336059570312,-14.178833007812
0.1435,24.138549804688,-6.4913330078125,-17.702270507812
0.144,22.817260742188,-2.7276611328125,-20.224731445312
0.1445,20.374877929688,2.5975341796875,-22.987426757812
0.145,17.612182617188,7.5223388671875,-25.229614257812
0.1455,12.647338867188,11.886596679688,-24.669067382812
0.146,9.1639404296875,15.850463867188,-25.189575195312
0.1465,4.3192138671875,18.733276367188,-23.267700195312
0.147,-0.9659423828125,21.736206054688,-21.225708007812
0.1475,-5.4102783203125,23.497924804688,-18.583129882812
0.148,-10.815551757812,25.379760742188,-15.139770507812
0.1485,-14.539184570312,24.538940429688,-10.575317382812
0.149,-18.543090820312,24.378784179688,-5.1300048828125
0.1495,-20.865356445312,22.817260742188,-2.4874267578125
0.15,-23.788208007812,20.615112304688,2.7176513671875
0.1505,-25.069458007812,17.612182617188,7.0418701171875
0.151,-25.349731445312,13.287963867188,11.646362304688
0.1515,-25.389770507812,9.7645263671875,15.209838867188
0.152,-23.828247070312,4.8397216796875,18.533081054688
0.1525,-22.106567382812,0.5955810546875,20.975463867188
0.153,-19.784301757812,-4.2091064453125,23.457885742188
0.1535,-16.541137695312,-9.4542236328125,25.419799804688
0.154,-11.416137695312,-13.418090820312,24.418823242188
0.1545,-7.8927001953125,-17.061645507812,24.699096679688
0.155,-2.7677001953125,-19.704223632812,22.256713867188
0.1555,2.5975341796875,-22.707153320312,20.054565429688
0.156,6.8817138671875,-24.068481445312,17.211791992188
0.1565,12.286987304688,-25.509887695312,13.287963867188
0.157,15.730346679688,-24.548950195312,8.9237060546875
0.1575,19.574096679688,-24.108520507812,4.5594482421875
0.158,21.856323242188,-22.146606445312,0.3153076171875
0.1585,24.498901367188,-19.944458007812,-4.5694580078125
0.159,25.539916992188,-16.541137695312,-9.0538330078125
0.1595,25.339721679688,-12.016723632812,-13.458129882812
0.16,25.339721679688,-8.8135986328125,-15.380004882812
0.1605,23.337768554688,-3.5684814453125,-19.904418945312
0.161,21.335815429688,0.9559326171875,-22.466918945312
0.1615,18.733276367188,5.5203857421875,-24.388793945312
0.162,14.929565429688,11.045776367188,-26.110473632812
0.1625,9.7244873046875,14.849487304688,-24.709106445312
0.163,6.1209716796875,18.292846679688,-24.669067382812
0.1635,0.8758544921875,20.775268554688,-21.946411132812
0.164,-4.3292236328125,23.698120117188,-19.864379882812
0.1645,-8.7335205078125,24.458862304688,-16.300903320312
0.165,-13.978637695312,25.579956054688,-12.216918945312
0.1655,-17.181762695312,24.619018554688,-8.0528564453125
0.166,-20.825317382812,23.658081054688,-3.3282470703125
0.1665,-22.867309570312,21.375854492188,1.0760498046875
0.167,-25.109497070312,19.053588867188,5.6004638671875
0.1675,-25.710083007812,15.049682617188,11.526245117188
0.168,-25.189575195312,11.526245117188,14.569213867188
0.1685,-25.109497070312,7.1619873046875,17.452026367188
0.169,-22.707153320312,1.5965576171875,20.615112304688
0.1695,-20.825317382812,-2.9278564453125,23.177612304688
0.17,-17.662231445312,-7.3321533203125,24.458862304688
0.1705,-13.858520507812,-12.497192382812,25.940307617188
0.171,-8.6534423828125,-16.020629882812,24.298706054688
0.1715,-4.6495361328125,-19.263793945312,23.658081054688
0.172,0.7957763671875,-21.586059570312,20.735229492188
0.1725,5.6805419921875,-24.388793945312,18.773315429688
0.173,10.204956054688,-24.629028320312,14.489135742188
0.1735,15.009643554688,-25.349731445312,10.405151367188
0.174,18.052612304688,-24.548950195312,6.6014404296875
0.1745,21.616088867188,-23.027465820312,1.4364013671875
0.175,23.658081054688,-20.585083007812,-3.1280517578125
0.1755,25.539916992188,-18.102661132812,-7.4923095703125
0.176,25.900268554688,-12.817504882812,-11.896606445312
0.1765,25.099487304688,-9.2139892578125,-16.020629882812
0.177,24.779174804688,-6.2510986328125,-18.663208007812
0.1775,22.056518554688,-0.4053955078125,-21.746215820312
0.178,20.094604492188,4.1990966796875,-24.388793945312
