wavelength,x,y,z
0.0,10.740478515625,-10.720458984375,-0.510498046875
0.0005,11.661376953125,-9.759521484375,-2.432373046875
0.001,11.741455078125,-7.317138671875,-4.994873046875
0.0015,11.821533203125,-5.315185546875,-7.036865234375
0.002,11.341064453125,-2.912841796875,-8.838623046875
0.0025,10.540283203125,-0.710693359375,-10.159912109375
0.003,9.259033203125,1.531494140625,-11.040771484375
0.0035,8.017822265625,3.693603515625,-11.881591796875
0.004,5.495361328125,6.456298828125,-12.161865234375
0.0045,3.653564453125,8.097900390625,-11.841552734375
0.005,1.091064453125,9.859619140625,-11.080810546875
0.0055,-0.990966796875,10.780517578125,-9.959716796875
0.006,-3.113037109375,11.701416015625,-8.798583984375
0.0065,-5.515380859375,12.101806640625,-6.716552734375
0.007,-7.797607421875,12.181884765625,-4.514404296875
0.0075,-9.158935546875,11.581298828125,-2.592529296875
0.008,-10.560302734375,10.980712890625,-0.510498046875
0.0085,-11.200927734375,9.619384765625,1.451416015625
0.009,-11.921630859375,8.418212890625,3.373291015625
0.0095,-11.921630859375,5.695556640625,6.095947265625
0.01,-11.881591796875,3.893798828125,7.857666015625
0.0105,-11.120849609375,1.331298828125,9.619384765625
0.011,-10.239990234375,-0.710693359375,10.700439453125
0.0115,-8.918701171875,-2.952880859375,11.541259765625
0.012,-7.237060546875,-5.155029296875,12.021728515625
0.0125,-4.794677734375,-7.837646484375,12.221923828125
0.013,-2.672607421875,-9.279052734375,11.581298828125
0.0135,-0.310302734375,-10.920654296875,10.860595703125
0.014,1.731689453125,-11.681396484375,9.619384765625
0.0145,3.853759765625,-12.602294921875,8.378173828125
0.015,6.416259765625,-12.802490234375,6.015869140625
0.0155,8.458251953125,-12.882568359375,4.093994140625
0.016,9.739501953125,-12.001708984375,1.851806640625
0.0165,10.980712890625,-11.401123046875,0.010009765625
0.017,11.541259765625,-9.959716796875,-2.112060546875
0.0175,11.941650390625,-8.478271484375,-4.033935546875
0.018,12.101806640625,-5.635498046875,-6.876708984375
0.0185,11.701416015625,-3.593505859375,-8.478271484375
0.019,10.860595703125,-1.111083984375,-10.119873046875
0.0195,9.859619140625,0.970947265625,-11.080810546875
0.02,8.498291015625,3.173095703125,-11.881591796875
0.0205,6.456298828125,5.615478515625,-12.281982421875
0.021,4.134033203125,8.137939453125,-12.402099609375
0.0215,1.731689453125,9.459228515625,-11.281005859375
0.022,-0.550537109375,10.980712890625,-10.600341796875
0.0225,-2.592529296875,11.581298828125,-9.158935546875
0.023,-4.714599609375,12.221923828125,-7.717529296875
0.0235,-7.437255859375,12.422119140625,-5.114990234375
0.024,-9.158935546875,12.221923828125,-3.153076171875
0.0245,-10.440185546875,11.060791015625,-0.830810546875
0.025,-11.481201171875,10.380126953125,0.970947265625
0.0255,-11.921630859375,8.818603515625,3.012939453125
0.026,-12.121826171875,6.896728515625,5.135009765625
0.0265,-12.362060546875,4.334228515625,7.937744140625
0.027,-11.521240234375,1.931884765625,9.379150390625
0.0275,-10.760498046875,-0.390380859375,10.860595703125
0.028,-9.479248046875,-2.472412109375,11.661376953125
0.0285,-7.997802734375,-4.594482421875,12.261962890625
0.029,-5.635498046875,-7.237060546875,12.502197265625
0.0295,-3.273193359375,-9.479248046875,12.422119140625
0.03,-0.630615234375,-10.760498046875,11.020751953125
0.0305,1.291259765625,-12.081787109375,10.460205078125
0.031,3.533447265625,-12.682373046875,8.818603515625
0.0315,5.615478515625,-13.082763671875,7.096923828125
0.032,8.458251953125,-13.403076171875,4.494384765625
0.0325,9.939697265625,-12.722412109375,2.292236328125
0.033,11.180908203125,-11.801513671875,0.130126953125
0.0335,11.981689453125,-10.720458984375,-1.791748046875
0.034,12.302001953125,-8.998779296875,-3.793701171875
0.0345,12.382080078125,-6.676513671875,-6.156005859375
0.035,12.582275390625,-4.114013671875,-8.838623046875
0.0355,11.220947265625,-1.391357421875,-10.159912109375
0.036,10.620361328125,0.690673828125,-11.561279296875
0.0365,9.018798828125,2.892822265625,-12.201904296875
0.037,7.417236328125,5.054931640625,-12.682373046875
0.0375,4.774658203125,7.977783203125,-12.882568359375
0.038,2.372314453125,9.899658203125,-12.362060546875
0.0385,-0.470458984375,11.140869140625,-10.880615234375
0.039,-2.192138671875,12.181884765625,-10.159912109375
0.0395,-4.634521484375,12.662353515625,-8.197998046875
0.04,-6.796630859375,12.742431640625,-6.115966796875
0.0405,-9.599365234375,13.062744140625,-3.593505859375
0.041,-10.760498046875,11.701416015625,-1.111083984375
0.0415,-11.961669921875,10.940673828125,0.850830078125
0.042,-12.522216796875,9.579345703125,2.852783203125
0.0425,-12.682373046875,7.697509765625,4.854736328125
0.043,-12.762451171875,5.135009765625,7.537353515625
0.0435,-12.642333984375,2.532470703125,9.939697265625
0.044,-10.960693359375,-0.230224609375,10.940673828125
0.0445,-10.440185546875,-2.112060546875,12.302001953125
0.045,-8.558349609375,-4.474365234375,12.662353515625
0.0455,-6.596435546875,-6.596435546875,12.862548828125
0.046,-3.993896484375,-9.519287109375,13.142822265625
0.0465,-1.271240234375,-11.080810546875,11.981689453125
0.047,1.131103515625,-12.241943359375,10.780517578125
0.0475,3.052978515625,-13.162841796875,9.739501953125
0.048,5.495361328125,-13.563232421875,7.697509765625
0.0485,7.817626953125,-13.683349609375,5.415283203125
0.049,10.380126953125,-13.803466796875,2.972900390625
0.0495,11.301025390625,-12.161865234375,0.370361328125
0.05,12.502197265625,-11.521240234375,-1.431396484375
0.0505,12.782470703125,-9.679443359375,-3.593505859375
0.051,12.782470703125,-7.557373046875,-5.635498046875
0.0515,12.982666015625,-4.994873046875,-8.398193359375
0.052,12.342041015625,-2.232177734375,-10.520263671875
0.0525,10.820556640625,0.370361328125,-11.521240234375
0.053,10.099853515625,2.292236328125,-12.642333984375
0.0535,7.937744140625,4.854736328125,-13.002685546875
0.054,5.775634765625,7.096923828125,-13.042724609375
0.0545,3.213134765625,9.939697265625,-13.282958984375
0.055,0.330322265625,11.100830078125,-11.561279296875
0.0555,-1.791748046875,12.302001953125,-10.640380859375
0.056,-4.033935546875,13.022705078125,-9.118896484375
0.0565,-6.436279296875,13.102783203125,-6.836669921875
0.057,-8.798583984375,13.142822265625,-4.554443359375
0.0575,-10.960693359375,12.822509765625,-2.031982421875
0.058,-11.761474609375,11.220947265625,0.490478515625
0.0585,-12.842529296875,10.500244140625,2.252197265625
0.059,-13.042724609375,8.338134765625,4.614501953125
0.0595,-12.842529296875,6.095947265625,6.696533203125
0.06,-13.122802734375,3.573486328125,9.419189453125
0.0605,-11.881591796875,0.690673828125,11.020751953125
0.061,-10.640380859375,-1.631591796875,12.021728515625
0.0615,-9.559326171875,-3.713623046875,12.942626953125
0.062,-7.197021484375,-6.316162109375,13.142822265625
0.0625,-4.994873046875,-8.478271484375,13.102783203125
0.063,-2.352294921875,-11.040771484375,12.942626953125
0.0635,0.490478515625,-12.001708984375,11.180908203125
0.064,2.412353515625,-13.202880859375,10.460205078125
0.0645,4.974853515625,-13.843505859375,8.458251953125
0.065,7.217041015625,-13.843505859375,6.135986328125
0.0655,9.579345703125,-14.043701171875,3.973876953125
0.066,11.341064453125,-13.122802734375,1.371337890625
0.0665,12.101806640625,-11.681396484375,-0.910888671875
0.067,13.022705078125,-10.720458984375,-2.792724609375
0.0675,13.102783203125,-8.157958984375,-5.395263671875
0.068,12.902587890625,-5.915771484375,-7.397216796875
0.0685,12.982666015625,-3.353271484375,-10.079833984375
0.069,11.461181640625,-0.510498046875,-11.281005859375
0.0695,10.460205078125,1.731689453125,-12.442138671875
0.07,8.898681640625,4.134033203125,-13.162841796875
0.0705,6.416259765625,6.736572265625,-13.363037109375
0.071,4.134033203125,8.978759765625,-13.202880859375
0.0715,1.491455078125,11.060791015625,-12.682373046875
0.072,-1.271240234375,11.981689453125,-10.880615234375
0.0725,-3.193115234375,13.062744140625,-10.039794921875
0.073,-6.115966796875,13.543212890625,-7.517333984375
0.0735,-8.197998046875,13.262939453125,-5.275146484375
0.074,-10.400146484375,13.262939453125,-3.072998046875
0.0745,-11.841552734375,12.021728515625,-0.350341796875
0.075,-12.522216796875,10.820556640625,1.731689453125
0.0755,-13.363037109375,9.459228515625,3.853759765625
0.076,-13.282958984375,6.576416015625,6.616455078125
0.0765,-13.122802734375,4.454345703125,8.498291015625
0.077,-12.842529296875,1.651611328125,10.980712890625
0.0775,-11.160888671875,-0.990966796875,11.901611328125
0.078,-10.119873046875,-3.153076171875,12.982666015625
0.0785,-8.037841796875,-5.835693359375,13.543212890625
0.079,-5.475341796875,-8.358154296875,13.463134765625
0.0795,-3.193115234375,-10.400146484375,13.182861328125
0.08,-0.350341796875,-12.201904296875,12.181884765625
0.0805,2.052001953125,-13.082763671875,10.580322265625
0.081,4.254150390625,-14.163818359375,9.459228515625
0.0815,7.217041015625,-14.364013671875,6.696533203125
0.082,9.138916015625,-14.043701171875,4.534423828125
0.0825,11.140869140625,-13.763427734375,2.212158203125
0.083,12.261962890625,-12.362060546875,-0.350341796875
0.0835,13.022705078125,-11.040771484375,-2.432373046875
0.084,13.543212890625,-9.198974609375,-4.794677734375
0.0845,13.423095703125,-6.276123046875,-7.557373046875
0.085,13.062744140625,-4.114013671875,-9.359130859375
0.0855,12.422119140625,-1.271240234375,-11.521240234375
0.086,10.780517578125,1.291259765625,-12.322021484375
0.0865,9.579345703125,3.533447265625,-13.322998046875
0.087,7.177001953125,6.456298828125,-13.803466796875
0.0875,4.614501953125,8.818603515625,-13.523193359375
0.088,2.212158203125,10.700439453125,-13.002685546875
0.0885,-0.630615234375,12.181884765625,-11.721435546875
0.089,-2.912841796875,12.862548828125,-10.199951171875
0.0895,-5.275146484375,13.743408203125,-8.678466796875
0.09,-8.197998046875,13.743408203125,-5.635498046875
0.0905,-9.919677734375,13.423095703125,-3.593505859375
0.091,-11.721435546875,12.662353515625,-1.071044921875
0.0915,-12.602294921875,11.260986328125,1.251220703125
0.092,-13.403076171875,9.939697265625,3.373291015625
0.0925,-13.603271484375,7.657470703125,5.895751953125
0.093,-13.443115234375,4.854736328125,8.498291015625
0.0935,-12.922607421875,2.532470703125,10.219970703125
0.094,-12.001708984375,-0.270263671875,12.021728515625
0.0945,-10.360107421875,-2.632568359375,12.742431640625
0.095,-8.998779296875,-4.914794921875,13.583251953125
0.0955,-6.276123046875,-7.917724609375,13.783447265625
0.096,-3.873779296875,-9.959716796875,13.423095703125
0.0965,-1.191162109375,-11.801513671875,12.542236328125
0.097,1.331298828125,-13.082763671875,11.341064453125
0.0975,3.653564453125,-13.883544921875,9.739501953125
0.098,6.055908203125,-14.404052734375,7.937744140625
0.0985,8.978759765625,-14.404052734375,5.054931640625
0.099,10.460205078125,-13.803466796875,2.972900390625
0.0995,12.141845703125,-12.962646484375,0.450439453125
0.1,12.822509765625,-11.481201171875,-1.791748046875
0.1005,13.503173828125,-10.039794921875,-3.913818359375
0.101,13.503173828125,-7.317138671875,-6.636474609375
0.1015,13.423095703125,-4.794677734375,-9.038818359375
0.102,12.502197265625,-2.112060546875,-10.760498046875
0.1025,11.541259765625,0.450439453125,-12.241943359375
0.103,9.899658203125,2.892822265625,-12.962646484375
0.1035,8.298095703125,5.135009765625,-13.723388671875
0.104,5.415283203125,8.298095703125,-13.843505859375
0.1045,3.052978515625,10.099853515625,-13.282958984375
0.105,0.170166015625,11.781494140625,-12.161865234375
0.1055,-2.152099609375,12.782470703125,-10.840576171875
0.106,-4.514404296875,13.503173828125,-9.198974609375
0.1065,-6.956787109375,13.743408203125,-6.916748046875
0.107,-9.759521484375,13.783447265625,-4.194091796875
0.1075,-11.000732421875,12.742431640625,-1.871826171875
0.108,-12.522216796875,11.941650390625,0.530517578125
0.1085,-13.082763671875,10.260009765625,2.692626953125
0.109,-13.563232421875,8.778564453125,4.774658203125
0.1095,-13.523193359375,5.735595703125,7.697509765625
0.11,-13.322998046875,3.333251953125,9.819580078125
0.1105,-12.121826171875,0.570556640625,11.381103515625
0.111,-11.120849609375,-1.791748046875,12.662353515625
0.1115,-9.359130859375,-4.234130859375,13.262939453125
0.112,-7.517333984375,-6.476318359375,13.583251953125
0.1125,-4.634521484375,-9.639404296875,13.783447265625
0.113,-2.072021484375,-11.120849609375,12.742431640625
0.1135,0.610595703125,-12.762451171875,11.701416015625
0.114,2.812744140625,-13.483154296875,10.340087890625
0.1145,5.094970703125,-14.203857421875,8.698486328125
0.115,7.737548828125,-14.203857421875,6.095947265625
0.1155,10.219970703125,-14.323974609375,3.693603515625
0.116,11.381103515625,-12.882568359375,1.131103515625
0.1165,12.742431640625,-12.201904296875,-0.990966796875
0.117,13.102783203125,-10.320068359375,-3.233154296875
0.1175,13.343017578125,-8.638427734375,-5.155029296875
0.118,13.463134765625,-5.595458984375,-8.278076171875
0.1185,12.822509765625,-3.153076171875,-10.119873046875
0.119,11.621337890625,-0.350341796875,-11.601318359375
0.1195,10.540283203125,1.891845703125,-12.682373046875
0.12,8.818603515625,4.254150390625,-13.282958984375
0.1205,6.576416015625,6.616455078125,-13.443115234375
0.121,3.933837890625,9.539306640625,-13.683349609375
0.1215,1.211181640625,10.740478515625,-12.121826171875
0.122,-1.231201171875,12.422119140625,-11.321044921875
0.1225,-3.473388671875,12.942626953125,-9.639404296875
0.123,-5.635498046875,13.423095703125,-7.957763671875
0.1235,-8.398193359375,13.423095703125,-5.155029296875
0.124,-10.400146484375,13.182861328125,-2.872802734375
0.1245,-11.521240234375,11.741455078125,-0.310302734375
0.125,-12.682373046875,10.980712890625,1.611572265625
0.1255,-13.002685546875,9.138916015625,3.813720703125
0.126,-12.962646484375,7.096923828125,5.775634765625
0.1265,-13.282958984375,4.334228515625,8.818603515625
0.127,-12.201904296875,1.691650390625,10.300048828125
0.1275,-11.240966796875,-0.750732421875,11.781494140625
0.128,-9.919677734375,-2.952880859375,12.582275390625
0.1285,-8.197998046875,-5.195068359375,13.062744140625
0.129,-5.755615234375,-7.757568359375,13.102783203125
0.1295,-3.353271484375,-10.239990234375,13.102783203125
0.13,-0.470458984375,-11.361083984375,11.421142578125
0.1305,1.531494140625,-12.802490234375,10.900634765625
0.131,3.853759765625,-13.322998046875,9.098876953125
0.1315,5.895751953125,-13.603271484375,7.337158203125
0.132,8.778564453125,-13.883544921875,4.734619140625
0.1325,10.380126953125,-13.162841796875,2.412353515625
0.133,11.541259765625,-12.041748046875,0.090087890625
0.1335,12.462158203125,-10.960693359375,-1.911865234375
0.134,12.742431640625,-9.239013671875,-3.913818359375
0.1345,12.622314453125,-6.916748046875,-6.115966796875
0.135,12.942626953125,-4.434326171875,-8.958740234375
0.1355,11.461181640625,-1.551513671875,-10.239990234375
0.136,10.900634765625,0.610595703125,-11.801513671875
0.1365,9.259033203125,2.852783203125,-12.362060546875
0.137,7.697509765625,4.974853515625,-12.882568359375
0.1375,5.054931640625,7.737548828125,-13.002685546875
0.138,2.692626953125,9.779541015625,-12.642333984375
0.1385,-0.230224609375,11.020751953125,-10.960693359375
0.139,-1.951904296875,12.221923828125,-10.400146484375
0.1395,-4.434326171875,12.702392578125,-8.438232421875
0.14,-6.436279296875,12.742431640625,-6.396240234375
0.1405,-9.279052734375,13.142822265625,-3.993896484375
0.141,-10.480224609375,11.821533203125,-1.471435546875
0.1415,-11.761474609375,11.140869140625,0.570556640625
0.142,-12.362060546875,9.739501953125,2.572509765625
0.1425,-12.562255859375,7.977783203125,4.534423828125
0.143,-12.562255859375,5.455322265625,7.016845703125
0.1435,-12.682373046875,3.012939453125,9.539306640625
0.144,-10.960693359375,0.210205078125,10.580322265625
0.1445,-10.560302734375,-1.791748046875,12.021728515625
0.145,-8.678466796875,-4.114013671875,12.422119140625
0.1455,-6.916748046875,-6.156005859375,12.662353515625
0.146,-4.354248046875,-8.958740234375,12.902587890625
0.1465,-1.751708984375,-10.560302734375,11.901611328125
0.147,0.690673828125,-11.841552734375,10.780517578125
0.1475,2.572509765625,-12.842529296875,9.899658203125
0.148,4.974853515625,-13.202880859375,7.897705078125
0.1485,7.136962890625,-13.282958984375,5.735595703125
0.149,9.739501953125,-13.603271484375,3.493408203125
0.1495,10.740478515625,-11.961669921875,0.850830078125
0.15,11.981689453125,-11.481201171875,-0.910888671875
0.1505,12.342041015625,-9.719482421875,-3.072998046875
0.151,12.422119140625,-7.837646484375,-4.994873046875
0.1515,12.542236328125,-5.315185546875,-7.677490234375
0.152,12.141845703125,-2.712646484375,-9.759521484375
0.1525,10.620361328125,-0.150146484375,-10.880615234375
0.153,10.059814453125,1.731689453125,-12.121826171875
0.1535,8.057861328125,4.174072265625,-12.522216796875
0.154,6.055908203125,6.376220703125,-12.602294921875
0.1545,3.653564453125,9.098876953125,-12.882568359375
0.155,0.770751953125,10.380126953125,-11.321044921875
0.1555,-1.271240234375,11.621337890625,-10.520263671875
0.156,-3.353271484375,12.382080078125,-9.118896484375
0.1565,-5.715576171875,12.622314453125,-7.076904296875
0.157,-7.957763671875,12.662353515625,-4.874755859375
0.1575,-10.119873046875,12.502197265625,-2.512451171875
0.158,-10.960693359375,10.940673828125,-0.070068359375
0.1585,-12.161865234375,10.420166015625,1.611572265625
0.159,-12.322021484375,8.378173828125,3.853759765625
0.1595,-12.322021484375,6.416259765625,5.815673828125
0.16,-12.562255859375,3.973876953125,8.498291015625
0.1605,-11.561279296875,1.251220703125,10.139892578125
0.161,-10.440185546875,-1.111083984375,11.220947265625
0.1615,-9.479248046875,-3.072998046875,12.181884765625
0.162,-7.357177734375,-5.435302734375,12.462158203125
0.1625,-5.275146484375,-7.557373046875,12.462158203125
0.163,-2.832763671875,-9.999755859375,12.502197265625
0.1635,-0.110107421875,-11.040771484375,10.780517578125
0.164,1.731689453125,-12.322021484375,10.300048828125
0.1645,4.134033203125,-12.962646484375,8.458251953125
0.165,6.256103515625,-13.082763671875,6.456298828125
0.1655,8.498291015625,-13.282958984375,4.374267578125
0.166,10.260009765625,-12.642333984375,1.931884765625
0.1665,11.140869140625,-11.281005859375,-0.270263671875
0.167,12.181884765625,-10.520263671875,-2.072021484375
0.1675,12.181884765625,-8.197998046875,-4.434326171875
0.168,12.181884765625,-6.276123046875,-6.316162109375
0.1685,12.342041015625,-3.833740234375,-8.958740234375
0.169,10.940673828125,-1.151123046875,-10.239990234375
0.1695,10.219970703125,0.930908203125,-11.441162109375
0.17,8.778564453125,3.173095703125,-12.161865234375
0.1705,6.656494140625,5.615478515625,-12.442138671875
0.171,4.494384765625,7.737548828125,-12.482177734375
0.1715,2.052001953125,9.819580078125,-12.041748046875
0.172,-0.590576171875,10.780517578125,-10.400146484375
0.1725,-2.352294921875,12.021728515625,-9.799560546875
0.173,-5.034912109375,12.422119140625,-7.517333984375
0.1735,-6.916748046875,12.422119140625,-5.635498046875
0.174,-9.118896484375,12.462158203125,-3.513427734375
0.1745,-10.520263671875,11.461181640625,-1.071044921875
0.175,-11.401123046875,10.380126953125,0.890869140625
0.1755,-12.201904296875,9.259033203125,2.852783203125
0.176,-12.201904296875,6.776611328125,5.295166015625
0.1765,-12.201904296875,4.854736328125,7.177001953125
0.177,-12.081787109375,2.292236328125,9.579345703125
0.1775,-10.560302734375,-0.270263671875,10.500244140625
0.178,-9.879638671875,-2.152099609375,11.741455078125
0.1785,-7.997802734375,-4.634521484375,12.261962890625
0.179,-5.835693359375,-6.876708984375,12.422119140625
0.1795,-3.713623046875,-8.958740234375,12.261962890625
0.18,-1.151123046875,-10.640380859375,11.461181640625
0.1805,1.131103515625,-11.601318359375,10.179931640625
0.181,3.133056640625,-12.722412109375,9.259033203125
0.1815,5.775634765625,-13.002685546875,6.776611328125
0.182,7.617431640625,-13.042724609375,5.094970703125
0.1825,9.619384765625,-12.882568359375,2.852783203125
0.183,10.740478515625,-11.681396484375,0.530517578125
