wavelength,x,y,z
0.0,-4.50439453125,0.38037109375,3.66357421875
0.0005,-3.90380859375,-0.70068359375,3.98388671875
0.001,-3.38330078125,-1.54150390625,4.34423828125
0.0015,-2.50244140625,-2.54248046875,4.50439453125
0.002,-2.02197265625,-3.14306640625,4.54443359375
0.0025,-1.14111328125,-4.02392578125,4.54443359375
0.003,-0.18017578125,-4.22412109375,3.78369140625
0.0035,0.46044921875,-4.70458984375,3.62353515625
0.004,1.66162109375,-4.86474609375,2.58251953125
0.0045,2.30224609375,-5.06494140625,2.18212890625
0.005,3.14306640625,-5.06494140625,1.34130859375
0.0055,3.66357421875,-4.82470703125,0.66064453125
0.006,3.82373046875,-4.14404296875,-0.26025390625
0.0065,4.14404296875,-3.90380859375,-0.78076171875
0.007,4.18408203125,-2.90283203125,-1.78173828125
0.0075,4.30419921875,-2.54248046875,-2.22216796875
0.008,4.34423828125,-1.70166015625,-3.14306640625
0.0085,3.70361328125,-0.78076171875,-3.38330078125
0.009,3.30322265625,0.14013671875,-3.86376953125
0.0095,2.62255859375,1.06103515625,-4.02392578125
0.01,2.06201171875,1.90185546875,-4.30419921875
0.0105,1.50146484375,2.54248046875,-4.34423828125
0.011,0.74072265625,3.22314453125,-4.22412109375
0.0115,-0.22021484375,3.46337890625,-3.54345703125
0.012,-0.82080078125,3.98388671875,-3.46337890625
0.0125,-2.02197265625,4.10400390625,-2.42236328125
0.013,-2.54248046875,4.34423828125,-2.14208984375
0.0135,-3.38330078125,4.34423828125,-1.30126953125
0.014,-3.70361328125,3.94384765625,-0.62060546875
0.0145,-3.98388671875,3.54345703125,0.14013671875
0.015,-4.22412109375,3.10302734375,0.74072265625
0.0155,-4.46435546875,2.42236328125,1.62158203125
0.016,-4.46435546875,1.94189453125,2.14208984375
0.0165,-4.54443359375,1.14111328125,2.90283203125
0.017,-3.78369140625,0.06005859375,3.18310546875
0.0175,-3.66357421875,-0.62060546875,3.78369140625
0.018,-2.74267578125,-1.66162109375,3.86376953125
0.0185,-2.46240234375,-2.30224609375,4.18408203125
0.019,-1.70166015625,-3.02294921875,4.10400390625
0.0195,-0.98095703125,-3.54345703125,3.98388671875
0.02,-0.18017578125,-3.82373046875,3.34326171875
0.0205,0.54052734375,-4.30419921875,3.14306640625
0.021,1.62158203125,-4.50439453125,2.26220703125
0.0215,2.10205078125,-4.66455078125,1.98193359375
0.022,2.86279296875,-4.66455078125,1.22119140625
0.0225,3.10302734375,-4.14404296875,0.50048828125
0.023,3.50341796875,-3.86376953125,-0.14013671875
0.0235,3.58349609375,-3.22314453125,-0.90087890625
0.024,3.86376953125,-2.82275390625,-1.62158203125
0.0245,3.86376953125,-2.26220703125,-2.18212890625
0.025,3.86376953125,-1.58154296875,-2.82275390625
0.0255,3.06298828125,-0.50048828125,-3.06298828125
0.026,3.02294921875,0.14013671875,-3.58349609375
0.0265,2.10205078125,1.18115234375,-3.70361328125
0.027,2.06201171875,1.66162109375,-4.10400390625
0.0275,1.22119140625,2.42236328125,-3.94384765625
0.028,0.50048828125,2.82275390625,-3.66357421875
0.0285,-0.26025390625,3.18310546875,-3.26318359375
0.029,-1.06103515625,3.54345703125,-2.86279296875
0.0295,-1.94189453125,3.86376953125,-2.26220703125
0.03,-2.42236328125,3.94384765625,-1.86181640625
0.0305,-3.06298828125,3.94384765625,-1.22119140625
0.031,-3.26318359375,3.38330078125,-0.50048828125
0.0315,-3.74365234375,3.34326171875,0.02001953125
0.032,-3.94384765625,2.38232421875,0.86083984375
0.0325,-4.18408203125,2.34228515625,1.42138671875
0.033,-4.14404296875,1.54150390625,2.10205078125
0.0335,-3.98388671875,0.94091796875,2.66259765625
0.034,-3.46337890625,-0.14013671875,3.06298828125
0.0345,-3.26318359375,-0.78076171875,3.50341796875
0.035,-2.54248046875,-1.78173828125,3.78369140625
0.0355,-2.26220703125,-2.30224609375,3.98388671875
0.036,-1.50146484375,-3.02294921875,3.90380859375
0.0365,-0.74072265625,-3.34326171875,3.46337890625
0.037,0.02001953125,-3.82373046875,3.26318359375
0.0375,0.94091796875,-4.10400390625,2.58251953125
0.038,1.66162109375,-4.46435546875,2.22216796875
0.0385,2.22216796875,-4.38427734375,1.58154296875
0.039,2.74267578125,-4.34423828125,1.02099609375
0.0395,2.94287109375,-3.70361328125,0.22021484375
0.04,3.26318359375,-3.78369140625,-0.34033203125
0.0405,3.50341796875,-2.86279296875,-1.22119140625
0.041,3.78369140625,-2.66259765625,-1.66162109375
0.0415,3.66357421875,-1.78173828125,-2.34228515625
0.042,3.26318359375,-1.02099609375,-2.70263671875
0.0425,2.82275390625,-0.14013671875,-3.18310546875
0.043,2.46240234375,0.62060546875,-3.50341796875
0.0435,1.98193359375,1.46142578125,-3.82373046875
0.044,1.58154296875,1.94189453125,-3.82373046875
0.0445,0.82080078125,2.58251953125,-3.74365234375
0.045,0.06005859375,2.82275390625,-3.18310546875
0.0455,-0.62060546875,3.34326171875,-3.10302734375
0.046,-1.62158203125,3.58349609375,-2.26220703125
0.0465,-2.22216796875,3.86376953125,-2.02197265625
0.047,-2.74267578125,3.74365234375,-1.34130859375
0.0475,-3.14306640625,3.58349609375,-0.78076171875
0.048,-3.50341796875,2.98291015625,-0.06005859375
0.0485,-3.70361328125,2.82275390625,0.46044921875
0.049,-4.02392578125,2.22216796875,1.22119140625
0.0495,-4.06396484375,1.90185546875,1.78173828125
0.05,-4.06396484375,1.14111328125,2.50244140625
0.0505,-3.50341796875,0.22021484375,2.82275390625
0.051,-3.26318359375,-0.62060546875,3.34326171875
0.0515,-2.62255859375,-1.50146484375,3.58349609375
0.052,-2.34228515625,-2.22216796875,3.98388671875
0.0525,-1.66162109375,-2.70263671875,3.78369140625
0.053,-0.98095703125,-3.34326171875,3.74365234375
0.0535,-0.14013671875,-3.58349609375,3.14306640625
0.054,0.58056640625,-4.14404296875,2.94287109375
0.0545,1.66162109375,-4.38427734375,2.10205078125
0.055,2.18212890625,-4.50439453125,1.78173828125
0.0555,2.74267578125,-4.34423828125,1.02099609375
0.056,2.98291015625,-4.06396484375,0.38037109375
0.0565,3.34326171875,-3.54345703125,-0.34033203125
0.057,3.42333984375,-3.14306640625,-0.98095703125
0.0575,3.86376953125,-2.54248046875,-1.86181640625
0.058,3.66357421875,-1.94189453125,-2.22216796875
0.0585,3.58349609375,-1.14111328125,-2.90283203125
0.059,2.82275390625,-0.14013671875,-3.14306640625
0.0595,2.66259765625,0.54052734375,-3.58349609375
0.06,1.86181640625,1.54150390625,-3.78369140625
0.0605,1.58154296875,2.10205078125,-4.02392578125
0.061,0.78076171875,2.58251953125,-3.66357421875
0.0615,0.14013671875,3.06298828125,-3.54345703125
0.062,-0.66064453125,3.26318359375,-2.90283203125
0.0625,-1.46142578125,3.70361328125,-2.54248046875
0.063,-2.50244140625,3.98388671875,-1.82177734375
0.0635,-2.86279296875,3.86376953125,-1.34130859375
0.064,-3.50341796875,3.66357421875,-0.70068359375
0.0645,-3.58349609375,3.14306640625,0.02001953125
0.065,-4.02392578125,2.86279296875,0.62060546875
0.0655,-4.06396484375,2.22216796875,1.42138671875
0.066,-4.34423828125,1.86181640625,2.06201171875
0.0665,-3.98388671875,1.06103515625,2.50244140625
0.067,-3.90380859375,0.30029296875,3.14306640625
0.0675,-3.14306640625,-0.74072265625,3.34326171875
0.068,-2.98291015625,-1.38134765625,3.82373046875
0.0685,-2.14208984375,-2.46240234375,4.02392578125
0.069,-1.74169921875,-2.90283203125,4.02392578125
0.0695,-0.90087890625,-3.50341796875,3.74365234375
0.07,-0.18017578125,-3.86376953125,3.42333984375
0.0705,0.66064453125,-4.18408203125,2.94287109375
0.071,1.58154296875,-4.50439453125,2.34228515625
0.0715,2.58251953125,-4.82470703125,1.66162109375
0.072,2.86279296875,-4.50439453125,0.98095703125
0.0725,3.50341796875,-4.42431640625,0.30029296875
0.073,3.46337890625,-3.70361328125,-0.46044921875
0.0735,3.86376953125,-3.34326171875,-1.06103515625
0.074,3.98388671875,-2.50244140625,-2.06201171875
0.0745,4.14404296875,-1.98193359375,-2.62255859375
0.075,3.62353515625,-0.98095703125,-3.10302734375
0.0755,3.38330078125,-0.22021484375,-3.58349609375
0.076,2.54248046875,0.78076171875,-3.70361328125
0.0765,2.22216796875,1.50146484375,-4.10400390625
0.077,1.42138671875,2.58251953125,-4.34423828125
0.0775,0.74072265625,2.94287109375,-3.98388671875
0.078,0.02001953125,3.50341796875,-3.78369140625
0.0785,-0.86083984375,3.70361328125,-3.18310546875
0.079,-1.66162109375,3.98388671875,-2.66259765625
0.0795,-2.70263671875,4.22412109375,-1.94189453125
0.08,-3.54345703125,4.34423828125,-1.30126953125
0.0805,-3.74365234375,3.78369140625,-0.46044921875
0.081,-4.30419921875,3.62353515625,0.14013671875
0.0815,-4.22412109375,2.86279296875,0.98095703125
0.082,-4.50439453125,2.50244140625,1.54150390625
0.0825,-4.66455078125,1.66162109375,2.58251953125
0.083,-4.50439453125,0.98095703125,3.06298828125
0.0835,-3.98388671875,0.02001953125,3.54345703125
0.084,-3.58349609375,-0.90087890625,3.90380859375
0.0845,-2.82275390625,-1.78173828125,4.06396484375
0.085,-2.34228515625,-2.58251953125,4.30419921875
0.0855,-1.54150390625,-3.62353515625,4.50439453125
0.086,-0.66064453125,-3.86376953125,3.90380859375
0.0865,0.02001953125,-4.46435546875,3.82373046875
0.087,1.02099609375,-4.58447265625,3.02294921875
0.0875,1.78173828125,-4.86474609375,2.50244140625
0.088,2.86279296875,-5.14501953125,1.58154296875
0.0885,3.58349609375,-5.10498046875,0.94091796875
0.089,3.82373046875,-4.46435546875,0.02001953125
0.0895,4.22412109375,-4.22412109375,-0.58056640625
0.09,4.22412109375,-3.22314453125,-1.50146484375
0.0905,4.34423828125,-2.78271484375,-2.10205078125
0.091,4.58447265625,-1.90185546875,-3.18310546875
0.0915,4.14404296875,-1.02099609375,-3.54345703125
0.092,3.58349609375,0.02001953125,-4.06396484375
0.0925,3.02294921875,0.94091796875,-4.30419921875
0.093,2.22216796875,1.90185546875,-4.46435546875
0.0935,1.62158203125,2.66259765625,-4.62451171875
0.094,0.74072265625,3.66357421875,-4.70458984375
0.0945,-0.26025390625,3.86376953125,-3.86376953125
0.095,-0.94091796875,4.34423828125,-3.70361328125
0.0955,-2.18212890625,4.50439453125,-2.62255859375
0.096,-2.86279296875,4.62451171875,-2.18212890625
0.0965,-3.86376953125,4.74462890625,-1.26123046875
0.097,-4.42431640625,4.42431640625,-0.54052734375
0.0975,-4.50439453125,3.78369140625,0.38037109375
0.098,-4.86474609375,3.46337890625,0.98095703125
0.0985,-4.90478515625,2.42236328125,2.06201171875
0.099,-4.90478515625,1.94189453125,2.54248046875
0.0995,-5.06494140625,1.02099609375,3.58349609375
0.1,-4.34423828125,0.02001953125,3.86376953125
0.1005,-3.94384765625,-0.94091796875,4.34423828125
0.101,-3.06298828125,-1.94189453125,4.50439453125
0.1015,-2.38232421875,-2.86279296875,4.62451171875
0.102,-1.66162109375,-3.62353515625,4.62451171875
0.1025,-0.78076171875,-4.46435546875,4.62451171875
0.103,0.22021484375,-4.58447265625,3.74365234375
0.1035,0.82080078125,-5.10498046875,3.58349609375
0.104,2.26220703125,-5.26513671875,2.38232421875
0.1045,2.78271484375,-5.34521484375,1.94189453125
0.105,3.82373046875,-5.42529296875,0.98095703125
0.1055,4.14404296875,-4.90478515625,0.18017578125
0.106,4.34423828125,-4.26416015625,-0.62060546875
0.1065,4.62451171875,-3.78369140625,-1.34130859375
0.107,4.66455078125,-2.74267578125,-2.46240234375
0.1075,4.62451171875,-2.22216796875,-2.86279296875
0.108,4.74462890625,-1.30126953125,-3.90380859375
0.1085,3.78369140625,-0.10009765625,-4.10400390625
0.109,3.46337890625,0.74072265625,-4.54443359375
0.1095,2.42236328125,1.94189453125,-4.66455078125
0.11,1.78173828125,2.74267578125,-4.82470703125
0.1105,1.02099609375,3.46337890625,-4.78466796875
0.111,0.06005859375,4.18408203125,-4.54443359375
0.1115,-0.98095703125,4.34423828125,-3.66357421875
0.112,-1.74169921875,4.78466796875,-3.38330078125
0.1125,-3.18310546875,4.90478515625,-2.10205078125
0.113,-3.62353515625,4.86474609375,-1.66162109375
0.1135,-4.50439453125,4.82470703125,-0.66064453125
0.114,-4.78466796875,4.22412109375,0.18017578125
0.1145,-4.98486328125,3.58349609375,0.98095703125
0.115,-5.18505859375,2.90283203125,1.86181640625
0.1155,-5.26513671875,1.94189453125,2.86279296875
0.116,-5.02490234375,1.30126953125,3.26318359375
0.1165,-5.02490234375,0.42041015625,4.14404296875
0.117,-3.90380859375,-0.86083984375,4.22412109375
0.1175,-3.62353515625,-1.62158203125,4.70458984375
0.118,-2.42236328125,-2.90283203125,4.78466796875
0.1185,-1.90185546875,-3.58349609375,4.82470703125
0.119,-0.98095703125,-4.26416015625,4.58447265625
0.1195,-0.06005859375,-4.82470703125,4.22412109375
0.12,0.90087890625,-4.98486328125,3.38330078125
0.1205,1.66162109375,-5.42529296875,3.02294921875
0.121,3.06298828125,-5.46533203125,1.78173828125
0.1215,3.38330078125,-5.30517578125,1.34130859375
0.122,4.18408203125,-5.18505859375,0.46044921875
0.1225,4.34423828125,-4.46435546875,-0.50048828125
0.123,4.54443359375,-3.94384765625,-1.14111328125
0.1235,4.66455078125,-3.06298828125,-2.10205078125
0.124,4.82470703125,-2.34228515625,-2.90283203125
0.1245,4.50439453125,-1.58154296875,-3.38330078125
0.125,4.42431640625,-0.66064453125,-4.14404296875
0.1255,3.26318359375,0.58056640625,-4.22412109375
0.126,3.06298828125,1.26123046875,-4.66455078125
0.1265,1.86181640625,2.58251953125,-4.74462890625
0.127,1.42138671875,3.10302734375,-4.82470703125
0.1275,0.46044921875,3.78369140625,-4.50439453125
0.128,-0.50048828125,4.22412109375,-4.10400390625
0.1285,-1.42138671875,4.34423828125,-3.34326171875
0.129,-2.30224609375,4.74462890625,-2.82275390625
0.1295,-3.54345703125,4.90478515625,-1.74169921875
0.13,-3.82373046875,4.66455078125,-1.22119140625
0.1305,-4.54443359375,4.50439453125,-0.30029296875
0.131,-4.66455078125,3.66357421875,0.62060546875
0.1315,-4.90478515625,3.34326171875,1.22119140625
0.132,-4.98486328125,2.26220703125,2.26220703125
0.1325,-5.10498046875,1.78173828125,2.94287109375
0.133,-4.74462890625,0.82080078125,3.42333984375
0.1335,-4.50439453125,0.02001953125,4.06396484375
0.134,-3.46337890625,-1.26123046875,4.14404296875
0.1345,-3.22314453125,-1.94189453125,4.54443359375
0.135,-2.06201171875,-3.18310546875,4.62451171875
0.1355,-1.62158203125,-3.58349609375,4.62451171875
0.136,-0.62060546875,-4.34423828125,4.22412109375
0.1365,0.26025390625,-4.66455078125,3.70361328125
0.137,1.06103515625,-4.90478515625,3.14306640625
0.1375,2.06201171875,-5.06494140625,2.42236328125
0.138,3.06298828125,-5.26513671875,1.62158203125
0.1385,3.34326171875,-4.86474609375,0.98095703125
0.139,4.02392578125,-4.74462890625,0.22021484375
0.1395,3.98388671875,-3.82373046875,-0.70068359375
0.14,4.30419921875,-3.58349609375,-1.22119140625
0.1405,4.34423828125,-2.54248046875,-2.30224609375
0.141,4.46435546875,-2.18212890625,-2.74267578125
0.1415,4.06396484375,-1.22119140625,-3.34326171875
0.142,3.70361328125,-0.34033203125,-3.82373046875
0.1425,2.86279296875,0.78076171875,-3.98388671875
0.143,2.54248046875,1.42138671875,-4.34423828125
0.1435,1.62158203125,2.58251953125,-4.50439453125
0.144,1.14111328125,2.86279296875,-4.34423828125
0.1445,0.26025390625,3.54345703125,-4.14404296875
0.145,-0.66064453125,3.74365234375,-3.46337890625
0.1455,-1.42138671875,4.14404296875,-3.06298828125
0.146,-2.50244140625,4.34423828125,-2.22216796875
0.1465,-3.22314453125,4.54443359375,-1.66162109375
0.147,-3.58349609375,4.10400390625,-0.94091796875
0.1475,-4.14404296875,3.98388671875,-0.26025390625
0.148,-4.18408203125,3.18310546875,0.62060546875
0.1485,-4.50439453125,2.94287109375,1.14111328125
0.149,-4.62451171875,2.02197265625,2.18212890625
0.1495,-4.62451171875,1.58154296875,2.54248046875
0.15,-4.30419921875,0.62060546875,3.22314453125
0.1505,-3.78369140625,-0.30029296875,3.54345703125
0.151,-3.18310546875,-1.26123046875,3.90380859375
0.1515,-2.66259765625,-2.02197265625,4.14404296875
0.152,-2.02197265625,-2.98291015625,4.38427734375
0.1525,-1.38134765625,-3.26318359375,3.98388671875
0.153,-0.62060546875,-4.02392578125,3.90380859375
0.1535,0.30029296875,-4.10400390625,3.18310546875
0.154,0.98095703125,-4.50439453125,2.94287109375
0.1545,2.10205078125,-4.70458984375,1.98193359375
0.155,2.62255859375,-4.82470703125,1.58154296875
0.1555,3.10302734375,-4.42431640625,0.78076171875
0.156,3.46337890625,-4.14404296875,0.18017578125
0.1565,3.58349609375,-3.50341796875,-0.62060546875
0.157,3.82373046875,-3.14306640625,-1.18115234375
0.1575,4.06396484375,-2.46240234375,-2.10205078125
0.158,3.86376953125,-1.94189453125,-2.38232421875
0.1585,3.70361328125,-0.98095703125,-3.14306640625
0.159,2.98291015625,-0.10009765625,-3.34326171875
0.1595,2.70263671875,0.66064453125,-3.78369140625
0.16,2.02197265625,1.54150390625,-3.98388671875
0.1605,1.66162109375,2.22216796875,-4.22412109375
0.161,0.86083984375,2.54248046875,-3.82373046875
0.1615,0.18017578125,3.22314453125,-3.70361328125
0.162,-0.70068359375,3.38330078125,-3.02294921875
0.1625,-1.38134765625,3.86376953125,-2.74267578125
0.163,-2.50244140625,4.10400390625,-1.94189453125
0.1635,-2.86279296875,4.02392578125,-1.58154296875
0.164,-3.34326171875,3.78369140625,-0.78076171875
0.1645,-3.58349609375,3.38330078125,-0.14013671875
0.165,-3.90380859375,2.94287109375,0.58056640625
0.1655,-4.02392578125,2.42236328125,1.22119140625
0.166,-4.42431640625,1.98193359375,1.98193359375
0.1665,-3.98388671875,1.26123046875,2.30224609375
0.167,-3.98388671875,0.50048828125,3.02294921875
0.1675,-3.18310546875,-0.58056640625,3.18310546875
0.168,-3.06298828125,-1.22119140625,3.70361328125
0.1685,-2.26220703125,-2.18212890625,3.86376953125
0.169,-1.98193359375,-2.66259765625,3.98388671875
0.1695,-1.14111328125,-3.14306640625,3.66357421875
0.17,-0.50048828125,-3.58349609375,3.50341796875
0.1705,0.34033203125,-3.86376953125,2.90283203125
0.171,1.14111328125,-4.26416015625,2.54248046875
0.1715,2.06201171875,-4.54443359375,1.90185546875
0.172,2.38232421875,-4.34423828125,1.38134765625
0.1725,2.94287109375,-4.22412109375,0.74072265625
0.173,3.06298828125,-3.62353515625,0.02001953125
0.1735,3.50341796875,-3.42333984375,-0.62060546875
0.174,3.62353515625,-2.74267578125,-1.38134765625
0.1745,3.90380859375,-2.42236328125,-1.98193359375
0.175,3.46337890625,-1.50146484375,-2.42236328125
0.1755,3.34326171875,-0.82080078125,-2.98291015625
0.176,2.58251953125,0.18017578125,-3.22314453125
0.1765,2.50244140625,0.78076171875,-3.74365234375
0.177,1.78173828125,1.74169921875,-3.98388671875
0.1775,1.34130859375,2.18212890625,-3.82373046875
0.178,0.58056640625,2.74267578125,-3.62353515625
0.1785,-0.18017578125,3.06298828125,-3.18310546875
0.179,-0.98095703125,3.46337890625,-2.82275390625
0.1795,-1.82177734375,3.74365234375,-2.26220703125
0.18,-2.62255859375,4.02392578125,-1.78173828125
0.1805,-2.86279296875,3.58349609375,-1.06103515625
0.181,-3.42333984375,3.58349609375,-0.58056640625
0.1815,-3.54345703125,2.90283203125,0.26025390625
0.182,-3.86376953125,2.70263671875,0.78076171875
0.1825,-4.10400390625,2.06201171875,1.62158203125
0.183,-4.14404296875,1.62158203125,2.06201171875
0.1835,-3.70361328125,0.66064453125,2.58251953125
0.184,-3.50341796875,-0.10009765625,3.02294921875
0.1845,-2.90283203125,-0.98095703125,3.34326171875
0.185,-2.58251953125,-1.70166015625,3.70361328125
0.1855,-2.02197265625,-2.54248046875,3.94384765625
0.186,-1.38134765625,-2.82275390625,3.58349609375
0.1865,-0.78076171875,-3.42333984375,3.58349609375
0.187,0.10009765625,-3.66357421875,2.98291015625
0.1875,0.78076171875,-4.10400390625,2.70263671875
0.188,1.74169921875,-4.34423828125,2.02197265625
0.1885,2.34228515625,-4.50439453125,1.58154296875
0.189,2.70263671875,-4.02392578125,0.78076171875
0.1895,3.14306640625,-3.98388671875,0.34033203125
0.19,3.26318359375,-3.30322265625,-0.50048828125
0.1905,3.58349609375,-3.06298828125,-1.06103515625
0.191,3.86376953125,-2.38232421875,-1.98193359375
0.1915,3.66357421875,-1.78173828125,-2.30224609375
0.192,3.34326171875,-0.90087890625,-2.94287109375
0.1925,2.86279296875,-0.06005859375,-3.26318359375
0.193,2.50244140625,0.74072265625,-3.62353515625
0.1935,1.98193359375,1.58154296875,-3.90380859375
0.194,1.42138671875,2.34228515625,-4.14404296875
0.1945,0.62060546875,2.62255859375,-3.54345703125
0.195,0.02001953125,3.22314453125,-3.54345703125
0.1955,-0.98095703125,3.46337890625,-2.74267578125
0.196,-1.66162109375,3.82373046875,-2.50244140625
0.1965,-2.66259765625,4.02392578125,-1.74169921875
0.197,-3.14306640625,3.90380859375,-1.14111328125
0.1975,-3.46337890625,3.50341796875,-0.38037109375
0.198,-3.78369140625,3.18310546875,0.14013671875
0.1985,-3.90380859375,2.58251953125,0.94091796875
0.199,-4.10400390625,2.18212890625,1.54150390625
