wavelength,x,y,z
0.0,7.06689453125,19.87939453125,-26.72607421875
0.0005,1.14111328125,22.92236328125,-23.92333984375
0.001,-3.58349609375,24.68408203125,-21.16064453125
0.0015,-8.38818359375,25.92529296875,-17.75732421875
0.002,-14.11376953125,26.76611328125,-12.95263671875
0.0025,-17.95751953125,25.32470703125,-7.82763671875
0.003,-21.12060546875,25.12451171875,-4.62451171875
0.0035,-23.76318359375,22.16162109375,0.94091796875
0.004,-25.88525390625,19.71923828125,5.50537109375
0.0045,-25.92529296875,15.11474609375,10.18994140625
0.005,-26.64599609375,10.63037109375,15.39501953125
0.0055,-25.60498046875,6.62646484375,18.39794921875
0.006,-24.20361328125,1.90185546875,21.64111328125
0.0065,-21.60107421875,-2.90283203125,23.76318359375
0.007,-19.19873046875,-7.74755859375,26.20556640625
0.0075,-14.27392578125,-13.11279296875,26.56591796875
0.008,-9.46923828125,-17.55712890625,26.08544921875
0.0085,-6.38623046875,-20.23974609375,25.68505859375
0.009,-0.18017578125,-23.20263671875,22.48193359375
0.0095,4.26416015625,-25.12451171875,20.03955078125
0.01,9.70947265625,-25.84521484375,15.63525390625
0.0105,14.91455078125,-26.60595703125,11.39111328125
0.011,18.63818359375,-25.36474609375,6.54638671875
0.0115,21.68115234375,-24.52392578125,2.82275390625
0.012,24.12353515625,-21.72119140625,-2.50244140625
0.0125,26.12548828125,-18.79833984375,-7.38720703125
0.013,25.80517578125,-13.79345703125,-12.11181640625
0.0135,26.36572265625,-9.54931640625,-16.91650390625
0.014,25.32470703125,-5.70556640625,-19.71923828125
0.0145,23.36279296875,-0.38037109375,-23.04248046875
0.015,20.72021484375,4.50439453125,-25.12451171875
0.0155,17.23681640625,9.90966796875,-26.96630859375
0.016,12.59228515625,14.75439453125,-27.12646484375
0.0165,7.66748046875,18.87841796875,-26.32568359375
0.017,4.14404296875,21.28076171875,-25.28466796875
0.0175,-2.18212890625,24.16357421875,-22.04150390625
0.018,-6.86669921875,25.92529296875,-19.19873046875
0.0185,-12.51220703125,26.04541015625,-13.83349609375
0.019,-16.87646484375,26.40576171875,-9.98974609375
0.0195,-20.47998046875,25.16455078125,-5.22509765625
0.02,-23.36279296875,23.48291015625,-0.78076171875
0.0205,-25.52490234375,20.31982421875,4.50439453125
0.021,-27.20654296875,16.79638671875,9.78955078125
0.0215,-26.40576171875,11.47119140625,14.27392578125
0.022,-26.56591796875,7.46728515625,18.43798828125
0.0225,-25.12451171875,3.54345703125,21.00048828125
0.023,-22.88232421875,-2.10205078125,24.20361328125
0.0235,-19.87939453125,-6.94677734375,26.00537109375
0.024,-15.23486328125,-12.79248046875,27.12646484375
0.0245,-10.99072265625,-16.99658203125,27.04638671875
0.025,-6.10595703125,-20.80029296875,25.92529296875
0.0255,-2.06201171875,-22.84228515625,23.92333984375
0.026,3.78369140625,-25.32470703125,20.88037109375
0.0265,8.90869140625,-26.80615234375,17.35693359375
0.027,14.23388671875,-26.32568359375,11.71142578125
0.0275,18.07763671875,-26.40576171875,8.14794921875
0.028,21.32080078125,-24.88427734375,3.50341796875
0.0285,24.00341796875,-22.92236328125,-1.18115234375
0.029,25.60498046875,-19.51904296875,-6.10595703125
0.0295,26.88623046875,-15.39501953125,-11.55126953125
0.03,25.96533203125,-10.31005859375,-15.67529296875
0.0305,25.76513671875,-6.46630859375,-19.31884765625
0.031,24.00341796875,-2.46240234375,-21.60107421875
0.0315,21.80126953125,2.94287109375,-24.64404296875
0.032,18.55810546875,7.82763671875,-26.24560546875
0.0325,13.59326171875,13.35302734375,-26.76611328125
0.033,9.78955078125,17.15673828125,-26.76611328125
0.0335,4.98486328125,20.52001953125,-25.36474609375
0.034,0.38037109375,22.68212890625,-22.92236328125
0.0345,-4.58447265625,24.72412109375,-20.19970703125
0.035,-10.31005859375,26.12548828125,-15.99560546875
0.0355,-14.83447265625,25.32470703125,-10.87060546875
0.036,-18.51806640625,25.48486328125,-7.50732421875
0.0365,-21.44091796875,23.64306640625,-2.82275390625
0.037,-24.12353515625,21.52099609375,1.94189453125
0.0375,-25.28466796875,17.99755859375,6.58642578125
0.038,-26.32568359375,13.55322265625,12.15185546875
0.0385,-25.68505859375,9.02880859375,15.99560546875
0.039,-25.20458984375,5.06494140625,19.51904296875
0.0395,-23.08251953125,0.66064453125,21.80126953125
0.04,-21.12060546875,-4.26416015625,24.64404296875
0.0405,-17.15673828125,-9.70947265625,25.96533203125
0.041,-12.31201171875,-14.79443359375,26.12548828125
0.0415,-8.82861328125,-18.27783203125,26.12548828125
0.042,-3.82373046875,-21.40087890625,24.36376953125
0.0425,1.22119140625,-23.68310546875,21.76123046875
0.043,5.70556640625,-25.24462890625,18.91845703125
0.0435,12.03173828125,-26.56591796875,14.11376953125
0.044,16.15576171875,-25.48486328125,9.06884765625
0.0445,19.79931640625,-25.64501953125,5.74560546875
0.045,22.56201171875,-23.32275390625,0.70068359375
0.0455,25.04443359375,-21.08056640625,-4.10400390625
0.046,25.68505859375,-16.91650390625,-8.82861328125
0.0465,26.52587890625,-12.23193359375,-14.35400390625
0.047,25.84521484375,-8.02783203125,-17.87744140625
0.0475,24.96435546875,-3.62353515625,-21.36083984375
0.048,22.36181640625,1.34130859375,-23.68310546875
0.0485,20.31982421875,6.02587890625,-26.24560546875
0.049,15.39501953125,11.79150390625,-27.04638671875
0.0495,10.39013671875,16.55615234375,-26.84619140625
0.05,7.10693359375,19.79931640625,-26.64599609375
0.0505,1.22119140625,22.92236328125,-23.96337890625
0.051,-3.82373046875,25.04443359375,-21.24072265625
0.0515,-8.58837890625,26.00537109375,-17.63720703125
0.052,-14.47412109375,26.96630859375,-12.83251953125
0.0525,-18.35791015625,25.56494140625,-7.70751953125
0.053,-21.92138671875,25.28466796875,-3.94384765625
0.0535,-24.52392578125,22.36181640625,1.54150390625
0.054,-26.60595703125,19.63916015625,6.34619140625
0.0545,-26.52587890625,14.79443359375,11.03076171875
0.055,-27.04638671875,10.18994140625,16.19580078125
0.0555,-26.08544921875,6.14599609375,19.27880859375
0.056,-24.48388671875,1.02099609375,22.76220703125
0.0565,-21.72119140625,-3.98388671875,24.84423828125
0.057,-18.95849609375,-8.86865234375,26.92626953125
0.0575,-13.87353515625,-14.31396484375,27.20654296875
0.058,-8.74853515625,-18.67822265625,26.40576171875
0.0585,-5.42529296875,-21.48095703125,25.92529296875
0.059,0.90087890625,-24.32373046875,22.64208984375
0.0595,5.50537109375,-26.12548828125,19.99951171875
0.06,10.67041015625,-26.40576171875,15.23486328125
0.0605,15.83544921875,-27.04638671875,10.91064453125
0.061,19.39892578125,-25.64501953125,6.10595703125
0.0615,22.56201171875,-24.60400390625,1.98193359375
0.062,24.80419921875,-21.64111328125,-3.18310546875
0.0625,26.44580078125,-18.55810546875,-7.94775390625
0.063,25.96533203125,-13.47314453125,-12.55224609375
0.0635,26.20556640625,-9.02880859375,-17.19677734375
0.064,25.32470703125,-5.46533203125,-19.87939453125
0.0645,23.12255859375,-0.06005859375,-23.08251953125
0.065,20.68017578125,4.46435546875,-25.12451171875
0.0655,16.99658203125,9.54931640625,-26.52587890625
0.066,12.63232421875,14.43408203125,-26.88623046875
0.0665,7.58740234375,18.51806640625,-25.84521484375
0.067,4.06396484375,21.08056640625,-24.92431640625
0.0675,-1.94189453125,23.68310546875,-21.72119140625
0.068,-6.38623046875,25.52490234375,-19.19873046875
0.0685,-11.55126953125,25.28466796875,-13.95361328125
0.069,-15.99560546875,25.76513671875,-10.18994140625
0.0695,-19.43896484375,24.72412109375,-5.86572265625
0.07,-22.48193359375,23.16259765625,-1.30126953125
0.0705,-24.48388671875,20.23974609375,3.58349609375
0.071,-26.00537109375,16.83642578125,8.50830078125
0.0715,-25.60498046875,11.91162109375,13.03271484375
0.072,-25.60498046875,7.62744140625,17.31689453125
0.0725,-24.72412109375,4.10400390625,19.95947265625
0.073,-22.44189453125,-1.54150390625,23.20263671875
0.0735,-20.15966796875,-6.02587890625,25.32470703125
0.074,-15.39501953125,-11.39111328125,25.92529296875
0.0745,-11.67138671875,-15.79541015625,26.56591796875
0.075,-6.74658203125,-19.55908203125,25.40478515625
0.0755,-2.62255859375,-22.00146484375,23.76318359375
0.076,3.02294921875,-24.48388671875,20.80029296875
0.0765,8.18798828125,-26.28564453125,17.55712890625
0.077,13.43310546875,-25.76513671875,11.95166015625
0.0775,17.55712890625,-26.04541015625,8.30810546875
0.078,20.84033203125,-24.84423828125,3.90380859375
0.0785,23.84326171875,-22.92236328125,-1.02099609375
0.079,25.40478515625,-19.59912109375,-5.82568359375
0.0795,26.60595703125,-15.39501953125,-11.23095703125
0.08,26.04541015625,-10.59033203125,-15.47509765625
0.0805,25.68505859375,-6.38623046875,-19.47900390625
0.081,24.16357421875,-2.30224609375,-21.92138671875
0.0815,21.80126953125,3.34326171875,-25.16455078125
0.082,18.63818359375,8.46826171875,-26.96630859375
0.0825,13.31298828125,13.91357421875,-27.00634765625
0.083,9.70947265625,17.75732421875,-27.20654296875
0.0835,4.62451171875,21.32080078125,-25.68505859375
0.084,-0.34033203125,23.68310546875,-23.24267578125
0.0845,-5.34521484375,25.56494140625,-20.23974609375
0.085,-11.31103515625,27.00634765625,-15.95556640625
0.0855,-15.87548828125,25.84521484375,-10.43017578125
0.086,-19.71923828125,25.96533203125,-6.78662109375
0.0865,-22.84228515625,24.00341796875,-1.82177734375
0.087,-25.64501953125,21.76123046875,3.26318359375
0.0875,-26.44580078125,17.91748046875,7.90771484375
0.088,-27.24658203125,13.19287109375,13.39306640625
0.0885,-26.40576171875,8.62841796875,17.15673828125
0.089,-25.68505859375,4.22412109375,20.80029296875
0.0895,-23.44287109375,-0.42041015625,23.04248046875
0.09,-21.28076171875,-5.38525390625,25.84521484375
0.0905,-16.99658203125,-10.87060546875,27.00634765625
0.091,-11.71142578125,-15.87548828125,26.64599609375
0.0915,-8.22802734375,-19.31884765625,26.60595703125
0.092,-2.94287109375,-22.44189453125,24.48388671875
0.0925,2.10205078125,-24.68408203125,21.88134765625
0.093,6.54638671875,-25.92529296875,18.75830078125
0.0935,12.75244140625,-27.12646484375,13.95361328125
0.094,16.67626953125,-25.68505859375,8.78857421875
0.0945,20.47998046875,-25.68505859375,5.14501953125
0.095,23.04248046875,-23.36279296875,0.34033203125
0.0955,25.56494140625,-21.08056640625,-4.50439453125
0.096,25.92529296875,-16.79638671875,-9.14892578125
0.0965,26.40576171875,-12.15185546875,-14.39404296875
0.097,25.84521484375,-8.18798828125,-17.79736328125
0.0975,24.64404296875,-3.54345703125,-21.28076171875
0.098,22.40185546875,1.14111328125,-23.52294921875
0.0985,20.31982421875,5.66552734375,-25.88525390625
0.099,15.59521484375,11.47119140625,-26.88623046875
0.0995,10.47021484375,15.95556640625,-26.20556640625
0.1,7.26708984375,19.31884765625,-26.32568359375
0.1005,1.58154296875,22.28173828125,-23.64306640625
0.101,-3.26318359375,24.64404296875,-21.40087890625
0.1015,-7.74755859375,25.44482421875,-17.79736328125
0.102,-13.67333984375,26.40576171875,-13.11279296875
0.1025,-17.35693359375,25.12451171875,-8.30810546875
0.103,-21.16064453125,24.88427734375,-4.30419921875
0.1035,-23.68310546875,22.36181640625,0.70068359375
0.104,-25.92529296875,19.87939453125,5.46533203125
0.1045,-26.12548828125,15.15478515625,10.31005859375
0.105,-26.32568359375,10.31005859375,15.35498046875
0.1055,-25.92529296875,6.70654296875,18.47802734375
0.106,-24.20361328125,1.38134765625,22.16162109375
0.1065,-21.92138671875,-3.26318359375,24.48388671875
0.107,-19.15869140625,-8.10791015625,26.44580078125
0.1075,-14.35400390625,-13.71337890625,27.12646484375
0.108,-9.02880859375,-17.99755859375,26.12548828125
0.1085,-5.70556640625,-21.16064453125,25.92529296875
0.109,0.58056640625,-24.08349609375,22.76220703125
0.1095,5.26513671875,-26.24560546875,20.35986328125
0.11,10.43017578125,-26.44580078125,15.51513671875
0.1105,15.79541015625,-27.08642578125,10.99072265625
0.111,19.39892578125,-25.76513671875,6.22607421875
0.1115,23.08251953125,-24.80419921875,1.66162109375
0.112,25.32470703125,-21.92138671875,-3.46337890625
0.1125,27.20654296875,-18.87841796875,-8.34814453125
0.113,26.76611328125,-13.67333984375,-13.19287109375
0.1135,26.60595703125,-8.86865234375,-17.91748046875
0.114,25.92529296875,-5.26513671875,-20.80029296875
0.1145,23.64306640625,0.66064453125,-24.28369140625
0.115,21.12060546875,5.42529296875,-26.40576171875
0.1155,17.11669921875,10.63037109375,-27.56689453125
0.116,12.51220703125,15.63525390625,-27.92724609375
0.1165,7.06689453125,19.71923828125,-26.48583984375
0.117,3.22314453125,22.56201171875,-25.56494140625
0.1175,-3.06298828125,25.24462890625,-22.12158203125
0.118,-7.82763671875,27.16650390625,-19.47900390625
0.1185,-13.15283203125,26.60595703125,-13.75341796875
0.119,-17.63720703125,26.76611328125,-9.58935546875
0.1195,-21.04052734375,25.48486328125,-5.10498046875
0.12,-24.36376953125,23.72314453125,0.02001953125
0.1205,-26.12548828125,20.47998046875,5.02490234375
0.121,-27.56689453125,16.79638671875,10.06982421875
0.1215,-26.84619140625,11.55126953125,14.55419921875
0.122,-26.28564453125,6.90673828125,18.75830078125
0.1225,-25.32470703125,3.34326171875,21.36083984375
0.123,-22.76220703125,-2.66259765625,24.64404296875
0.1235,-20.15966796875,-7.22705078125,26.60595703125
0.124,-15.19482421875,-12.59228515625,26.88623046875
0.1245,-11.19091796875,-16.91650390625,27.20654296875
0.125,-6.10595703125,-20.47998046875,25.60498046875
0.1255,-1.90185546875,-22.96240234375,24.00341796875
0.126,3.78369140625,-25.24462890625,20.76025390625
0.1265,8.86865234375,-26.96630859375,17.55712890625
0.127,13.83349609375,-26.08544921875,11.87158203125
0.1275,17.95751953125,-26.08544921875,7.86767578125
0.128,20.92041015625,-24.88427734375,3.86376953125
0.1285,24.04345703125,-23.00244140625,-1.18115234375
0.129,25.48486328125,-19.67919921875,-5.90576171875
0.1295,26.40576171875,-15.55517578125,-10.95068359375
0.13,25.92529296875,-10.83056640625,-15.19482421875
0.1305,25.24462890625,-6.38623046875,-18.91845703125
0.131,24.08349609375,-2.86279296875,-21.32080078125
0.1315,21.68115234375,2.86279296875,-24.48388671875
0.132,18.95849609375,7.70751953125,-26.52587890625
0.1325,13.67333984375,12.83251953125,-26.28564453125
0.133,10.06982421875,16.91650390625,-26.72607421875
0.1335,5.26513671875,20.15966796875,-25.16455078125
0.134,0.46044921875,22.80224609375,-23.12255859375
0.1345,-4.50439453125,24.72412109375,-20.23974609375
0.135,-10.27001953125,26.40576171875,-16.31591796875
0.1355,-14.63427734375,25.44482421875,-11.19091796875
0.136,-18.71826171875,25.44482421875,-7.22705078125
0.1365,-21.48095703125,23.84326171875,-3.02294921875
0.137,-24.64404296875,21.80126953125,2.22216796875
0.1375,-25.88525390625,18.11767578125,7.02685546875
0.138,-26.52587890625,13.63330078125,12.23193359375
0.1385,-26.24560546875,9.30908203125,16.27587890625
0.139,-25.24462890625,4.74462890625,19.87939453125
0.1395,-23.52294921875,0.42041015625,22.44189453125
0.14,-21.40087890625,-4.78466796875,25.40478515625
0.1405,-17.55712890625,-10.43017578125,27.12646484375
0.141,-12.19189453125,-15.31494140625,26.60595703125
0.1415,-8.58837890625,-19.03857421875,26.68603515625
0.142,-3.30322265625,-22.12158203125,24.60400390625
0.1425,1.98193359375,-24.92431640625,22.16162109375
0.143,6.66650390625,-26.24560546875,18.99853515625
0.1435,13.03271484375,-27.60693359375,14.15380859375
0.144,17.03662109375,-26.24560546875,8.98876953125
0.1445,21.08056640625,-26.12548828125,4.94482421875
0.145,23.68310546875,-23.76318359375,0.02001953125
0.1455,26.48583984375,-21.48095703125,-5.14501953125
0.146,27.00634765625,-16.95654296875,-10.10986328125
0.1465,27.28662109375,-11.91162109375,-15.39501953125
0.147,26.64599609375,-7.82763671875,-18.91845703125
0.1475,25.20458984375,-2.62255859375,-22.60205078125
0.148,22.76220703125,2.26220703125,-25.00439453125
0.1485,20.47998046875,7.10693359375,-27.48681640625
0.149,15.55517578125,13.11279296875,-28.48779296875
0.1495,10.10986328125,17.59716796875,-27.48681640625
0.15,6.54638671875,20.96044921875,-27.24658203125
0.1505,0.38037109375,23.96337890625,-24.16357421875
0.151,-4.66455078125,26.32568359375,-21.72119140625
0.1515,-9.46923828125,26.92626953125,-17.59716796875
0.152,-15.43505859375,27.80712890625,-12.75244140625
0.1525,-19.07861328125,26.00537109375,-7.54736328125
0.153,-22.92236328125,25.36474609375,-3.18310546875
0.1535,-25.24462890625,22.44189453125,1.98193359375
0.154,-27.40673828125,19.87939453125,6.86669921875
0.1545,-27.40673828125,14.91455078125,11.79150390625
0.155,-27.20654296875,9.78955078125,16.75634765625
0.1555,-26.44580078125,6.10595703125,19.71923828125
0.156,-24.28369140625,0.38037109375,23.24267578125
0.1565,-21.96142578125,-4.18408203125,25.40478515625
0.157,-19.07861328125,-8.98876953125,27.20654296875
0.1575,-14.11376953125,-14.67431640625,27.88720703125
0.158,-8.66845703125,-18.67822265625,26.44580078125
0.1585,-5.26513671875,-21.64111328125,26.00537109375
0.159,0.82080078125,-24.20361328125,22.56201171875
0.1595,5.30517578125,-26.40576171875,20.43994140625
0.16,10.39013671875,-26.40576171875,15.51513671875
0.1605,15.79541015625,-27.04638671875,10.91064453125
0.161,19.11865234375,-25.72509765625,6.46630859375
0.1615,22.60205078125,-24.48388671875,1.74169921875
0.162,24.60400390625,-21.80126953125,-2.86279296875
0.1625,26.40576171875,-18.87841796875,-7.58740234375
0.163,26.36572265625,-13.99365234375,-12.43212890625
0.1635,25.96533203125,-9.02880859375,-16.99658203125
0.164,25.52490234375,-5.82568359375,-19.71923828125
0.1645,23.04248046875,0.02001953125,-23.00244140625
0.165,21.20068359375,4.30419921875,-25.36474609375
0.1655,17.31689453125,9.26904296875,-26.44580078125
0.166,12.99267578125,14.55419921875,-27.36669921875
0.1665,7.82763671875,18.35791015625,-25.92529296875
0.167,3.98388671875,21.32080078125,-25.08447265625
0.1675,-1.90185546875,23.72314453125,-21.80126953125
0.168,-6.34619140625,25.92529296875,-19.71923828125
0.1685,-11.59130859375,25.60498046875,-14.31396484375
0.169,-16.35595703125,25.92529296875,-9.98974609375
0.1695,-19.63916015625,25.04443359375,-6.10595703125
0.17,-23.12255859375,23.24267578125,-0.70068359375
0.1705,-25.04443359375,20.43994140625,3.98388671875
0.171,-26.60595703125,16.99658203125,8.90869140625
0.1715,-26.44580078125,12.23193359375,13.59326171875
0.172,-25.84521484375,7.38720703125,17.83740234375
0.1725,-25.12451171875,3.98388671875,20.47998046875
0.173,-22.44189453125,-2.06201171875,23.80322265625
0.1735,-20.43994140625,-6.58642578125,26.24560546875
0.174,-15.39501953125,-11.99169921875,26.44580078125
0.1745,-11.51123046875,-16.63623046875,27.20654296875
0.175,-6.38623046875,-20.19970703125,25.64501953125
0.1755,-1.82177734375,-22.96240234375,23.92333984375
0.176,3.90380859375,-25.24462890625,20.68017578125
0.1765,8.98876953125,-27.28662109375,17.75732421875
0.177,14.15380859375,-26.48583984375,11.99169921875
0.1775,18.39794921875,-26.44580078125,7.74755859375
0.178,21.28076171875,-25.12451171875,3.78369140625
0.1785,24.64404296875,-22.96240234375,-1.70166015625
0.179,26.12548828125,-19.55908203125,-6.58642578125
0.1795,27.04638671875,-15.31494140625,-11.79150390625
0.18,26.72607421875,-10.63037109375,-16.15576171875
0.1805,25.68505859375,-5.82568359375,-19.91943359375
0.181,24.28369140625,-2.06201171875,-22.28173828125
0.1815,21.64111328125,3.86376953125,-25.40478515625
0.182,18.91845703125,8.86865234375,-27.60693359375
0.1825,13.23291015625,14.07373046875,-27.08642578125
0.183,9.58935546875,18.11767578125,-27.44677734375
0.1835,4.54443359375,21.28076171875,-25.60498046875
0.184,-0.66064453125,23.88330078125,-23.12255859375
0.1845,-5.74560546875,25.60498046875,-19.99951171875
0.185,-11.51123046875,27.20654296875,-15.99560546875
0.1855,-15.79541015625,26.04541015625,-10.75048828125
0.186,-19.75927734375,25.76513671875,-6.58642578125
0.1865,-22.24169921875,24.00341796875,-2.42236328125
0.187,-25.32470703125,21.60107421875,3.06298828125
0.1875,-26.44580078125,17.91748046875,7.86767578125
0.188,-26.76611328125,13.15283203125,12.95263671875
0.1885,-26.56591796875,9.02880859375,16.87646484375
0.189,-25.28466796875,4.34423828125,20.27978515625
0.1895,-23.32275390625,0.06005859375,22.56201171875
0.19,-21.00048828125,-5.10498046875,25.32470703125
0.1905,-17.31689453125,-10.67041015625,27.16650390625
