wavelength,x,y,z
0.0,4.814697265625,0.290283203125,-5.635498046875
0.0005,4.734619140625,-0.790771484375,-4.834716796875
0.001,4.534423828125,-1.911865234375,-3.793701171875
0.0015,4.414306640625,-3.072998046875,-2.672607421875
0.002,4.334228515625,-3.993896484375,-1.951904296875
0.0025,4.294189453125,-4.754638671875,-1.271240234375
0.003,3.693603515625,-5.074951171875,-0.510498046875
0.0035,2.652587890625,-5.315185546875,0.810791015625
0.004,1.491455078125,-5.515380859375,2.132080078125
0.0045,0.650634765625,-5.755615234375,3.213134765625
0.005,0.050048828125,-6.156005859375,4.174072265625
0.0055,-0.790771484375,-6.115966796875,4.934814453125
0.006,-1.791748046875,-5.355224609375,5.295166015625
0.0065,-2.952880859375,-4.234130859375,5.575439453125
0.007,-4.073974609375,-2.952880859375,5.615478515625
0.0075,-4.754638671875,-2.152099609375,5.735595703125
0.008,-5.155029296875,-1.551513671875,5.815673828125
0.0085,-5.155029296875,-0.790771484375,5.375244140625
0.009,-5.074951171875,0.290283203125,4.494384765625
0.0095,-4.914794921875,1.571533203125,3.373291015625
0.01,-4.834716796875,2.612548828125,2.412353515625
0.0105,-4.834716796875,3.533447265625,1.651611328125
0.011,-4.514404296875,4.134033203125,0.970947265625
0.0115,-3.793701171875,4.494384765625,0.050048828125
0.012,-2.712646484375,4.734619140625,-1.311279296875
0.0125,-1.511474609375,4.934814453125,-2.672607421875
0.013,-0.830810546875,5.255126953125,-3.673583984375
0.0135,-0.150146484375,5.535400390625,-4.594482421875
0.014,0.770751953125,5.175048828125,-5.195068359375
0.0145,1.931884765625,4.214111328125,-5.555419921875
0.015,3.093017578125,3.052978515625,-5.755615234375
0.0155,4.013916015625,1.931884765625,-5.755615234375
0.016,4.614501953125,1.211181640625,-5.955810546875
0.0165,4.854736328125,0.530517578125,-5.795654296875
0.017,4.814697265625,-0.430419921875,-5.195068359375
0.0175,4.614501953125,-1.471435546875,-4.194091796875
0.018,4.494384765625,-2.752685546875,-2.952880859375
0.0185,4.414306640625,-3.793701171875,-2.112060546875
0.019,4.414306640625,-4.634521484375,-1.431396484375
0.0195,3.853759765625,-5.034912109375,-0.670654296875
0.02,2.972900390625,-5.275146484375,0.490478515625
0.0205,1.771728515625,-5.515380859375,1.851806640625
0.021,0.770751953125,-5.715576171875,3.093017578125
0.0215,0.130126953125,-6.075927734375,4.053955078125
0.022,-0.670654296875,-6.196044921875,4.934814453125
0.0225,-1.631591796875,-5.555419921875,5.375244140625
0.023,-2.912841796875,-4.434326171875,5.655517578125
0.0235,-4.033935546875,-3.072998046875,5.735595703125
0.024,-4.834716796875,-2.112060546875,5.735595703125
0.0245,-5.275146484375,-1.511474609375,5.895751953125
0.025,-5.315185546875,-0.790771484375,5.455322265625
0.0255,-5.155029296875,0.330322265625,4.614501953125
0.026,-5.034912109375,1.531494140625,3.533447265625
0.0265,-4.834716796875,2.732666015625,2.332275390625
0.027,-4.794677734375,3.653564453125,1.571533203125
0.0275,-4.594482421875,4.334228515625,0.890869140625
0.028,-3.873779296875,4.614501953125,0.010009765625
0.0285,-2.712646484375,4.854736328125,-1.391357421875
0.029,-1.471435546875,5.014892578125,-2.712646484375
0.0295,-0.630615234375,5.215087890625,-3.833740234375
0.03,0.050048828125,5.495361328125,-4.754638671875
0.0305,0.850830078125,5.335205078125,-5.395263671875
0.031,1.931884765625,4.454345703125,-5.755615234375
0.0315,3.133056640625,3.213134765625,-5.915771484375
0.032,4.174072265625,1.931884765625,-5.955810546875
0.0325,4.774658203125,1.010986328125,-5.995849609375
0.033,5.094970703125,0.370361328125,-5.955810546875
0.0335,4.974853515625,-0.470458984375,-5.395263671875
0.034,4.774658203125,-1.591552734375,-4.274169921875
0.0345,4.614501953125,-2.832763671875,-3.072998046875
0.035,4.454345703125,-3.953857421875,-1.991943359375
0.0355,4.414306640625,-4.794677734375,-1.311279296875
0.036,4.013916015625,-5.315185546875,-0.590576171875
0.0365,3.133056640625,-5.515380859375,0.490478515625
0.037,1.931884765625,-5.715576171875,1.931884765625
0.0375,0.650634765625,-5.835693359375,3.253173828125
0.038,-0.150146484375,-6.115966796875,4.174072265625
0.0385,-0.790771484375,-6.316162109375,5.094970703125
0.039,-1.751708984375,-5.755615234375,5.615478515625
0.0395,-2.992919921875,-4.634521484375,5.895751953125
0.04,-4.154052734375,-3.313232421875,6.015869140625
0.0405,-4.994873046875,-2.112060546875,5.935791015625
0.041,-5.435302734375,-1.431396484375,6.015869140625
0.0415,-5.635498046875,-0.630615234375,5.735595703125
0.042,-5.475341796875,0.330322265625,4.934814453125
0.0425,-5.235107421875,1.571533203125,3.693603515625
0.043,-4.994873046875,2.932861328125,2.372314453125
0.0435,-4.834716796875,3.853759765625,1.451416015625
0.044,-4.674560546875,4.614501953125,0.770751953125
0.0445,-4.033935546875,4.894775390625,-0.190185546875
0.045,-2.872802734375,5.094970703125,-1.391357421875
0.0455,-1.591552734375,5.255126953125,-2.832763671875
0.046,-0.470458984375,5.335205078125,-4.073974609375
0.0465,0.290283203125,5.615478515625,-4.954833984375
0.047,0.970947265625,5.575439453125,-5.755615234375
0.0475,2.011962890625,4.774658203125,-6.115966796875
0.048,3.333251953125,3.373291015625,-6.356201171875
0.0485,4.494384765625,1.931884765625,-6.316162109375
0.049,5.135009765625,0.890869140625,-6.236083984375
0.0495,5.495361328125,0.250244140625,-6.236083984375
0.05,5.415283203125,-0.630615234375,-5.635498046875
0.0505,5.135009765625,-1.791748046875,-4.554443359375
0.051,4.894775390625,-3.072998046875,-3.193115234375
0.0515,4.614501953125,-4.354248046875,-1.871826171875
0.052,4.454345703125,-5.195068359375,-1.031005859375
0.0525,4.174072265625,-5.835693359375,-0.310302734375
0.053,3.253173828125,-6.035888671875,0.770751953125
0.0535,1.851806640625,-6.115966796875,2.252197265625
0.054,0.450439453125,-6.196044921875,3.733642578125
0.0545,-0.590576171875,-6.276123046875,4.774658203125
0.055,-1.191162109375,-6.436279296875,5.575439453125
0.0555,-2.112060546875,-6.035888671875,6.216064453125
0.056,-3.353271484375,-4.834716796875,6.496337890625
0.0565,-4.634521484375,-3.433349609375,6.536376953125
0.057,-5.635498046875,-1.911865234375,6.376220703125
0.0575,-6.115966796875,-0.990966796875,6.256103515625
0.058,-6.276123046875,-0.190185546875,6.055908203125
0.0585,-5.955810546875,0.810791015625,5.135009765625
0.059,-5.635498046875,2.172119140625,3.693603515625
0.0595,-5.275146484375,3.533447265625,2.252197265625
0.06,-4.994873046875,4.534423828125,1.091064453125
0.0605,-4.674560546875,5.255126953125,0.290283203125
0.061,-4.073974609375,5.615478515625,-0.630615234375
0.0615,-2.872802734375,5.655517578125,-1.791748046875
0.062,-1.311279296875,5.735595703125,-3.393310546875
0.0625,0.170166015625,5.655517578125,-4.754638671875
0.063,0.890869140625,5.735595703125,-5.595458984375
0.0635,1.491455078125,5.735595703125,-6.356201171875
0.064,2.532470703125,4.894775390625,-6.716552734375
0.0645,3.813720703125,3.413330078125,-6.876708984375
0.065,4.934814453125,1.931884765625,-6.756591796875
0.0655,5.695556640625,0.610595703125,-6.556396484375
0.066,5.935791015625,-0.270263671875,-6.396240234375
0.0665,5.895751953125,-1.031005859375,-5.915771484375
0.067,5.575439453125,-2.072021484375,-4.834716796875
0.0675,5.175048828125,-3.473388671875,-3.273193359375
0.068,4.774658203125,-4.754638671875,-1.791748046875
0.0685,4.494384765625,-5.635498046875,-0.790771484375
0.069,4.174072265625,-6.236083984375,0.010009765625
0.0695,3.333251953125,-6.396240234375,0.890869140625
0.07,1.971923828125,-6.436279296875,2.252197265625
0.0705,0.450439453125,-6.396240234375,3.813720703125
0.071,-0.830810546875,-6.356201171875,4.974853515625
0.0715,-1.431396484375,-6.476318359375,5.735595703125
0.072,-2.192138671875,-6.356201171875,6.456298828125
0.0725,-3.233154296875,-5.355224609375,6.696533203125
0.073,-4.594482421875,-3.793701171875,6.776611328125
0.0735,-5.675537109375,-2.192138671875,6.656494140625
0.074,-6.236083984375,-1.031005859375,6.416259765625
0.0745,-6.476318359375,-0.350341796875,6.296142578125
0.075,-6.236083984375,0.610595703125,5.575439453125
0.0755,-5.915771484375,1.771728515625,4.334228515625
0.076,-5.475341796875,3.133056640625,2.812744140625
0.0765,-5.114990234375,4.334228515625,1.411376953125
0.077,-4.834716796875,5.094970703125,0.490478515625
0.0775,-4.434326171875,5.695556640625,-0.310302734375
0.078,-3.433349609375,5.735595703125,-1.271240234375
0.0785,-1.911865234375,5.775634765625,-2.832763671875
0.079,-0.390380859375,5.735595703125,-4.314208984375
0.0795,0.610595703125,5.735595703125,-5.315185546875
0.08,1.251220703125,5.815673828125,-6.115966796875
0.0805,2.052001953125,5.375244140625,-6.676513671875
0.081,3.213134765625,4.174072265625,-6.876708984375
0.0815,4.494384765625,2.692626953125,-6.876708984375
0.082,5.455322265625,1.171142578125,-6.676513671875
0.0825,5.895751953125,0.210205078125,-6.476318359375
0.083,6.055908203125,-0.630615234375,-6.276123046875
0.0835,5.735595703125,-1.471435546875,-5.395263671875
0.084,5.375244140625,-2.752685546875,-3.993896484375
0.0845,4.974853515625,-4.154052734375,-2.512451171875
0.085,4.654541015625,-5.235107421875,-1.231201171875
0.0855,4.414306640625,-5.955810546875,-0.470458984375
0.086,3.853759765625,-6.396240234375,0.450439453125
0.0865,2.732666015625,-6.436279296875,1.531494140625
0.087,1.131103515625,-6.436279296875,3.133056640625
0.0875,-0.390380859375,-6.396240234375,4.534423828125
0.088,-1.151123046875,-6.476318359375,5.415283203125
0.0885,-1.791748046875,-6.556396484375,6.256103515625
0.089,-2.792724609375,-5.795654296875,6.656494140625
0.0895,-4.073974609375,-4.394287109375,6.816650390625
0.09,-5.235107421875,-2.872802734375,6.736572265625
0.0905,-6.075927734375,-1.431396484375,6.496337890625
0.091,-6.396240234375,-0.630615234375,6.376220703125
0.0915,-6.396240234375,0.290283203125,5.975830078125
0.092,-6.075927734375,1.291259765625,4.894775390625
0.0925,-5.715576171875,2.692626953125,3.373291015625
0.093,-5.275146484375,4.053955078125,1.851806640625
0.0935,-4.954833984375,4.934814453125,0.770751953125
0.094,-4.674560546875,5.615478515625,0.010009765625
0.0945,-3.833740234375,5.735595703125,-0.990966796875
0.095,-2.432373046875,5.815673828125,-2.312255859375
0.0955,-0.910888671875,5.855712890625,-3.873779296875
0.096,0.490478515625,5.735595703125,-5.114990234375
0.0965,1.131103515625,5.775634765625,-5.915771484375
0.097,1.851806640625,5.695556640625,-6.636474609375
0.0975,2.852783203125,4.654541015625,-6.876708984375
0.098,4.214111328125,3.133056640625,-6.956787109375
0.0985,5.295166015625,1.571533203125,-6.796630859375
0.099,5.895751953125,0.370361328125,-6.516357421875
0.0995,6.095947265625,-0.430419921875,-6.396240234375
0.1,5.895751953125,-1.271240234375,-5.715576171875
0.1005,5.495361328125,-2.432373046875,-4.474365234375
0.101,5.094970703125,-3.713623046875,-2.952880859375
0.1015,4.694580078125,-4.994873046875,-1.511474609375
0.102,4.414306640625,-5.715576171875,-0.630615234375
0.1025,4.093994140625,-6.276123046875,0.170166015625
0.103,3.093017578125,-6.356201171875,1.091064453125
0.1035,1.611572265625,-6.396240234375,2.532470703125
0.104,0.130126953125,-6.356201171875,4.013916015625
0.1045,-0.990966796875,-6.356201171875,5.054931640625
0.105,-1.471435546875,-6.476318359375,5.815673828125
0.1055,-2.312255859375,-6.115966796875,6.416259765625
0.106,-3.393310546875,-4.994873046875,6.616455078125
0.1065,-4.674560546875,-3.513427734375,6.656494140625
0.107,-5.635498046875,-1.951904296875,6.456298828125
0.1075,-6.115966796875,-0.990966796875,6.256103515625
0.108,-6.276123046875,-0.310302734375,6.135986328125
0.1085,-6.035888671875,0.570556640625,5.335205078125
0.109,-5.635498046875,1.811767578125,4.013916015625
0.1095,-5.275146484375,3.093017578125,2.612548828125
0.11,-4.994873046875,4.174072265625,1.411376953125
0.1105,-4.754638671875,4.974853515625,0.610595703125
0.111,-4.274169921875,5.415283203125,-0.230224609375
0.1115,-3.233154296875,5.455322265625,-1.231201171875
0.112,-1.871826171875,5.535400390625,-2.672607421875
0.1125,-0.390380859375,5.455322265625,-4.114013671875
0.113,0.490478515625,5.575439453125,-5.074951171875
0.1135,1.010986328125,5.775634765625,-5.835693359375
0.114,1.891845703125,5.215087890625,-6.316162109375
0.1145,3.093017578125,4.013916015625,-6.516357421875
0.115,4.254150390625,2.612548828125,-6.556396484375
0.1155,5.135009765625,1.251220703125,-6.396240234375
0.116,5.575439453125,0.450439453125,-6.356201171875
0.1165,5.695556640625,-0.350341796875,-6.075927734375
0.117,5.415283203125,-1.231201171875,-5.235107421875
0.1175,5.094970703125,-2.512451171875,-3.913818359375
0.118,4.774658203125,-3.873779296875,-2.472412109375
0.1185,4.534423828125,-4.834716796875,-1.431396484375
0.119,4.414306640625,-5.635498046875,-0.710693359375
0.1195,3.773681640625,-5.915771484375,0.170166015625
0.12,2.652587890625,-6.035888671875,1.291259765625
0.1205,1.211181640625,-6.156005859375,2.812744140625
0.121,0.010009765625,-6.156005859375,4.134033203125
0.1215,-0.790771484375,-6.276123046875,5.014892578125
0.122,-1.431396484375,-6.356201171875,5.775634765625
0.1225,-2.432373046875,-5.595458984375,6.135986328125
0.123,-3.713623046875,-4.234130859375,6.336181640625
0.1235,-4.874755859375,-2.752685546875,6.256103515625
0.124,-5.555419921875,-1.631591796875,6.135986328125
0.1245,-5.915771484375,-0.950927734375,6.135986328125
0.125,-5.835693359375,-0.190185546875,5.655517578125
0.1255,-5.595458984375,0.890869140625,4.614501953125
0.126,-5.315185546875,2.172119140625,3.333251953125
0.1265,-4.954833984375,3.453369140625,1.971923828125
0.127,-4.754638671875,4.294189453125,1.131103515625
0.1275,-4.554443359375,4.934814453125,0.450439453125
0.128,-3.753662109375,5.094970703125,-0.550537109375
0.1285,-2.552490234375,5.175048828125,-1.791748046875
0.129,-1.151123046875,5.255126953125,-3.233154296875
0.1295,-0.190185546875,5.375244140625,-4.314208984375
0.13,0.530517578125,5.575439453125,-5.155029296875
0.1305,1.211181640625,5.415283203125,-5.755615234375
0.131,2.212158203125,4.534423828125,-6.115966796875
0.1315,3.413330078125,3.213134765625,-6.196044921875
0.132,4.494384765625,1.851806640625,-6.115966796875
0.1325,5.014892578125,0.930908203125,-6.075927734375
0.133,5.295166015625,0.290283203125,-6.115966796875
0.1335,5.175048828125,-0.510498046875,-5.475341796875
0.134,4.894775390625,-1.551513671875,-4.434326171875
0.1345,4.654541015625,-2.832763671875,-3.193115234375
0.135,4.454345703125,-3.913818359375,-2.072021484375
0.1355,4.334228515625,-4.754638671875,-1.311279296875
0.136,4.093994140625,-5.355224609375,-0.630615234375
0.1365,3.293212890625,-5.595458984375,0.290283203125
0.137,2.052001953125,-5.715576171875,1.611572265625
0.1375,0.770751953125,-5.755615234375,2.972900390625
0.138,0.050048828125,-5.995849609375,3.973876953125
0.1385,-0.630615234375,-6.276123046875,4.854736328125
0.139,-1.431396484375,-5.915771484375,5.455322265625
0.1395,-2.552490234375,-4.994873046875,5.735595703125
0.14,-3.713623046875,-3.753662109375,5.895751953125
0.1405,-4.674560546875,-2.432373046875,5.815673828125
0.141,-5.235107421875,-1.711669921875,5.935791015625
0.1415,-5.475341796875,-1.111083984375,5.855712890625
0.142,-5.395263671875,-0.310302734375,5.255126953125
0.1425,-5.155029296875,0.930908203125,4.134033203125
0.143,-4.954833984375,2.172119140625,2.932861328125
0.1435,-4.834716796875,3.173095703125,1.971923828125
0.144,-4.794677734375,4.013916015625,1.291259765625
0.1445,-4.314208984375,4.454345703125,0.570556640625
0.145,-3.473388671875,4.654541015625,-0.550537109375
0.1455,-2.312255859375,4.934814453125,-1.871826171875
0.146,-1.111083984375,5.054931640625,-3.153076171875
0.1465,-0.470458984375,5.295166015625,-4.073974609375
0.147,0.290283203125,5.575439453125,-4.994873046875
0.1475,1.131103515625,5.054931640625,-5.395263671875
0.148,2.292236328125,3.973876953125,-5.715576171875
0.1485,3.453369140625,2.692626953125,-5.755615234375
0.149,4.254150390625,1.651611328125,-5.795654296875
0.1495,4.774658203125,1.010986328125,-5.995849609375
0.15,4.854736328125,0.370361328125,-5.715576171875
0.1505,4.774658203125,-0.590576171875,-5.034912109375
0.151,4.614501953125,-1.671630859375,-3.993896484375
0.1515,4.454345703125,-2.912841796875,-2.792724609375
0.152,4.334228515625,-3.873779296875,-1.991943359375
0.1525,4.334228515625,-4.754638671875,-1.351318359375
0.153,3.773681640625,-5.034912109375,-0.630615234375
0.1535,2.812744140625,-5.275146484375,0.610595703125
0.154,1.651611328125,-5.515380859375,1.931884765625
0.1545,0.690673828125,-5.715576171875,3.093017578125
0.155,0.130126953125,-6.075927734375,4.013916015625
0.1555,-0.670654296875,-6.115966796875,4.814697265625
0.156,-1.631591796875,-5.515380859375,5.255126953125
0.1565,-2.832763671875,-4.434326171875,5.495361328125
0.157,-3.953857421875,-3.113037109375,5.615478515625
0.1575,-4.674560546875,-2.232177734375,5.735595703125
0.158,-5.155029296875,-1.591552734375,5.855712890625
0.1585,-5.155029296875,-0.910888671875,5.455322265625
0.159,-5.074951171875,0.130126953125,4.654541015625
0.1595,-4.954833984375,1.291259765625,3.573486328125
0.16,-4.834716796875,2.492431640625,2.492431640625
0.1605,-4.794677734375,3.373291015625,1.771728515625
0.161,-4.634521484375,4.093994140625,1.091064453125
0.1615,-3.953857421875,4.414306640625,0.250244140625
0.162,-2.872802734375,4.694580078125,-1.111083984375
0.1625,-1.671630859375,4.854736328125,-2.472412109375
0.163,-0.910888671875,5.135009765625,-3.513427734375
0.1635,-0.310302734375,5.495361328125,-4.474365234375
0.164,0.610595703125,5.255126953125,-5.114990234375
0.1645,1.651611328125,4.454345703125,-5.475341796875
0.165,2.852783203125,3.293212890625,-5.715576171875
0.1655,3.853759765625,2.052001953125,-5.755615234375
0.166,4.494384765625,1.331298828125,-5.915771484375
0.1665,4.814697265625,0.690673828125,-5.915771484375
0.167,4.774658203125,-0.190185546875,-5.315185546875
0.1675,4.614501953125,-1.231201171875,-4.354248046875
0.168,4.494384765625,-2.512451171875,-3.193115234375
0.1685,4.414306640625,-3.593505859375,-2.272216796875
0.169,4.414306640625,-4.474365234375,-1.591552734375
0.1695,4.013916015625,-4.914794921875,-0.910888671875
0.17,3.173095703125,-5.195068359375,0.210205078125
0.1705,2.052001953125,-5.435302734375,1.531494140625
0.171,0.930908203125,-5.635498046875,2.812744140625
0.1715,0.290283203125,-5.955810546875,3.813720703125
0.172,-0.510498046875,-6.276123046875,4.734619140625
0.1725,-1.351318359375,-5.715576171875,5.175048828125
0.173,-2.592529296875,-4.634521484375,5.575439453125
0.1735,-3.793701171875,-3.353271484375,5.695556640625
0.174,-4.634521484375,-2.272216796875,5.735595703125
0.1745,-5.155029296875,-1.631591796875,5.895751953125
0.175,-5.275146484375,-0.990966796875,5.615478515625
0.1755,-5.155029296875,0.010009765625,4.854736328125
0.176,-4.994873046875,1.171142578125,3.773681640625
0.1765,-4.834716796875,2.412353515625,2.572509765625
0.177,-4.754638671875,3.333251953125,1.771728515625
0.1775,-4.674560546875,4.134033203125,1.091064453125
0.178,-4.033935546875,4.454345703125,0.290283203125
0.1785,-3.032958984375,4.694580078125,-0.990966796875
0.179,-1.831787109375,4.934814453125,-2.312255859375
0.1795,-0.870849609375,5.094970703125,-3.513427734375
0.18,-0.270263671875,5.415283203125,-4.434326171875
0.1805,0.570556640625,5.415283203125,-5.195068359375
0.181,1.571533203125,4.694580078125,-5.595458984375
0.1815,2.812744140625,3.493408203125,-5.835693359375
0.182,3.893798828125,2.172119140625,-5.875732421875
0.1825,4.614501953125,1.291259765625,-5.915771484375
0.183,4.974853515625,0.650634765625,-6.035888671875
0.1835,4.934814453125,-0.190185546875,-5.475341796875
0.184,4.774658203125,-1.231201171875,-4.554443359375
0.1845,4.614501953125,-2.512451171875,-3.353271484375
0.185,4.454345703125,-3.673583984375,-2.272216796875
0.1855,4.374267578125,-4.514404296875,-1.511474609375
0.186,4.174072265625,-5.155029296875,-0.790771484375
0.1865,3.373291015625,-5.395263671875,0.170166015625
0.187,2.172119140625,-5.635498046875,1.531494140625
0.1875,0.930908203125,-5.755615234375,2.892822265625
0.188,0.130126953125,-5.995849609375,3.933837890625
