wavelength,x,y,z
0.0,0.0550537109375,-2.6275634765625,2.8177490234375
0.0005,-0.5855712890625,-2.2271728515625,2.8978271484375
0.001,-1.3062744140625,-1.4263916015625,3.0980224609375
0.0015,-1.9869384765625,-0.7857666015625,3.1781005859375
0.002,-2.5474853515625,-0.3052978515625,3.2181396484375
0.0025,-2.8277587890625,0.0550537109375,3.2181396484375
0.003,-2.8677978515625,0.4554443359375,2.8978271484375
0.0035,-2.8277587890625,0.9359130859375,2.3372802734375
0.004,-2.8277587890625,1.5765380859375,1.6165771484375
0.0045,-2.8677978515625,2.0970458984375,1.0560302734375
0.005,-2.8677978515625,2.4974365234375,0.5755615234375
0.0055,-2.9078369140625,2.7376708984375,0.1751708984375
0.006,-2.5074462890625,2.6976318359375,-0.4254150390625
0.0065,-1.9468994140625,2.6976318359375,-1.1060791015625
0.007,-1.2662353515625,2.6976318359375,-1.9068603515625
0.0075,-0.8258056640625,2.7376708984375,-2.5474853515625
0.008,-0.4654541015625,2.6976318359375,-2.9879150390625
0.0085,0.0150146484375,2.4173583984375,-3.2281494140625
0.009,0.6556396484375,1.9368896484375,-3.4683837890625
0.0095,1.4163818359375,1.1761474609375,-3.6285400390625
0.01,2.0169677734375,0.6556396484375,-3.7086181640625
0.0105,2.5374755859375,0.2152099609375,-3.7486572265625
0.011,2.8177490234375,-0.1451416015625,-3.7486572265625
0.0115,2.8577880859375,-0.5855712890625,-3.3482666015625
0.012,2.8577880859375,-1.1060791015625,-2.7476806640625
0.0125,2.8577880859375,-1.7867431640625,-2.0670166015625
0.013,2.9779052734375,-2.2672119140625,-1.5465087890625
0.0135,3.0179443359375,-2.5875244140625,-1.1060791015625
0.014,2.8577880859375,-2.8277587890625,-0.6256103515625
0.0145,2.3773193359375,-2.8277587890625,0.0150146484375
0.015,1.7767333984375,-2.7877197265625,0.8157958984375
0.0155,1.2161865234375,-2.8277587890625,1.5765380859375
0.016,0.7757568359375,-2.8677978515625,2.1771240234375
0.0165,0.3753662109375,-2.8277587890625,2.6976318359375
0.017,-0.1851806640625,-2.5074462890625,2.8577880859375
0.0175,-0.8258056640625,-1.7867431640625,3.0579833984375
0.018,-1.7066650390625,-1.1060791015625,3.1380615234375
0.0185,-2.2672119140625,-0.5855712890625,3.2581787109375
0.019,-2.6275634765625,-0.1851806640625,3.2982177734375
0.0195,-2.8677978515625,0.1751708984375,3.1781005859375
0.02,-2.8677978515625,0.6956787109375,2.6175537109375
0.0205,-2.8677978515625,1.2962646484375,1.9769287109375
0.021,-2.9078369140625,1.9368896484375,1.2962646484375
0.0215,-3.0279541015625,2.4573974609375,0.7757568359375
0.022,-3.0279541015625,2.6976318359375,0.3353271484375
0.0225,-2.6676025390625,2.7777099609375,-0.2652587890625
0.023,-2.1470947265625,2.7777099609375,-0.9459228515625
0.0235,-1.4263916015625,2.7777099609375,-1.7467041015625
0.024,-0.9459228515625,2.7376708984375,-2.4273681640625
0.0245,-0.4654541015625,2.8177490234375,-2.9478759765625
0.025,-0.1051025390625,2.5775146484375,-3.3482666015625
0.0255,0.6156005859375,2.0970458984375,-3.5084228515625
0.026,1.2962646484375,1.4163818359375,-3.6685791015625
0.0265,2.0970458984375,0.6556396484375,-3.7486572265625
0.027,2.5775146484375,0.2552490234375,-3.8287353515625
0.0275,2.8177490234375,-0.1451416015625,-3.7486572265625
0.028,2.9378662109375,-0.5054931640625,-3.4683837890625
0.0285,2.8577880859375,-1.0660400390625,-2.8277587890625
0.029,2.8577880859375,-1.6666259765625,-2.1070556640625
0.0295,2.8978271484375,-2.2672119140625,-1.5064697265625
0.03,2.9779052734375,-2.6275634765625,-1.0660400390625
0.0305,2.8978271484375,-2.8277587890625,-0.6256103515625
0.031,2.4573974609375,-2.8277587890625,0.0150146484375
0.0315,1.9368896484375,-2.8277587890625,0.6556396484375
0.032,1.2562255859375,-2.8277587890625,1.5364990234375
0.0325,0.7357177734375,-2.9078369140625,2.0570068359375
0.033,0.3753662109375,-2.8277587890625,2.5775146484375
0.0335,0.0150146484375,-2.7076416015625,2.8177490234375
0.034,-0.7857666015625,-1.9468994140625,3.0179443359375
0.0345,-1.5064697265625,-1.2662353515625,3.1781005859375
0.035,-2.1871337890625,-0.6256103515625,3.2181396484375
0.0355,-2.6676025390625,-0.2652587890625,3.3382568359375
0.036,-2.8677978515625,0.1351318359375,3.2181396484375
0.0365,-2.9078369140625,0.6156005859375,2.8577880859375
0.037,-2.9478759765625,1.1361083984375,2.2572021484375
0.0375,-2.9478759765625,1.8568115234375,1.4564208984375
0.038,-3.0679931640625,2.3773193359375,0.9359130859375
0.0385,-3.0679931640625,2.7376708984375,0.4554443359375
0.039,-2.9078369140625,2.8978271484375,0.0150146484375
0.0395,-2.3472900390625,2.8177490234375,-0.7056884765625
0.04,-1.7467041015625,2.8577880859375,-1.5465087890625
0.0405,-1.1060791015625,2.8177490234375,-2.3873291015625
0.041,-0.5855712890625,2.8577880859375,-2.9879150390625
0.0415,-0.2652587890625,2.6976318359375,-3.2681884765625
0.042,0.4554443359375,2.3372802734375,-3.6685791015625
0.0425,1.2962646484375,1.5765380859375,-3.7886962890625
0.043,2.0570068359375,0.8157958984375,-3.8687744140625
0.0435,2.6575927734375,0.2552490234375,-3.8687744140625
0.044,3.0179443359375,-0.1851806640625,-3.9488525390625
0.0445,3.1380615234375,-0.5855712890625,-3.6685791015625
0.045,3.0579833984375,-1.1060791015625,-3.0279541015625
0.0455,3.0579833984375,-1.7066650390625,-2.3072509765625
0.046,3.0579833984375,-2.4273681640625,-1.5064697265625
0.0465,3.0579833984375,-2.7877197265625,-0.9859619140625
0.047,2.9378662109375,-2.9879150390625,-0.5054931640625
0.0475,2.6175537109375,-2.9879150390625,0.0150146484375
0.048,1.8568115234375,-2.8277587890625,0.7757568359375
0.0485,1.2962646484375,-2.8677978515625,1.5765380859375
0.049,0.6156005859375,-2.8677978515625,2.2972412109375
0.0495,0.3353271484375,-2.7476806640625,2.6575927734375
0.05,-0.2652587890625,-2.5074462890625,2.9779052734375
0.0505,-0.7857666015625,-1.9869384765625,3.1380615234375
0.051,-1.5465087890625,-1.2261962890625,3.1781005859375
0.0515,-2.2672119140625,-0.5855712890625,3.2581787109375
0.052,-2.6275634765625,-0.1451416015625,3.2181396484375
0.0525,-2.9478759765625,0.2552490234375,3.2581787109375
0.053,-3.0279541015625,0.6156005859375,2.9378662109375
0.0535,-2.8677978515625,1.1361083984375,2.2572021484375
0.054,-2.9078369140625,1.6566162109375,1.6165771484375
0.0545,-2.9478759765625,2.2972412109375,0.9359130859375
0.055,-3.0279541015625,2.6175537109375,0.4954833984375
0.0555,-2.9078369140625,2.8177490234375,0.0950927734375
0.056,-2.5474853515625,2.8177490234375,-0.4654541015625
0.0565,-1.9068603515625,2.6976318359375,-1.2662353515625
0.057,-1.2662353515625,2.7376708984375,-1.9869384765625
0.0575,-0.7857666015625,2.6175537109375,-2.7476806640625
0.058,-0.4254150390625,2.8577880859375,-3.1881103515625
0.0585,0.0950927734375,2.5374755859375,-3.4683837890625
0.059,0.7757568359375,1.9368896484375,-3.5885009765625
0.0595,1.5364990234375,1.2562255859375,-3.7886962890625
0.06,2.2972412109375,0.5755615234375,-3.8687744140625
0.0605,2.7376708984375,0.1751708984375,-3.9088134765625
0.061,3.0179443359375,-0.2652587890625,-3.8287353515625
0.0615,3.0980224609375,-0.7056884765625,-3.5084228515625
0.062,3.0179443359375,-1.3062744140625,-2.7076416015625
0.0625,3.0579833984375,-1.9869384765625,-2.0269775390625
0.063,3.1380615234375,-2.5875244140625,-1.3463134765625
0.0635,3.1781005859375,-2.9078369140625,-0.9058837890625
0.064,2.8577880859375,-2.9478759765625,-0.3853759765625
0.0645,2.2972412109375,-3.0279541015625,0.3753662109375
0.065,1.6165771484375,-2.9879150390625,1.1761474609375
0.0655,0.8558349609375,-2.9879150390625,2.0570068359375
0.066,0.4954833984375,-2.8677978515625,2.5374755859375
0.0665,0.0950927734375,-2.7877197265625,2.9378662109375
0.067,-0.5455322265625,-2.3072509765625,3.1380615234375
0.0675,-1.3062744140625,-1.4664306640625,3.1781005859375
0.068,-2.0269775390625,-0.8258056640625,3.2581787109375
0.0685,-2.5875244140625,-0.2652587890625,3.2982177734375
0.069,-2.9078369140625,0.0950927734375,3.3382568359375
0.0695,-2.9478759765625,0.4954833984375,2.9378662109375
0.07,-2.9478759765625,0.9359130859375,2.4974365234375
0.0705,-2.8677978515625,1.5364990234375,1.7366943359375
0.071,-2.9078369140625,2.0970458984375,1.0960693359375
0.0715,-2.9078369140625,2.5374755859375,0.4954833984375
0.072,-2.9078369140625,2.7777099609375,0.1751708984375
0.0725,-2.5875244140625,2.7376708984375,-0.3052978515625
0.073,-1.9468994140625,2.6175537109375,-1.0260009765625
0.0735,-1.3062744140625,2.7376708984375,-1.7467041015625
0.074,-0.7857666015625,2.6976318359375,-2.5074462890625
0.0745,-0.4254150390625,2.6575927734375,-2.9478759765625
0.075,0.0150146484375,2.5374755859375,-3.3082275390625
0.0755,0.5355224609375,2.0970458984375,-3.5484619140625
0.076,1.2962646484375,1.3363037109375,-3.5885009765625
0.0765,1.9368896484375,0.7757568359375,-3.7086181640625
0.077,2.5374755859375,0.2552490234375,-3.7886962890625
0.0775,2.8577880859375,0.0150146484375,-3.8687744140625
0.078,2.8978271484375,-0.5054931640625,-3.5484619140625
0.0785,2.8978271484375,-0.9859619140625,-2.9478759765625
0.079,2.9378662109375,-1.6265869140625,-2.2672119140625
0.0795,3.0179443359375,-2.2672119140625,-1.6265869140625
0.08,3.0579833984375,-2.6275634765625,-1.1461181640625
0.0805,3.0579833984375,-2.9478759765625,-0.7056884765625
0.081,2.6575927734375,-2.9478759765625,-0.1451416015625
0.0815,1.9368896484375,-3.0279541015625,0.6156005859375
0.082,1.2962646484375,-2.9478759765625,1.5364990234375
0.0825,0.7757568359375,-2.9478759765625,2.2572021484375
0.083,0.3753662109375,-2.9078369140625,2.7376708984375
0.0835,-0.1851806640625,-2.5875244140625,3.0179443359375
0.084,-0.9058837890625,-1.9869384765625,3.2181396484375
0.0845,-1.7867431640625,-1.1861572265625,3.3382568359375
0.085,-2.4273681640625,-0.5855712890625,3.4183349609375
0.0855,-2.8677978515625,-0.1051025390625,3.4183349609375
0.086,-3.1480712890625,0.2952880859375,3.3382568359375
0.0865,-3.1080322265625,0.7757568359375,2.8177490234375
0.087,-3.0279541015625,1.4163818359375,2.0570068359375
0.0875,-3.0679931640625,2.0570068359375,1.2962646484375
0.088,-3.1080322265625,2.5775146484375,0.6956787109375
0.0885,-3.1080322265625,2.8177490234375,0.2552490234375
0.089,-2.7476806640625,2.8577880859375,-0.3052978515625
0.0895,-2.2672119140625,2.8577880859375,-0.9459228515625
0.09,-1.4263916015625,2.8177490234375,-1.8668212890625
0.0905,-0.7857666015625,2.7777099609375,-2.5875244140625
0.091,-0.3453369140625,2.7376708984375,-3.0679931640625
0.0915,0.0950927734375,2.6175537109375,-3.5084228515625
0.092,0.6156005859375,2.0570068359375,-3.5885009765625
0.0925,1.3363037109375,1.3763427734375,-3.7086181640625
0.093,2.1370849609375,0.6156005859375,-3.7486572265625
0.0935,2.6175537109375,0.1351318359375,-3.7886962890625
0.094,2.8577880859375,-0.2652587890625,-3.7486572265625
0.0945,3.0179443359375,-0.5855712890625,-3.5484619140625
0.095,2.9378662109375,-1.0660400390625,-2.9478759765625
0.0955,2.8978271484375,-1.6265869140625,-2.2271728515625
0.096,2.8978271484375,-2.1871337890625,-1.6265869140625
0.0965,3.0179443359375,-2.6275634765625,-1.0660400390625
0.097,2.9378662109375,-2.8677978515625,-0.6656494140625
0.0975,2.6175537109375,-2.8677978515625,-0.2652587890625
0.098,2.0570068359375,-2.8277587890625,0.4954833984375
0.0985,1.4163818359375,-2.7877197265625,1.2962646484375
0.099,0.8958740234375,-2.7877197265625,1.9368896484375
0.0995,0.4954833984375,-2.7476806640625,2.4573974609375
0.1,0.1351318359375,-2.7076416015625,2.8577880859375
0.1005,-0.5054931640625,-2.1871337890625,3.0179443359375
0.101,-1.2261962890625,-1.5465087890625,3.1781005859375
0.1015,-1.9869384765625,-0.8258056640625,3.2581787109375
0.102,-2.5474853515625,-0.3453369140625,3.3382568359375
0.1025,-2.8277587890625,0.0150146484375,3.3782958984375
0.103,-2.9078369140625,0.4154052734375,3.0579833984375
0.1035,-2.9478759765625,0.9759521484375,2.5374755859375
0.104,-2.9078369140625,1.5765380859375,1.7767333984375
0.1045,-3.0679931640625,2.0970458984375,1.1761474609375
0.105,-3.0679931640625,2.5775146484375,0.6156005859375
0.1055,-3.1480712890625,2.7376708984375,0.2152099609375
0.106,-2.5875244140625,2.8177490234375,-0.4254150390625
0.1065,-1.9869384765625,2.8177490234375,-1.1461181640625
0.107,-1.2662353515625,2.8577880859375,-2.0269775390625
0.1075,-0.7857666015625,2.8577880859375,-2.6676025390625
0.108,-0.3853759765625,2.7777099609375,-3.1480712890625
0.1085,0.1351318359375,2.5374755859375,-3.3883056640625
0.109,0.8157958984375,1.8568115234375,-3.5484619140625
0.1095,1.6165771484375,1.1361083984375,-3.7086181640625
0.11,2.2572021484375,0.5355224609375,-3.7886962890625
0.1105,2.6976318359375,0.1351318359375,-3.8287353515625
0.111,2.8978271484375,-0.2652587890625,-3.7086181640625
0.1115,2.8577880859375,-0.7056884765625,-3.1881103515625
0.112,2.8577880859375,-1.2662353515625,-2.6275634765625
0.1125,2.8577880859375,-1.9468994140625,-1.8267822265625
0.113,2.9378662109375,-2.4273681640625,-1.3062744140625
0.1135,2.9779052734375,-2.7076416015625,-0.9058837890625
0.114,2.7376708984375,-2.8277587890625,-0.5054931640625
0.1145,2.2171630859375,-2.7476806640625,0.2152099609375
0.115,1.6165771484375,-2.7476806640625,0.9759521484375
0.1155,1.0159912109375,-2.7476806640625,1.7366943359375
0.116,0.6156005859375,-2.8277587890625,2.2572021484375
0.1165,0.2952880859375,-2.7076416015625,2.6175537109375
0.117,-0.3052978515625,-2.3472900390625,2.8577880859375
0.1175,-0.9859619140625,-1.7467041015625,3.0179443359375
0.118,-1.7467041015625,-0.9859619140625,3.1380615234375
0.1185,-2.2672119140625,-0.5054931640625,3.2181396484375
0.119,-2.7076416015625,-0.1451416015625,3.2581787109375
0.1195,-2.8677978515625,0.2152099609375,3.1781005859375
0.12,-2.8277587890625,0.7357177734375,2.5775146484375
0.1205,-2.8277587890625,1.2562255859375,1.9769287109375
0.121,-2.9078369140625,1.8968505859375,1.2962646484375
0.1215,-3.0279541015625,2.2972412109375,0.7757568359375
0.122,-2.9879150390625,2.6575927734375,0.3753662109375
0.1225,-2.7076416015625,2.7376708984375,-0.1451416015625
0.123,-2.1871337890625,2.6976318359375,-0.7857666015625
0.1235,-1.5865478515625,2.7376708984375,-1.5865478515625
0.124,-1.0260009765625,2.7376708984375,-2.2672119140625
0.1245,-0.6256103515625,2.8177490234375,-2.8677978515625
0.125,-0.2652587890625,2.6575927734375,-3.1881103515625
0.1255,0.3753662109375,2.1771240234375,-3.3883056640625
0.126,1.1361083984375,1.5765380859375,-3.5885009765625
0.1265,1.9368896484375,0.8157958984375,-3.7086181640625
0.127,2.4173583984375,0.3753662109375,-3.8287353515625
0.1275,2.7376708984375,0.0150146484375,-3.8287353515625
0.128,2.8577880859375,-0.3853759765625,-3.5484619140625
0.1285,2.8177490234375,-1.0260009765625,-2.9078369140625
0.129,2.8577880859375,-1.6265869140625,-2.2672119140625
0.1295,2.8978271484375,-2.2672119140625,-1.5865478515625
0.13,3.0579833984375,-2.5875244140625,-1.1461181640625
0.1305,2.8978271484375,-2.7877197265625,-0.7056884765625
0.131,2.5374755859375,-2.8277587890625,-0.1451416015625
0.1315,1.9368896484375,-2.8277587890625,0.6156005859375
0.132,1.2562255859375,-2.8677978515625,1.4564208984375
0.1325,0.8157958984375,-2.8677978515625,2.0570068359375
0.133,0.4554443359375,-2.8277587890625,2.5374755859375
0.1335,0.0150146484375,-2.5875244140625,2.8577880859375
0.134,-0.7857666015625,-1.8668212890625,2.9378662109375
0.1345,-1.5064697265625,-1.2662353515625,3.1380615234375
0.135,-2.2271728515625,-0.6256103515625,3.2181396484375
0.1355,-2.6275634765625,-0.2652587890625,3.2581787109375
0.136,-2.7877197265625,0.1751708984375,3.1380615234375
0.1365,-2.8277587890625,0.5755615234375,2.7777099609375
0.137,-2.8677978515625,1.1361083984375,2.1771240234375
0.1375,-2.8677978515625,1.7767333984375,1.4163818359375
0.138,-2.9078369140625,2.2972412109375,0.8958740234375
0.1385,-2.9478759765625,2.6175537109375,0.4554443359375
0.139,-2.7877197265625,2.6976318359375,0.0150146484375
0.1395,-2.2672119140625,2.6575927734375,-0.6656494140625
0.14,-1.7066650390625,2.6976318359375,-1.3863525390625
0.1405,-1.0660400390625,2.7376708984375,-2.2271728515625
0.141,-0.6256103515625,2.7376708984375,-2.7076416015625
0.1415,-0.3052978515625,2.6175537109375,-3.1480712890625
0.142,0.2552490234375,2.2972412109375,-3.3482666015625
0.1425,0.9759521484375,1.6165771484375,-3.5084228515625
0.143,1.6566162109375,0.9759521484375,-3.5885009765625
0.1435,2.2572021484375,0.4154052734375,-3.7086181640625
0.144,2.6575927734375,0.1351318359375,-3.7886962890625
0.1445,2.8177490234375,-0.3052978515625,-3.5885009765625
0.145,2.7376708984375,-0.8258056640625,-3.0679931640625
0.1455,2.7777099609375,-1.3863525390625,-2.5474853515625
0.146,2.8577880859375,-1.9468994140625,-1.7867431640625
0.1465,2.9378662109375,-2.3873291015625,-1.3463134765625
0.147,2.8978271484375,-2.6676025390625,-0.9058837890625
0.1475,2.6976318359375,-2.7076416015625,-0.4654541015625
0.148,2.0970458984375,-2.7076416015625,0.2952880859375
0.1485,1.5765380859375,-2.7476806640625,0.9759521484375
0.149,1.0159912109375,-2.7877197265625,1.7366943359375
0.1495,0.6556396484375,-2.8277587890625,2.2572021484375
0.15,0.2952880859375,-2.6676025390625,2.5775146484375
0.1505,-0.3052978515625,-2.2672119140625,2.8177490234375
0.151,-1.0260009765625,-1.6265869140625,2.9779052734375
0.1515,-1.7867431640625,-0.9859619140625,3.1380615234375
0.152,-2.2672119140625,-0.5054931640625,3.1781005859375
0.1525,-2.7076416015625,-0.2252197265625,3.2982177734375
0.153,-2.7476806640625,0.2152099609375,3.0579833984375
0.1535,-2.7476806640625,0.7757568359375,2.3773193359375
0.154,-2.8677978515625,1.3763427734375,1.8568115234375
0.1545,-2.9078369140625,2.0169677734375,1.1761474609375
0.155,-3.0279541015625,2.4173583984375,0.7357177734375
0.1555,-2.9078369140625,2.6175537109375,0.2952880859375
0.156,-2.5875244140625,2.6976318359375,-0.3052978515625
0.1565,-1.9468994140625,2.6976318359375,-1.0260009765625
0.157,-1.3463134765625,2.7376708984375,-1.8267822265625
0.1575,-0.9058837890625,2.7777099609375,-2.5074462890625
0.158,-0.5054931640625,2.8177490234375,-2.9879150390625
0.1585,0.0150146484375,2.4974365234375,-3.2681884765625
0.159,0.6956787109375,1.8968505859375,-3.3883056640625
0.1595,1.4163818359375,1.2562255859375,-3.5885009765625
0.16,2.1370849609375,0.6156005859375,-3.7086181640625
0.1605,2.5374755859375,0.2552490234375,-3.7486572265625
0.161,2.7376708984375,-0.1851806640625,-3.6285400390625
0.1615,2.8177490234375,-0.6256103515625,-3.3082275390625
0.162,2.7376708984375,-1.1461181640625,-2.5875244140625
0.1625,2.8177490234375,-1.7867431640625,-1.9869384765625
0.163,2.8978271484375,-2.3072509765625,-1.3863525390625
0.1635,2.9378662109375,-2.6275634765625,-0.9859619140625
0.164,2.6976318359375,-2.6676025390625,-0.5455322265625
0.1645,2.2572021484375,-2.7076416015625,0.0950927734375
0.165,1.6566162109375,-2.7076416015625,0.8157958984375
0.1655,1.1361083984375,-2.7476806640625,1.5765380859375
0.166,0.6956787109375,-2.7476806640625,2.0970458984375
0.1665,0.3353271484375,-2.7076416015625,2.4974365234375
0.167,-0.1851806640625,-2.3873291015625,2.7376708984375
0.1675,-0.8658447265625,-1.7066650390625,2.8577880859375
0.168,-1.5064697265625,-1.1461181640625,3.0179443359375
0.1685,-2.1871337890625,-0.6256103515625,3.1380615234375
0.169,-2.5474853515625,-0.3453369140625,3.2181396484375
0.1695,-2.7076416015625,0.0950927734375,3.0179443359375
0.17,-2.7476806640625,0.6156005859375,2.5775146484375
0.1705,-2.7476806640625,1.1761474609375,1.9769287109375
0.171,-2.8277587890625,1.7767333984375,1.4163818359375
0.1715,-2.9078369140625,2.2572021484375,0.8958740234375
0.172,-2.9879150390625,2.5775146484375,0.4554443359375
0.1725,-2.7076416015625,2.6575927734375,0.0150146484375
0.173,-2.1871337890625,2.6575927734375,-0.7056884765625
0.1735,-1.6265869140625,2.6976318359375,-1.4664306640625
0.174,-1.1060791015625,2.7777099609375,-2.2672119140625
0.1745,-0.6656494140625,2.7777099609375,-2.7476806640625
0.175,-0.2652587890625,2.6175537109375,-3.1881103515625
0.1755,0.3753662109375,2.2171630859375,-3.3883056640625
0.176,1.1361083984375,1.4964599609375,-3.5484619140625
0.1765,1.8568115234375,0.8958740234375,-3.6685791015625
0.177,2.4173583984375,0.3353271484375,-3.7886962890625
0.1775,2.7777099609375,0.0150146484375,-3.8287353515625
0.178,2.8577880859375,-0.4654541015625,-3.4683837890625
