wavelength,x,y,z
0.0,5.765625,-10.169921875,4.32421875
0.0005,3.36328125,-10.330078125,6.7666015625
0.001,1.2412109375,-9.369140625,7.9677734375
0.0015,-0.6005859375,-9.208984375,9.4091796875
0.002,-2.5224609375,-8.0078125,10.2099609375
0.0025,-4.2041015625,-6.1259765625,9.9697265625
0.003,-6.4462890625,-4.0439453125,10.169921875
0.0035,-8.8486328125,-1.6015625,10.08984375
0.004,-9.689453125,0.560546875,8.888671875
0.0045,-11.1708984375,1.76171875,9.0888671875
0.005,-11.291015625,3.84375,7.046875
0.0055,-11.05078125,5.4453125,5.1650390625
0.006,-11.3310546875,7.8076171875,3.1630859375
0.0065,-10.6103515625,9.2490234375,0.9609375
0.007,-9.76953125,9.8896484375,-0.640625
0.0075,-9.208984375,10.8505859375,-2.2822265625
0.008,-6.646484375,10.2099609375,-4.2041015625
0.0085,-4.884765625,9.9697265625,-5.845703125
0.009,-2.5625,10.169921875,-8.2880859375
0.0095,-0.3203125,8.9287109375,-9.2890625
0.01,1.2412109375,8.7685546875,-10.4501953125
0.0105,3.203125,7.4072265625,-11.05078125
0.011,5.0849609375,5.2451171875,-10.7705078125
0.0115,7.4873046875,3.04296875,-10.890625
0.012,9.76953125,0.48046875,-10.6103515625
0.0125,10.3701171875,-1.44140625,-9.369140625
0.013,11.5712890625,-2.5224609375,-9.4892578125
0.0135,11.5712890625,-4.724609375,-7.20703125
0.014,11.2109375,-6.486328125,-5.0849609375
0.0145,11.5712890625,-8.9287109375,-3.04296875
0.015,10.5302734375,-10.1298828125,-0.640625
0.0155,9.609375,-10.4501953125,0.640625
0.016,8.8486328125,-11.2109375,2.2421875
0.0165,6.0859375,-10.5703125,4.3642578125
0.017,4.00390625,-10.2900390625,6.0859375
0.0175,1.6416015625,-10.41015625,8.568359375
0.018,-0.6806640625,-8.888671875,9.3291015625
0.0185,-1.8017578125,-8.728515625,10.2099609375
0.019,-3.8837890625,-7.0869140625,10.6904296875
0.0195,-5.92578125,-4.6845703125,10.2900390625
0.02,-8.4482421875,-2.2822265625,10.3701171875
0.0205,-10.5703125,0.3203125,9.8896484375
0.021,-10.7705078125,1.921875,8.568359375
0.0215,-11.7314453125,2.962890625,8.48828125
0.022,-11.6513671875,5.4052734375,5.8857421875
0.0225,-11.2509765625,7.1669921875,3.68359375
0.023,-11.4912109375,9.609375,1.44140625
0.0235,-10.2099609375,10.5302734375,-0.9208984375
0.024,-9.2490234375,10.5703125,-1.921875
0.0245,-8.2080078125,11.0107421875,-3.5634765625
0.025,-5.28515625,10.2900390625,-5.765625
0.0255,-3.1630859375,10.0498046875,-7.607421875
0.026,-0.720703125,10.009765625,-9.9296875
0.0265,1.4013671875,8.4482421875,-10.3701171875
0.027,2.322265625,8.248046875,-11.0107421875
0.0275,4.6044921875,6.24609375,-11.291015625
0.028,6.56640625,3.84375,-10.8505859375
0.0285,9.0888671875,1.3212890625,-10.8505859375
0.029,10.9306640625,-1.12109375,-10.25
0.0295,11.0107421875,-2.4423828125,-8.96875
0.03,11.771484375,-3.603515625,-8.5283203125
0.0305,11.611328125,-6.1259765625,-5.845703125
0.031,11.1708984375,-7.6875,-3.8037109375
0.0315,11.3310546875,-10.0498046875,-1.5615234375
0.032,9.8896484375,-10.6904296875,0.640625
0.0325,8.96875,-10.650390625,1.521484375
0.033,7.52734375,-10.970703125,3.2431640625
0.0335,4.724609375,-10.330078125,5.4052734375
0.034,2.6025390625,-10.009765625,7.3271484375
0.0345,0.240234375,-9.849609375,9.4892578125
0.035,-1.6015625,-8.328125,9.7294921875
0.0355,-2.5224609375,-8.0078125,10.2099609375
0.036,-5.0849609375,-5.765625,10.490234375
0.0365,-6.9267578125,-3.5634765625,10.0498046875
0.037,-9.3291015625,-1.041015625,10.0498046875
0.0375,-10.890625,1.28125,9.2890625
0.038,-10.890625,2.5224609375,8.0478515625
0.0385,-11.53125,3.9638671875,7.20703125
0.039,-11.4111328125,6.486328125,4.5244140625
0.0395,-10.9306640625,7.84765625,2.6826171875
0.04,-10.970703125,10.169921875,0.400390625
0.0405,-9.529296875,10.490234375,-1.6015625
0.041,-8.5283203125,10.3701171875,-2.482421875
0.0415,-6.7265625,10.5703125,-4.564453125
0.042,-4.1240234375,10.0498046875,-6.56640625
0.0425,-1.9619140625,9.76953125,-8.48828125
0.043,0.48046875,9.44921875,-10.41015625
0.0435,2.0419921875,8.0078125,-10.5302734375
0.044,3.1630859375,7.3671875,-10.890625
0.0445,6.005859375,4.8046875,-11.1708984375
0.045,7.6875,2.5625,-10.6103515625
0.0455,9.9296875,0.2802734375,-10.5302734375
0.046,11.291015625,-1.921875,-9.8095703125
0.0465,11.291015625,-3.36328125,-8.328125
0.047,11.7314453125,-5.0048828125,-7.126953125
0.0475,11.611328125,-7.4873046875,-4.5244140625
0.048,11.0107421875,-8.6484375,-2.6826171875
0.0485,10.9306640625,-10.7705078125,-0.560546875
0.049,9.3291015625,-11.0107421875,1.521484375
0.0495,7.9677734375,-10.7705078125,2.6025390625
0.05,5.8857421875,-10.890625,4.96484375
0.0505,3.3232421875,-10.330078125,6.88671875
0.051,1.28125,-9.8896484375,8.48828125
0.0515,-1.0810546875,-9.5693359375,10.3701171875
0.052,-2.8427734375,-7.84765625,10.3701171875
0.0525,-4.244140625,-6.6865234375,10.6103515625
0.053,-7.2470703125,-3.9638671875,10.890625
0.0535,-8.8486328125,-1.6416015625,10.08984375
0.054,-10.6103515625,0.5205078125,9.849609375
0.0545,-11.8916015625,2.5224609375,9.048828125
0.055,-11.69140625,4.2841796875,7.046875
0.0555,-11.8515625,6.005859375,5.5654296875
0.056,-11.8515625,8.48828125,2.9228515625
0.0565,-10.7705078125,9.3291015625,0.9609375
0.057,-10.7705078125,11.0908203125,-0.9609375
0.0575,-8.9287109375,11.291015625,-3.0830078125
0.058,-7.0869140625,10.810546875,-4.3642578125
0.0585,-4.8447265625,10.9306640625,-6.7265625
0.059,-2.2822265625,10.3701171875,-8.6884765625
0.0595,-0.3203125,9.5693359375,-9.849609375
0.06,1.841796875,9.2490234375,-11.5712890625
0.0605,3.8837890625,7.1669921875,-11.53125
0.061,5.525390625,5.5654296875,-11.451171875
0.0615,8.4482421875,2.8828125,-11.7314453125
0.062,9.9296875,0.3203125,-10.6103515625
0.0625,11.3310546875,-1.521484375,-10.25
0.063,12.4521484375,-3.4033203125,-9.4892578125
0.0635,12.091796875,-5.365234375,-7.126953125
0.064,12.0517578125,-7.126953125,-5.28515625
0.0645,12.091796875,-9.6494140625,-2.8427734375
0.065,10.6103515625,-10.25,-0.6806640625
0.0655,10.5302734375,-11.69140625,0.8408203125
0.066,8.48828125,-11.7314453125,3.1630859375
0.0665,6.2861328125,-11.05078125,4.6845703125
0.067,4.1240234375,-11.1708984375,6.966796875
0.0675,1.44140625,-10.4501953125,8.9287109375
0.068,-0.6005859375,-9.44921875,9.76953125
0.0685,-2.322265625,-9.1689453125,11.2109375
0.069,-4.64453125,-6.806640625,11.1708984375
0.0695,-6.4462890625,-4.7646484375,10.890625
0.07,-9.3291015625,-2.2421875,11.2109375
0.0705,-10.6103515625,0.560546875,9.8095703125
0.071,-11.69140625,1.921875,9.4091796875
0.0715,-12.572265625,3.8037109375,8.4482421875
0.072,-12.0517578125,5.8857421875,5.8056640625
0.0725,-11.9716796875,7.767578125,3.763671875
0.073,-12.01171875,10.2099609375,1.3212890625
0.0735,-10.25,10.5302734375,-0.9609375
0.074,-10.169921875,11.6513671875,-2.1220703125
0.0745,-7.8876953125,11.6513671875,-4.404296875
0.075,-5.4052734375,10.8505859375,-6.1259765625
0.0755,-3.2431640625,10.970703125,-8.328125
0.076,-0.5205078125,10.08984375,-10.25
0.0765,1.361328125,8.96875,-10.810546875
0.077,2.9228515625,8.6083984375,-12.01171875
0.0775,5.28515625,6.0859375,-11.8515625
0.078,7.287109375,3.8037109375,-11.451171875
0.0785,10.169921875,1.1611328125,-11.69140625
0.079,11.2109375,-1.521484375,-10.1298828125
0.0795,11.9716796875,-2.5625,-9.8095703125
0.08,12.6923828125,-4.484375,-8.6484375
0.0805,12.171875,-6.6865234375,-5.92578125
0.081,11.9716796875,-8.6484375,-3.7236328125
0.0815,11.8115234375,-10.970703125,-1.28125
0.082,9.9697265625,-10.970703125,0.880859375
0.0825,9.849609375,-11.8515625,1.841796875
0.083,7.3671875,-11.611328125,4.1640625
0.0835,4.724609375,-10.890625,6.0859375
0.084,2.5224609375,-10.970703125,8.3681640625
0.0845,-0.3203125,-9.9697265625,10.08984375
0.085,-1.8017578125,-8.8486328125,10.41015625
0.0855,-3.283203125,-8.328125,11.37109375
0.086,-5.765625,-5.7255859375,11.1708984375
0.0865,-7.84765625,-3.203125,10.73046875
0.087,-10.650390625,-0.6005859375,10.8505859375
0.0875,-11.451171875,1.8818359375,9.2490234375
0.088,-11.931640625,2.72265625,8.888671875
0.0885,-12.5322265625,4.8046875,7.287109375
0.089,-11.931640625,7.0068359375,4.5244140625
0.0895,-11.7314453125,9.0087890625,2.2421875
0.09,-11.4912109375,11.1708984375,-0.2802734375
0.0905,-9.6494140625,10.970703125,-1.9619140625
0.091,-9.2890625,11.5712890625,-2.8828125
0.0915,-6.6064453125,11.3310546875,-5.4052734375
0.092,-3.9638671875,10.5703125,-7.2470703125
0.0925,-1.681640625,10.6103515625,-9.609375
0.093,1.0810546875,9.4892578125,-11.05078125
0.0935,2.2421875,8.408203125,-11.1708984375
0.094,3.8037109375,7.607421875,-11.8515625
0.0945,6.40625,4.8046875,-11.6513671875
0.095,8.408203125,2.3623046875,-11.130859375
0.0955,11.130859375,-0.3603515625,-11.2109375
0.096,11.6513671875,-2.4423828125,-9.6494140625
0.0965,11.9716796875,-3.36328125,-9.048828125
0.097,12.412109375,-5.685546875,-7.1669921875
0.0975,11.8515625,-7.6875,-4.64453125
0.098,11.5712890625,-9.529296875,-2.40234375
0.0985,11.1708984375,-11.4111328125,0.080078125
0.099,9.2490234375,-11.05078125,1.6015625
0.0995,8.6884765625,-11.4111328125,2.6025390625
0.1,5.845703125,-11.2109375,5.2451171875
0.1005,3.443359375,-10.4501953125,6.966796875
0.101,1.041015625,-10.41015625,9.2490234375
0.1015,-1.44140625,-9.2890625,10.490234375
0.102,-2.5224609375,-8.2080078125,10.41015625
0.1025,-4.2841796875,-7.0068359375,10.970703125
0.103,-6.966796875,-4.2041015625,10.8505859375
0.1035,-8.6884765625,-1.9619140625,10.25
0.104,-11.130859375,0.6005859375,10.25
0.1045,-11.53125,2.5224609375,8.6083984375
0.105,-11.7314453125,3.5234375,7.84765625
0.1055,-12.091796875,6.005859375,5.6455078125
0.106,-11.5712890625,7.84765625,3.3232421875
0.1065,-11.2109375,9.5693359375,1.2412109375
0.107,-10.6904296875,11.2109375,-1.12109375
0.1075,-8.8486328125,10.73046875,-2.5625
0.108,-7.8876953125,11.0107421875,-3.7236328125
0.1085,-5.0048828125,10.8505859375,-6.4462890625
0.109,-2.8427734375,10.169921875,-7.9677734375
0.1095,-0.400390625,10.009765625,-10.2099609375
0.11,1.841796875,8.80859375,-11.1708984375
0.1105,2.962890625,7.6474609375,-11.05078125
0.111,5.044921875,6.005859375,-11.4912109375
0.1115,7.6474609375,3.3232421875,-11.37109375
0.112,9.208984375,1.041015625,-10.6103515625
0.1125,11.37109375,-1.2412109375,-10.6103515625
0.113,11.69140625,-3.203125,-8.96875
0.1135,11.8115234375,-4.404296875,-7.8876953125
0.114,12.091796875,-6.9267578125,-5.60546875
0.1145,11.53125,-8.568359375,-3.3232421875
0.115,11.0107421875,-9.9697265625,-1.361328125
0.1155,10.490234375,-11.451171875,0.80078125
0.116,8.3681640625,-10.9306640625,2.482421875
0.1165,7.0869140625,-11.05078125,3.84375
0.117,4.2841796875,-10.970703125,6.56640625
0.1175,2.1220703125,-10.1298828125,7.927734375
0.118,-0.2001953125,-9.9296875,9.9296875
0.1185,-2.322265625,-8.6884765625,10.7705078125
0.119,-3.7236328125,-7.20703125,10.5703125
0.1195,-6.0859375,-5.205078125,10.9306640625
0.12,-8.6083984375,-2.6025390625,10.810546875
0.1205,-9.8095703125,-0.3203125,9.7294921875
0.121,-11.69140625,1.5615234375,9.8095703125
0.1215,-11.9716796875,3.68359375,7.8076171875
0.122,-11.8115234375,5.0849609375,6.3662109375
0.1225,-12.0517578125,7.6875,4.0439453125
0.123,-11.4111328125,9.2490234375,1.76171875
0.1235,-10.6103515625,10.2099609375,0.0
0.124,-10.0498046875,11.53125,-2.08203125
0.1245,-7.5673828125,10.9306640625,-4.00390625
0.125,-6.0458984375,10.8505859375,-5.4853515625
0.1255,-3.36328125,10.8505859375,-8.087890625
0.126,-1.0810546875,9.7294921875,-9.2490234375
0.1265,0.880859375,9.4892578125,-10.890625
0.127,3.04296875,8.1279296875,-11.611328125
0.1275,4.64453125,6.2060546875,-11.291015625
0.128,7.046875,4.0439453125,-11.53125
0.1285,9.44921875,1.4013671875,-11.291015625
0.129,10.41015625,-0.9208984375,-10.009765625
0.1295,11.9716796875,-2.322265625,-10.169921875
0.13,12.091796875,-4.484375,-8.0078125
0.1305,11.771484375,-6.005859375,-6.166015625
0.131,12.01171875,-8.4482421875,-3.923828125
0.1315,11.1708984375,-9.849609375,-1.6015625
0.132,10.2900390625,-10.5703125,0.1201171875
0.1325,9.609375,-11.611328125,1.921875
0.133,6.966796875,-10.890625,3.84375
0.1335,5.205078125,-10.7705078125,5.4453125
0.134,2.6826171875,-10.7705078125,7.9677734375
0.1345,0.400390625,-9.4892578125,8.96875
0.135,-1.2412109375,-9.2890625,10.2900390625
0.1355,-3.4033203125,-7.7275390625,10.890625
0.136,-5.125,-5.685546875,10.5302734375
0.1365,-7.6474609375,-3.4833984375,10.73046875
0.137,-9.849609375,-0.9208984375,10.2900390625
0.1375,-10.5302734375,1.201171875,8.96875
0.138,-11.8515625,2.40234375,9.12890625
0.1385,-11.771484375,4.64453125,6.7265625
0.139,-11.451171875,6.326171875,4.7646484375
0.1395,-11.8115234375,8.7685546875,2.6025390625
0.14,-10.6103515625,9.9296875,0.2802734375
0.1405,-9.8896484375,10.490234375,-1.1611328125
0.141,-8.96875,11.2509765625,-2.9228515625
0.1415,-6.2861328125,10.5302734375,-4.884765625
0.142,-4.4443359375,10.3701171875,-6.56640625
0.1425,-1.9619140625,10.3701171875,-9.0087890625
0.143,0.3203125,8.9287109375,-9.76953125
0.1435,1.6416015625,8.80859375,-10.890625
0.144,3.84375,7.046875,-11.3310546875
0.1445,5.6455078125,4.8046875,-11.05078125
0.145,8.248046875,2.482421875,-11.1708984375
0.1455,10.2099609375,-0.1201171875,-10.4501953125
0.146,10.6904296875,-1.7216796875,-9.44921875
0.1465,11.8115234375,-2.8828125,-9.3291015625
0.147,11.6513671875,-5.205078125,-6.8466796875
0.1475,11.37109375,-6.9267578125,-4.8046875
0.148,11.69140625,-9.369140625,-2.642578125
0.1485,10.2900390625,-10.25,-0.3603515625
0.149,9.609375,-10.6103515625,0.8408203125
0.1495,8.4482421875,-11.1708984375,2.6025390625
0.15,5.685546875,-10.41015625,4.64453125
0.1505,3.763671875,-10.330078125,6.486328125
0.151,1.28125,-10.25,8.80859375
0.1515,-0.880859375,-8.7685546875,9.369140625
0.152,-1.9619140625,-8.6884765625,10.330078125
0.1525,-4.244140625,-6.7666015625,10.490234375
0.153,-6.166015625,-4.404296875,10.2099609375
0.1535,-8.8486328125,-1.9619140625,10.3701171875
0.154,-10.5302734375,0.640625,9.609375
0.1545,-10.7705078125,1.921875,8.568359375
0.155,-11.611328125,3.1630859375,8.16796875
0.1555,-11.451171875,5.60546875,5.4853515625
0.156,-11.0908203125,7.3271484375,3.4033203125
0.1565,-11.3310546875,9.7294921875,1.201171875
0.157,-9.8095703125,10.25,-1.041015625
0.1575,-9.1689453125,10.490234375,-1.8818359375
0.158,-7.6875,10.7705078125,-3.7236328125
0.1585,-4.9248046875,10.08984375,-5.765625
0.159,-2.8828125,10.009765625,-7.767578125
0.1595,-0.48046875,9.689453125,-9.8896484375
0.16,1.4013671875,8.2880859375,-10.169921875
0.1605,2.3623046875,8.0478515625,-10.890625
0.161,4.8046875,5.7255859375,-11.05078125
0.1615,6.6865234375,3.5234375,-10.6103515625
0.162,9.2890625,1.0009765625,-10.73046875
0.1625,10.73046875,-1.28125,-9.8896484375
0.163,10.8505859375,-2.3623046875,-8.9287109375
0.1635,11.53125,-3.8037109375,-8.087890625
0.164,11.291015625,-6.2060546875,-5.4453125
0.1645,10.970703125,-7.84765625,-3.5234375
0.165,11.05078125,-10.08984375,-1.28125
0.1655,9.5693359375,-10.330078125,0.640625
0.166,8.8486328125,-10.490234375,1.4814453125
0.1665,6.966796875,-10.6103515625,3.5234375
0.167,4.4443359375,-10.009765625,5.4853515625
0.1675,2.2822265625,-9.9697265625,7.52734375
0.168,-0.16015625,-9.4892578125,9.44921875
0.1685,-1.6015625,-8.2080078125,9.529296875
0.169,-2.6826171875,-7.7275390625,10.0498046875
0.1695,-5.365234375,-5.2451171875,10.2099609375
0.17,-7.046875,-3.1630859375,9.849609375
0.1705,-9.529296875,-0.720703125,9.9296875
0.171,-10.6904296875,1.44140625,8.96875
0.1715,-10.7705078125,2.5625,7.927734375
0.172,-11.291015625,4.2841796875,6.6865234375
0.1725,-11.05078125,6.56640625,4.1240234375
0.173,-10.7705078125,8.0078125,2.322265625
0.1735,-10.73046875,10.1298828125,0.1201171875
0.174,-9.12890625,10.169921875,-1.6416015625
0.1745,-8.2880859375,10.2099609375,-2.5224609375
0.175,-6.1259765625,10.330078125,-4.8447265625
0.1755,-3.763671875,9.76953125,-6.646484375
0.176,-1.6015625,9.609375,-8.6884765625
0.1765,0.7607421875,9.048828125,-10.25
0.177,2.0419921875,7.767578125,-10.2900390625
0.1775,3.36328125,6.8466796875,-10.73046875
0.178,6.2060546875,4.2841796875,-10.890625
0.1785,7.8076171875,2.162109375,-10.330078125
0.179,10.08984375,0.0,-10.41015625
0.1795,11.05078125,-2.08203125,-9.369140625
0.18,11.0107421875,-3.283203125,-8.087890625
0.1805,11.451171875,-5.28515625,-6.56640625
0.181,11.2109375,-7.4873046875,-4.1240234375
0.1815,10.73046875,-8.6884765625,-2.3623046875
0.182,10.650390625,-10.650390625,-0.3203125
0.1825,8.8486328125,-10.5703125,1.5615234375
0.183,7.6875,-10.41015625,2.642578125
0.1835,5.2451171875,-10.5703125,5.2451171875
0.184,3.0029296875,-9.9697265625,6.88671875
0.1845,0.9208984375,-9.7294921875,8.6484375
0.185,-1.28125,-9.1689453125,10.169921875
0.1855,-2.8427734375,-7.5673828125,10.009765625
0.186,-4.5244140625,-6.1259765625,10.330078125
0.1865,-7.4072265625,-3.5234375,10.5302734375
0.187,-8.7685546875,-1.28125,9.689453125
0.1875,-10.650390625,0.720703125,9.6494140625
0.188,-11.53125,2.72265625,8.48828125
0.1885,-11.291015625,4.2041015625,6.7265625
0.189,-11.5712890625,6.2861328125,4.96484375
0.1895,-11.37109375,8.408203125,2.5224609375
0.19,-10.4501953125,9.2490234375,0.7607421875
0.1905,-10.41015625,10.970703125,-1.12109375
0.191,-8.2880859375,10.7705078125,-3.1630859375
0.1915,-6.6865234375,10.41015625,-4.404296875
0.192,-4.32421875,10.5703125,-6.9267578125
0.1925,-1.9619140625,9.849609375,-8.5283203125
0.193,0.0400390625,9.2890625,-9.9296875
0.1935,2.0419921875,8.6484375,-11.2509765625
0.194,3.8837890625,6.6865234375,-11.05078125
0.1945,5.7255859375,4.96484375,-11.0908203125
0.195,8.48828125,2.40234375,-11.291015625
0.1955,9.689453125,0.0400390625,-10.08984375
0.196,11.2509765625,-1.6015625,-10.08984375
0.1965,11.8916015625,-3.5634765625,-8.728515625
0.197,11.4912109375,-5.205078125,-6.6865234375
0.1975,11.69140625,-7.2470703125,-4.7646484375
0.198,11.451171875,-9.3291015625,-2.4423828125
0.1985,10.2099609375,-9.8896484375,-0.640625
0.199,10.1298828125,-11.2509765625,1.0009765625
0.1995,7.6875,-10.9306640625,3.123046875
0.2,5.8857421875,-10.4501953125,4.484375
0.2005,3.603515625,-10.650390625,7.0068359375
0.201,1.201171875,-9.76953125,8.4482421875
0.2015,-0.6005859375,-9.2890625,9.5693359375
0.202,-2.5224609375,-8.48828125,10.650390625
0.2025,-4.404296875,-6.2861328125,10.3701171875
0.203,-6.40625,-4.2841796875,10.3701171875
0.2035,-9.0888671875,-1.8017578125,10.5302734375
0.204,-10.009765625,0.6005859375,9.0888671875
0.2045,-11.291015625,1.76171875,9.2490234375
0.205,-11.7314453125,3.84375,7.607421875
0.2055,-11.2509765625,5.525390625,5.365234375
0.206,-11.451171875,7.6875,3.36328125
0.2065,-11.0107421875,9.529296875,1.0810546875
0.207,-9.76953125,9.8896484375,-0.640625
0.2075,-9.609375,11.0107421875,-2.0419921875
0.208,-7.046875,10.5302734375,-4.1240234375
0.2085,-5.125,10.08984375,-5.60546875
0.209,-2.8828125,10.2900390625,-8.087890625
0.2095,-0.5205078125,9.1689453125,-9.3291015625
0.21,1.0009765625,8.728515625,-10.2900390625
0.2105,2.8828125,7.8076171875,-11.1708984375
0.211,4.8046875,5.5654296875,-10.7705078125
0.2115,6.966796875,3.4033203125,-10.7705078125
0.212,9.44921875,0.9208984375,-10.7705078125
0.2125,10.1298828125,-1.1611328125,-9.369140625
0.213,11.2509765625,-2.1220703125,-9.5693359375
0.2135,11.4912109375,-4.2041015625,-7.6474609375
0.214,11.05078125,-5.92578125,-5.4853515625
0.2145,11.3310546875,-8.2080078125,-3.4833984375
0.215,10.650390625,-9.689453125,-1.2412109375
0.2155,9.5693359375,-9.9697265625,0.240234375
0.216,9.0888671875,-10.8505859375,1.6015625
0.2165,6.4462890625,-10.25,3.68359375
0.217,4.5244140625,-9.9697265625,5.28515625
0.2175,2.3623046875,-10.25,7.6875
0.218,0.080078125,-8.96875,8.6484375
0.2185,-1.201171875,-8.6884765625,9.609375
0.219,-3.0830078125,-7.4072265625,10.2099609375
0.2195,-5.0048828125,-5.1650390625,9.849609375
0.22,-7.3271484375,-2.962890625,9.9296875
0.2205,-9.609375,-0.5205078125,9.7294921875
0.221,-10.009765625,1.2412109375,8.48828125
0.2215,-10.970703125,2.162109375,8.5283203125
0.222,-11.05078125,4.404296875,6.3662109375
0.2225,-10.73046875,6.0859375,4.2041015625
0.223,-11.05078125,8.4482421875,2.2021484375
0.2235,-10.08984375,9.609375,0.0400390625
0.224,-9.1689453125,9.76953125,-1.1611328125
0.2245,-8.4482421875,10.41015625,-2.5625
