wavelength,x,y,z
0.0,15.0146484375,-20.4599609375,6.1259765625
0.0005,18.41796875,-19.1787109375,1.44140625
0.001,20.8203125,-16.9765625,-3.04296875
0.0015,21.861328125,-14.974609375,-5.9658203125
0.002,22.3017578125,-12.0517578125,-9.3291015625
0.0025,21.380859375,-7.447265625,-13.052734375
0.003,20.7001953125,-3.36328125,-16.5361328125
0.0035,19.3388671875,0.6806640625,-19.1787109375
0.004,17.7373046875,4.3642578125,-21.220703125
0.0045,15.3349609375,7.4072265625,-21.9814453125
0.005,11.451171875,10.8505859375,-21.6611328125
0.0055,6.9267578125,14.4140625,-20.8603515625
0.006,1.921875,17.9775390625,-19.619140625
0.0065,-2.6025390625,20.1796875,-17.537109375
0.007,-5.7255859375,21.2607421875,-15.8955078125
0.0075,-8.8486328125,21.78125,-13.453125
0.008,-12.732421875,20.6201171875,-8.6484375
0.0085,-16.17578125,19.779296875,-4.484375
0.009,-19.21875,18.2578125,0.0
0.0095,-21.4609375,16.255859375,4.1640625
0.01,-22.0615234375,13.8935546875,7.0869140625
0.0105,-22.1015625,10.41015625,10.6103515625
0.011,-21.2607421875,6.0859375,14.2138671875
0.0115,-20.5,1.8017578125,17.77734375
0.012,-18.73828125,-2.2421875,19.9794921875
0.0125,-17.0966796875,-5.4453125,21.6611328125
0.013,-14.6142578125,-8.5283203125,22.341796875
0.0135,-9.76953125,-12.2919921875,21.2607421875
0.014,-5.525390625,-15.615234375,20.580078125
0.0145,-0.5205078125,-18.7783203125,18.978515625
0.015,3.84375,-20.8203125,16.9365234375
0.0155,6.646484375,-21.5009765625,15.0146484375
0.016,10.009765625,-21.7412109375,12.171875
0.0165,13.8935546875,-20.580078125,7.287109375
0.017,17.3369140625,-19.37890625,2.8828125
0.0175,19.8994140625,-17.6572265625,-1.4013671875
0.018,21.78125,-15.8154296875,-5.0849609375
0.0185,22.0615234375,-13.0927734375,-8.087890625
0.019,21.5810546875,-8.8486328125,-11.8515625
0.0195,20.98046875,-4.96484375,-15.134765625
0.02,19.8994140625,-0.8408203125,-18.498046875
0.0205,18.0576171875,3.3232421875,-20.580078125
0.021,16.095703125,6.2861328125,-21.5810546875
0.0215,13.373046875,9.529296875,-22.1416015625
0.022,7.927734375,13.453125,-20.8603515625
0.0225,3.6435546875,16.736328125,-20.01953125
0.023,-1.0009765625,19.298828125,-18.2578125
0.0235,-4.8447265625,21.1005859375,-16.49609375
0.024,-7.6474609375,21.3408203125,-14.1337890625
0.0245,-11.2509765625,20.98046875,-10.5302734375
0.025,-14.9345703125,20.2197265625,-6.1259765625
0.0255,-18.2578125,18.6982421875,-1.4013671875
0.026,-20.5,16.736328125,2.7626953125
0.0265,-21.8212890625,14.734375,5.765625
0.027,-22.1015625,11.8916015625,9.0888671875
0.0275,-21.1806640625,7.0869140625,13.0927734375
0.028,-20.580078125,3.36328125,16.2958984375
0.0285,-19.3388671875,-0.720703125,19.0986328125
0.029,-17.537109375,-4.5244140625,21.140625
0.0295,-15.134765625,-7.287109375,21.62109375
0.03,-12.01171875,-10.5302734375,21.7412109375
0.0305,-6.88671875,-14.4140625,20.7001953125
0.031,-2.08203125,-17.6572265625,19.2587890625
0.0315,2.1220703125,-19.7392578125,17.4169921875
0.032,5.5654296875,-21.30078125,15.85546875
0.0325,8.48828125,-21.4208984375,13.0927734375
0.033,12.412109375,-20.3798828125,8.6083984375
0.0335,15.6953125,-19.859375,4.8447265625
0.034,18.7783203125,-18.2177734375,0.2802734375
0.0345,20.7802734375,-16.3759765625,-3.7236328125
0.035,21.4609375,-14.0537109375,-6.56640625
0.0355,21.62109375,-10.890625,-9.8896484375
0.036,20.7802734375,-6.1259765625,-13.8134765625
0.0365,19.9794921875,-2.2421875,-16.9765625
0.037,18.5380859375,1.5615234375,-19.2587890625
0.0375,16.9365234375,5.0849609375,-21.2607421875
0.038,14.09375,8.0078125,-21.380859375
0.0385,9.9296875,11.53125,-20.8203125
0.039,5.5654296875,15.21484375,-20.33984375
0.0395,0.560546875,18.2578125,-18.578125
0.04,-3.2431640625,19.9794921875,-16.7763671875
0.0405,-6.24609375,20.98046875,-15.0947265625
0.041,-9.4892578125,21.140625,-12.2119140625
0.0415,-13.453125,19.9794921875,-7.2470703125
0.042,-16.6962890625,19.0986328125,-3.2431640625
0.0425,-19.3388671875,17.376953125,1.0009765625
0.043,-21.1806640625,15.53515625,4.6044921875
0.0435,-21.4609375,12.8525390625,7.5673828125
0.044,-21.140625,9.0888671875,11.0908203125
0.0445,-20.6201171875,4.8447265625,14.814453125
0.045,-19.5390625,0.6806640625,17.9775390625
0.0455,-17.857421875,-3.123046875,19.8994140625
0.046,-16.3359375,-6.1259765625,21.5009765625
0.0465,-13.29296875,-9.12890625,21.62109375
0.047,-8.2880859375,-12.892578125,20.4599609375
0.0475,-4.1640625,-16.2958984375,19.859375
0.048,0.720703125,-18.978515625,18.0576171875
0.0485,4.32421875,-20.580078125,16.2958984375
0.049,7.0869140625,-20.98046875,14.1337890625
0.0495,10.5302734375,-20.8203125,10.73046875
0.05,14.5341796875,-19.859375,6.0458984375
0.0505,17.6572265625,-18.5380859375,1.681640625
0.051,19.859375,-16.81640625,-2.2421875
0.0515,21.4208984375,-15.0146484375,-5.525390625
0.052,21.380859375,-12.01171875,-8.3681640625
0.0525,20.740234375,-7.5673828125,-12.2919921875
0.053,20.259765625,-3.8037109375,-15.6953125
0.0535,19.05859375,0.3603515625,-18.578125
0.054,17.216796875,3.8837890625,-20.2998046875
0.0545,15.134765625,6.8466796875,-21.220703125
0.055,11.8515625,10.0498046875,-21.30078125
0.0555,6.5263671875,14.0537109375,-20.1396484375
0.056,2.322265625,17.0166015625,-19.1787109375
0.0565,-1.8818359375,19.21875,-17.4169921875
0.057,-5.28515625,20.7802734375,-15.775390625
0.0575,-8.087890625,20.7001953125,-13.0927734375
0.058,-11.69140625,20.1396484375,-9.048828125
0.0585,-15.375,19.3388671875,-4.8046875
0.059,-18.4580078125,17.6572265625,-0.16015625
0.0595,-20.2197265625,15.8955078125,3.4033203125
0.06,-21.3408203125,13.8134765625,6.4462890625
0.0605,-21.140625,10.5703125,9.609375
0.061,-20.419921875,6.0458984375,13.453125
0.0615,-19.7392578125,2.2822265625,16.5361328125
0.062,-18.41796875,-1.6015625,19.05859375
0.0625,-16.6962890625,-4.9248046875,20.7802734375
0.063,-14.09375,-7.7275390625,20.98046875
0.0635,-10.3701171875,-11.1708984375,20.740234375
0.064,-5.4453125,-15.0546875,19.8994140625
0.0645,-0.8408203125,-17.857421875,18.177734375
0.065,2.6826171875,-19.779296875,16.65625
0.0655,5.92578125,-20.7802734375,15.0146484375
0.066,9.0087890625,-20.5400390625,11.8916015625
0.0665,12.732421875,-19.619140625,7.52734375
0.067,16.2158203125,-18.8583984375,3.4033203125
0.0675,18.818359375,-17.13671875,-1.0009765625
0.068,20.3798828125,-15.4150390625,-4.1640625
0.0685,20.9404296875,-12.892578125,-7.126953125
0.069,20.5400390625,-9.2890625,-10.41015625
0.0695,20.01953125,-5.0048828125,-14.25390625
0.07,19.05859375,-1.1611328125,-17.0966796875
0.0705,17.6171875,2.3623046875,-19.1787109375
0.071,15.935546875,5.5654296875,-20.7802734375
0.0715,12.9326171875,8.568359375,-20.66015625
0.072,8.4482421875,12.1318359375,-20.01953125
0.0725,4.0439453125,15.6953125,-19.4990234375
0.073,-0.6806640625,18.2978515625,-17.537109375
0.0735,-3.8037109375,19.6591796875,-16.015625
0.074,-6.7265625,20.4599609375,-14.09375
0.0745,-10.08984375,20.0595703125,-10.5703125
0.075,-13.9736328125,19.1787109375,-6.005859375
0.0755,-17.0966796875,18.017578125,-1.8017578125
0.076,-19.37890625,16.2958984375,2.162109375
0.0765,-20.7001953125,14.5341796875,5.205078125
0.077,-20.8203125,11.5712890625,8.248046875
0.0775,-20.3798828125,7.6474609375,11.771484375
0.078,-19.7392578125,3.4833984375,15.3349609375
0.0785,-18.5380859375,-0.4404296875,18.017578125
0.079,-16.9765625,-3.5634765625,19.6591796875
0.0795,-15.2548828125,-6.56640625,20.98046875
0.08,-11.5712890625,-9.689453125,20.5
0.0805,-6.88671875,-13.4130859375,19.5791015625
0.081,-2.5224609375,-16.65625,18.6982421875
0.0815,1.841796875,-18.8984375,16.9365234375
0.082,4.8447265625,-20.0595703125,15.3349609375
0.0825,7.767578125,-20.3798828125,12.892578125
0.083,11.2509765625,-19.7392578125,8.96875
0.0835,14.974609375,-18.8984375,4.6044921875
0.084,17.857421875,-17.1767578125,0.48046875
0.0845,19.6591796875,-15.6953125,-3.04296875
0.085,20.6201171875,-13.8134765625,-5.9658203125
0.0855,20.2998046875,-10.3701171875,-9.0888671875
0.086,19.69921875,-6.3662109375,-12.572265625
0.0865,19.21875,-2.6025390625,-15.8955078125
0.087,17.8173828125,1.28125,-18.2978515625
0.0875,16.1357421875,4.2041015625,-19.6591796875
0.088,13.93359375,7.0869140625,-20.3798828125
0.0885,9.8896484375,10.4501953125,-19.859375
0.089,5.2451171875,14.25390625,-19.0185546875
0.0895,0.9609375,16.9765625,-17.6572265625
0.09,-2.6025390625,18.7783203125,-16.255859375
0.0905,-5.4853515625,19.8994140625,-14.6142578125
0.091,-8.4482421875,19.69921875,-11.611328125
0.0915,-12.0517578125,19.0185546875,-7.6474609375
0.092,-15.5751953125,18.1376953125,-3.36328125
0.0925,-18.0576171875,16.3759765625,0.8408203125
0.093,-19.458984375,14.8544921875,3.68359375
0.0935,-20.2197265625,12.65234375,6.646484375
0.094,-19.6591796875,8.888671875,9.8896484375
0.0945,-19.21875,4.96484375,13.373046875
0.095,-18.4580078125,1.28125,16.2958984375
0.0955,-17.1767578125,-2.2421875,18.5380859375
0.096,-15.5751953125,-5.0048828125,19.69921875
0.0965,-12.8525390625,-7.84765625,19.859375
0.097,-8.728515625,-11.2509765625,19.2587890625
0.0975,-4.1640625,-14.9345703125,18.5380859375
0.098,0.3203125,-17.296875,16.736328125
0.0985,3.2431640625,-18.7783203125,15.53515625
0.099,6.1259765625,-19.69921875,13.7734375
0.0995,9.369140625,-19.0986328125,10.1298828125
0.1,12.7724609375,-18.5380859375,6.326171875
0.1005,15.9755859375,-17.5771484375,2.2822265625
0.101,18.2978515625,-15.8955078125,-1.6416015625
0.1015,19.3388671875,-14.25390625,-4.2841796875
0.102,19.779296875,-11.69140625,-7.2470703125
0.1025,19.1787109375,-7.767578125,-10.6103515625
0.103,18.8583984375,-3.923828125,-14.1337890625
0.1035,17.7373046875,-0.3203125,-16.65625
0.104,16.4560546875,2.8427734375,-18.5380859375
0.1045,14.654296875,5.685546875,-19.7392578125
0.105,11.130859375,8.80859375,-19.37890625
0.1055,7.046875,12.2919921875,-18.8984375
0.106,2.6826171875,15.615234375,-18.017578125
0.1065,-1.4814453125,17.77734375,-16.2958984375
0.107,-4.1640625,18.9384765625,-14.974609375
0.1075,-7.0869140625,19.5390625,-12.8525390625
0.108,-10.73046875,18.818359375,-8.6884765625
0.1085,-14.173828125,18.177734375,-4.7646484375
0.109,-16.9765625,16.896484375,-0.7607421875
0.1095,-19.05859375,15.3349609375,2.8427734375
0.11,-19.8994140625,13.4130859375,5.60546875
0.1105,-19.859375,10.1298828125,8.80859375
0.111,-19.37890625,6.326171875,12.171875
0.1115,-18.8984375,2.3623046875,15.6552734375
0.112,-17.4169921875,-1.44140625,18.017578125
0.1125,-16.0556640625,-4.32421875,19.458984375
0.113,-14.0537109375,-7.1669921875,20.419921875
0.1135,-9.6494140625,-10.6103515625,19.5390625
0.114,-5.4453125,-14.09375,18.978515625
0.1145,-1.0009765625,-17.0166015625,17.6572265625
0.115,2.9228515625,-19.05859375,16.015625
0.1155,5.6455078125,-19.7392578125,14.3740234375
0.116,8.8486328125,-20.01953125,11.5712890625
0.1165,12.4921875,-19.2587890625,7.3271484375
0.117,15.9755859375,-18.2578125,3.04296875
0.1175,18.4580078125,-16.65625,-1.041015625
0.118,20.1796875,-15.0947265625,-4.2041015625
0.1185,20.740234375,-12.732421875,-7.1669921875
0.119,20.099609375,-8.5283203125,-10.7705078125
0.1195,19.69921875,-4.96484375,-13.93359375
0.12,18.8583984375,-1.0009765625,-17.13671875
0.1205,17.2568359375,2.8427734375,-19.4189453125
0.121,15.375,5.7255859375,-20.33984375
0.1215,12.7724609375,8.7685546875,-20.8603515625
0.122,7.84765625,12.572265625,-19.8994140625
0.1225,3.443359375,16.015625,-18.9384765625
0.123,-0.9609375,18.2978515625,-17.3369140625
0.1235,-4.404296875,20.099609375,-15.85546875
0.124,-7.20703125,20.4599609375,-13.7333984375
0.1245,-10.73046875,19.8994140625,-9.8095703125
0.125,-14.25390625,19.3388671875,-5.845703125
0.1255,-17.537109375,17.8974609375,-1.3212890625
0.126,-19.779296875,16.015625,2.802734375
0.1265,-20.8603515625,14.2138671875,5.685546875
0.127,-21.30078125,11.4912109375,8.80859375
0.1275,-20.33984375,6.7666015625,12.5322265625
0.128,-19.7392578125,3.04296875,15.7353515625
0.1285,-18.41796875,-0.640625,18.2578125
0.129,-16.9365234375,-4.3642578125,20.4599609375
0.1295,-14.6943359375,-7.0869140625,20.9404296875
0.13,-11.2109375,-10.25,20.7802734375
0.1305,-6.6064453125,-13.9736328125,19.9794921875
0.131,-1.8017578125,-17.216796875,18.5380859375
0.1315,2.2822265625,-19.138671875,16.6962890625
0.132,5.3251953125,-20.5,15.2548828125
0.1325,8.2880859375,-20.7802734375,12.8525390625
0.133,12.01171875,-19.6591796875,8.2080078125
0.1335,15.294921875,-19.05859375,4.484375
0.134,18.2177734375,-17.537109375,0.16015625
0.1345,20.2998046875,-15.6953125,-3.763671875
0.135,20.7802734375,-13.7333984375,-6.56640625
0.1355,20.740234375,-10.5302734375,-9.76953125
0.136,20.1796875,-5.9658203125,-13.4130859375
0.1365,19.3388671875,-2.08203125,-16.65625
0.137,17.857421875,1.6416015625,-18.6982421875
0.1375,16.3759765625,4.96484375,-20.5400390625
0.138,13.7333984375,7.84765625,-20.900390625
0.1385,9.3291015625,11.37109375,-20.1396484375
0.139,5.3251953125,14.7744140625,-19.69921875
0.1395,0.48046875,17.857421875,-18.1376953125
0.14,-3.36328125,19.5791015625,-16.2958984375
0.1405,-6.0859375,20.3798828125,-14.6142578125
0.141,-9.2890625,20.580078125,-11.8515625
0.1415,-13.212890625,19.458984375,-7.0068359375
0.142,-16.4560546875,18.5380859375,-2.8427734375
0.1425,-18.9384765625,16.896484375,1.12109375
0.143,-20.7802734375,15.0947265625,4.6845703125
0.1435,-21.0205078125,12.4921875,7.5673828125
0.144,-20.66015625,8.568359375,11.130859375
0.1445,-20.2197265625,4.6044921875,14.57421875
0.145,-19.21875,0.560546875,17.77734375
0.1455,-17.45703125,-3.1630859375,19.69921875
0.146,-15.8955078125,-6.0859375,21.060546875
0.1465,-13.0126953125,-9.12890625,21.380859375
0.147,-7.8076171875,-13.052734375,20.1796875
0.1475,-3.763671875,-16.2158203125,19.4990234375
0.148,0.9609375,-18.8984375,17.7373046875
0.1485,4.724609375,-20.5,16.015625
0.149,7.3671875,-20.8203125,13.7734375
0.1495,10.8505859375,-20.580078125,10.330078125
0.15,14.734375,-19.779296875,5.7255859375
0.1505,17.9375,-18.337890625,1.2412109375
0.151,20.099609375,-16.576171875,-2.642578125
0.1515,21.541015625,-14.7744140625,-5.92578125
0.152,21.62109375,-11.7314453125,-9.0087890625
0.1525,20.7802734375,-7.126953125,-12.9326171875
0.153,20.33984375,-3.36328125,-16.17578125
0.1535,19.05859375,0.7607421875,-19.0986328125
0.154,17.13671875,4.484375,-20.8203125
0.1545,14.8544921875,7.3671875,-21.5009765625
0.155,11.611328125,10.7705078125,-21.62109375
0.1555,6.0458984375,14.8544921875,-20.4599609375
0.156,1.5615234375,17.857421875,-19.138671875
0.1565,-2.5625,19.8994140625,-17.3369140625
0.157,-6.0458984375,21.4208984375,-15.6953125
0.1575,-9.0087890625,21.2607421875,-12.7724609375
0.158,-12.732421875,20.4599609375,-8.4482421875
0.1585,-16.416015625,19.69921875,-4.1640625
0.159,-19.37890625,17.857421875,0.640625
0.1595,-21.140625,15.85546875,4.2841796875
0.16,-22.0615234375,13.6533203125,7.447265625
0.1605,-21.94140625,10.169921875,10.6103515625
0.161,-21.0205078125,5.4052734375,14.654296875
0.1615,-20.1796875,1.4814453125,17.697265625
0.162,-18.578125,-2.4423828125,20.099609375
0.1625,-16.81640625,-5.845703125,21.8212890625
0.163,-13.853515625,-8.80859375,21.78125
0.1635,-9.8896484375,-12.2119140625,21.3408203125
0.164,-4.8447265625,-16.17578125,20.4599609375
0.1645,0.240234375,-18.978515625,18.498046875
0.165,3.8037109375,-20.5400390625,16.736328125
0.1655,7.046875,-21.7412109375,14.9345703125
0.166,10.2099609375,-21.380859375,11.6513671875
0.1665,14.1337890625,-20.099609375,6.88671875
0.167,17.4169921875,-19.298828125,2.6826171875
0.1675,20.0595703125,-17.45703125,-1.8017578125
0.168,21.4609375,-15.53515625,-5.125
0.1685,21.78125,-12.732421875,-8.2880859375
0.169,21.380859375,-8.8486328125,-11.6513671875
0.1695,20.740234375,-4.4443359375,-15.455078125
0.17,19.4990234375,-0.3603515625,-18.337890625
0.1705,17.77734375,3.2431640625,-20.2197265625
0.171,16.0556640625,6.4462890625,-21.8212890625
0.1715,12.6123046875,9.609375,-21.5009765625
0.172,7.84765625,13.29296875,-20.6201171875
0.1725,3.4833984375,16.8564453125,-19.939453125
0.173,-1.361328125,19.3388671875,-17.9775390625
0.1735,-4.7646484375,20.7001953125,-16.17578125
0.174,-7.767578125,21.3408203125,-14.013671875
0.1745,-11.2509765625,20.8603515625,-10.25
0.175,-15.134765625,19.859375,-5.525390625
0.1755,-18.2978515625,18.4580078125,-1.1611328125
0.176,-20.4599609375,16.6162109375,2.8828125
0.1765,-21.8212890625,14.654296875,6.0859375
0.177,-21.78125,11.451171875,9.2490234375
0.1775,-21.1005859375,7.2470703125,12.892578125
0.178,-20.580078125,3.0830078125,16.576171875
0.1785,-19.05859375,-1.201171875,19.298828125
0.179,-17.296875,-4.5244140625,20.8203125
0.1795,-15.375,-7.5673828125,22.0615234375
0.18,-11.4912109375,-10.890625,21.5810546875
0.1805,-6.3662109375,-14.7744140625,20.5
0.181,-1.8017578125,-17.9375,19.37890625
0.1815,2.6826171875,-20.2197265625,17.45703125
0.182,5.92578125,-21.4208984375,15.615234375
0.1825,9.0888671875,-21.5009765625,12.8125
0.183,12.7724609375,-20.8203125,8.6884765625
0.1835,16.6162109375,-19.8994140625,4.00390625
0.184,19.4990234375,-18.1376953125,-0.640625
0.1845,21.2607421875,-16.3359375,-4.1640625
0.185,22.26171875,-14.013671875,-7.4072265625
0.1855,21.8212890625,-10.169921875,-10.810546875
0.186,21.1005859375,-5.8056640625,-14.3740234375
0.1865,20.3798828125,-1.681640625,-18.09765625
0.187,18.6982421875,2.5625,-20.4599609375
0.1875,16.65625,5.845703125,-21.701171875
0.188,13.93359375,8.96875,-22.26171875
0.1885,9.5693359375,12.6123046875,-21.62109375
0.189,4.484375,16.49609375,-20.5400390625
0.1895,-0.3603515625,19.21875,-18.7783203125
0.19,-4.1640625,21.060546875,-17.0166015625
0.1905,-7.3671875,21.9013671875,-15.0146484375
0.191,-10.8505859375,21.5810546875,-11.3310546875
0.1915,-14.5341796875,20.6201171875,-6.966796875
0.192,-18.2177734375,19.458984375,-2.2421875
0.1925,-20.8203125,17.296875,2.5224609375
0.193,-22.0615234375,15.375,5.6455078125
0.1935,-22.662109375,12.65234375,8.96875
0.194,-21.861328125,8.248046875,12.572265625
0.1945,-21.140625,3.9638671875,16.2158203125
0.195,-19.8994140625,-0.2001953125,19.0986328125
0.1955,-18.2177734375,-4.1240234375,21.380859375
0.196,-16.015625,-7.20703125,22.341796875
0.1965,-12.65234375,-10.41015625,22.26171875
0.197,-8.0478515625,-13.9736328125,21.380859375
0.1975,-2.9228515625,-17.6572265625,20.2197265625
0.198,1.9619140625,-20.01953125,17.9775390625
0.1985,5.205078125,-21.4208984375,16.2958984375
0.199,8.328125,-22.1015625,14.0537109375
0.1995,11.9716796875,-21.140625,9.8095703125
0.2,15.53515625,-20.33984375,5.4853515625
0.2005,18.818359375,-18.9384765625,0.9609375
0.201,21.1806640625,-16.81640625,-3.5234375
0.2015,21.94140625,-14.6943359375,-6.40625
0.202,22.2216796875,-11.5712890625,-9.689453125
0.2025,21.30078125,-7.1669921875,-13.29296875
0.203,20.6201171875,-2.962890625,-16.81640625
0.2035,19.05859375,1.12109375,-19.298828125
0.204,17.4169921875,4.564453125,-21.140625
0.2045,15.21484375,7.767578125,-22.0615234375
0.205,10.890625,11.1708984375,-21.4208984375
0.2055,6.486328125,14.6943359375,-20.66015625
0.206,1.5615234375,18.0576171875,-19.4189453125
0.2065,-2.8828125,20.1796875,-17.3369140625
0.207,-5.765625,21.1005859375,-15.615234375
0.2075,-8.9287109375,21.541015625,-13.0927734375
0.208,-12.8125,20.4599609375,-8.408203125
0.2085,-16.3759765625,19.4990234375,-4.1640625
0.209,-19.1787109375,17.9375,0.2802734375
0.2095,-21.1806640625,16.0556640625,4.2041015625
0.21,-21.8212890625,13.693359375,7.126953125
0.2105,-21.6611328125,10.0498046875,10.650390625
0.211,-21.140625,5.8857421875,14.09375
0.2115,-20.2197265625,1.6416015625,17.6171875
0.212,-18.4580078125,-2.4423828125,19.8994140625
0.2125,-16.6962890625,-5.4052734375,21.30078125
0.213,-14.333984375,-8.568359375,22.0615234375
0.2135,-9.4892578125,-12.251953125,21.0205078125
0.214,-5.0849609375,-15.6953125,20.2197265625
0.2145,-0.3203125,-18.6181640625,18.658203125
0.215,3.8837890625,-20.66015625,16.7763671875
0.2155,6.6865234375,-21.2607421875,14.734375
0.216,10.08984375,-21.3408203125,11.69140625
0.2165,13.8134765625,-20.4599609375,7.1669921875
0.217,17.3369140625,-19.21875,2.6025390625
0.2175,19.859375,-17.3369140625,-1.4814453125
0.218,21.4609375,-15.5751953125,-5.0048828125
