wavelength,x,y,z
0.0,2.54248046875,-4.98486328125,1.94189453125
0.0005,3.02294921875,-4.94482421875,1.34130859375
0.001,3.54345703125,-4.82470703125,0.62060546875
0.0015,3.66357421875,-4.18408203125,-0.30029296875
0.002,3.90380859375,-3.82373046875,-0.98095703125
0.0025,3.90380859375,-2.62255859375,-2.18212890625
0.003,3.94384765625,-2.18212890625,-2.74267578125
0.0035,3.70361328125,-1.26123046875,-3.50341796875
0.004,3.34326171875,-0.50048828125,-3.90380859375
0.0045,2.78271484375,0.38037109375,-4.18408203125
0.005,2.18212890625,1.26123046875,-4.50439453125
0.0055,1.34130859375,2.26220703125,-4.66455078125
0.006,0.70068359375,2.86279296875,-4.58447265625
0.0065,-0.30029296875,3.62353515625,-4.38427734375
0.007,-1.14111328125,3.90380859375,-3.78369140625
0.0075,-1.78173828125,4.26416015625,-3.54345703125
0.008,-2.66259765625,4.46435546875,-2.62255859375
0.0085,-3.18310546875,4.54443359375,-2.22216796875
0.009,-3.58349609375,4.34423828125,-1.54150390625
0.0095,-3.94384765625,4.10400390625,-0.90087890625
0.01,-4.02392578125,3.54345703125,0.02001953125
0.0105,-4.22412109375,3.06298828125,0.70068359375
0.011,-4.18408203125,2.06201171875,1.78173828125
0.0115,-4.18408203125,1.66162109375,2.26220703125
0.012,-3.98388671875,0.82080078125,2.90283203125
0.0125,-3.54345703125,0.06005859375,3.22314453125
0.013,-3.18310546875,-0.70068359375,3.66357421875
0.0135,-2.42236328125,-1.62158203125,3.86376953125
0.014,-1.86181640625,-2.54248046875,4.14404296875
0.0145,-1.02099609375,-3.10302734375,3.86376953125
0.015,-0.30029296875,-3.78369140625,3.78369140625
0.0155,0.62060546875,-4.10400390625,3.18310546875
0.016,1.26123046875,-4.50439453125,2.94287109375
0.0165,2.26220703125,-4.78466796875,2.06201171875
0.017,2.70263671875,-4.94482421875,1.74169921875
0.0175,3.14306640625,-4.74462890625,0.94091796875
0.018,3.46337890625,-4.38427734375,0.26025390625
0.0185,3.62353515625,-3.82373046875,-0.62060546875
0.019,3.82373046875,-3.22314453125,-1.46142578125
0.0195,3.90380859375,-2.42236328125,-2.50244140625
0.02,3.74365234375,-1.82177734375,-2.94287109375
0.0205,3.58349609375,-0.98095703125,-3.70361328125
0.021,2.98291015625,-0.14013671875,-3.94384765625
0.0215,2.62255859375,0.74072265625,-4.38427734375
0.022,1.74169921875,1.78173828125,-4.58447265625
0.0225,1.14111328125,2.66259765625,-4.82470703125
0.023,0.14013671875,3.22314453125,-4.38427734375
0.0235,-0.70068359375,3.86376953125,-4.22412109375
0.024,-1.54150390625,4.14404296875,-3.58349609375
0.0245,-2.22216796875,4.42431640625,-3.18310546875
0.025,-3.18310546875,4.62451171875,-2.30224609375
0.0255,-3.58349609375,4.50439453125,-1.78173828125
0.026,-3.98388671875,4.30419921875,-0.98095703125
0.0265,-4.14404296875,3.86376953125,-0.26025390625
0.027,-4.26416015625,3.18310546875,0.62060546875
0.0275,-4.30419921875,2.34228515625,1.58154296875
0.028,-4.42431640625,1.66162109375,2.50244140625
0.0285,-3.94384765625,0.90087890625,2.82275390625
0.029,-3.82373046875,0.18017578125,3.46337890625
0.0295,-3.06298828125,-0.74072265625,3.58349609375
0.03,-2.70263671875,-1.46142578125,3.94384765625
0.0305,-1.74169921875,-2.58251953125,4.06396484375
0.031,-1.14111328125,-3.18310546875,4.10400390625
0.0315,-0.14013671875,-3.70361328125,3.58349609375
0.032,0.58056640625,-4.22412109375,3.38330078125
0.0325,1.26123046875,-4.46435546875,2.82275390625
0.033,1.94189453125,-4.70458984375,2.30224609375
0.0335,2.82275390625,-4.94482421875,1.58154296875
0.034,3.06298828125,-4.58447265625,0.98095703125
0.0345,3.50341796875,-4.46435546875,0.34033203125
0.035,3.54345703125,-3.82373046875,-0.50048828125
0.0355,3.78369140625,-3.34326171875,-1.26123046875
0.036,3.70361328125,-2.46240234375,-2.18212890625
0.0365,3.86376953125,-1.98193359375,-2.86279296875
0.037,3.38330078125,-1.18115234375,-3.26318359375
0.0375,3.26318359375,-0.50048828125,-3.86376953125
0.038,2.54248046875,0.46044921875,-4.06396484375
0.0385,2.22216796875,1.18115234375,-4.50439453125
0.039,1.30126953125,2.30224609375,-4.62451171875
0.0395,0.66064453125,2.90283203125,-4.54443359375
0.04,-0.38037109375,3.50341796875,-4.14404296875
0.0405,-1.10107421875,3.90380859375,-3.86376953125
0.041,-1.78173828125,4.14404296875,-3.38330078125
0.0415,-2.62255859375,4.30419921875,-2.86279296875
0.042,-3.34326171875,4.74462890625,-2.18212890625
0.0425,-3.58349609375,4.26416015625,-1.42138671875
0.043,-4.10400390625,4.22412109375,-0.78076171875
0.0435,-4.06396484375,3.46337890625,0.14013671875
0.044,-4.34423828125,2.94287109375,0.98095703125
0.0445,-4.34423828125,1.98193359375,2.02197265625
0.045,-4.34423828125,1.42138671875,2.62255859375
0.0455,-3.82373046875,0.58056640625,3.06298828125
0.046,-3.58349609375,-0.18017578125,3.54345703125
0.0465,-2.86279296875,-1.10107421875,3.70361328125
0.047,-2.34228515625,-1.90185546875,3.98388671875
0.0475,-1.46142578125,-2.98291015625,4.18408203125
0.048,-0.62060546875,-3.46337890625,3.78369140625
0.0485,0.26025390625,-4.02392578125,3.62353515625
0.049,0.94091796875,-4.38427734375,3.06298828125
0.0495,1.66162109375,-4.62451171875,2.46240234375
0.05,2.50244140625,-4.78466796875,1.86181640625
0.0505,3.14306640625,-4.90478515625,1.26123046875
0.051,3.30322265625,-4.34423828125,0.42041015625
0.0515,3.66357421875,-4.26416015625,-0.14013671875
0.052,3.58349609375,-3.34326171875,-1.10107421875
0.0525,3.78369140625,-2.86279296875,-1.82177734375
0.053,3.82373046875,-1.94189453125,-2.82275390625
0.0535,3.58349609375,-1.38134765625,-3.26318359375
0.054,3.18310546875,-0.50048828125,-3.70361328125
0.0545,2.82275390625,0.22021484375,-4.06396484375
0.055,2.18212890625,1.02099609375,-4.30419921875
0.0555,1.58154296875,1.90185546875,-4.50439453125
0.056,0.78076171875,2.86279296875,-4.70458984375
0.0565,-0.10009765625,3.34326171875,-4.14404296875
0.057,-0.90087890625,3.86376953125,-4.02392578125
0.0575,-1.62158203125,3.98388671875,-3.38330078125
0.058,-2.26220703125,4.38427734375,-3.02294921875
0.0585,-3.14306640625,4.58447265625,-2.30224609375
0.059,-3.66357421875,4.54443359375,-1.66162109375
0.0595,-3.86376953125,4.06396484375,-0.90087890625
0.06,-4.14404296875,3.86376953125,-0.30029296875
0.0605,-4.18408203125,2.98291015625,0.78076171875
0.061,-4.34423828125,2.42236328125,1.54150390625
0.0615,-4.42431640625,1.58154296875,2.54248046875
0.062,-4.02392578125,0.90087890625,2.90283203125
0.0625,-3.70361328125,0.06005859375,3.50341796875
0.063,-3.18310546875,-0.78076171875,3.70361328125
0.0635,-2.58251953125,-1.66162109375,4.02392578125
0.064,-1.82177734375,-2.58251953125,4.14404296875
0.0645,-0.98095703125,-3.50341796875,4.34423828125
0.065,0.06005859375,-3.90380859375,3.54345703125
0.0655,0.70068359375,-4.50439453125,3.54345703125
0.066,1.62158203125,-4.62451171875,2.66259765625
0.0665,2.26220703125,-4.86474609375,2.22216796875
0.067,3.06298828125,-5.06494140625,1.46142578125
0.0675,3.50341796875,-4.78466796875,0.66064453125
0.068,3.70361328125,-4.30419921875,-0.14013671875
0.0685,3.90380859375,-3.86376953125,-0.82080078125
0.069,3.90380859375,-2.90283203125,-1.90185546875
0.0695,3.94384765625,-2.34228515625,-2.58251953125
0.07,3.90380859375,-1.46142578125,-3.54345703125
0.0705,3.30322265625,-0.62060546875,-3.82373046875
0.071,3.02294921875,0.18017578125,-4.26416015625
0.0715,2.26220703125,1.10107421875,-4.42431640625
0.072,1.66162109375,1.94189453125,-4.66455078125
0.0725,0.86083984375,2.82275390625,-4.66455078125
0.073,0.02001953125,3.46337890625,-4.58447265625
0.0735,-0.98095703125,3.82373046875,-3.90380859375
0.074,-1.54150390625,4.30419921875,-3.70361328125
0.0745,-2.54248046875,4.42431640625,-2.82275390625
0.075,-3.02294921875,4.54443359375,-2.42236328125
0.0755,-3.70361328125,4.66455078125,-1.70166015625
0.076,-3.90380859375,4.14404296875,-0.98095703125
0.0765,-4.18408203125,3.86376953125,-0.30029296875
0.077,-4.22412109375,3.18310546875,0.62060546875
0.0775,-4.30419921875,2.42236328125,1.54150390625
0.078,-4.30419921875,1.78173828125,2.22216796875
0.0785,-4.22412109375,1.02099609375,2.94287109375
0.079,-3.58349609375,0.18017578125,3.18310546875
0.0795,-3.50341796875,-0.50048828125,3.74365234375
0.08,-2.58251953125,-1.46142578125,3.86376953125
0.0805,-2.10205078125,-2.26220703125,4.14404296875
0.081,-1.22119140625,-3.18310546875,4.10400390625
0.0815,-0.46044921875,-3.78369140625,3.86376953125
0.082,0.50048828125,-4.14404296875,3.38330078125
0.0825,1.14111328125,-4.54443359375,3.14306640625
0.083,2.06201171875,-4.74462890625,2.26220703125
0.0835,2.58251953125,-4.94482421875,1.94189453125
0.084,3.34326171875,-4.98486328125,1.10107421875
0.0845,3.50341796875,-4.46435546875,0.30029296875
0.085,3.82373046875,-4.18408203125,-0.42041015625
0.0855,3.86376953125,-3.34326171875,-1.42138671875
0.086,3.98388671875,-2.62255859375,-2.30224609375
0.0865,3.90380859375,-1.94189453125,-2.98291015625
0.087,3.78369140625,-1.14111328125,-3.70361328125
0.0875,3.10302734375,-0.22021484375,-3.98388671875
0.088,2.86279296875,0.58056640625,-4.50439453125
0.0885,1.86181640625,1.74169921875,-4.62451171875
0.089,1.30126953125,2.42236328125,-4.86474609375
0.0895,0.30029296875,3.26318359375,-4.66455078125
0.09,-0.62060546875,3.86376953125,-4.26416015625
0.0905,-1.42138671875,4.22412109375,-3.78369140625
0.091,-2.22216796875,4.50439453125,-3.22314453125
0.0915,-3.14306640625,4.66455078125,-2.42236328125
0.092,-3.50341796875,4.62451171875,-1.94189453125
0.0925,-4.10400390625,4.54443359375,-1.14111328125
0.093,-4.14404296875,3.86376953125,-0.30029296875
0.0935,-4.42431640625,3.54345703125,0.42041015625
0.094,-4.34423828125,2.46240234375,1.54150390625
0.0945,-4.46435546875,1.90185546875,2.26220703125
0.095,-4.14404296875,1.10107421875,2.86279296875
0.0955,-3.90380859375,0.34033203125,3.38330078125
0.096,-3.26318359375,-0.58056640625,3.58349609375
0.0965,-2.86279296875,-1.30126953125,3.98388671875
0.097,-1.90185546875,-2.50244140625,4.10400390625
0.0975,-1.38134765625,-3.06298828125,4.10400390625
0.098,-0.38037109375,-3.78369140625,3.90380859375
0.0985,0.42041015625,-4.14404296875,3.46337890625
0.099,1.14111328125,-4.50439453125,3.10302734375
0.0995,1.94189453125,-4.74462890625,2.42236328125
0.1,2.70263671875,-4.94482421875,1.78173828125
0.1005,3.02294921875,-4.78466796875,1.26123046875
0.101,3.54345703125,-4.66455078125,0.54052734375
0.1015,3.58349609375,-3.98388671875,-0.34033203125
0.102,3.90380859375,-3.70361328125,-1.02099609375
0.1025,3.86376953125,-2.58251953125,-2.14208984375
0.103,3.98388671875,-2.26220703125,-2.70263671875
0.1035,3.66357421875,-1.30126953125,-3.38330078125
0.104,3.38330078125,-0.62060546875,-3.86376953125
0.1045,2.82275390625,0.34033203125,-4.18408203125
0.105,2.30224609375,1.10107421875,-4.50439453125
0.1055,1.46142578125,2.22216796875,-4.74462890625
0.106,0.86083984375,2.86279296875,-4.70458984375
0.1065,-0.26025390625,3.62353515625,-4.50439453125
0.107,-1.06103515625,3.98388671875,-3.98388671875
0.1075,-1.78173828125,4.42431640625,-3.58349609375
0.108,-2.70263671875,4.62451171875,-2.82275390625
0.1085,-3.34326171875,4.82470703125,-2.26220703125
0.109,-3.74365234375,4.50439453125,-1.54150390625
0.1095,-4.18408203125,4.38427734375,-0.82080078125
0.11,-4.22412109375,3.66357421875,0.14013671875
0.1105,-4.50439453125,3.18310546875,0.90087890625
0.111,-4.50439453125,2.02197265625,2.14208984375
0.1115,-4.42431640625,1.58154296875,2.58251953125
0.112,-4.06396484375,0.62060546875,3.22314453125
0.1125,-3.66357421875,-0.26025390625,3.62353515625
0.113,-3.06298828125,-1.14111328125,3.90380859375
0.1135,-2.38232421875,-2.06201171875,4.14404296875
0.114,-1.50146484375,-3.14306640625,4.34423828125
0.1145,-0.70068359375,-3.58349609375,3.94384765625
0.115,0.26025390625,-4.22412109375,3.78369140625
0.1155,1.02099609375,-4.46435546875,3.14306640625
0.116,1.70166015625,-4.82470703125,2.74267578125
0.1165,2.66259765625,-4.94482421875,1.82177734375
0.117,3.18310546875,-5.02490234375,1.30126953125
0.1175,3.50341796875,-4.58447265625,0.50048828125
0.118,3.82373046875,-4.34423828125,-0.22021484375
0.1185,3.78369140625,-3.54345703125,-1.06103515625
0.119,3.90380859375,-3.02294921875,-1.82177734375
0.1195,3.98388671875,-2.02197265625,-2.90283203125
0.12,3.70361328125,-1.50146484375,-3.26318359375
0.1205,3.42333984375,-0.62060546875,-3.90380859375
0.121,2.86279296875,0.18017578125,-4.14404296875
0.1215,2.38232421875,0.98095703125,-4.50439453125
0.122,1.58154296875,1.94189453125,-4.62451171875
0.1225,0.94091796875,2.90283203125,-4.86474609375
0.123,0.02001953125,3.34326171875,-4.38427734375
0.1235,-0.82080078125,4.02392578125,-4.22412109375
0.124,-1.66162109375,4.22412109375,-3.54345703125
0.1245,-2.26220703125,4.54443359375,-3.18310546875
0.125,-3.26318359375,4.78466796875,-2.30224609375
0.1255,-3.70361328125,4.70458984375,-1.78173828125
0.126,-4.02392578125,4.34423828125,-0.98095703125
0.1265,-4.30419921875,3.98388671875,-0.30029296875
0.127,-4.34423828125,3.22314453125,0.66064453125
0.1275,-4.46435546875,2.54248046875,1.58154296875
0.128,-4.58447265625,1.74169921875,2.58251953125
0.1285,-4.14404296875,1.02099609375,2.94287109375
0.129,-3.90380859375,0.10009765625,3.58349609375
0.1295,-3.26318359375,-0.82080078125,3.78369140625
0.13,-2.78271484375,-1.62158203125,4.10400390625
0.1305,-1.86181640625,-2.66259765625,4.22412109375
0.131,-1.14111328125,-3.50341796875,4.34423828125
0.1315,0.02001953125,-3.94384765625,3.74365234375
0.132,0.62060546875,-4.54443359375,3.62353515625
0.1325,1.42138671875,-4.62451171875,2.86279296875
0.133,2.18212890625,-4.94482421875,2.38232421875
0.1335,3.14306640625,-5.18505859375,1.54150390625
0.134,3.46337890625,-4.86474609375,0.82080078125
0.1345,3.82373046875,-4.50439453125,0.02001953125
0.135,3.90380859375,-3.98388671875,-0.70068359375
0.1355,3.98388671875,-3.22314453125,-1.62158203125
0.136,3.94384765625,-2.38232421875,-2.54248046875
0.1365,4.02392578125,-1.66162109375,-3.38330078125
0.137,3.42333984375,-0.90087890625,-3.70361328125
0.1375,3.22314453125,-0.14013671875,-4.30419921875
0.138,2.42236328125,0.78076171875,-4.34423828125
0.1385,1.98193359375,1.58154296875,-4.66455078125
0.139,1.02099609375,2.70263671875,-4.78466796875
0.1395,0.30029296875,3.34326171875,-4.62451171875
0.14,-0.78076171875,3.82373046875,-4.10400390625
0.1405,-1.38134765625,4.22412109375,-3.86376953125
0.141,-2.18212890625,4.34423828125,-3.14306640625
0.1415,-2.82275390625,4.54443359375,-2.62255859375
0.142,-3.66357421875,4.78466796875,-1.94189453125
0.1425,-3.82373046875,4.26416015625,-1.14111328125
0.143,-4.18408203125,4.14404296875,-0.50048828125
0.1435,-4.14404296875,3.34326171875,0.34033203125
0.144,-4.34423828125,2.78271484375,1.18115234375
0.1445,-4.34423828125,1.94189453125,2.06201171875
0.145,-4.34423828125,1.30126953125,2.78271484375
0.1455,-3.78369140625,0.42041015625,3.06298828125
0.146,-3.62353515625,-0.30029296875,3.58349609375
0.1465,-2.82275390625,-1.14111328125,3.70361328125
0.147,-2.38232421875,-1.94189453125,4.06396484375
0.1475,-1.46142578125,-2.94287109375,4.18408203125
0.148,-0.70068359375,-3.46337890625,3.86376953125
0.1485,0.26025390625,-4.02392578125,3.58349609375
0.149,0.90087890625,-4.42431640625,3.22314453125
0.1495,1.66162109375,-4.62451171875,2.62255859375
0.15,2.38232421875,-4.86474609375,2.06201171875
0.1505,3.18310546875,-5.06494140625,1.34130859375
0.151,3.34326171875,-4.50439453125,0.58056640625
0.1515,3.82373046875,-4.42431640625,0.02001953125
0.152,3.78369140625,-3.54345703125,-1.06103515625
0.1525,3.98388671875,-2.98291015625,-1.90185546875
0.153,3.98388671875,-2.18212890625,-2.90283203125
0.1535,3.82373046875,-1.46142578125,-3.50341796875
0.154,3.26318359375,-0.58056640625,-3.86376953125
0.1545,3.02294921875,0.26025390625,-4.34423828125
0.155,2.18212890625,1.26123046875,-4.50439453125
0.1555,1.58154296875,2.06201171875,-4.74462890625
0.156,0.70068359375,3.14306640625,-4.82470703125
0.1565,-0.34033203125,3.58349609375,-4.30419921875
0.157,-1.14111328125,4.10400390625,-4.02392578125
0.1575,-1.94189453125,4.34423828125,-3.42333984375
0.158,-2.70263671875,4.54443359375,-2.74267578125
0.1585,-3.30322265625,4.70458984375,-2.18212890625
0.159,-3.94384765625,4.66455078125,-1.42138671875
0.1595,-4.02392578125,3.98388671875,-0.62060546875
0.16,-4.34423828125,3.82373046875,0.06005859375
0.1605,-4.26416015625,2.70263671875,1.14111328125
0.161,-4.34423828125,2.18212890625,1.82177734375
0.1615,-4.26416015625,1.30126953125,2.70263671875
0.162,-3.94384765625,0.58056640625,3.06298828125
0.1625,-3.46337890625,-0.30029296875,3.50341796875
0.163,-3.06298828125,-0.98095703125,3.78369140625
0.1635,-2.26220703125,-1.90185546875,3.90380859375
0.164,-1.66162109375,-2.62255859375,4.02392578125
0.1645,-0.82080078125,-3.46337890625,4.02392578125
0.165,0.14013671875,-3.78369140625,3.46337890625
0.1655,0.70068359375,-4.34423828125,3.34326171875
0.166,1.58154296875,-4.50439453125,2.58251953125
0.1665,2.18212890625,-4.74462890625,2.14208984375
0.167,2.82275390625,-4.82470703125,1.54150390625
0.1675,3.26318359375,-4.66455078125,0.86083984375
0.168,3.46337890625,-4.18408203125,0.10009765625
0.1685,3.70361328125,-3.94384765625,-0.58056640625
0.169,3.70361328125,-3.06298828125,-1.62158203125
0.1695,3.86376953125,-2.62255859375,-2.30224609375
0.17,3.82373046875,-1.74169921875,-3.18310546875
0.1705,3.38330078125,-0.98095703125,-3.54345703125
0.171,3.10302734375,-0.18017578125,-4.02392578125
0.1715,2.54248046875,0.70068359375,-4.26416015625
0.172,1.94189453125,1.62158203125,-4.58447265625
0.1725,1.18115234375,2.46240234375,-4.66455078125
0.173,0.30029296875,3.26318359375,-4.62451171875
0.1735,-0.66064453125,3.70361328125,-4.02392578125
0.174,-1.30126953125,4.22412109375,-3.90380859375
0.1745,-2.34228515625,4.42431640625,-3.02294921875
0.175,-2.90283203125,4.66455078125,-2.58251953125
0.1755,-3.54345703125,4.70458984375,-1.90185546875
0.176,-3.90380859375,4.38427734375,-1.14111328125
0.1765,-4.14404296875,3.86376953125,-0.34033203125
0.177,-4.34423828125,3.34326171875,0.54052734375
0.1775,-4.42431640625,2.26220703125,1.66162109375
0.178,-4.34423828125,1.82177734375,2.22216796875
0.1785,-4.22412109375,0.98095703125,3.06298828125
0.179,-3.66357421875,0.14013671875,3.34326171875
0.1795,-3.34326171875,-0.66064453125,3.78369140625
0.18,-2.50244140625,-1.70166015625,3.94384765625
0.1805,-1.86181640625,-2.54248046875,4.14404296875
0.181,-1.02099609375,-3.22314453125,3.98388671875
0.1815,-0.26025390625,-3.86376953125,3.78369140625
0.182,0.70068359375,-4.14404296875,3.18310546875
0.1825,1.30126953125,-4.58447265625,2.90283203125
0.183,2.30224609375,-4.70458984375,1.98193359375
0.1835,2.70263671875,-4.82470703125,1.62158203125
0.184,3.26318359375,-4.70458984375,0.90087890625
0.1845,3.42333984375,-4.22412109375,0.18017578125
0.185,3.62353515625,-3.86376953125,-0.58056640625
0.1855,3.70361328125,-3.18310546875,-1.42138671875
0.186,3.78369140625,-2.42236328125,-2.38232421875
0.1865,3.66357421875,-1.82177734375,-2.86279296875
0.187,3.50341796875,-1.10107421875,-3.54345703125
0.1875,2.90283203125,-0.30029296875,-3.74365234375
0.188,2.70263671875,0.50048828125,-4.22412109375
0.1885,1.82177734375,1.46142578125,-4.34423828125
0.189,1.34130859375,2.22216796875,-4.62451171875
0.1895,0.46044921875,2.94287109375,-4.42431640625
0.19,-0.38037109375,3.50341796875,-4.18408203125
0.1905,-1.18115234375,3.86376953125,-3.70361328125
0.191,-1.82177734375,4.26416015625,-3.38330078125
0.1915,-2.74267578125,4.46435546875,-2.58251953125
0.192,-3.14306640625,4.54443359375,-2.26220703125
0.1925,-3.70361328125,4.50439453125,-1.46142578125
0.193,-3.86376953125,3.86376953125,-0.70068359375
0.1935,-4.18408203125,3.58349609375,0.06005859375
0.194,-4.22412109375,2.66259765625,1.06103515625
0.1945,-4.42431640625,2.18212890625,1.94189453125
0.195,-4.14404296875,1.42138671875,2.46240234375
0.1955,-4.02392578125,0.70068359375,3.10302734375
0.196,-3.42333984375,-0.26025390625,3.38330078125
0.1965,-3.10302734375,-1.02099609375,3.86376953125
0.197,-2.10205078125,-2.18212890625,4.02392578125
0.1975,-1.58154296875,-2.86279296875,4.14404296875
0.198,-0.62060546875,-3.54345703125,3.86376953125
0.1985,0.26025390625,-4.02392578125,3.54345703125
0.199,0.98095703125,-4.34423828125,3.06298828125
