wavelength,x,y,z
0.0,-0.80078125,-3.4833984375,4.00390625
0.0005,0.0400390625,-3.84375,3.5234375
0.001,0.6005859375,-4.2841796875,3.3232421875
0.0015,1.3212890625,-4.4443359375,2.642578125
0.002,2.0419921875,-4.64453125,2.2021484375
0.0025,2.6826171875,-4.724609375,1.5615234375
0.003,3.1630859375,-4.6845703125,0.9609375
0.0035,3.2431640625,-4.1640625,0.2802734375
0.004,3.5234375,-3.9638671875,-0.3203125
0.0045,3.4833984375,-3.0830078125,-1.28125
0.005,3.7236328125,-2.642578125,-2.001953125
0.0055,3.68359375,-1.921875,-2.8427734375
0.006,3.4033203125,-1.3212890625,-3.203125
0.0065,3.1630859375,-0.640625,-3.6435546875
0.007,2.6826171875,0.1201171875,-3.8837890625
0.0075,2.08203125,1.041015625,-4.244140625
0.008,1.44140625,1.921875,-4.4443359375
0.0085,0.7607421875,2.642578125,-4.5244140625
0.009,-0.16015625,3.123046875,-4.083984375
0.0095,-0.720703125,3.6435546875,-4.0439453125
0.01,-1.6015625,3.923828125,-3.36328125
0.0105,-2.322265625,4.3642578125,-3.0029296875
0.011,-3.04296875,4.484375,-2.322265625
0.0115,-3.4833984375,4.404296875,-1.681640625
0.012,-3.763671875,4.00390625,-1.0009765625
0.0125,-4.00390625,3.68359375,-0.2802734375
0.013,-4.1640625,2.802734375,0.880859375
0.0135,-4.32421875,2.2822265625,1.5615234375
0.014,-4.32421875,1.5615234375,2.4423828125
0.0145,-3.923828125,0.7607421875,2.8427734375
0.015,-3.68359375,0.080078125,3.36328125
0.0155,-2.962890625,-0.9208984375,3.5634765625
0.016,-2.322265625,-1.921875,3.923828125
0.0165,-1.44140625,-2.802734375,3.8837890625
0.017,-0.6806640625,-3.5634765625,3.84375
0.0175,0.16015625,-3.8837890625,3.3232421875
0.018,0.7607421875,-4.244140625,3.1630859375
0.0185,1.76171875,-4.484375,2.2421875
0.019,2.40234375,-4.64453125,1.841796875
0.0195,2.9228515625,-4.64453125,1.12109375
0.02,3.1630859375,-4.2841796875,0.48046875
0.0205,3.3232421875,-3.84375,-0.2802734375
0.021,3.443359375,-3.203125,-1.041015625
0.0215,3.5234375,-2.4423828125,-2.001953125
0.022,3.443359375,-1.9619140625,-2.5625
0.0225,3.4033203125,-1.28125,-3.203125
0.023,2.8427734375,-0.6005859375,-3.36328125
0.0235,2.642578125,0.0400390625,-3.8037109375
0.024,1.8818359375,0.9609375,-3.8837890625
0.0245,1.4013671875,1.7216796875,-4.2041015625
0.025,0.640625,2.40234375,-4.1240234375
0.0255,0.0400390625,2.8828125,-4.00390625
0.026,-0.6806640625,3.2431640625,-3.603515625
0.0265,-1.2412109375,3.603515625,-3.4033203125
0.027,-2.08203125,3.84375,-2.72265625
0.0275,-2.5625,4.083984375,-2.4423828125
0.028,-3.0830078125,4.1240234375,-1.8818359375
0.0285,-3.2431640625,3.8037109375,-1.28125
0.029,-3.6435546875,3.6435546875,-0.6806640625
0.0295,-3.7236328125,2.9228515625,0.240234375
0.03,-4.00390625,2.5224609375,1.0009765625
0.0305,-4.00390625,1.921875,1.6416015625
0.031,-4.0439453125,1.4013671875,2.2822265625
0.0315,-3.68359375,0.640625,2.72265625
0.032,-3.4833984375,0.0,3.2431640625
0.0325,-2.6826171875,-1.201171875,3.5234375
0.033,-2.2021484375,-2.0419921875,3.84375
0.0335,-1.3212890625,-2.8828125,3.8037109375
0.034,-0.640625,-3.36328125,3.6435546875
0.0345,0.16015625,-3.84375,3.3232421875
0.035,0.9208984375,-4.2041015625,2.9228515625
0.0355,1.921875,-4.64453125,2.2822265625
0.036,2.40234375,-4.6845703125,1.76171875
0.0365,3.04296875,-4.6845703125,1.0810546875
0.037,3.1630859375,-4.1640625,0.3203125
0.0375,3.4833984375,-3.84375,-0.48046875
0.038,3.5634765625,-2.8828125,-1.5615234375
0.0385,3.763671875,-2.322265625,-2.322265625
0.039,3.5234375,-1.6015625,-2.9228515625
0.0395,3.3232421875,-0.9208984375,-3.4833984375
0.04,2.72265625,-0.16015625,-3.68359375
0.0405,2.322265625,0.6005859375,-4.00390625
0.041,1.4013671875,1.76171875,-4.244140625
0.0415,0.80078125,2.40234375,-4.32421875
0.042,0.0,3.0830078125,-4.083984375
0.0425,-0.720703125,3.4033203125,-3.7236328125
0.043,-1.3212890625,3.68359375,-3.36328125
0.0435,-2.1220703125,3.8837890625,-2.72265625
0.044,-2.8828125,4.1240234375,-2.162109375
0.0445,-3.1630859375,3.9638671875,-1.6015625
0.045,-3.5234375,3.8837890625,-1.12109375
0.0455,-3.5634765625,3.3232421875,-0.48046875
0.046,-3.7236328125,3.0029296875,0.240234375
0.0465,-3.8037109375,2.1220703125,1.2412109375
0.047,-3.8837890625,1.76171875,1.7216796875
0.0475,-3.7236328125,1.12109375,2.2822265625
0.048,-3.5634765625,0.6005859375,2.642578125
0.0485,-3.1630859375,-0.2001953125,3.04296875
0.049,-2.6826171875,-1.0009765625,3.3232421875
0.0495,-2.001953125,-1.9619140625,3.603515625
0.05,-1.4013671875,-2.5224609375,3.603515625
0.0505,-0.6806640625,-3.203125,3.5634765625
0.051,0.0400390625,-3.5634765625,3.203125
0.0515,0.6005859375,-4.00390625,3.04296875
0.052,1.521484375,-4.3642578125,2.40234375
0.0525,2.2421875,-4.64453125,1.9619140625
0.053,2.642578125,-4.5244140625,1.3212890625
0.0535,3.123046875,-4.484375,0.720703125
0.054,3.283203125,-3.8837890625,-0.16015625
0.0545,3.603515625,-3.5234375,-0.9609375
0.055,3.763671875,-2.6025390625,-2.08203125
0.0555,3.8037109375,-2.1220703125,-2.642578125
0.056,3.603515625,-1.3212890625,-3.36328125
0.0565,3.203125,-0.6005859375,-3.7236328125
0.057,2.72265625,0.2802734375,-4.1240234375
0.0575,2.001953125,1.28125,-4.404296875
0.058,1.2412109375,2.4423828125,-4.724609375
0.0585,0.3203125,3.04296875,-4.3642578125
0.059,-0.5205078125,3.7236328125,-4.2841796875
0.0595,-1.2412109375,3.8837890625,-3.68359375
0.06,-1.9619140625,4.244140625,-3.2431640625
0.0605,-3.04296875,4.5244140625,-2.3623046875
0.061,-3.6435546875,4.5244140625,-1.681640625
0.0615,-3.923828125,4.1640625,-1.0009765625
0.062,-4.1640625,3.8837890625,-0.3603515625
0.0625,-4.1640625,3.0830078125,0.6005859375
0.063,-4.244140625,2.40234375,1.44140625
0.0635,-4.32421875,1.521484375,2.5224609375
0.064,-3.9638671875,0.80078125,2.8828125
0.0645,-3.7236328125,0.0,3.4033203125
0.065,-3.1630859375,-0.720703125,3.5234375
0.0655,-2.642578125,-1.44140625,3.8037109375
0.066,-1.76171875,-2.4423828125,3.9638671875
0.0665,-1.0009765625,-3.36328125,4.0439453125
0.067,0.0,-3.763671875,3.5234375
0.0675,0.560546875,-4.2841796875,3.443359375
0.068,1.2412109375,-4.3642578125,2.7626953125
0.0685,1.921875,-4.64453125,2.2822265625
0.069,2.8828125,-4.884765625,1.521484375
0.0695,3.2431640625,-4.724609375,0.880859375
0.07,3.5234375,-4.4443359375,0.240234375
0.0705,3.6435546875,-4.00390625,-0.48046875
0.071,3.7236328125,-3.3232421875,-1.28125
0.0715,3.8037109375,-2.6025390625,-2.2021484375
0.072,3.923828125,-1.841796875,-3.123046875
0.0725,3.5234375,-1.2412109375,-3.5234375
0.073,3.36328125,-0.5205078125,-4.0439453125
0.0735,2.72265625,0.2802734375,-4.2841796875
0.074,2.2421875,1.201171875,-4.564453125
0.0745,1.28125,2.3623046875,-4.7646484375
0.075,0.6005859375,3.1630859375,-4.8046875
0.0755,-0.48046875,3.68359375,-4.32421875
0.076,-1.0810546875,4.1640625,-4.1640625
0.0765,-1.9619140625,4.3642578125,-3.4833984375
0.077,-2.72265625,4.6845703125,-2.9228515625
0.0775,-3.763671875,4.96484375,-2.08203125
0.078,-4.083984375,4.6044921875,-1.28125
0.0785,-4.484375,4.404296875,-0.6005859375
0.079,-4.5244140625,3.763671875,0.3203125
0.0795,-4.64453125,2.9228515625,1.28125
0.08,-4.64453125,2.08203125,2.2421875
0.0805,-4.8046875,1.0810546875,3.2431640625
0.081,-4.0439453125,0.240234375,3.5634765625
0.0815,-3.8837890625,-0.5205078125,4.1240234375
0.082,-2.9228515625,-1.4814453125,4.1640625
0.0825,-2.2822265625,-2.40234375,4.4443359375
0.083,-1.1611328125,-3.603515625,4.484375
0.0835,-0.3203125,-4.32421875,4.2841796875
0.084,0.720703125,-4.64453125,3.6435546875
0.0845,1.4013671875,-5.0849609375,3.3232421875
0.085,2.40234375,-5.1650390625,2.2822265625
0.0855,3.04296875,-5.2451171875,1.681640625
0.086,3.923828125,-5.365234375,0.8408203125
0.0865,4.0439453125,-4.724609375,0.0
0.087,4.244140625,-4.3642578125,-0.720703125
0.0875,4.2041015625,-3.4833984375,-1.7216796875
0.088,4.1640625,-2.6025390625,-2.6025390625
0.0885,3.923828125,-1.8017578125,-3.283203125
0.089,3.923828125,-1.0009765625,-4.1640625
0.0895,3.1630859375,0.0,-4.3642578125
0.09,2.9228515625,0.640625,-4.724609375
0.0905,1.921875,1.681640625,-4.7646484375
0.091,1.28125,2.482421875,-4.884765625
0.0915,0.3203125,3.4833984375,-4.9248046875
0.092,-0.6005859375,3.9638671875,-4.5244140625
0.0925,-1.361328125,4.3642578125,-4.083984375
0.093,-2.001953125,4.6044921875,-3.603515625
0.0935,-2.9228515625,4.7646484375,-2.7626953125
0.094,-3.5234375,4.8447265625,-2.2421875
0.0945,-4.32421875,4.96484375,-1.44140625
0.095,-4.404296875,4.32421875,-0.640625
0.0955,-4.724609375,4.1240234375,0.0400390625
0.096,-4.64453125,3.123046875,1.12109375
0.0965,-4.8046875,2.482421875,1.9619140625
0.097,-4.6845703125,1.5615234375,2.8427734375
0.0975,-4.564453125,0.7607421875,3.5234375
0.098,-3.8837890625,-0.2001953125,3.84375
0.0985,-3.6435546875,-0.880859375,4.32421875
0.099,-2.5625,-2.1220703125,4.484375
0.0995,-1.8818359375,-3.0029296875,4.64453125
0.1,-0.80078125,-4.083984375,4.6044921875
0.1005,0.240234375,-4.6044921875,4.1640625
0.101,1.041015625,-5.044921875,3.68359375
0.1015,1.921875,-5.4052734375,3.0830078125
0.102,3.04296875,-5.5654296875,2.08203125
0.1025,3.5634765625,-5.4853515625,1.4013671875
0.103,4.32421875,-5.4853515625,0.5205078125
0.1035,4.404296875,-4.64453125,-0.5205078125
0.104,4.6044921875,-4.244140625,-1.28125
0.1045,4.5244140625,-3.0029296875,-2.5625
0.105,4.484375,-2.2021484375,-3.443359375
0.1055,4.1240234375,-1.2412109375,-4.1240234375
0.106,3.8837890625,-0.3203125,-4.8046875
0.1065,3.0029296875,0.720703125,-4.884765625
0.107,2.5224609375,1.521484375,-5.1650390625
0.1075,1.28125,2.8427734375,-5.2451171875
0.108,0.5205078125,3.5234375,-5.1650390625
0.1085,-0.6005859375,4.32421875,-4.884765625
0.109,-1.4814453125,4.724609375,-4.2841796875
0.1095,-2.2021484375,4.8447265625,-3.7236328125
0.11,-3.0830078125,5.044921875,-2.8828125
0.1105,-3.9638671875,5.125,-2.001953125
0.111,-4.2841796875,4.8447265625,-1.28125
0.1115,-4.8447265625,4.724609375,-0.6005859375
0.112,-4.6845703125,3.84375,0.3203125
0.1125,-4.8447265625,3.443359375,0.9609375
0.113,-4.64453125,2.2021484375,2.162109375
0.1135,-4.6845703125,1.6015625,2.7626953125
0.114,-4.3642578125,0.7607421875,3.4033203125
0.1145,-4.0439453125,0.0,3.84375
0.115,-3.4033203125,-0.880859375,4.083984375
0.1155,-2.8828125,-1.6416015625,4.32421875
0.116,-1.8818359375,-2.8828125,4.484375
0.1165,-1.1611328125,-3.5234375,4.4443359375
0.117,-0.2001953125,-4.3642578125,4.32421875
0.1175,0.720703125,-4.6845703125,3.68359375
0.118,1.4013671875,-5.044921875,3.36328125
0.1185,2.3623046875,-5.28515625,2.5224609375
0.119,3.1630859375,-5.4853515625,1.8818359375
0.1195,3.6435546875,-5.28515625,1.12109375
0.12,4.2041015625,-5.1650390625,0.2802734375
0.1205,4.2041015625,-4.3642578125,-0.6806640625
0.121,4.484375,-4.00390625,-1.44140625
0.1215,4.484375,-2.72265625,-2.8427734375
0.122,4.484375,-2.0419921875,-3.5234375
0.1225,4.1240234375,-1.041015625,-4.2041015625
0.123,3.68359375,-0.16015625,-4.724609375
0.1235,2.9228515625,0.880859375,-4.9248046875
0.124,2.2421875,1.841796875,-5.205078125
0.1245,1.12109375,3.1630859375,-5.4453125
0.125,0.2001953125,3.8037109375,-5.0849609375
0.1255,-0.8408203125,4.5244140625,-4.8046875
0.126,-1.681640625,4.7646484375,-4.1240234375
0.1265,-2.4423828125,4.96484375,-3.5634765625
0.127,-3.5634765625,5.1650390625,-2.5625
0.1275,-4.3642578125,5.2451171875,-1.681640625
0.128,-4.564453125,4.724609375,-0.80078125
0.1285,-4.96484375,4.484375,0.0
0.129,-4.7646484375,3.443359375,0.8408203125
0.1295,-4.8447265625,2.802734375,1.6015625
0.13,-4.8046875,1.6416015625,2.8427734375
0.1305,-4.484375,0.9609375,3.3232421875
0.131,-4.0439453125,0.0400390625,3.84375
0.1315,-3.5634765625,-0.80078125,4.083984375
0.132,-2.8427734375,-1.5615234375,4.2041015625
0.1325,-2.08203125,-2.4423828125,4.32421875
0.133,-1.1611328125,-3.5634765625,4.484375
0.1335,-0.3203125,-3.9638671875,3.9638671875
0.134,0.5205078125,-4.6044921875,3.84375
0.1345,1.28125,-4.6845703125,3.123046875
0.135,1.841796875,-4.96484375,2.7626953125
0.1355,2.802734375,-5.125,1.8818359375
0.136,3.3232421875,-5.125,1.28125
0.1365,3.6435546875,-4.7646484375,0.5205078125
0.137,3.923828125,-4.5244140625,-0.240234375
0.1375,3.923828125,-3.8037109375,-1.041015625
0.138,4.0439453125,-3.2431640625,-1.8017578125
0.1385,4.1240234375,-2.2822265625,-2.8828125
0.139,3.8837890625,-1.681640625,-3.283203125
0.1395,3.68359375,-0.880859375,-4.00390625
0.14,3.123046875,0.0,-4.1640625
0.1405,2.642578125,0.80078125,-4.6044921875
0.141,1.76171875,1.921875,-4.7646484375
0.1415,1.0810546875,2.802734375,-5.0048828125
0.142,0.1201171875,3.36328125,-4.564453125
0.1425,-0.6806640625,4.083984375,-4.484375
0.143,-1.521484375,4.244140625,-3.8037109375
0.1435,-2.2021484375,4.6044921875,-3.36328125
0.144,-3.2431640625,4.8447265625,-2.5224609375
0.1445,-3.7236328125,4.8046875,-1.921875
0.145,-4.1640625,4.484375,-1.0810546875
0.1455,-4.3642578125,4.083984375,-0.3603515625
0.146,-4.4443359375,3.2431640625,0.6005859375
0.1465,-4.5244140625,2.6025390625,1.521484375
0.147,-4.64453125,1.76171875,2.5625
0.1475,-4.2041015625,1.0009765625,2.9228515625
0.148,-4.00390625,0.240234375,3.603515625
0.1485,-3.283203125,-0.640625,3.68359375
0.149,-2.8427734375,-1.44140625,4.0439453125
0.1495,-1.8017578125,-2.6025390625,4.1240234375
0.15,-1.041015625,-3.4833984375,4.2041015625
0.1505,0.0,-3.8837890625,3.68359375
0.151,0.560546875,-4.404296875,3.5234375
0.1515,1.3212890625,-4.5244140625,2.802734375
0.152,1.9619140625,-4.7646484375,2.322265625
0.1525,3.0029296875,-5.0048828125,1.521484375
0.153,3.2431640625,-4.64453125,0.80078125
0.1535,3.5634765625,-4.484375,0.16015625
0.154,3.5634765625,-3.8837890625,-0.6005859375
0.1545,3.68359375,-3.203125,-1.361328125
0.155,3.68359375,-2.40234375,-2.2822265625
0.1555,3.763671875,-1.8017578125,-3.04296875
0.156,3.283203125,-1.0810546875,-3.283203125
0.1565,3.1630859375,-0.5205078125,-3.84375
0.157,2.4423828125,0.3603515625,-3.8837890625
0.1575,2.0419921875,1.0810546875,-4.2841796875
0.158,1.2412109375,2.162109375,-4.4443359375
0.1585,0.6005859375,2.6826171875,-4.3642578125
0.159,-0.3203125,3.203125,-4.0439453125
0.1595,-0.80078125,3.6435546875,-3.84375
0.16,-1.5615234375,3.84375,-3.36328125
0.1605,-2.2421875,4.1640625,-2.8828125
0.161,-3.04296875,4.4443359375,-2.2822265625
0.1615,-3.2431640625,4.1240234375,-1.7216796875
0.162,-3.763671875,4.1240234375,-1.1611328125
0.1625,-3.8037109375,3.4833984375,-0.3203125
0.163,-4.1240234375,3.0830078125,0.5205078125
0.1635,-4.2041015625,2.2822265625,1.44140625
0.164,-4.32421875,1.921875,2.08203125
0.1645,-3.923828125,1.0810546875,2.5625
0.165,-3.8837890625,0.48046875,3.1630859375
0.1655,-3.203125,-0.5205078125,3.443359375
0.166,-2.72265625,-1.4013671875,3.84375
0.1665,-1.8017578125,-2.5625,4.083984375
0.167,-1.041015625,-3.1630859375,3.84375
0.1675,-0.2802734375,-3.8037109375,3.68359375
0.168,0.48046875,-4.083984375,3.3232421875
0.1685,1.28125,-4.404296875,2.7626953125
0.169,2.08203125,-4.8046875,2.162109375
0.1695,2.8828125,-4.96484375,1.521484375
0.17,3.123046875,-4.5244140625,0.6806640625
0.1705,3.5234375,-4.3642578125,0.1201171875
0.171,3.4833984375,-3.4833984375,-0.880859375
0.1715,3.68359375,-2.9228515625,-1.681640625
0.172,3.7236328125,-2.0419921875,-2.642578125
0.1725,3.5634765625,-1.4013671875,-3.203125
0.173,3.123046875,-0.640625,-3.5634765625
0.1735,2.802734375,0.0400390625,-3.8837890625
0.174,2.08203125,0.9208984375,-4.0439453125
0.1745,1.4814453125,1.76171875,-4.32421875
0.175,0.6806640625,2.642578125,-4.404296875
0.1755,-0.16015625,3.04296875,-3.923828125
0.176,-0.7607421875,3.5234375,-3.84375
0.1765,-1.44140625,3.68359375,-3.203125
0.177,-2.08203125,3.8837890625,-2.802734375
0.1775,-2.7626953125,4.083984375,-2.2021484375
0.178,-3.2431640625,4.083984375,-1.7216796875
0.1785,-3.36328125,3.7236328125,-1.0810546875
0.179,-3.6435546875,3.5634765625,-0.640625
0.1795,-3.603515625,2.802734375,0.2802734375
0.18,-3.84375,2.40234375,0.9609375
0.1805,-3.923828125,1.7216796875,1.8017578125
0.181,-3.8037109375,1.3212890625,2.08203125
0.1815,-3.603515625,0.6806640625,2.6826171875
0.182,-3.203125,0.0400390625,2.9228515625
0.1825,-2.802734375,-0.8408203125,3.3232421875
0.183,-2.1220703125,-1.76171875,3.5634765625
0.1835,-1.521484375,-2.5224609375,3.763671875
0.184,-0.720703125,-3.0029296875,3.443359375
0.1845,-0.240234375,-3.603515625,3.5234375
0.185,0.6005859375,-3.8837890625,2.9228515625
0.1855,1.28125,-4.3642578125,2.6826171875
0.186,2.1220703125,-4.6845703125,1.9619140625
0.1865,2.6025390625,-4.564453125,1.44140625
0.187,2.962890625,-4.3642578125,0.7607421875
0.1875,3.2431640625,-4.00390625,0.1201171875
0.188,3.4833984375,-3.283203125,-1.0009765625
0.1885,3.7236328125,-2.802734375,-1.8017578125
0.189,3.8037109375,-2.08203125,-2.72265625
0.1895,3.443359375,-1.3212890625,-3.1630859375
0.19,3.2431640625,-0.640625,-3.7236328125
0.1905,2.5625,0.2802734375,-3.923828125
0.191,2.001953125,1.2412109375,-4.2841796875
0.1915,1.201171875,2.2021484375,-4.4443359375
0.192,0.48046875,2.9228515625,-4.404296875
0.1925,-0.48046875,3.3232421875,-3.8837890625
0.193,-1.041015625,3.763671875,-3.7236328125
0.1935,-2.001953125,3.8837890625,-2.8828125
0.194,-2.642578125,4.1240234375,-2.4423828125
0.1945,-3.283203125,4.32421875,-1.8017578125
0.195,-3.5634765625,3.9638671875,-1.12109375
0.1955,-3.763671875,3.5634765625,-0.5205078125
0.196,-3.84375,2.962890625,0.3203125
0.1965,-3.8837890625,2.2421875,1.2412109375
0.197,-3.8837890625,1.6416015625,1.841796875
0.1975,-3.8837890625,1.0810546875,2.482421875
0.198,-3.36328125,0.3603515625,2.72265625
0.1985,-3.203125,-0.2001953125,3.1630859375
0.199,-2.482421875,-1.041015625,3.203125
0.1995,-2.001953125,-1.841796875,3.5634765625
0.2,-1.2412109375,-2.642578125,3.5234375
0.2005,-0.6005859375,-3.1630859375,3.443359375
0.201,0.1201171875,-3.5634765625,3.123046875
0.2015,0.6005859375,-3.8837890625,2.8828125
0.202,1.4013671875,-4.1640625,2.2822265625
0.2025,1.9619140625,-4.404296875,1.9619140625
0.203,2.6025390625,-4.5244140625,1.4013671875
0.2035,2.802734375,-4.1640625,0.7607421875
0.204,3.1630859375,-4.083984375,0.240234375
0.2045,3.2431640625,-3.36328125,-0.720703125
0.205,3.5634765625,-2.8828125,-1.5615234375
0.2055,3.5634765625,-2.2421875,-2.322265625
0.206,3.603515625,-1.681640625,-2.962890625
0.2065,3.1630859375,-0.9208984375,-3.36328125
0.207,3.0029296875,-0.2802734375,-3.84375
0.2075,2.2021484375,0.8408203125,-4.1240234375
0.208,1.7216796875,1.76171875,-4.5244140625
0.2085,0.8408203125,2.6025390625,-4.5244140625
0.209,0.0400390625,3.1630859375,-4.244140625
0.2095,-0.80078125,3.603515625,-3.923828125
0.21,-1.5615234375,3.9638671875,-3.4833984375
0.2105,-2.5224609375,4.3642578125,-2.7626953125
0.211,-3.0830078125,4.484375,-2.2421875
0.2115,-3.7236328125,4.484375,-1.5615234375
0.212,-3.84375,3.923828125,-0.720703125
0.2125,-4.1640625,3.603515625,0.0
0.213,-4.2041015625,2.6025390625,1.1611328125
0.2135,-4.3642578125,2.001953125,1.921875
0.214,-4.1640625,1.2412109375,2.5625
0.2145,-3.923828125,0.5205078125,3.1630859375
0.215,-3.36328125,-0.3603515625,3.4033203125
0.2155,-2.9228515625,-1.0810546875,3.763671875
0.216,-1.921875,-2.2822265625,3.923828125
0.2165,-1.2412109375,-3.0830078125,3.923828125
0.217,-0.3603515625,-3.8037109375,3.763671875
0.2175,0.4404296875,-4.1240234375,3.3232421875
0.218,1.041015625,-4.404296875,2.8828125
0.2185,1.921875,-4.564453125,2.2421875
0.219,2.7626953125,-4.8447265625,1.5615234375
0.2195,3.123046875,-4.6044921875,0.9208984375
0.22,3.5234375,-4.5244140625,0.2802734375
0.2205,3.5234375,-3.84375,-0.5205078125
0.221,3.7236328125,-3.443359375,-1.1611328125
0.2215,3.68359375,-2.3623046875,-2.2822265625
0.222,3.7236328125,-1.8818359375,-2.8828125
0.2225,3.4833984375,-1.12109375,-3.4833984375
0.223,3.1630859375,-0.4404296875,-3.84375
0.2235,2.6025390625,0.3603515625,-4.083984375
0.224,2.08203125,1.12109375,-4.3642578125
0.2245,1.28125,2.2421875,-4.6044921875
0.225,0.560546875,2.8427734375,-4.5244140625
0.2255,-0.3203125,3.5234375,-4.3642578125
0.226,-1.0810546875,3.84375,-3.8837890625
0.2265,-1.681640625,4.2041015625,-3.5634765625
0.227,-2.6025390625,4.484375,-2.7626953125
0.2275,-3.36328125,4.724609375,-2.2021484375
0.228,-3.7236328125,4.484375,-1.521484375
0.2285,-4.2041015625,4.3642578125,-0.8408203125
0.229,-4.244140625,3.6435546875,0.0400390625
