wavelength,x,y,z
0.0,2.162109375,-4.32421875,1.5615234375
0.0005,2.5224609375,-4.00390625,0.880859375
0.001,3.04296875,-4.1240234375,0.48046875
0.0015,3.1630859375,-3.36328125,-0.48046875
0.002,3.5634765625,-3.1630859375,-1.0009765625
0.0025,3.6435546875,-2.2822265625,-1.8818359375
0.003,3.5234375,-1.6416015625,-2.4423828125
0.0035,3.203125,-0.6806640625,-3.0029296875
0.004,3.0029296875,0.0,-3.4033203125
0.0045,2.40234375,0.9208984375,-3.7236328125
0.005,2.0419921875,1.521484375,-4.00390625
0.0055,1.2412109375,2.2822265625,-3.923828125
0.006,0.5205078125,2.72265625,-3.603515625
0.0065,-0.080078125,3.283203125,-3.5634765625
0.007,-1.1611328125,3.5234375,-2.72265625
0.0075,-1.8818359375,3.84375,-2.3623046875
0.008,-2.6025390625,3.763671875,-1.6015625
0.0085,-3.1630859375,3.68359375,-1.041015625
0.009,-3.4033203125,3.283203125,-0.3603515625
0.0095,-3.763671875,3.123046875,0.1201171875
0.01,-3.8837890625,2.40234375,1.12109375
0.0105,-4.0439453125,1.9619140625,1.5615234375
0.011,-4.0439453125,1.201171875,2.40234375
0.0115,-3.7236328125,0.3603515625,2.802734375
0.012,-3.5234375,-0.3603515625,3.3232421875
0.0125,-2.9228515625,-1.1611328125,3.5234375
0.013,-2.482421875,-1.9619140625,3.84375
0.0135,-1.8818359375,-2.5625,3.8037109375
0.014,-1.2412109375,-3.203125,3.8037109375
0.0145,-0.5205078125,-3.5234375,3.3232421875
0.015,0.1201171875,-4.0439453125,3.283203125
0.0155,1.2412109375,-4.2041015625,2.3623046875
0.016,1.8017578125,-4.484375,2.0419921875
0.0165,2.5224609375,-4.4443359375,1.201171875
0.017,2.962890625,-4.244140625,0.640625
0.0175,3.3232421875,-3.923828125,0.0
0.018,3.5234375,-3.5634765625,-0.640625
0.0185,3.84375,-2.8427734375,-1.5615234375
0.019,3.8037109375,-2.2822265625,-2.1220703125
0.0195,3.84375,-1.44140625,-2.962890625
0.02,3.283203125,-0.48046875,-3.3232421875
0.0205,3.1630859375,0.240234375,-3.84375
0.021,2.322265625,1.3212890625,-4.0439453125
0.0215,1.921875,2.08203125,-4.3642578125
0.022,1.041015625,2.6826171875,-4.1240234375
0.0225,0.2802734375,3.4033203125,-4.0439453125
0.023,-0.5205078125,3.6435546875,-3.4833984375
0.0235,-1.3212890625,4.1240234375,-3.1630859375
0.024,-2.6025390625,4.2841796875,-2.08203125
0.0245,-3.203125,4.1640625,-1.4814453125
0.025,-3.84375,4.00390625,-0.640625
0.0255,-4.1640625,3.603515625,0.0400390625
0.026,-4.3642578125,3.2431640625,0.6806640625
0.0265,-4.5244140625,2.482421875,1.5615234375
0.027,-4.724609375,1.76171875,2.482421875
0.0275,-4.32421875,0.880859375,2.9228515625
0.028,-4.2841796875,0.080078125,3.68359375
0.0285,-3.5234375,-0.9609375,3.84375
0.029,-3.2431640625,-1.6015625,4.2041015625
0.0295,-2.2021484375,-2.7626953125,4.32421875
0.03,-1.6015625,-3.36328125,4.3642578125
0.0305,-0.6806640625,-3.8837890625,3.9638671875
0.031,0.0,-4.4443359375,3.84375
0.0315,0.7607421875,-4.564453125,3.123046875
0.032,1.6015625,-4.884765625,2.6025390625
0.0325,2.8427734375,-5.125,1.6015625
0.033,3.2431640625,-4.7646484375,0.9208984375
0.0335,3.8837890625,-4.6845703125,0.080078125
0.034,4.083984375,-4.083984375,-0.6005859375
0.0345,4.32421875,-3.68359375,-1.2412109375
0.035,4.3642578125,-2.72265625,-2.2021484375
0.0355,4.564453125,-2.0419921875,-3.0830078125
0.036,4.00390625,-1.0009765625,-3.5234375
0.0365,3.9638671875,-0.16015625,-4.2841796875
0.037,3.04296875,0.9208984375,-4.3642578125
0.0375,2.72265625,1.5615234375,-4.724609375
0.038,1.6015625,2.8828125,-4.8447265625
0.0385,0.9208984375,3.4833984375,-4.724609375
0.039,-0.16015625,4.0439453125,-4.244140625
0.0395,-0.9208984375,4.564453125,-4.00390625
0.04,-1.921875,4.64453125,-3.1630859375
0.0405,-2.8427734375,4.8447265625,-2.482421875
0.041,-4.1640625,5.044921875,-1.3212890625
0.0415,-4.5244140625,4.404296875,-0.400390625
0.042,-5.0849609375,4.32421875,0.400390625
0.0425,-5.1650390625,3.5234375,1.2412109375
0.043,-5.28515625,2.8828125,1.921875
0.0435,-5.28515625,1.8017578125,3.0029296875
0.044,-5.3251953125,0.9208984375,3.8837890625
0.0445,-4.5244140625,-0.3203125,4.2041015625
0.045,-4.404296875,-1.12109375,4.9248046875
0.0455,-3.203125,-2.2421875,4.8046875
0.046,-2.72265625,-2.962890625,5.044921875
0.0465,-1.5615234375,-4.244140625,5.0849609375
0.047,-0.560546875,-4.724609375,4.6044921875
0.0475,0.3203125,-5.125,4.083984375
0.048,1.1611328125,-5.4853515625,3.68359375
0.0485,2.2021484375,-5.5654296875,2.642578125
0.049,3.04296875,-5.6455078125,1.921875
0.0495,4.2841796875,-5.765625,0.80078125
0.05,4.4443359375,-4.8447265625,-0.16015625
0.0505,4.96484375,-4.7646484375,-0.80078125
0.051,4.9248046875,-3.8037109375,-1.7216796875
0.0515,4.96484375,-3.1630859375,-2.40234375
0.052,4.96484375,-2.001953125,-3.4833984375
0.0525,4.8046875,-1.12109375,-4.244140625
0.053,3.9638671875,0.1201171875,-4.564453125
0.0535,3.84375,0.880859375,-5.125
0.054,2.6025390625,2.0419921875,-5.044921875
0.0545,2.08203125,2.72265625,-5.2451171875
0.055,0.9609375,4.00390625,-5.28515625
0.0555,-0.16015625,4.4443359375,-4.64453125
0.056,-1.0009765625,4.884765625,-4.244140625
0.0565,-1.9619140625,5.1650390625,-3.5634765625
0.057,-3.04296875,5.205078125,-2.6025390625
0.0575,-3.8837890625,5.1650390625,-1.8017578125
0.058,-4.96484375,5.2451171875,-0.640625
0.0585,-5.125,4.2841796875,0.400390625
0.059,-5.6455078125,4.2041015625,0.9609375
0.0595,-5.60546875,3.04296875,2.08203125
0.06,-5.5654296875,2.40234375,2.72265625
0.0605,-5.525390625,1.2412109375,3.8037109375
0.061,-5.205078125,0.240234375,4.484375
0.0615,-4.3642578125,-1.0009765625,4.7646484375
0.062,-4.083984375,-1.8017578125,5.2451171875
0.0625,-2.7626953125,-3.0830078125,5.1650390625
0.063,-2.2421875,-3.6435546875,5.205078125
0.0635,-1.0009765625,-4.8447265625,5.125
0.064,0.1201171875,-5.125,4.32421875
0.0645,0.80078125,-5.60546875,4.0439453125
0.065,1.9619140625,-5.8056640625,3.123046875
0.0655,2.9228515625,-5.8056640625,2.162109375
0.066,3.68359375,-5.6455078125,1.3212890625
0.0665,4.6044921875,-5.5654296875,0.3203125
0.067,4.64453125,-4.6044921875,-0.640625
0.0675,5.0849609375,-4.5244140625,-1.1611328125
0.068,5.044921875,-3.203125,-2.3623046875
0.0685,4.96484375,-2.642578125,-2.8828125
0.069,4.9248046875,-1.4814453125,-3.8837890625
0.0695,4.484375,-0.5205078125,-4.484375
0.07,3.763671875,0.640625,-4.8046875
0.0705,3.2431640625,1.44140625,-5.125
0.071,2.08203125,2.6826171875,-5.125
0.0715,1.5615234375,3.1630859375,-5.125
0.072,0.4404296875,4.244140625,-5.0048828125
0.0725,-0.640625,4.4443359375,-4.2041015625
0.073,-1.28125,4.96484375,-4.00390625
0.0735,-2.6025390625,5.044921875,-2.8828125
0.074,-3.36328125,5.125,-2.1220703125
0.0745,-4.1640625,4.9248046875,-1.1611328125
0.075,-4.884765625,4.7646484375,-0.2802734375
0.0755,-5.0048828125,3.8837890625,0.640625
0.076,-5.365234375,3.763671875,1.201171875
0.0765,-5.3251953125,2.482421875,2.40234375
0.077,-5.28515625,1.921875,2.8427734375
0.0775,-5.1650390625,0.80078125,3.84375
0.078,-4.564453125,-0.240234375,4.2041015625
0.0785,-4.083984375,-1.201171875,4.6845703125
0.079,-3.36328125,-2.08203125,4.8447265625
0.0795,-2.4423828125,-3.1630859375,4.96484375
0.08,-1.8017578125,-3.7236328125,4.8046875
0.0805,-0.720703125,-4.64453125,4.6044921875
0.081,0.2802734375,-4.8447265625,3.84375
0.0815,0.8408203125,-5.3251953125,3.68359375
0.082,2.2021484375,-5.3251953125,2.482421875
0.0825,2.72265625,-5.4453125,2.001953125
0.083,3.5634765625,-5.1650390625,0.9609375
0.0835,4.083984375,-4.884765625,0.240234375
0.084,4.2841796875,-4.244140625,-0.6005859375
0.0845,4.484375,-3.923828125,-1.1611328125
0.085,4.564453125,-2.8828125,-2.2822265625
0.0855,4.484375,-2.322265625,-2.6826171875
0.086,4.4443359375,-1.28125,-3.6435546875
0.0865,3.7236328125,-0.2802734375,-3.923828125
0.087,3.4833984375,0.560546875,-4.4443359375
0.0875,2.6025390625,1.521484375,-4.5244140625
0.088,2.001953125,2.40234375,-4.8046875
0.0885,1.2412109375,2.9228515625,-4.564453125
0.089,0.3603515625,3.68359375,-4.4443359375
0.0895,-0.6005859375,3.8837890625,-3.7236328125
0.09,-1.2412109375,4.4443359375,-3.5634765625
0.0905,-2.5224609375,4.484375,-2.3623046875
0.091,-2.962890625,4.564453125,-2.001953125
0.0915,-3.8037109375,4.3642578125,-1.0009765625
0.092,-4.1640625,3.9638671875,-0.2802734375
0.0925,-4.484375,3.603515625,0.4404296875
0.093,-4.564453125,3.04296875,1.12109375
0.0935,-4.8046875,2.2822265625,2.0419921875
0.094,-4.564453125,1.5615234375,2.5224609375
0.0945,-4.6044921875,0.7607421875,3.3232421875
0.095,-3.84375,-0.3203125,3.603515625
0.0955,-3.8037109375,-1.0009765625,4.1240234375
0.096,-2.7626953125,-2.0419921875,4.1640625
0.0965,-2.4423828125,-2.642578125,4.4443359375
0.097,-1.44140625,-3.36328125,4.1240234375
0.0975,-0.7607421875,-3.923828125,3.9638671875
0.098,0.0400390625,-4.1640625,3.4833984375
0.0985,0.6806640625,-4.564453125,3.203125
0.099,1.8017578125,-4.724609375,2.2421875
0.0995,2.2421875,-4.724609375,1.8818359375
0.1,3.04296875,-4.64453125,1.0009765625
0.1005,3.2431640625,-4.2041015625,0.3203125
0.101,3.7236328125,-4.083984375,-0.240234375
0.1015,3.763671875,-3.3232421875,-1.0009765625
0.102,4.083984375,-2.8828125,-1.7216796875
0.1025,3.84375,-2.0419921875,-2.3623046875
0.103,3.8837890625,-1.3212890625,-3.0830078125
0.1035,3.2431640625,-0.3203125,-3.4033203125
0.104,3.203125,0.2802734375,-3.923828125
0.1045,2.2421875,1.361328125,-4.083984375
0.105,2.0419921875,1.841796875,-4.3642578125
0.1055,1.0810546875,2.5625,-4.1240234375
0.106,0.3603515625,3.123046875,-3.84375
0.1065,-0.400390625,3.5234375,-3.5234375
0.107,-1.28125,3.84375,-2.9228515625
0.1075,-2.162109375,4.083984375,-2.2822265625
0.108,-2.642578125,3.923828125,-1.681640625
0.1085,-3.36328125,3.9638671875,-1.041015625
0.109,-3.5634765625,3.443359375,-0.3203125
0.1095,-3.9638671875,3.36328125,0.16015625
0.11,-4.00390625,2.482421875,1.0810546875
0.1105,-4.2841796875,2.2021484375,1.6015625
0.111,-4.0439453125,1.28125,2.2421875
0.1115,-3.9638671875,0.640625,2.8427734375
0.112,-3.4833984375,-0.3203125,3.203125
0.1125,-3.283203125,-0.9208984375,3.5634765625
0.113,-2.6025390625,-1.8818359375,3.84375
0.1135,-2.2021484375,-2.2822265625,3.8037109375
0.114,-1.44140625,-2.962890625,3.763671875
0.1145,-0.80078125,-3.3232421875,3.4833984375
0.115,-0.2001953125,-3.84375,3.3232421875
0.1155,0.7607421875,-4.00390625,2.6025390625
0.116,1.4013671875,-4.3642578125,2.2822265625
0.1165,1.9619140625,-4.1640625,1.5615234375
0.117,2.482421875,-4.2841796875,1.1611328125
0.1175,2.802734375,-3.84375,0.48046875
0.118,3.1630859375,-3.8037109375,0.0
0.1185,3.4033203125,-3.0830078125,-0.9208984375
0.119,3.6435546875,-2.802734375,-1.4013671875
0.1195,3.6435546875,-1.9619140625,-2.2021484375
0.12,3.36328125,-1.2412109375,-2.642578125
0.1205,3.1630859375,-0.48046875,-3.2431640625
0.121,2.72265625,0.3203125,-3.5634765625
0.1215,2.40234375,1.12109375,-4.00390625
0.122,1.7216796875,1.7216796875,-3.84375
0.1225,1.0810546875,2.482421875,-3.923828125
0.123,0.2802734375,2.8427734375,-3.5234375
0.1235,-0.400390625,3.36328125,-3.36328125
0.124,-1.44140625,3.5634765625,-2.5224609375
0.1245,-2.001953125,3.84375,-2.2021484375
0.125,-2.642578125,3.6435546875,-1.44140625
0.1255,-3.0830078125,3.603515625,-0.9609375
0.126,-3.443359375,3.2431640625,-0.2802734375
0.1265,-3.68359375,2.8828125,0.3603515625
0.127,-3.9638671875,2.3623046875,1.201171875
0.1275,-3.8837890625,1.76171875,1.6416015625
0.128,-3.923828125,1.041015625,2.40234375
0.1285,-3.4833984375,0.16015625,2.7626953125
0.129,-3.36328125,-0.48046875,3.2431640625
0.1295,-2.72265625,-1.361328125,3.4033203125
0.13,-2.4423828125,-1.921875,3.763671875
0.1305,-1.681640625,-2.4423828125,3.4833984375
0.131,-1.201171875,-3.04296875,3.5634765625
0.1315,-0.48046875,-3.3232421875,3.123046875
0.132,0.240234375,-3.763671875,2.9228515625
0.1325,1.12109375,-4.00390625,2.2421875
0.133,1.6015625,-4.1240234375,1.921875
0.1335,2.2421875,-4.083984375,1.2412109375
0.134,2.5224609375,-3.8837890625,0.7607421875
0.1345,3.0029296875,-3.7236328125,0.16015625
0.135,3.1630859375,-3.203125,-0.5205078125
0.1355,3.5234375,-2.8828125,-1.2412109375
0.136,3.36328125,-2.1220703125,-1.8017578125
0.1365,3.5234375,-1.5615234375,-2.5224609375
0.137,2.962890625,-0.6005859375,-2.8828125
0.1375,3.0029296875,0.0,-3.4833984375
0.138,2.2421875,1.0009765625,-3.7236328125
0.1385,1.9619140625,1.521484375,-3.923828125
0.139,1.12109375,2.2421875,-3.7236328125
0.1395,0.560546875,2.7626953125,-3.68359375
0.14,-0.2802734375,3.1630859375,-3.283203125
0.1405,-1.1611328125,3.5234375,-2.802734375
0.141,-2.0419921875,3.84375,-2.2021484375
0.1415,-2.5224609375,3.68359375,-1.6015625
0.142,-3.203125,3.763671875,-1.0009765625
0.1425,-3.4033203125,3.283203125,-0.3203125
0.143,-3.8037109375,3.0830078125,0.2802734375
0.1435,-3.923828125,2.322265625,1.1611328125
0.144,-4.1640625,1.8818359375,1.8017578125
0.1445,-3.84375,0.9208984375,2.3623046875
0.145,-3.84375,0.2802734375,2.962890625
0.1455,-3.203125,-0.640625,3.203125
0.146,-2.962890625,-1.2412109375,3.6435546875
0.1465,-2.2822265625,-2.2421875,3.84375
0.147,-1.681640625,-2.642578125,3.68359375
0.1475,-1.0009765625,-3.283203125,3.6435546875
0.148,-0.3603515625,-3.603515625,3.3232421875
0.1485,0.3603515625,-3.923828125,2.9228515625
0.149,1.3212890625,-4.2041015625,2.2421875
0.1495,2.08203125,-4.404296875,1.681640625
0.15,2.482421875,-4.00390625,0.9609375
0.1505,3.0029296875,-4.1640625,0.560546875
0.151,3.1630859375,-3.5634765625,-0.2001953125
0.1515,3.4833984375,-3.3232421875,-0.6806640625
0.152,3.6435546875,-2.5625,-1.6416015625
0.1525,3.6435546875,-2.08203125,-2.162109375
0.153,3.4033203125,-1.201171875,-2.8427734375
0.1535,3.203125,-0.4404296875,-3.2431640625
0.154,2.6826171875,0.400390625,-3.5634765625
0.1545,2.2822265625,1.201171875,-3.8837890625
0.155,1.7216796875,2.08203125,-4.2041015625
0.1555,0.9208984375,2.5224609375,-3.84375
0.156,0.3203125,3.203125,-3.923828125
0.1565,-0.560546875,3.443359375,-3.283203125
0.157,-1.3212890625,3.8837890625,-2.962890625
0.1575,-2.4423828125,4.1240234375,-2.08203125
0.158,-3.1630859375,4.1640625,-1.44140625
0.1585,-3.5634765625,3.763671875,-0.6005859375
0.159,-4.083984375,3.763671875,-0.080078125
0.1595,-4.2041015625,3.0029296875,0.7607421875
0.16,-4.4443359375,2.5224609375,1.4013671875
0.1605,-4.64453125,1.6416015625,2.4423828125
0.161,-4.2841796875,0.80078125,2.9228515625
0.1615,-4.0439453125,0.0,3.5634765625
0.162,-3.5634765625,-0.9208984375,3.8837890625
0.1625,-2.962890625,-1.76171875,4.1240234375
0.163,-2.2822265625,-2.642578125,4.2841796875
0.1635,-1.44140625,-3.5634765625,4.3642578125
0.164,-0.560546875,-3.84375,3.7236328125
0.1645,0.0,-4.4443359375,3.8037109375
0.165,1.12109375,-4.564453125,2.8427734375
0.1655,1.76171875,-4.8046875,2.40234375
0.166,2.8427734375,-4.884765625,1.44140625
0.1665,3.4033203125,-4.6845703125,0.640625
0.167,3.68359375,-4.244140625,-0.080078125
0.1675,4.0439453125,-4.00390625,-0.640625
0.168,4.083984375,-3.203125,-1.4814453125
0.1685,4.1240234375,-2.642578125,-2.1220703125
0.169,4.32421875,-1.8017578125,-3.1630859375
0.1695,3.763671875,-0.720703125,-3.4833984375
0.17,3.603515625,0.0400390625,-4.1240234375
0.1705,2.802734375,1.041015625,-4.244140625
0.171,2.2421875,1.841796875,-4.484375
0.1715,1.4814453125,2.72265625,-4.564453125
0.172,0.6005859375,3.5234375,-4.5244140625
0.1725,-0.3203125,3.84375,-3.84375
0.173,-0.9609375,4.4443359375,-3.84375
0.1735,-2.2021484375,4.5244140625,-2.72265625
0.174,-2.8427734375,4.6845703125,-2.2421875
0.1745,-4.00390625,4.7646484375,-1.1611328125
0.175,-4.4443359375,4.32421875,-0.3203125
0.1755,-4.8046875,3.8837890625,0.48046875
0.176,-5.0849609375,3.443359375,1.201171875
0.1765,-5.125,2.40234375,2.2021484375
0.177,-5.0849609375,1.7216796875,2.802734375
0.1775,-5.1650390625,0.7607421875,3.8837890625
0.178,-4.32421875,-0.4404296875,4.1640625
0.1785,-4.1640625,-1.201171875,4.7646484375
0.179,-3.04296875,-2.482421875,4.8447265625
0.1795,-2.3623046875,-3.283203125,4.96484375
0.18,-1.361328125,-4.1240234375,4.8046875
0.1805,-0.400390625,-4.884765625,4.6044921875
0.181,0.6005859375,-5.0849609375,3.8037109375
0.1815,1.3212890625,-5.5654296875,3.5234375
0.182,2.7626953125,-5.5654296875,2.2021484375
0.1825,3.2431640625,-5.4853515625,1.6015625
0.183,4.2841796875,-5.4052734375,0.5205078125
0.1835,4.5244140625,-4.8046875,-0.3603515625
0.184,4.9248046875,-4.2841796875,-1.1611328125
0.1845,4.96484375,-3.603515625,-2.001953125
0.185,4.96484375,-2.5625,-3.0029296875
0.1855,4.6845703125,-1.7216796875,-3.4833984375
0.186,4.64453125,-0.720703125,-4.4443359375
0.1865,3.6435546875,0.48046875,-4.6044921875
0.187,3.443359375,1.201171875,-5.0849609375
0.1875,2.162109375,2.5625,-5.0849609375
0.188,1.5615234375,3.2431640625,-5.125
0.1885,0.5205078125,4.00390625,-4.8447265625
0.189,-0.5205078125,4.6845703125,-4.5244140625
0.1895,-1.4013671875,4.8046875,-3.763671875
0.19,-2.2421875,5.2451171875,-3.36328125
0.1905,-3.68359375,5.2451171875,-1.9619140625
0.191,-4.1240234375,5.0849609375,-1.3212890625
0.1915,-5.0849609375,4.884765625,-0.2802734375
0.192,-5.205078125,4.083984375,0.560546875
0.1925,-5.525390625,3.68359375,1.28125
0.193,-5.60546875,2.72265625,2.3623046875
0.1935,-5.6455078125,1.841796875,3.3232421875
0.194,-5.205078125,0.8408203125,3.84375
0.1945,-5.125,-0.16015625,4.724609375
0.195,-4.0439453125,-1.44140625,4.8447265625
0.1955,-3.8037109375,-2.1220703125,5.2451171875
0.196,-2.40234375,-3.5634765625,5.28515625
0.1965,-1.76171875,-4.1640625,5.205078125
0.197,-0.6005859375,-4.884765625,4.7646484375
0.1975,0.4404296875,-5.4853515625,4.404296875
0.198,1.3212890625,-5.5654296875,3.5634765625
0.1985,2.2421875,-5.92578125,3.0029296875
0.199,3.6435546875,-5.92578125,1.6416015625
0.1995,3.9638671875,-5.525390625,0.9609375
0.2,4.8046875,-5.4052734375,-0.2001953125
0.2005,4.96484375,-4.564453125,-1.041015625
0.201,5.0048828125,-4.1640625,-1.6015625
0.2015,5.125,-2.9228515625,-2.72265625
0.202,5.1650390625,-2.08203125,-3.603515625
0.2025,4.564453125,-1.041015625,-4.083984375
0.203,4.4443359375,0.0,-4.8447265625
0.2035,3.3232421875,1.201171875,-4.9248046875
0.204,3.04296875,1.841796875,-5.2451171875
0.2045,1.6416015625,3.2431640625,-5.28515625
0.205,1.041015625,3.763671875,-5.125
0.2055,-0.16015625,4.4443359375,-4.6044921875
0.206,-1.041015625,4.9248046875,-4.2041015625
0.2065,-1.921875,4.96484375,-3.443359375
0.207,-2.8828125,5.2451171875,-2.6826171875
0.2075,-4.1640625,5.28515625,-1.5615234375
0.208,-4.5244140625,4.6845703125,-0.720703125
0.2085,-5.2451171875,4.564453125,0.2001953125
0.209,-5.365234375,3.763671875,1.201171875
0.2095,-5.4853515625,3.3232421875,1.681640625
0.21,-5.4453125,2.1220703125,2.8427734375
0.2105,-5.4453125,1.4013671875,3.5234375
0.211,-4.8447265625,0.240234375,4.083984375
0.2115,-4.64453125,-0.6806640625,4.7646484375
0.212,-3.603515625,-1.841796875,4.8046875
0.2125,-3.2431640625,-2.482421875,5.0849609375
0.213,-1.9619140625,-3.84375,5.125
0.2135,-1.28125,-4.2041015625,4.8046875
0.214,-0.2001953125,-4.9248046875,4.404296875
0.2145,0.6806640625,-5.2451171875,3.8837890625
0.215,1.4814453125,-5.4052734375,3.2431640625
0.2155,2.5224609375,-5.525390625,2.3623046875
0.216,3.603515625,-5.7255859375,1.361328125
0.2165,3.84375,-5.0849609375,0.48046875
0.217,4.5244140625,-5.0048828125,-0.2802734375
0.2175,4.5244140625,-4.00390625,-1.12109375
0.218,4.7646484375,-3.68359375,-1.6416015625
0.2185,4.8046875,-2.5224609375,-2.8427734375
0.219,4.6845703125,-1.8818359375,-3.36328125
0.2195,4.1240234375,-0.6806640625,-3.923828125
0.22,3.84375,0.16015625,-4.484375
0.2205,2.962890625,1.201171875,-4.5244140625
0.221,2.5224609375,1.921875,-4.8447265625
0.2215,1.5615234375,3.0830078125,-4.96484375
0.222,0.7607421875,3.4033203125,-4.484375
0.2225,-0.16015625,4.1240234375,-4.32421875
0.223,-1.041015625,4.32421875,-3.6435546875
0.2235,-1.76171875,4.6044921875,-3.203125
0.224,-2.9228515625,4.64453125,-2.2421875
0.2245,-3.8037109375,4.7646484375,-1.44140625
0.225,-4.083984375,4.1240234375,-0.560546875
0.2255,-4.6845703125,4.1240234375,0.1201171875
0.226,-4.6845703125,3.283203125,0.9609375
0.2265,-4.884765625,2.8828125,1.521484375
0.227,-5.0048828125,1.8818359375,2.642578125
0.2275,-4.7646484375,1.201171875,3.04296875
0.228,-4.404296875,0.1201171875,3.763671875
0.2285,-3.9638671875,-0.7607421875,4.1240234375
0.229,-3.36328125,-1.6015625,4.32421875
