wavelength,x,y,z
0.0,-4.114013671875,-3.833740234375,6.336181640625
0.0005,-5.475341796875,-2.352294921875,6.536376953125
0.001,-6.436279296875,-1.471435546875,6.896728515625
0.0015,-6.436279296875,-0.790771484375,6.696533203125
0.002,-6.115966796875,0.010009765625,5.895751953125
0.0025,-5.635498046875,1.291259765625,4.454345703125
0.003,-5.435302734375,2.932861328125,2.852783203125
0.0035,-5.475341796875,4.414306640625,1.651611328125
0.004,-5.435302734375,5.335205078125,0.930908203125
0.0045,-4.834716796875,5.535400390625,0.290283203125
0.005,-3.553466796875,5.415283203125,-0.790771484375
0.0055,-1.951904296875,5.455322265625,-2.432373046875
0.006,-0.510498046875,5.735595703125,-4.194091796875
0.0065,0.410400390625,6.256103515625,-5.555419921875
0.007,0.970947265625,6.376220703125,-6.356201171875
0.0075,1.851806640625,5.575439453125,-6.516357421875
0.008,3.253173828125,3.973876953125,-6.556396484375
0.0085,4.774658203125,2.252197265625,-6.756591796875
0.009,5.935791015625,0.970947265625,-6.996826171875
0.0095,6.496337890625,0.090087890625,-7.237060546875
0.01,6.296142578125,-0.510498046875,-6.636474609375
0.0105,5.695556640625,-1.351318359375,-5.435302734375
0.011,5.215087890625,-2.832763671875,-3.833740234375
0.0115,5.054931640625,-4.474365234375,-2.272216796875
0.012,5.094970703125,-5.755615234375,-1.231201171875
0.0125,4.854736328125,-6.356201171875,-0.630615234375
0.013,3.973876953125,-6.356201171875,0.210205078125
0.0135,2.532470703125,-6.156005859375,1.331298828125
0.014,0.930908203125,-6.276123046875,3.052978515625
0.0145,-0.470458984375,-6.596435546875,4.734619140625
0.015,-1.151123046875,-7.036865234375,5.895751953125
0.0155,-1.711669921875,-6.876708984375,6.416259765625
0.016,-2.712646484375,-5.755615234375,6.456298828125
0.0165,-4.194091796875,-4.194091796875,6.536376953125
0.017,-5.635498046875,-2.552490234375,6.696533203125
0.0175,-6.716552734375,-1.511474609375,6.936767578125
0.018,-6.876708984375,-0.790771484375,7.016845703125
0.0185,-6.516357421875,0.010009765625,6.296142578125
0.019,-5.915771484375,1.091064453125,4.894775390625
0.0195,-5.635498046875,2.612548828125,3.333251953125
0.02,-5.475341796875,4.174072265625,1.851806640625
0.0205,-5.475341796875,5.375244140625,0.970947265625
0.021,-5.114990234375,5.735595703125,0.370361328125
0.0215,-4.033935546875,5.655517578125,-0.550537109375
0.022,-2.432373046875,5.495361328125,-1.951904296875
0.0225,-0.910888671875,5.735595703125,-3.713623046875
0.023,0.290283203125,6.135986328125,-5.275146484375
0.0235,0.890869140625,6.456298828125,-6.276123046875
0.024,1.571533203125,6.055908203125,-6.556396484375
0.0245,2.692626953125,4.614501953125,-6.596435546875
0.025,4.254150390625,3.012939453125,-6.756591796875
0.0255,5.455322265625,1.371337890625,-6.916748046875
0.026,6.416259765625,0.490478515625,-7.197021484375
0.0265,6.456298828125,-0.190185546875,-6.996826171875
0.027,5.975830078125,-0.910888671875,-6.075927734375
0.0275,5.415283203125,-2.192138671875,-4.514404296875
0.028,5.135009765625,-3.793701171875,-2.912841796875
0.0285,5.175048828125,-5.275146484375,-1.671630859375
0.029,5.094970703125,-6.196044921875,-0.910888671875
0.0295,4.494384765625,-6.396240234375,-0.310302734375
0.03,3.213134765625,-6.236083984375,0.770751953125
0.0305,1.611572265625,-6.236083984375,2.332275390625
0.031,0.090087890625,-6.436279296875,4.134033203125
0.0315,-0.830810546875,-6.956787109375,5.495361328125
0.032,-1.351318359375,-7.116943359375,6.296142578125
0.0325,-2.272216796875,-6.396240234375,6.536376953125
0.033,-3.633544921875,-4.834716796875,6.536376953125
0.0335,-5.235107421875,-3.153076171875,6.856689453125
0.034,-6.396240234375,-1.751708984375,6.936767578125
0.0345,-6.916748046875,-0.990966796875,7.136962890625
0.035,-6.716552734375,-0.350341796875,6.696533203125
0.0355,-6.156005859375,0.650634765625,5.495361328125
0.036,-5.755615234375,2.052001953125,3.933837890625
0.0365,-5.515380859375,3.773681640625,2.252197265625
0.037,-5.635498046875,5.094970703125,1.251220703125
0.0375,-5.395263671875,5.735595703125,0.570556640625
0.038,-4.514404296875,5.815673828125,-0.310302734375
0.0385,-2.992919921875,5.655517578125,-1.511474609375
0.039,-1.311279296875,5.735595703125,-3.233154296875
0.0395,0.130126953125,6.055908203125,-4.994873046875
0.04,0.770751953125,6.536376953125,-6.156005859375
0.0405,1.371337890625,6.376220703125,-6.676513671875
0.041,2.412353515625,5.175048828125,-6.756591796875
0.0415,3.853759765625,3.533447265625,-6.756591796875
0.042,5.375244140625,1.811767578125,-6.956787109375
0.0425,6.416259765625,0.610595703125,-7.197021484375
0.043,6.696533203125,0.010009765625,-7.197021484375
0.0435,6.296142578125,-0.830810546875,-6.436279296875
0.044,5.695556640625,-1.951904296875,-4.994873046875
0.0445,5.335205078125,-3.513427734375,-3.353271484375
0.045,5.175048828125,-5.114990234375,-1.871826171875
0.0455,5.175048828125,-6.276123046875,-0.990966796875
0.046,4.774658203125,-6.596435546875,-0.350341796875
0.0465,3.613525390625,-6.436279296875,0.610595703125
0.047,1.971923828125,-6.316162109375,1.971923828125
0.0475,0.290283203125,-6.396240234375,3.813720703125
0.048,-0.830810546875,-6.796630859375,5.295166015625
0.0485,-1.351318359375,-7.156982421875,6.256103515625
0.049,-2.112060546875,-6.716552734375,6.616455078125
0.0495,-3.193115234375,-5.195068359375,6.536376953125
0.05,-4.794677734375,-3.593505859375,6.696533203125
0.0505,-6.115966796875,-2.031982421875,6.856689453125
0.051,-6.916748046875,-1.071044921875,7.056884765625
0.0515,-6.876708984375,-0.510498046875,6.856689453125
0.052,-6.356201171875,0.290283203125,5.935791015625
0.0525,-5.755615234375,1.531494140625,4.414306640625
0.053,-5.475341796875,3.173095703125,2.812744140625
0.0535,-5.475341796875,4.614501953125,1.571533203125
0.054,-5.435302734375,5.495361328125,0.770751953125
0.0545,-4.834716796875,5.695556640625,0.210205078125
0.055,-3.593505859375,5.495361328125,-0.830810546875
0.0555,-2.031982421875,5.535400390625,-2.352294921875
0.056,-0.510498046875,5.695556640625,-4.073974609375
0.0565,0.410400390625,6.135986328125,-5.435302734375
0.057,0.930908203125,6.376220703125,-6.236083984375
0.0575,1.691650390625,5.615478515625,-6.556396484375
0.058,2.972900390625,4.254150390625,-6.436279296875
0.0585,4.414306640625,2.692626953125,-6.636474609375
0.059,5.615478515625,1.331298828125,-6.876708984375
0.0595,6.256103515625,0.610595703125,-7.116943359375
0.06,6.135986328125,0.010009765625,-6.756591796875
0.0605,5.615478515625,-0.870849609375,-5.755615234375
0.061,5.175048828125,-2.152099609375,-4.314208984375
0.0615,5.014892578125,-3.753662109375,-2.792724609375
0.062,5.135009765625,-5.155029296875,-1.751708984375
0.0625,5.054931640625,-5.875732421875,-1.151123046875
0.063,4.334228515625,-6.035888671875,-0.470458984375
0.0635,3.052978515625,-5.915771484375,0.690673828125
0.064,1.531494140625,-6.035888671875,2.292236328125
0.0645,0.210205078125,-6.436279296875,3.973876953125
0.065,-0.590576171875,-6.996826171875,5.255126953125
0.0655,-1.271240234375,-7.076904296875,5.895751953125
0.066,-2.072021484375,-6.075927734375,6.015869140625
0.0665,-3.473388671875,-4.634521484375,6.216064453125
0.067,-4.914794921875,-3.072998046875,6.416259765625
0.0675,-6.035888671875,-1.951904296875,6.776611328125
0.068,-6.436279296875,-1.351318359375,6.936767578125
0.0685,-6.236083984375,-0.670654296875,6.416259765625
0.069,-5.755615234375,0.370361328125,5.215087890625
0.0695,-5.475341796875,1.811767578125,3.813720703125
0.07,-5.435302734375,3.333251953125,2.412353515625
0.0705,-5.515380859375,4.574462890625,1.571533203125
0.071,-5.275146484375,5.094970703125,0.970947265625
0.0715,-4.354248046875,5.135009765625,0.210205078125
0.072,-2.952880859375,5.094970703125,-1.191162109375
0.0725,-1.471435546875,5.335205078125,-2.832763671875
0.073,-0.470458984375,5.775634765625,-4.394287109375
0.0735,0.290283203125,6.336181640625,-5.435302734375
0.074,0.890869140625,6.015869140625,-5.915771484375
0.0745,1.931884765625,4.894775390625,-5.995849609375
0.075,3.333251953125,3.493408203125,-6.196044921875
0.0755,4.734619140625,2.011962890625,-6.436279296875
0.076,5.655517578125,1.131103515625,-6.796630859375
0.0765,5.815673828125,0.610595703125,-6.796630859375
0.077,5.455322265625,-0.190185546875,-6.115966796875
0.0775,5.054931640625,-1.271240234375,-4.834716796875
0.078,4.854736328125,-2.672607421875,-3.473388671875
0.0785,4.934814453125,-4.154052734375,-2.312255859375
0.079,5.054931640625,-5.155029296875,-1.631591796875
0.0795,4.654541015625,-5.515380859375,-1.111083984375
0.08,3.653564453125,-5.475341796875,-0.270263671875
0.0805,2.372314453125,-5.635498046875,1.171142578125
0.081,0.970947265625,-5.915771484375,2.772705078125
0.0815,0.290283203125,-6.476318359375,4.134033203125
0.082,-0.470458984375,-6.836669921875,5.094970703125
0.0825,-1.231201171875,-6.396240234375,5.455322265625
0.083,-2.392333984375,-5.195068359375,5.615478515625
0.0835,-3.793701171875,-3.873779296875,5.895751953125
0.084,-5.074951171875,-2.632568359375,6.256103515625
0.0845,-5.795654296875,-1.951904296875,6.696533203125
0.085,-5.875732421875,-1.431396484375,6.496337890625
0.0855,-5.515380859375,-0.670654296875,5.735595703125
0.086,-5.275146484375,0.570556640625,4.614501953125
0.0865,-5.195068359375,2.052001953125,3.253173828125
0.087,-5.395263671875,3.453369140625,2.372314453125
0.0875,-5.435302734375,4.294189453125,1.731689453125
0.088,-4.914794921875,4.534423828125,1.131103515625
0.0885,-3.793701171875,4.534423828125,0.050048828125
0.089,-2.552490234375,4.854736328125,-1.471435546875
0.0895,-1.351318359375,5.255126953125,-3.153076171875
0.09,-0.670654296875,5.935791015625,-4.354248046875
0.0905,0.010009765625,6.135986328125,-5.114990234375
0.091,0.850830078125,5.495361328125,-5.395263671875
0.0915,2.132080078125,4.294189453125,-5.635498046875
0.092,3.533447265625,2.932861328125,-5.915771484375
0.0925,4.734619140625,1.931884765625,-6.396240234375
0.093,5.295166015625,1.331298828125,-6.716552734375
0.0935,5.255126953125,0.770751953125,-6.396240234375
0.094,4.934814453125,-0.190185546875,-5.435302734375
0.0945,4.774658203125,-1.471435546875,-4.354248046875
0.095,4.814697265625,-2.912841796875,-3.153076171875
0.0955,5.014892578125,-4.194091796875,-2.352294921875
0.096,4.974853515625,-4.834716796875,-1.831787109375
0.0965,4.254150390625,-5.074951171875,-1.151123046875
0.097,3.133056640625,-5.235107421875,0.090087890625
0.0975,1.771728515625,-5.555419921875,1.651611328125
0.098,0.970947265625,-6.115966796875,3.093017578125
0.0985,0.370361328125,-6.676513671875,4.254150390625
0.099,-0.390380859375,-6.596435546875,4.854736328125
0.0995,-1.431396484375,-5.715576171875,5.094970703125
0.1,-2.752685546875,-4.554443359375,5.455322265625
0.1005,-4.114013671875,-3.273193359375,5.815673828125
0.101,-5.155029296875,-2.432373046875,6.376220703125
0.1015,-5.515380859375,-1.951904296875,6.496337890625
0.102,-5.395263671875,-1.311279296875,6.015869140625
0.1025,-5.114990234375,-0.350341796875,5.014892578125
0.103,-5.074951171875,1.091064453125,3.853759765625
0.1035,-5.195068359375,2.532470703125,2.852783203125
0.104,-5.395263671875,3.613525390625,2.212158203125
0.1045,-5.155029296875,4.134033203125,1.651611328125
0.105,-4.354248046875,4.214111328125,0.810791015625
0.1055,-3.193115234375,4.574462890625,-0.630615234375
0.106,-1.991943359375,4.974853515625,-2.112060546875
0.1065,-1.231201171875,5.615478515625,-3.553466796875
0.107,-0.670654296875,6.095947265625,-4.514404296875
0.1075,0.250244140625,5.735595703125,-4.994873046875
0.108,1.371337890625,4.734619140625,-5.275146484375
0.1085,2.732666015625,3.533447265625,-5.635498046875
0.109,4.093994140625,2.412353515625,-6.115966796875
0.1095,4.934814453125,1.651611328125,-6.556396484375
0.11,5.094970703125,1.131103515625,-6.476318359375
0.1105,4.854736328125,0.450439453125,-5.835693359375
0.111,4.694580078125,-0.790771484375,-4.794677734375
0.1115,4.694580078125,-2.232177734375,-3.593505859375
0.112,4.974853515625,-3.633544921875,-2.712646484375
0.1125,5.054931640625,-4.554443359375,-2.192138671875
0.113,4.614501953125,-4.914794921875,-1.551513671875
0.1135,3.533447265625,-5.114990234375,-0.590576171875
0.114,2.412353515625,-5.315185546875,0.970947265625
0.1145,1.331298828125,-5.835693359375,2.532470703125
0.115,0.650634765625,-6.516357421875,3.853759765625
0.1155,0.050048828125,-6.716552734375,4.614501953125
0.116,-0.990966796875,-6.115966796875,4.974853515625
0.1165,-2.272216796875,-4.954833984375,5.335205078125
0.117,-3.713623046875,-3.673583984375,5.695556640625
0.1175,-4.914794921875,-2.632568359375,6.176025390625
0.118,-5.475341796875,-2.112060546875,6.536376953125
0.1185,-5.475341796875,-1.511474609375,6.216064453125
0.119,-5.195068359375,-0.630615234375,5.295166015625
0.1195,-5.074951171875,0.730712890625,4.214111328125
0.12,-5.155029296875,2.212158203125,3.052978515625
0.1205,-5.395263671875,3.453369140625,2.292236328125
0.121,-5.275146484375,4.093994140625,1.771728515625
0.1215,-4.674560546875,4.294189453125,1.051025390625
0.122,-3.473388671875,4.494384765625,-0.310302734375
0.1225,-2.272216796875,4.854736328125,-1.791748046875
0.123,-1.311279296875,5.455322265625,-3.273193359375
0.1235,-0.670654296875,6.015869140625,-4.474365234375
0.124,0.090087890625,5.895751953125,-5.034912109375
0.1245,1.131103515625,5.014892578125,-5.275146484375
0.125,2.492431640625,3.813720703125,-5.635498046875
0.1255,3.853759765625,2.532470703125,-5.995849609375
0.126,4.934814453125,1.651611328125,-6.476318359375
0.1265,5.255126953125,1.131103515625,-6.596435546875
0.127,5.094970703125,0.490478515625,-6.075927734375
0.1275,4.774658203125,-0.630615234375,-4.994873046875
0.128,4.734619140625,-2.031982421875,-3.833740234375
0.1285,4.894775390625,-3.513427734375,-2.752685546875
0.129,5.054931640625,-4.554443359375,-2.072021484375
0.1295,4.734619140625,-5.074951171875,-1.551513671875
0.13,3.853759765625,-5.114990234375,-0.670654296875
0.1305,2.612548828125,-5.315185546875,0.770751953125
0.131,1.411376953125,-5.755615234375,2.372314453125
0.1315,0.610595703125,-6.396240234375,3.773681640625
0.132,0.010009765625,-6.756591796875,4.774658203125
0.1325,-0.910888671875,-6.356201171875,5.175048828125
0.133,-2.112060546875,-5.195068359375,5.415283203125
0.1335,-3.593505859375,-3.873779296875,5.775634765625
0.134,-4.914794921875,-2.712646484375,6.176025390625
0.1345,-5.715576171875,-1.991943359375,6.656494140625
0.135,-5.755615234375,-1.391357421875,6.416259765625
0.1355,-5.475341796875,-0.630615234375,5.615478515625
0.136,-5.235107421875,0.690673828125,4.454345703125
0.1365,-5.195068359375,2.252197265625,3.093017578125
0.137,-5.395263671875,3.653564453125,2.172119140625
0.1375,-5.395263671875,4.414306640625,1.491455078125
0.138,-4.794677734375,4.694580078125,0.850830078125
0.1385,-3.593505859375,4.734619140625,-0.310302734375
0.139,-2.272216796875,5.014892578125,-1.871826171875
0.1395,-1.111083984375,5.455322265625,-3.513427734375
0.14,-0.430419921875,6.095947265625,-4.794677734375
0.1405,0.290283203125,6.135986328125,-5.435302734375
0.141,1.291259765625,5.295166015625,-5.715576171875
0.1415,2.652587890625,3.893798828125,-5.915771484375
0.142,4.134033203125,2.412353515625,-6.196044921875
0.1425,5.255126953125,1.411376953125,-6.596435546875
0.143,5.735595703125,0.810791015625,-6.796630859375
0.1435,5.495361328125,0.170166015625,-6.276123046875
0.144,5.094970703125,-0.910888671875,-5.155029296875
0.1445,4.854736328125,-2.352294921875,-3.793701171875
0.145,4.934814453125,-3.873779296875,-2.552490234375
0.1455,5.054931640625,-5.155029296875,-1.711669921875
0.146,4.814697265625,-5.595458984375,-1.151123046875
0.1465,3.893798828125,-5.635498046875,-0.350341796875
0.147,2.532470703125,-5.635498046875,1.010986328125
0.1475,1.131103515625,-5.915771484375,2.652587890625
0.148,0.210205078125,-6.436279296875,4.174072265625
0.1485,-0.510498046875,-6.916748046875,5.255126953125
0.149,-1.271240234375,-6.596435546875,5.735595703125
0.1495,-2.432373046875,-5.435302734375,5.895751953125
0.15,-3.913818359375,-3.913818359375,6.176025390625
0.1505,-5.275146484375,-2.512451171875,6.456298828125
0.151,-6.236083984375,-1.591552734375,6.856689453125
0.1515,-6.356201171875,-1.031005859375,6.696533203125
0.152,-5.995849609375,-0.310302734375,5.895751953125
0.1525,-5.595458984375,0.970947265625,4.534423828125
0.153,-5.395263671875,2.572509765625,3.052978515625
0.1535,-5.515380859375,4.053955078125,1.931884765625
0.154,-5.475341796875,5.094970703125,1.131103515625
0.1545,-4.914794921875,5.375244140625,0.490478515625
0.155,-3.713623046875,5.255126953125,-0.630615234375
0.1555,-2.152099609375,5.375244140625,-2.192138671875
0.156,-0.750732421875,5.655517578125,-3.913818359375
0.1565,0.130126953125,6.216064453125,-5.275146484375
0.157,0.770751953125,6.416259765625,-6.115966796875
0.1575,1.651611328125,5.615478515625,-6.396240234375
0.158,3.052978515625,4.093994140625,-6.436279296875
0.1585,4.534423828125,2.492431640625,-6.676513671875
0.159,5.735595703125,1.171142578125,-6.916748046875
0.1595,6.376220703125,0.370361328125,-7.116943359375
0.16,6.216064453125,-0.350341796875,-6.676513671875
0.1605,5.695556640625,-1.311279296875,-5.475341796875
0.161,5.255126953125,-2.752685546875,-3.913818359375
0.1615,5.054931640625,-4.394287109375,-2.392333984375
0.162,5.135009765625,-5.675537109375,-1.311279296875
0.1625,4.934814453125,-6.276123046875,-0.710693359375
0.163,4.053955078125,-6.356201171875,0.130126953125
0.1635,2.572509765625,-6.156005859375,1.331298828125
0.164,0.930908203125,-6.236083984375,3.133056640625
0.1645,-0.390380859375,-6.596435546875,4.694580078125
0.165,-1.071044921875,-7.076904296875,5.895751953125
0.1655,-1.671630859375,-6.916748046875,6.416259765625
0.166,-2.752685546875,-5.755615234375,6.536376953125
0.1665,-4.234130859375,-4.073974609375,6.656494140625
0.167,-5.715576171875,-2.432373046875,6.736572265625
0.1675,-6.716552734375,-1.271240234375,7.016845703125
0.168,-6.956787109375,-0.630615234375,7.016845703125
0.1685,-6.596435546875,0.130126953125,6.256103515625
0.169,-5.955810546875,1.291259765625,4.814697265625
0.1695,-5.635498046875,2.812744140625,3.173095703125
0.17,-5.475341796875,4.414306640625,1.731689453125
0.1705,-5.515380859375,5.495361328125,0.850830078125
0.171,-5.074951171875,5.895751953125,0.250244140625
0.1715,-3.913818359375,5.775634765625,-0.710693359375
0.172,-2.272216796875,5.615478515625,-2.232177734375
0.1725,-0.630615234375,5.775634765625,-3.993896484375
0.173,0.450439453125,6.216064453125,-5.475341796875
0.1735,1.051025390625,6.496337890625,-6.436279296875
0.174,1.771728515625,6.015869140625,-6.756591796875
0.1745,3.012939453125,4.534423828125,-6.756591796875
0.175,4.494384765625,2.852783203125,-6.916748046875
0.1755,5.815673828125,1.291259765625,-7.036865234375
0.176,6.616455078125,0.330322265625,-7.237060546875
0.1765,6.576416015625,-0.390380859375,-6.996826171875
0.177,6.055908203125,-1.151123046875,-6.035888671875
0.1775,5.415283203125,-2.472412109375,-4.394287109375
0.178,5.175048828125,-4.033935546875,-2.752685546875
0.1785,5.175048828125,-5.475341796875,-1.511474609375
0.179,5.054931640625,-6.356201171875,-0.790771484375
0.1795,4.454345703125,-6.556396484375,0.010009765625
0.18,3.133056640625,-6.316162109375,0.930908203125
0.1805,1.451416015625,-6.316162109375,2.532470703125
0.181,-0.150146484375,-6.476318359375,4.254150390625
0.1815,-0.990966796875,-6.956787109375,5.615478515625
0.182,-1.471435546875,-7.116943359375,6.376220703125
0.1825,-2.392333984375,-6.316162109375,6.536376953125
0.183,-3.753662109375,-4.714599609375,6.576416015625
0.1835,-5.195068359375,-3.072998046875,6.736572265625
0.184,-6.396240234375,-1.711669921875,6.976806640625
0.1845,-6.956787109375,-0.990966796875,7.096923828125
0.185,-6.756591796875,-0.350341796875,6.656494140625
0.1855,-6.196044921875,0.610595703125,5.455322265625
0.186,-5.755615234375,2.052001953125,3.893798828125
0.1865,-5.515380859375,3.693603515625,2.332275390625
0.187,-5.635498046875,5.054931640625,1.291259765625
0.1875,-5.395263671875,5.735595703125,0.610595703125
0.188,-4.514404296875,5.775634765625,-0.190185546875
