wavelength,x,y,z
0.0,-1.0810546875,-5.9658203125,4.9248046875
0.0005,-2.001953125,-5.8056640625,5.5654296875
0.001,-2.962890625,-5.4052734375,6.5263671875
0.0015,-4.404296875,-3.8837890625,6.6865234375
0.002,-5.1650390625,-2.5625,6.4462890625
0.0025,-5.525390625,-1.521484375,6.0458984375
0.003,-5.7255859375,-0.640625,5.685546875
0.0035,-6.005859375,0.560546875,5.205078125
0.004,-6.1259765625,1.8017578125,4.3642578125
0.0045,-5.845703125,2.8828125,3.283203125
0.005,-5.205078125,3.763671875,1.921875
0.0055,-4.6044921875,4.32421875,0.9208984375
0.006,-4.083984375,4.8447265625,0.0
0.0065,-3.7236328125,5.60546875,-1.0009765625
0.007,-2.2021484375,5.685546875,-2.6025390625
0.0075,-1.041015625,5.5654296875,-3.6435546875
0.008,0.0,5.28515625,-4.3642578125
0.0085,0.720703125,5.0048828125,-5.0849609375
0.009,1.841796875,4.7646484375,-5.845703125
0.0095,3.0029296875,4.1240234375,-6.56640625
0.01,4.00390625,3.0029296875,-6.7265625
0.0105,4.64453125,1.6015625,-6.2861328125
0.011,5.0048828125,0.6005859375,-5.92578125
0.0115,5.2451171875,-0.3203125,-5.5654296875
0.012,5.60546875,-1.28125,-5.3251953125
0.0125,5.4453125,-2.6826171875,-4.00390625
0.013,5.125,-3.603515625,-3.0830078125
0.0135,4.6044921875,-4.2841796875,-1.9619140625
0.014,4.083984375,-4.884765625,-1.0009765625
0.0145,3.5234375,-5.4853515625,0.1201171875
0.015,3.0830078125,-6.166015625,1.0810546875
0.0155,1.76171875,-6.24609375,2.40234375
0.016,0.48046875,-5.92578125,3.4033203125
0.0165,-0.48046875,-5.9658203125,4.00390625
0.017,-1.1611328125,-5.765625,4.8447265625
0.0175,-2.2021484375,-5.525390625,5.7255859375
0.018,-3.5234375,-4.404296875,6.2060546875
0.0185,-4.2841796875,-3.443359375,6.24609375
0.019,-4.8447265625,-2.2822265625,5.8857421875
0.0195,-5.1650390625,-1.3212890625,5.60546875
0.02,-5.4853515625,-0.400390625,5.28515625
0.0205,-5.92578125,0.5205078125,5.1650390625
0.021,-5.6455078125,1.8017578125,3.923828125
0.0215,-5.205078125,2.802734375,2.72265625
0.022,-4.7646484375,3.443359375,1.76171875
0.0225,-4.3642578125,4.083984375,0.9208984375
0.023,-3.9638671875,4.8046875,-0.16015625
0.0235,-3.0830078125,5.2451171875,-1.44140625
0.024,-2.1220703125,5.4052734375,-2.5224609375
0.0245,-1.041015625,4.96484375,-3.4033203125
0.025,0.0,5.0849609375,-4.1640625
0.0255,0.80078125,4.96484375,-5.0048828125
0.026,1.76171875,4.884765625,-5.9658203125
0.0265,3.123046875,3.5634765625,-6.24609375
0.027,3.923828125,2.482421875,-6.1259765625
0.0275,4.404296875,1.44140625,-5.8857421875
0.028,4.7646484375,0.6005859375,-5.685546875
0.0285,5.0849609375,-0.48046875,-5.4052734375
0.029,5.3251953125,-1.6015625,-4.7646484375
0.0295,5.2451171875,-2.5625,-3.8837890625
0.03,4.724609375,-3.4833984375,-2.72265625
0.0305,4.2041015625,-4.1640625,-1.7216796875
0.031,3.8837890625,-4.8046875,-0.880859375
0.0315,3.6435546875,-5.60546875,0.1201171875
0.032,2.3623046875,-5.8056640625,1.521484375
0.0325,1.2412109375,-5.8857421875,2.6025390625
0.033,0.400390625,-5.7255859375,3.3232421875
0.0335,-0.4404296875,-5.7255859375,4.083984375
0.034,-1.4013671875,-5.4853515625,4.96484375
0.0345,-2.4423828125,-5.125,5.7255859375
0.035,-3.4833984375,-4.083984375,5.9658203125
0.0355,-4.2041015625,-2.8427734375,5.7255859375
0.036,-4.64453125,-1.9619140625,5.4853515625
0.0365,-5.044921875,-1.12109375,5.28515625
0.037,-5.4453125,-0.3203125,5.205078125
0.0375,-5.4453125,1.12109375,4.2841796875
0.038,-5.28515625,1.921875,3.443359375
0.0385,-4.8447265625,2.6826171875,2.4423828125
0.039,-4.484375,3.4033203125,1.4814453125
0.0395,-4.1240234375,4.1240234375,0.6005859375
0.04,-3.8037109375,4.884765625,-0.48046875
0.0405,-2.8427734375,5.0048828125,-1.6015625
0.041,-1.6015625,4.9248046875,-2.642578125
0.0415,-0.80078125,4.9248046875,-3.4033203125
0.042,0.0400390625,4.96484375,-4.244140625
0.0425,1.041015625,4.9248046875,-5.205078125
0.043,2.322265625,4.00390625,-5.765625
0.0435,3.1630859375,3.1630859375,-5.9658203125
0.044,3.84375,2.0419921875,-5.765625
0.0445,4.2841796875,1.1611328125,-5.60546875
0.045,4.724609375,0.2802734375,-5.4052734375
0.0455,5.1650390625,-0.7607421875,-5.4052734375
0.046,5.0849609375,-1.841796875,-4.32421875
0.0465,4.8046875,-2.8427734375,-3.2431640625
0.047,4.404296875,-3.5634765625,-2.322265625
0.0475,4.083984375,-4.2841796875,-1.4814453125
0.048,3.7236328125,-5.044921875,-0.5205078125
0.0485,3.04296875,-5.4853515625,0.8408203125
0.049,2.0419921875,-5.845703125,1.841796875
0.0495,0.9609375,-5.6455078125,2.72265625
0.05,0.16015625,-5.6455078125,3.5234375
0.0505,-0.7607421875,-5.60546875,4.4443359375
0.051,-1.7216796875,-5.5654296875,5.4453125
0.0515,-3.04296875,-4.404296875,5.765625
0.052,-3.84375,-3.3232421875,5.7255859375
0.0525,-4.404296875,-2.3623046875,5.5654296875
0.053,-4.8447265625,-1.5615234375,5.4052734375
0.0535,-5.3251953125,-0.640625,5.2451171875
0.054,-5.525390625,0.560546875,4.724609375
0.0545,-5.4453125,1.5615234375,3.84375
0.055,-5.0048828125,2.482421875,2.72265625
0.0555,-4.564453125,3.1630859375,1.76171875
0.056,-4.2841796875,3.8837890625,0.9208984375
0.0565,-3.923828125,4.8046875,0.0
0.057,-2.8828125,4.96484375,-1.44140625
0.0575,-1.9619140625,5.0849609375,-2.4423828125
0.058,-1.041015625,5.0048828125,-3.2431640625
0.0585,-0.2802734375,5.0048828125,-4.0439453125
0.059,0.8408203125,4.8447265625,-5.0048828125
0.0595,1.9619140625,4.4443359375,-5.8056640625
0.06,3.0830078125,3.443359375,-6.1259765625
0.0605,3.84375,2.2021484375,-5.845703125
0.061,4.32421875,1.2412109375,-5.685546875
0.0615,4.7646484375,0.560546875,-5.4853515625
0.062,5.125,-0.6005859375,-5.3251953125
0.0625,5.125,-1.8818359375,-4.32421875
0.063,5.0048828125,-2.8828125,-3.4833984375
0.0635,4.5244140625,-3.603515625,-2.4423828125
0.064,4.1240234375,-4.32421875,-1.521484375
0.0645,3.84375,-5.0048828125,-0.640625
0.065,3.3232421875,-5.765625,0.560546875
0.0655,2.08203125,-5.92578125,1.8818359375
0.066,0.9208984375,-5.765625,2.8828125
0.0665,0.1201171875,-5.7255859375,3.6435546875
0.067,-0.7607421875,-5.685546875,4.4443359375
0.0675,-1.8017578125,-5.4853515625,5.365234375
0.068,-3.1630859375,-4.484375,5.92578125
0.0685,-4.00390625,-3.5634765625,6.0859375
0.069,-4.6044921875,-2.3623046875,5.765625
0.0695,-4.884765625,-1.5615234375,5.4453125
0.07,-5.28515625,-0.5205078125,5.205078125
0.0705,-5.7255859375,0.48046875,5.0048828125
0.071,-5.60546875,1.8017578125,3.84375
0.0715,-5.205078125,2.802734375,2.642578125
0.072,-4.7646484375,3.443359375,1.7216796875
0.0725,-4.404296875,3.9638671875,0.80078125
0.073,-3.8837890625,4.724609375,-0.2802734375
0.0735,-2.9228515625,5.2451171875,-1.6416015625
0.074,-1.9619140625,5.4453125,-2.72265625
0.0745,-0.80078125,5.125,-3.5634765625
0.075,0.0400390625,5.0849609375,-4.32421875
0.0755,0.9609375,4.9248046875,-5.125
0.076,2.0419921875,4.6845703125,-6.0859375
0.0765,3.443359375,3.3232421875,-6.40625
0.077,4.2041015625,2.1220703125,-6.24609375
0.0775,4.5244140625,1.201171875,-5.8857421875
0.078,4.9248046875,0.2802734375,-5.6455078125
0.0785,5.2451171875,-0.8408203125,-5.2451171875
0.079,5.4052734375,-2.08203125,-4.5244140625
0.0795,5.28515625,-3.1630859375,-3.5634765625
0.08,4.724609375,-4.00390625,-2.322265625
0.0805,4.2841796875,-4.724609375,-1.4814453125
0.081,3.763671875,-5.205078125,-0.48046875
0.0815,3.36328125,-5.92578125,0.6005859375
0.082,1.921875,-6.1259765625,2.2021484375
0.0825,0.8408203125,-6.1259765625,3.2431640625
0.083,-0.16015625,-5.92578125,3.9638671875
0.0835,-0.9208984375,-5.8056640625,4.6845703125
0.084,-2.001953125,-5.4052734375,5.525390625
0.0845,-3.203125,-4.8447265625,6.326171875
0.085,-4.2841796875,-3.68359375,6.5263671875
0.0855,-4.96484375,-2.2822265625,6.0859375
0.086,-5.3251953125,-1.3212890625,5.8056640625
0.0865,-5.60546875,-0.4404296875,5.4453125
0.087,-5.92578125,0.640625,5.125
0.0875,-5.8857421875,2.2021484375,3.84375
0.088,-5.6455078125,3.1630859375,2.802734375
0.0885,-4.96484375,3.8037109375,1.5615234375
0.089,-4.5244140625,4.484375,0.6806640625
0.0895,-3.8837890625,5.0048828125,-0.4404296875
0.09,-3.2431640625,5.685546875,-1.6015625
0.0905,-1.8818359375,5.765625,-3.0830078125
0.091,-0.560546875,5.525390625,-4.1240234375
0.0915,0.2802734375,5.4052734375,-4.7646484375
0.092,1.2412109375,5.125,-5.4853515625
0.0925,2.40234375,4.6044921875,-6.40625
0.093,3.923828125,3.3232421875,-6.88671875
0.0935,4.6044921875,2.2421875,-6.806640625
0.094,5.1650390625,1.0009765625,-6.40625
0.0945,5.4052734375,0.0,-5.92578125
0.095,5.6455078125,-1.1611328125,-5.4052734375
0.0955,5.92578125,-2.2822265625,-4.884765625
0.096,5.685546875,-3.8037109375,-3.4033203125
0.0965,5.0048828125,-4.9248046875,-2.1220703125
0.097,4.484375,-5.3251953125,-1.0810546875
0.0975,3.84375,-5.8056640625,-0.16015625
0.098,3.0830078125,-6.326171875,1.1611328125
0.0985,1.841796875,-6.7265625,2.7626953125
0.099,0.6005859375,-6.6865234375,3.9638671875
0.0995,-0.6806640625,-6.2060546875,4.724609375
0.1,-1.44140625,-5.92578125,5.3251953125
0.1005,-2.4423828125,-5.525390625,5.9658203125
0.101,-3.5634765625,-5.0048828125,6.88671875
0.1015,-5.0048828125,-3.36328125,6.966796875
0.102,-5.685546875,-2.08203125,6.646484375
0.1025,-5.92578125,-1.041015625,6.1259765625
0.103,-6.0458984375,0.0,5.6455078125
0.1035,-6.2060546875,1.12109375,4.96484375
0.104,-6.2861328125,2.482421875,4.00390625
0.1045,-6.0859375,3.4833984375,2.8828125
0.105,-5.205078125,4.404296875,1.44140625
0.1055,-4.5244140625,4.884765625,0.4404296875
0.106,-3.8837890625,5.365234375,-0.6005859375
0.1065,-3.283203125,5.92578125,-1.6416015625
0.107,-1.6416015625,6.0458984375,-3.4033203125
0.1075,-0.5205078125,5.8857421875,-4.4443359375
0.108,0.6005859375,5.5654296875,-5.125
0.1085,1.3212890625,5.2451171875,-5.685546875
0.109,2.482421875,4.6845703125,-6.40625
0.1095,3.68359375,3.8837890625,-7.126953125
0.11,4.7646484375,2.6025390625,-7.1669921875
0.1105,5.4052734375,1.1611328125,-6.646484375
0.111,5.60546875,0.1201171875,-6.166015625
0.1115,5.7255859375,-0.880859375,-5.7255859375
0.112,6.005859375,-1.9619140625,-5.1650390625
0.1125,5.685546875,-3.603515625,-3.603515625
0.113,5.4052734375,-4.5244140625,-2.5625
0.1135,4.724609375,-5.205078125,-1.44140625
0.114,4.0439453125,-5.685546875,-0.4404296875
0.1145,3.36328125,-6.166015625,0.6806640625
0.115,2.6826171875,-6.7265625,1.8818359375
0.1155,1.12109375,-6.6865234375,3.4033203125
0.116,-0.3203125,-6.2861328125,4.404296875
0.1165,-1.12109375,-6.1259765625,5.0048828125
0.117,-1.8818359375,-5.8056640625,5.60546875
0.1175,-3.0830078125,-5.3251953125,6.5263671875
0.118,-4.5244140625,-4.0439453125,6.88671875
0.1185,-5.28515625,-2.9228515625,6.88671875
0.119,-5.7255859375,-1.6416015625,6.3662109375
0.1195,-5.92578125,-0.640625,5.8857421875
0.12,-6.1259765625,0.48046875,5.365234375
0.1205,-6.486328125,1.361328125,4.96484375
0.121,-6.0859375,2.9228515625,3.2431640625
0.1215,-5.4853515625,3.9638671875,2.0419921875
0.122,-4.884765625,4.564453125,1.041015625
0.1225,-4.3642578125,5.0849609375,0.1201171875
0.123,-3.603515625,5.60546875,-1.12109375
0.1235,-2.4423828125,6.0458984375,-2.6025390625
0.124,-1.1611328125,6.0859375,-3.8837890625
0.1245,0.1201171875,5.60546875,-4.6845703125
0.125,0.880859375,5.4052734375,-5.3251953125
0.1255,1.841796875,5.0849609375,-6.0458984375
0.126,2.962890625,4.64453125,-6.966796875
0.1265,4.484375,3.0029296875,-7.126953125
0.127,5.1650390625,1.7216796875,-6.88671875
0.1275,5.4853515625,0.6005859375,-6.40625
0.128,5.685546875,-0.4404296875,-5.92578125
0.1285,5.765625,-1.6416015625,-5.2451171875
0.129,5.9658203125,-3.0830078125,-4.4443359375
0.1295,5.7255859375,-4.1640625,-3.203125
0.13,4.96484375,-5.0048828125,-1.8017578125
0.1305,4.32421875,-5.5654296875,-0.720703125
0.131,3.68359375,-6.0859375,0.3203125
0.1315,3.123046875,-6.7265625,1.4013671875
0.132,1.5615234375,-6.7666015625,3.123046875
0.1325,0.2001953125,-6.6865234375,4.32421875
0.133,-0.9609375,-6.2861328125,5.0048828125
0.1335,-1.681640625,-6.0458984375,5.60546875
0.134,-2.8427734375,-5.4453125,6.3662109375
0.1345,-4.1240234375,-4.6845703125,7.0869140625
0.135,-5.28515625,-3.2431640625,7.1669921875
0.1355,-5.845703125,-1.8017578125,6.6064453125
0.136,-6.0859375,-0.7607421875,6.0859375
0.1365,-6.2861328125,0.240234375,5.60546875
0.137,-6.3662109375,1.44140625,5.0048828125
0.1375,-6.2060546875,3.0029296875,3.5234375
0.138,-5.845703125,3.9638671875,2.40234375
0.1385,-5.0849609375,4.6044921875,1.201171875
0.139,-4.404296875,5.0849609375,0.2001953125
0.1395,-3.68359375,5.5654296875,-1.0009765625
0.14,-2.962890625,6.0859375,-2.2822265625
0.1405,-1.361328125,6.0859375,-3.7236328125
0.141,0.0400390625,5.7255859375,-4.6845703125
0.1415,0.8408203125,5.4453125,-5.28515625
0.142,1.6015625,5.125,-5.845703125
0.1425,2.802734375,4.6044921875,-6.6865234375
0.143,4.2041015625,3.2431640625,-7.0869140625
0.1435,4.96484375,2.2021484375,-7.046875
0.144,5.4052734375,0.880859375,-6.4462890625
0.1445,5.4853515625,-0.16015625,-5.92578125
0.145,5.8056640625,-1.28125,-5.525390625
0.1455,6.005859375,-2.2822265625,-5.044921875
0.146,5.60546875,-3.68359375,-3.5234375
0.1465,5.0849609375,-4.6044921875,-2.2421875
0.147,4.4443359375,-5.1650390625,-1.201171875
0.1475,3.8837890625,-5.6455078125,-0.2802734375
0.148,3.203125,-6.2060546875,0.8408203125
0.1485,2.162109375,-6.6064453125,2.2822265625
0.149,0.9208984375,-6.56640625,3.4833984375
0.1495,-0.4404296875,-6.1259765625,4.32421875
0.15,-1.1611328125,-5.9658203125,4.96484375
0.1505,-2.001953125,-5.685546875,5.6455078125
0.151,-3.04296875,-5.4052734375,6.5263671875
0.1515,-4.4443359375,-3.8837890625,6.7265625
0.152,-5.1650390625,-2.642578125,6.5263671875
0.1525,-5.525390625,-1.521484375,6.2060546875
0.153,-5.92578125,-0.7607421875,5.765625
0.1535,-6.0458984375,0.400390625,5.28515625
0.154,-6.2060546875,1.6015625,4.6044921875
0.1545,-5.92578125,2.802734375,3.443359375
0.155,-5.28515625,3.68359375,2.1220703125
0.1555,-4.6845703125,4.32421875,1.041015625
0.156,-4.2041015625,4.8447265625,0.1201171875
0.1565,-3.8037109375,5.5654296875,-0.9208984375
0.157,-2.322265625,5.7255859375,-2.5224609375
0.1575,-1.1611328125,5.7255859375,-3.603515625
0.158,-0.16015625,5.4052734375,-4.3642578125
0.1585,0.720703125,5.2451171875,-5.044921875
0.159,1.76171875,4.884765625,-5.845703125
0.1595,2.9228515625,4.3642578125,-6.646484375
0.16,4.0439453125,3.0830078125,-6.806640625
0.1605,4.724609375,1.76171875,-6.326171875
0.161,5.1650390625,0.6806640625,-6.1259765625
0.1615,5.28515625,-0.3203125,-5.7255859375
0.162,5.60546875,-1.2412109375,-5.3251953125
0.1625,5.525390625,-2.6826171875,-4.1640625
0.163,5.28515625,-3.68359375,-3.1630859375
0.1635,4.6845703125,-4.3642578125,-2.001953125
0.164,4.1240234375,-4.96484375,-1.0009765625
0.1645,3.603515625,-5.525390625,0.080078125
0.165,3.123046875,-6.2060546875,1.0810546875
0.1655,1.7216796875,-6.2861328125,2.482421875
0.166,0.4404296875,-6.0458984375,3.5234375
0.1665,-0.48046875,-5.845703125,4.2041015625
0.167,-1.2412109375,-5.765625,4.9248046875
0.1675,-2.2421875,-5.4453125,5.765625
0.168,-3.5634765625,-4.4443359375,6.2861328125
0.1685,-4.484375,-3.4833984375,6.40625
0.169,-4.884765625,-2.2822265625,5.9658203125
0.1695,-5.28515625,-1.3212890625,5.60546875
0.17,-5.525390625,-0.3603515625,5.28515625
0.1705,-5.845703125,0.560546875,5.0849609375
0.171,-5.685546875,1.8818359375,3.84375
0.1715,-5.2451171875,2.8427734375,2.72265625
0.172,-4.8046875,3.5234375,1.76171875
0.1725,-4.3642578125,4.1240234375,0.880859375
0.173,-3.923828125,4.8046875,-0.2001953125
0.1735,-3.0830078125,5.28515625,-1.4013671875
0.174,-2.1220703125,5.4052734375,-2.482421875
0.1745,-0.9208984375,5.125,-3.4033203125
0.175,0.0,5.0849609375,-4.1640625
0.1755,0.7607421875,4.96484375,-4.884765625
0.176,1.7216796875,4.884765625,-5.845703125
0.1765,3.0029296875,3.6435546875,-6.1259765625
0.177,3.8037109375,2.5625,-6.1259765625
0.1775,4.32421875,1.521484375,-5.8857421875
0.178,4.64453125,0.720703125,-5.685546875
0.1785,5.044921875,-0.3603515625,-5.4052734375
0.179,5.3251953125,-1.361328125,-4.96484375
0.1795,5.205078125,-2.4423828125,-4.0439453125
0.18,4.7646484375,-3.3232421875,-2.8427734375
0.1805,4.2841796875,-4.0439453125,-1.8818359375
0.181,3.9638671875,-4.6845703125,-1.041015625
0.1815,3.7236328125,-5.4853515625,0.0
0.182,2.5224609375,-5.765625,1.3212890625
0.1825,1.5615234375,-5.845703125,2.3623046875
0.183,0.6005859375,-5.7255859375,3.1630859375
0.1835,-0.2802734375,-5.7255859375,3.9638671875
0.184,-1.2412109375,-5.525390625,4.8046875
0.1845,-2.322265625,-5.3251953125,5.7255859375
0.185,-3.3232421875,-4.32421875,5.92578125
0.1855,-4.1640625,-3.04296875,5.7255859375
0.186,-4.6044921875,-2.08203125,5.5654296875
0.1865,-5.0048828125,-1.28125,5.365234375
0.187,-5.4453125,-0.48046875,5.2451171875
0.1875,-5.4453125,0.880859375,4.3642578125
0.188,-5.365234375,1.841796875,3.5634765625
0.1885,-4.96484375,2.6025390625,2.5625
0.189,-4.5244140625,3.3232421875,1.6015625
0.1895,-4.1640625,4.00390625,0.720703125
0.19,-3.8837890625,4.8046875,-0.2802734375
0.1905,-2.8427734375,5.044921875,-1.4814453125
0.191,-1.681640625,4.96484375,-2.5625
0.1915,-0.9609375,5.0048828125,-3.283203125
0.192,0.0,4.96484375,-4.1640625
0.1925,0.8408203125,4.8046875,-5.044921875
0.193,2.2021484375,4.083984375,-5.7255859375
0.1935,3.0830078125,3.2431640625,-6.005859375
0.194,3.763671875,2.162109375,-5.765625
0.1945,4.244140625,1.2412109375,-5.60546875
0.195,4.64453125,0.3603515625,-5.4453125
0.1955,5.125,-0.560546875,-5.4052734375
0.196,5.0849609375,-1.76171875,-4.3642578125
0.1965,4.8046875,-2.7626953125,-3.36328125
0.197,4.4443359375,-3.4833984375,-2.4423828125
0.1975,4.1240234375,-4.2041015625,-1.6015625
0.198,3.763671875,-4.9248046875,-0.6005859375
0.1985,3.0830078125,-5.525390625,0.6005859375
0.199,2.162109375,-5.765625,1.76171875
0.1995,1.041015625,-5.6455078125,2.642578125
0.2,0.2802734375,-5.6455078125,3.443359375
0.2005,-0.720703125,-5.765625,4.2041015625
0.201,-1.5615234375,-5.6455078125,5.28515625
0.2015,-2.962890625,-4.484375,5.685546875
0.202,-3.84375,-3.4033203125,5.7255859375
0.2025,-4.3642578125,-2.4423828125,5.5654296875
0.203,-4.7646484375,-1.6015625,5.4052734375
0.2035,-5.1650390625,-0.6806640625,5.1650390625
0.204,-5.525390625,0.3603515625,4.8046875
0.2045,-5.4853515625,1.44140625,3.9638671875
0.205,-5.044921875,2.40234375,2.802734375
0.2055,-4.64453125,3.123046875,1.8818359375
0.206,-4.3642578125,3.84375,1.041015625
0.2065,-4.1240234375,4.6044921875,0.1201171875
0.207,-2.962890625,4.96484375,-1.3212890625
0.2075,-2.08203125,5.1650390625,-2.3623046875
0.208,-1.12109375,5.044921875,-3.203125
0.2085,-0.2802734375,4.9248046875,-4.083984375
0.209,0.720703125,4.8046875,-4.8447265625
0.2095,1.841796875,4.5244140625,-5.765625
0.21,3.0029296875,3.4833984375,-6.0859375
0.2105,3.8037109375,2.2421875,-5.8857421875
0.211,4.2841796875,1.3212890625,-5.685546875
0.2115,4.6044921875,0.5205078125,-5.4853515625
0.212,5.0849609375,-0.5205078125,-5.3251953125
0.2125,5.0849609375,-1.8017578125,-4.3642578125
0.213,5.044921875,-2.72265625,-3.5634765625
0.2135,4.564453125,-3.5634765625,-2.5625
0.214,4.1240234375,-4.2041015625,-1.6015625
0.2145,3.763671875,-4.8447265625,-0.6806640625
0.215,3.443359375,-5.6455078125,0.3603515625
0.2155,2.2421875,-5.7255859375,1.681640625
0.216,1.0810546875,-5.765625,2.7626953125
0.2165,0.3603515625,-5.7255859375,3.443359375
0.217,-0.640625,-5.7255859375,4.2841796875
0.2175,-1.6416015625,-5.4853515625,5.1650390625
0.218,-2.962890625,-4.564453125,5.8056640625
0.2185,-3.84375,-3.68359375,6.0458984375
0.219,-4.484375,-2.5224609375,5.7255859375
0.2195,-4.8447265625,-1.6015625,5.4853515625
0.22,-5.1650390625,-0.7607421875,5.2451171875
0.2205,-5.6455078125,0.240234375,5.125
0.221,-5.4853515625,1.5615234375,3.8837890625
0.2215,-5.205078125,2.5224609375,2.8828125
0.222,-4.8046875,3.1630859375,1.9619140625
0.2225,-4.404296875,3.84375,1.0810546875
0.223,-3.923828125,4.484375,0.1201171875
0.2235,-3.0830078125,5.1650390625,-1.2412109375
0.224,-2.2421875,5.28515625,-2.322265625
0.2245,-1.0009765625,4.96484375,-3.36328125
0.225,-0.3203125,5.0048828125,-4.00390625
0.2255,0.640625,4.9248046875,-4.8046875
0.226,1.6416015625,4.7646484375,-5.765625
0.2265,3.123046875,3.4833984375,-6.166015625
0.227,3.923828125,2.482421875,-6.1259765625
