wavelength,x,y,z
0.0,-23.372802734375,18.628173828125,4.414306640625
0.0005,-23.973388671875,14.984619140625,8.658447265625
0.001,-24.053466796875,10.860595703125,12.822509765625
0.0015,-24.013427734375,8.017822265625,15.625244140625
0.002,-21.811279296875,2.732666015625,18.748291015625
0.0025,-19.969482421875,-1.671630859375,21.270751953125
0.003,-17.366943359375,-6.196044921875,23.112548828125
0.0035,-13.843505859375,-11.120849609375,24.634033203125
0.004,-9.158935546875,-14.564208984375,23.392822265625
0.0045,-5.595458984375,-17.607177734375,22.912353515625
0.005,0.010009765625,-20.049560546875,19.909423828125
0.0055,4.814697265625,-23.092529296875,18.227783203125
0.006,9.339111328125,-23.532958984375,14.183837890625
0.0065,13.943603515625,-24.533935546875,10.620361328125
0.007,16.986572265625,-23.813232421875,6.896728515625
0.0075,20.349853515625,-22.451904296875,2.092041015625
0.008,22.431884765625,-19.969482421875,-2.472412109375
0.0085,24.834228515625,-17.767333984375,-7.197021484375
0.009,24.994384765625,-13.923583984375,-11.200927734375
0.0095,24.593994140625,-9.479248046875,-15.204833984375
0.01,24.073486328125,-6.436279296875,-17.647216796875
0.0105,21.470947265625,-0.790771484375,-20.730224609375
0.011,19.509033203125,3.853759765625,-23.372802734375
0.0115,15.745361328125,8.538330078125,-24.293701171875
0.012,12.382080078125,13.062744140625,-25.414794921875
0.0125,7.617431640625,16.345947265625,-24.053466796875
0.013,3.253173828125,19.348876953125,-22.732177734375
0.0135,-2.192138671875,21.631103515625,-19.729248046875
0.014,-7.317138671875,24.634033203125,-17.687255859375
0.0145,-11.601318359375,24.313720703125,-13.122802734375
0.015,-15.885498046875,24.874267578125,-9.479248046875
0.0155,-18.568115234375,23.873291015625,-5.795654296875
0.016,-21.771240234375,22.031494140625,-0.630615234375
0.0165,-23.693115234375,19.388916015625,3.973876953125
0.017,-25.334716796875,16.265869140625,8.738525390625
0.0175,-25.374755859375,12.502197265625,12.502197265625
0.018,-24.573974609375,7.857666015625,16.345947265625
0.0185,-23.653076171875,4.614501953125,18.628173828125
0.019,-21.010498046875,-0.990966796875,21.591064453125
0.0195,-18.888427734375,-5.795654296875,24.273681640625
0.02,-14.364013671875,-10.400146484375,24.353759765625
0.0205,-11.240966796875,-14.364013671875,25.194580078125
0.021,-6.436279296875,-17.366943359375,23.552978515625
0.0215,-1.511474609375,-20.329833984375,21.631103515625
0.022,3.333251953125,-22.331787109375,18.908447265625
0.0225,8.778564453125,-24.894287109375,16.145751953125
0.023,12.782470703125,-24.373779296875,11.661376953125
0.0235,16.906494140625,-24.614013671875,7.817626953125
0.024,19.388916015625,-23.372802734375,4.093994140625
0.0245,22.471923828125,-21.410888671875,-1.191162109375
0.025,24.393798828125,-18.888427734375,-5.675537109375
0.0255,25.234619140625,-15.164794921875,-10.199951171875
0.026,25.554931640625,-11.721435546875,-13.883544921875
0.0265,24.353759765625,-6.996826171875,-17.406982421875
0.027,22.912353515625,-3.153076171875,-19.809326171875
0.0275,20.469970703125,1.931884765625,-22.411865234375
0.028,17.907470703125,7.217041015625,-25.134521484375
0.0285,13.102783203125,11.581298828125,-24.654052734375
0.029,9.899658203125,15.425048828125,-25.334716796875
0.0295,4.974853515625,18.267822265625,-23.372802734375
0.03,-0.390380859375,21.390869140625,-21.250732421875
0.0305,-4.874755859375,23.272705078125,-18.728271484375
0.031,-10.560302734375,25.314697265625,-15.164794921875
0.0315,-14.243896484375,24.794189453125,-10.960693359375
0.032,-18.207763671875,24.634033203125,-6.876708984375
0.0325,-20.610107421875,22.952392578125,-2.752685546875
0.033,-23.532958984375,20.790283203125,2.412353515625
0.0335,-25.254638671875,17.907470703125,7.016845703125
0.034,-25.454833984375,13.503173828125,11.661376953125
0.0345,-25.815185546875,10.219970703125,15.224853515625
0.035,-24.213623046875,5.295166015625,18.548095703125
0.0355,-22.371826171875,0.850830078125,21.150634765625
0.036,-19.969482421875,-3.913818359375,23.512939453125
0.0365,-16.726318359375,-9.559326171875,25.875244140625
0.037,-11.721435546875,-13.443115234375,24.794189453125
0.0375,-8.318115234375,-17.326904296875,25.314697265625
0.038,-2.992919921875,-19.849365234375,22.592041015625
0.0385,2.492431640625,-22.972412109375,20.469970703125
0.039,7.016845703125,-24.373779296875,17.427001953125
0.0395,12.702392578125,-25.935302734375,13.302978515625
0.04,16.065673828125,-25.134521484375,9.218994140625
0.0405,20.109619140625,-24.694091796875,4.534423828125
0.041,22.351806640625,-22.491943359375,0.130126953125
0.0415,25.114501953125,-20.329833984375,-4.954833984375
0.042,26.275634765625,-16.806396484375,-9.559326171875
0.0425,26.115478515625,-12.041748046875,-14.123779296875
0.043,26.115478515625,-8.998779296875,-17.166748046875
0.0435,23.913330078125,-3.393310546875,-20.489990234375
0.044,21.871337890625,1.251220703125,-23.132568359375
0.0445,19.068603515625,6.055908203125,-25.014404296875
0.045,15.385009765625,11.501220703125,-26.856201171875
0.0455,10.059814453125,15.385009765625,-25.494873046875
0.046,6.336181640625,18.948486328125,-25.414794921875
0.0465,0.570556640625,21.470947265625,-22.251708984375
0.047,-4.634521484375,24.513916015625,-20.249755859375
0.0475,-9.479248046875,25.394775390625,-16.285888671875
0.048,-14.564208984375,26.395751953125,-12.241943359375
0.0485,-17.807373046875,25.635009765625,-8.318115234375
0.049,-21.651123046875,24.353759765625,-3.153076171875
0.0495,-23.733154296875,21.751220703125,1.571533203125
0.05,-26.175537109375,19.509033203125,6.376220703125
0.0505,-26.776123046875,15.344970703125,11.140869140625
0.051,-26.135498046875,10.460205078125,15.385009765625
0.0515,-26.055419921875,7.377197265625,18.347900390625
0.052,-23.372802734375,1.451416015625,21.510986328125
0.0525,-21.330810546875,-3.273193359375,24.193603515625
0.053,-17.967529296875,-7.877685546875,25.394775390625
0.0535,-14.003662109375,-13.162841796875,26.836181640625
0.054,-8.958740234375,-16.646240234375,25.274658203125
0.0545,-4.554443359375,-20.049560546875,24.393798828125
0.055,1.051025390625,-22.291748046875,21.190673828125
0.0555,6.216064453125,-25.374755859375,19.188720703125
0.056,10.940673828125,-25.494873046875,14.584228515625
0.0565,15.825439453125,-26.135498046875,10.380126953125
0.057,18.828369140625,-25.574951171875,6.816650390625
0.0575,22.431884765625,-23.693115234375,1.251220703125
0.058,24.473876953125,-21.090576171875,-3.473388671875
0.0585,26.515869140625,-18.287841796875,-8.197998046875
0.059,26.836181640625,-14.364013671875,-12.522216796875
0.0595,25.915283203125,-9.319091796875,-16.646240234375
0.06,25.514892578125,-6.156005859375,-19.368896484375
0.0605,22.552001953125,-0.270263671875,-22.331787109375
0.061,20.710205078125,4.534423828125,-25.214599609375
0.0615,16.305908203125,9.419189453125,-25.655029296875
0.062,12.662353515625,14.143798828125,-26.776123046875
0.0625,7.737548828125,17.547119140625,-25.334716796875
0.063,2.732666015625,20.870361328125,-23.773193359375
0.0635,-2.672607421875,23.072509765625,-20.730224609375
0.064,-7.957763671875,26.075439453125,-18.528076171875
0.0645,-12.642333984375,25.795166015625,-13.643310546875
0.065,-16.966552734375,25.915283203125,-9.399169921875
0.0655,-19.809326171875,25.194580078125,-5.915771484375
0.066,-23.212646484375,23.032470703125,-0.190185546875
0.0665,-25.374755859375,20.349853515625,4.774658203125
0.067,-26.615966796875,16.866455078125,9.379150390625
0.0675,-27.016357421875,12.942626953125,13.783447265625
0.068,-25.695068359375,7.897705078125,17.507080078125
0.0685,-24.854248046875,4.214111328125,20.269775390625
0.069,-21.971435546875,-1.591552734375,23.152587890625
0.0695,-19.809326171875,-6.796630859375,26.155517578125
0.07,-14.884521484375,-11.321044921875,25.795166015625
0.0705,-11.160888671875,-15.845458984375,26.635986328125
0.071,-6.396240234375,-18.808349609375,24.914306640625
0.0715,-0.790771484375,-22.131591796875,22.752197265625
0.072,4.334228515625,-24.053466796875,19.789306640625
0.0725,10.179931640625,-26.736083984375,16.546142578125
0.073,14.143798828125,-26.095458984375,11.981689453125
0.0735,18.668212890625,-26.015380859375,7.337158203125
0.074,21.150634765625,-24.694091796875,3.613525390625
0.0745,24.393798828125,-22.291748046875,-2.192138671875
0.075,26.555908203125,-19.609130859375,-6.996826171875
0.0755,26.996337890625,-15.204833984375,-11.841552734375
0.076,27.196533203125,-11.681396484375,-15.605224609375
0.0765,25.635009765625,-6.476318359375,-19.208740234375
0.077,24.113525390625,-2.272216796875,-21.891357421875
0.0775,21.310791015625,3.173095703125,-24.453857421875
0.078,18.548095703125,8.778564453125,-27.216552734375
0.0785,13.062744140625,13.302978515625,-26.335693359375
0.079,9.459228515625,17.306884765625,-26.816162109375
0.0795,4.414306640625,20.109619140625,-24.654052734375
0.08,-1.551513671875,23.552978515625,-22.291748046875
0.0805,-6.356201171875,25.314697265625,-19.368896484375
0.081,-12.201904296875,27.156494140625,-15.405029296875
0.0815,-16.045654296875,26.435791015625,-10.920654296875
0.082,-20.169677734375,25.955322265625,-6.236083984375
0.0825,-22.572021484375,24.073486328125,-1.951904296875
0.083,-25.534912109375,21.711181640625,3.533447265625
0.0835,-27.296630859375,18.427978515625,8.578369140625
0.084,-27.096435546875,13.583251953125,13.182861328125
0.0845,-27.296630859375,10.099853515625,16.906494140625
0.085,-25.334716796875,4.734619140625,20.229736328125
0.0855,-23.372802734375,0.010009765625,23.072509765625
0.086,-20.690185546875,-4.994873046875,25.234619140625
0.0865,-17.206787109375,-10.840576171875,27.596923828125
0.087,-11.721435546875,-14.764404296875,26.155517578125
0.0875,-7.957763671875,-18.768310546875,26.435791015625
0.088,-2.472412109375,-21.250732421875,23.512939453125
0.0885,3.213134765625,-24.533935546875,21.270751953125
0.089,8.057861328125,-25.935302734375,17.867431640625
0.0895,13.783447265625,-27.256591796875,13.423095703125
0.09,17.226806640625,-26.335693359375,9.218994140625
0.0905,21.430908203125,-25.454833984375,4.134033203125
0.091,23.593017578125,-23.212646484375,-0.350341796875
0.0915,26.355712890625,-20.890380859375,-5.475341796875
0.092,27.556884765625,-17.326904296875,-10.320068359375
0.0925,27.036376953125,-12.161865234375,-14.924560546875
0.093,26.956298828125,-8.958740234375,-18.087646484375
0.0935,24.553955078125,-3.193115234375,-21.370849609375
0.094,22.552001953125,1.611572265625,-24.173583984375
0.0945,19.549072265625,6.456298828125,-25.935302734375
0.095,15.785400390625,12.021728515625,-27.777099609375
0.0955,10.260009765625,15.985595703125,-26.255615234375
0.096,6.216064453125,19.709228515625,-25.935302734375
0.0965,0.530517578125,22.071533203125,-22.852294921875
0.097,-4.834716796875,25.314697265625,-20.850341796875
0.0975,-9.919677734375,26.195556640625,-16.766357421875
0.098,-15.004638671875,26.956298828125,-12.402099609375
0.0985,-18.327880859375,26.355712890625,-8.478271484375
0.099,-22.171630859375,24.794189453125,-3.032958984375
0.0995,-24.373779296875,22.351806640625,1.691650390625
0.1,-26.776123046875,19.869384765625,6.536376953125
0.1005,-27.576904296875,15.745361328125,11.541259765625
0.101,-26.656005859375,10.580322265625,15.785400390625
0.1015,-26.615966796875,7.337158203125,18.948486328125
0.102,-23.733154296875,1.331298828125,22.071533203125
0.1025,-21.891357421875,-3.473388671875,24.954345703125
0.103,-18.247802734375,-8.278076171875,26.075439453125
0.1035,-14.243896484375,-13.643310546875,27.516845703125
0.104,-9.118896484375,-17.126708984375,25.915283203125
0.1045,-4.314208984375,-20.810302734375,24.794189453125
0.105,1.291259765625,-23.012451171875,21.551025390625
0.1055,6.456298828125,-26.215576171875,19.629150390625
0.106,11.501220703125,-26.295654296875,14.864501953125
0.1065,16.466064453125,-26.656005859375,10.300048828125
0.107,19.388916015625,-26.055419921875,6.776611328125
0.1075,23.152587890625,-23.973388671875,0.890869140625
0.108,25.314697265625,-21.490966796875,-3.873779296875
0.1085,27.196533203125,-18.568115234375,-8.678466796875
0.109,27.677001953125,-14.564208984375,-13.202880859375
0.1095,26.555908203125,-9.279052734375,-17.326904296875
0.11,25.995361328125,-5.835693359375,-20.169677734375
0.1105,22.912353515625,0.290283203125,-23.172607421875
0.111,21.070556640625,5.175048828125,-26.255615234375
0.1115,16.506103515625,10.059814453125,-26.535888671875
0.112,12.622314453125,14.864501953125,-27.536865234375
0.1125,7.577392578125,18.307861328125,-26.015380859375
0.113,2.252197265625,21.791259765625,-24.213623046875
0.1135,-3.233154296875,23.993408203125,-21.130615234375
0.114,-8.678466796875,27.036376953125,-18.728271484375
0.1145,-13.443115234375,26.796142578125,-13.803466796875
0.115,-17.807373046875,26.635986328125,-9.279052734375
0.1155,-20.650146484375,25.755126953125,-5.595458984375
0.116,-24.173583984375,23.352783203125,0.450439453125
0.1165,-26.415771484375,20.710205078125,5.415283203125
0.117,-27.536865234375,16.946533203125,10.219970703125
0.1175,-27.897216796875,12.942626953125,14.704345703125
0.118,-26.415771484375,7.697509765625,18.387939453125
0.1185,-25.334716796875,3.773681640625,21.270751953125
0.119,-22.331787109375,-2.232177734375,24.153564453125
0.1195,-20.129638671875,-7.477294921875,27.196533203125
0.12,-14.964599609375,-12.121826171875,26.716064453125
0.1205,-11.040771484375,-16.686279296875,27.396728515625
0.121,-6.115966796875,-19.609130859375,25.394775390625
0.1215,-0.270263671875,-23.092529296875,23.072509765625
0.122,4.934814453125,-25.014404296875,19.989501953125
0.1225,10.860595703125,-27.576904296875,16.706298828125
0.123,14.944580078125,-26.856201171875,12.021728515625
0.1235,19.428955078125,-26.615966796875,7.257080078125
0.124,21.951416015625,-25.134521484375,3.253173828125
0.1245,25.314697265625,-22.652099609375,-2.672607421875
0.125,27.396728515625,-19.809326171875,-7.677490234375
0.1255,27.757080078125,-15.324951171875,-12.482177734375
0.126,27.997314453125,-11.721435546875,-16.285888671875
0.1265,26.195556640625,-6.396240234375,-19.889404296875
0.127,24.433837890625,-1.831787109375,-22.612060546875
0.1275,21.591064453125,3.693603515625,-25.174560546875
0.128,18.708251953125,9.299072265625,-28.017333984375
0.1285,13.142822265625,13.783447265625,-26.976318359375
0.129,9.459228515625,17.827392578125,-27.336669921875
0.1295,4.134033203125,20.590087890625,-24.974365234375
0.13,-1.911865234375,24.073486328125,-22.491943359375
0.1305,-6.836669921875,25.955322265625,-19.529052734375
0.131,-12.682373046875,27.797119140625,-15.485107421875
0.1315,-16.526123046875,27.036376953125,-10.960693359375
0.132,-20.530029296875,26.315673828125,-6.196044921875
0.1325,-23.012451171875,24.313720703125,-1.751708984375
0.133,-25.975341796875,21.791259765625,3.853759765625
0.1335,-27.777099609375,18.548095703125,8.938720703125
0.134,-27.496826171875,13.583251953125,13.583251953125
0.1345,-27.656982421875,10.099853515625,17.266845703125
0.135,-25.494873046875,4.694580078125,20.469970703125
0.1355,-23.532958984375,-0.310302734375,23.392822265625
0.136,-20.770263671875,-5.275146484375,25.594970703125
0.1365,-17.246826171875,-11.160888671875,27.917236328125
0.137,-11.801513671875,-15.084716796875,26.475830078125
0.1375,-7.957763671875,-19.008544921875,26.555908203125
0.138,-2.512451171875,-21.290771484375,23.593017578125
0.1385,3.333251953125,-24.654052734375,21.270751953125
0.139,8.298095703125,-26.135498046875,17.867431640625
0.1395,13.903564453125,-27.296630859375,13.423095703125
0.14,17.266845703125,-26.535888671875,9.339111328125
0.1405,21.310791015625,-25.454833984375,4.214111328125
0.141,23.512939453125,-23.212646484375,-0.310302734375
0.1415,26.235595703125,-20.890380859375,-5.395263671875
0.142,27.677001953125,-17.246826171875,-10.520263671875
0.1425,26.956298828125,-12.201904296875,-14.804443359375
0.143,26.996337890625,-9.038818359375,-17.967529296875
0.1435,24.433837890625,-3.393310546875,-21.050537109375
0.144,22.471923828125,1.491455078125,-23.973388671875
0.1445,19.509033203125,6.296142578125,-25.735107421875
0.145,15.625244140625,11.981689453125,-27.616943359375
0.1455,10.420166015625,15.665283203125,-26.255615234375
0.146,6.256103515625,19.348876953125,-25.695068359375
0.1465,0.810791015625,21.671142578125,-22.692138671875
0.147,-4.594482421875,24.954345703125,-20.690185546875
0.1475,-9.639404296875,25.995361328125,-16.806396484375
0.148,-14.764404296875,26.635986328125,-12.322021484375
0.1485,-17.887451171875,26.235595703125,-8.798583984375
0.149,-21.611083984375,24.473876953125,-3.273193359375
0.1495,-23.853271484375,22.191650390625,1.291259765625
0.15,-26.215576171875,19.709228515625,6.135986328125
0.1505,-27.216552734375,15.865478515625,11.060791015625
0.151,-26.255615234375,10.700439453125,15.304931640625
0.1515,-26.255615234375,7.577392578125,18.347900390625
0.152,-23.372802734375,1.811767578125,21.190673828125
0.1525,-21.771240234375,-3.072998046875,24.353759765625
0.153,-18.127685546875,-7.877685546875,25.594970703125
0.1535,-14.243896484375,-13.162841796875,26.916259765625
0.154,-9.479248046875,-16.526123046875,25.675048828125
0.1545,-4.594482421875,-20.009521484375,24.353759765625
0.155,0.770751953125,-22.211669921875,21.390869140625
0.1555,5.895751953125,-25.334716796875,19.468994140625
0.156,11.060791015625,-25.935302734375,14.864501953125
0.1565,15.665283203125,-26.015380859375,10.460205078125
0.157,18.748291015625,-25.775146484375,7.136962890625
0.1575,22.271728515625,-23.572998046875,1.331298828125
0.158,24.634033203125,-21.250732421875,-3.473388671875
0.1585,26.395751953125,-18.447998046875,-7.997802734375
0.159,27.236572265625,-14.524169921875,-12.762451171875
0.1595,25.915283203125,-9.519287109375,-16.446044921875
0.16,25.474853515625,-5.955810546875,-19.529052734375
0.1605,22.471923828125,-0.310302734375,-22.251708984375
0.161,20.830322265625,4.654541015625,-25.574951171875
0.1615,16.466064453125,9.339111328125,-25.895263671875
0.162,12.462158203125,14.424072265625,-26.896240234375
0.1625,7.977783203125,17.507080078125,-25.574951171875
0.163,2.452392578125,21.030517578125,-23.653076171875
0.1635,-2.792724609375,23.192626953125,-20.730224609375
0.164,-8.077880859375,26.075439453125,-18.407958984375
0.1645,-12.762451171875,26.195556640625,-13.843505859375
0.165,-17.086669921875,25.875244140625,-9.239013671875
0.1655,-19.769287109375,25.234619140625,-5.915771484375
0.166,-23.092529296875,22.752197265625,0.010009765625
0.1665,-25.574951171875,20.309814453125,4.974853515625
0.167,-26.295654296875,16.626220703125,9.339111328125
0.1675,-27.056396484375,12.862548828125,13.903564453125
0.168,-25.574951171875,7.937744140625,17.306884765625
0.1685,-24.493896484375,3.933837890625,20.229736328125
0.169,-21.651123046875,-1.591552734375,22.792236328125
0.1695,-19.689208984375,-6.836669921875,25.995361328125
0.17,-14.884521484375,-11.160888671875,25.594970703125
0.1705,-10.880615234375,-15.685302734375,26.235595703125
0.171,-6.636474609375,-18.407958984375,24.754150390625
0.1715,-0.710693359375,-21.771240234375,22.231689453125
0.172,4.134033203125,-23.733154296875,19.509033203125
0.1725,9.779541015625,-25.935302734375,16.185791015625
0.173,13.783447265625,-25.935302734375,12.221923828125
0.1735,18.027587890625,-25.374755859375,7.417236328125
0.174,20.469970703125,-24.293701171875,3.893798828125
0.1745,23.552978515625,-21.771240234375,-1.791748046875
0.175,25.995361328125,-19.408935546875,-6.636474609375
0.1755,25.955322265625,-15.004638671875,-11.000732421875
0.176,26.635986328125,-11.681396484375,-14.964599609375
0.1765,24.994384765625,-6.996826171875,-18.087646484375
0.177,23.432861328125,-2.512451171875,-21.010498046875
0.1775,20.790283203125,2.532470703125,-23.372802734375
0.178,18.227783203125,8.017822265625,-26.215576171875
0.1785,13.383056640625,12.221923828125,-25.574951171875
0.179,9.339111328125,16.345947265625,-25.775146484375
0.1795,5.175048828125,18.708251953125,-24.053466796875
0.18,-0.950927734375,22.111572265625,-21.490966796875
