wavelength,x,y,z
0.0,7.9727783203125,13.898559570312,-21.656127929688
0.0005,4.5294189453125,16.060668945312,-20.414916992188
0.001,-0.7557373046875,18.262817382812,-17.452026367188
0.0015,-4.9197998046875,20.785278320312,-15.890502929688
0.002,-9.6043701171875,21.666137695312,-12.126831054688
0.0025,-12.687377929688,23.187622070312,-10.645385742188
0.003,-16.090698242188,21.906372070312,-6.0408935546875
0.0035,-18.533081054688,20.304809570312,-2.0770263671875
0.004,-20.454956054688,17.982543945312,2.2471923828125
0.0045,-22.577026367188,15.860473632812,6.4112548828125
0.005,-23.377807617188,13.017700195312,9.9747314453125
0.0055,-23.217651367188,8.9737548828125,13.778442382812
0.006,-22.136596679688,6.0509033203125,15.580200195312
0.0065,-19.373901367188,0.7257080078125,17.982543945312
0.007,-17.612182617188,-3.5985107421875,20.344848632812
0.0075,-13.888549804688,-8.4832763671875,21.425903320312
0.008,-12.246948242188,-11.966674804688,23.187622070312
0.0085,-6.6014404296875,-15.650268554688,21.145629882812
0.009,-3.0780029296875,-17.732299804688,19.584106445312
0.0095,2.0469970703125,-19.894409179688,16.781372070312
0.01,6.4913330078125,-22.416870117188,14.979614257812
0.0105,10.615356445312,-23.097534179688,11.656372070312
0.011,14.258911132812,-23.578002929688,8.4932861328125
0.0115,16.541137695312,-22.456909179688,5.2501220703125
0.012,19.263793945312,-20.214721679688,0.2852783203125
0.0125,21.265747070312,-18.052612304688,-3.8387451171875
0.013,22.587036132812,-15.049682617188,-8.1629638671875
0.0135,23.988403320312,-13.007690429688,-11.125854492188
0.014,22.426879882812,-7.9627685546875,-14.929565429688
0.0145,21.305786132812,-5.2000732421875,-16.491088867188
0.015,18.503051757812,0.1251220703125,-18.733276367188
0.0155,16.501098632812,4.7696533203125,-21.295776367188
0.016,12.697387695312,9.2940673828125,-21.976440429688
0.0165,10.255004882812,12.817504882812,-22.977416992188
0.017,5.8907470703125,15.780395507812,-20.935424804688
0.0175,0.9659423828125,17.822387695312,-18.653198242188
0.018,-3.4783935546875,19.824340820312,-16.290893554688
0.0185,-8.4832763671875,22.066528320312,-13.608276367188
0.019,-11.566284179688,23.027465820312,-11.526245117188
0.0195,-15.770385742188,22.266723632812,-6.6815185546875
0.02,-17.331909179688,21.265747070312,-4.1990966796875
0.0205,-20.134643554688,18.823364257812,1.2462158203125
0.021,-22.256713867188,16.781372070312,5.1700439453125
0.0215,-22.937377929688,13.097778320312,9.4942626953125
0.022,-24.098510742188,11.416137695312,12.216918945312
0.0225,-22.096557617188,6.4112548828125,15.179809570312
0.023,-20.655151367188,2.8077392578125,17.261840820312
0.0235,-18.212768554688,-1.9569091796875,19.343872070312
0.024,-15.570190429688,-7.1619873046875,22.226684570312
0.0245,-12.687377929688,-10.765502929688,22.426879882812
0.025,-8.4832763671875,-14.929565429688,22.346801757812
0.0255,-4.8397216796875,-16.651245117188,20.224731445312
0.026,0.6856689453125,-19.373901367188,17.742309570312
0.0265,4.6094970703125,-21.255737304688,15.700317382812
0.027,9.9346923828125,-23.057495117188,12.216918945312
0.0275,12.497192382812,-23.938354492188,10.615356445312
0.028,16.380981445312,-22.496948242188,5.4102783203125
0.0285,18.142700195312,-21.135620117188,2.3673095703125
0.029,20.545043945312,-18.853393554688,-2.3973388671875
0.0295,22.707153320312,-16.411010742188,-6.9217529296875
0.03,23.107543945312,-13.167846679688,-10.445190429688
0.0305,23.708129882812,-10.244995117188,-14.008666992188
0.031,21.586059570312,-6.1209716796875,-15.890502929688
0.0315,19.504028320312,-1.5565185546875,-18.252807617188
0.032,17.301879882812,2.8477783203125,-20.214721679688
0.0325,14.098754882812,8.4132080078125,-22.456909179688
0.033,11.536254882812,11.376098632812,-22.857299804688
0.0335,6.4913330078125,15.380004882812,-21.776245117188
0.034,2.9678955078125,16.941528320312,-19.614135742188
0.0345,-2.3973388671875,19.664184570312,-17.211791992188
0.035,-6.6014404296875,21.626098632812,-14.969604492188
0.0355,-11.326049804688,23.027465820312,-11.726440429688
0.036,-14.369018554688,23.267700195312,-9.0438232421875
0.0365,-17.291870117188,21.706176757812,-4.6395263671875
0.037,-19.534057617188,19.704223632812,-0.5155029296875
0.0375,-21.536010742188,17.822387695312,3.4884033203125
0.038,-23.457885742188,14.699340820312,8.4532470703125
0.0385,-23.738159179688,11.896606445312,11.416137695312
0.039,-23.497924804688,7.8526611328125,15.139770507812
0.0395,-21.335815429688,4.1290283203125,16.661254882812
0.04,-19.173706054688,-0.9158935546875,19.343872070312
0.0405,-16.691284179688,-5.4002685546875,21.105590820312
0.041,-13.408081054688,-10.605346679688,22.987426757812
0.0415,-10.285034179688,-13.688354492188,22.827270507812
0.042,-5.4403076171875,-16.811401367188,21.145629882812
0.0425,-1.1961669921875,-18.573120117188,18.583129882812
0.043,3.4884033203125,-21.055541992188,16.621215820312
0.0435,8.2930908203125,-22.857299804688,13.658325195312
0.044,11.976684570312,-23.978393554688,11.175903320312
0.0445,15.620239257812,-23.457885742188,7.0919189453125
0.045,17.862426757812,-21.696166992188,3.1680908203125
0.0455,20.224731445312,-19.574096679688,-1.3162841796875
0.046,22.066528320312,-17.652221679688,-5.0399169921875
0.0465,23.628051757812,-14.689331054688,-10.084838867188
0.047,23.547973632812,-11.406127929688,-12.687377929688
0.0475,22.546997070312,-7.2420654296875,-15.730346679688
0.048,20.184692382812,-3.0780029296875,-17.411987304688
0.0485,18.422973632812,1.5665283203125,-20.094604492188
0.049,15.339965820312,6.3311767578125,-21.696166992188
0.0495,12.617309570312,10.735473632812,-23.337768554688
0.05,8.3331298828125,14.058715820312,-22.496948242188
0.0505,3.8487548828125,16.821411132812,-20.494995117188
0.051,-0.9559326171875,18.903442382812,-17.852416992188
0.0515,-4.8797607421875,21.105590820312,-16.130737304688
0.052,-10.124877929688,22.747192382812,-12.687377929688
0.0525,-13.328002929688,23.267700195312,-10.004760742188
0.053,-16.651245117188,22.546997070312,-6.1209716796875
0.0535,-18.853393554688,20.304809570312,-1.7166748046875
0.054,-21.175659179688,18.342895507812,2.6075439453125
0.0545,-22.577026367188,15.900512695312,6.3311767578125
0.055,-24.178588867188,13.057739257812,10.735473632812
0.0555,-23.578002929688,9.0538330078125,14.058715820312
0.056,-22.256713867188,5.3302001953125,16.380981445312
0.0565,-19.534057617188,0.6856689453125,18.142700195312
0.057,-17.932495117188,-3.7586669921875,20.665161132812
0.0575,-14.409057617188,-8.8035888671875,22.146606445312
0.058,-11.686401367188,-12.607299804688,23.227661132812
0.0585,-7.2420654296875,-15.850463867188,21.906372070312
0.059,-2.5574951171875,-18.092651367188,19.544067382812
0.0595,2.2471923828125,-20.334838867188,17.101684570312
0.06,6.2510986328125,-22.296752929688,15.139770507812
0.0605,10.975708007812,-24.058471679688,12.216918945312
0.061,14.619262695312,-23.457885742188,8.0928955078125
0.0615,16.981567382812,-22.777221679688,5.0899658203125
0.062,19.343872070312,-20.134643554688,0.1651611328125
0.0625,21.786254882812,-18.453002929688,-3.9989013671875
0.063,22.587036132812,-15.209838867188,-7.9627685546875
0.0635,24.068481445312,-12.887573242188,-11.686401367188
0.064,22.787231445312,-8.3231201171875,-14.929565429688
0.0645,21.185668945312,-4.5194091796875,-17.131713867188
0.065,18.623168945312,0.1251220703125,-18.933471679688
0.0655,16.661254882812,4.6895751953125,-21.455932617188
0.066,13.297973632812,9.5343017578125,-22.737182617188
0.0665,9.6143798828125,13.378051757812,-22.777221679688
0.067,5.8507080078125,15.740356445312,-21.415893554688
0.0675,0.6055908203125,18.182739257812,-18.573120117188
0.068,-3.7987060546875,20.464965820312,-16.611206054688
0.0685,-8.3231201171875,21.906372070312,-13.528198242188
0.069,-12.046752929688,23.828247070312,-11.846557617188
0.0695,-15.970581054688,22.426879882812,-6.6014404296875
0.07,-17.972534179688,21.505981445312,-3.7586669921875
0.0705,-20.254760742188,18.863403320312,1.2462158203125
0.071,-22.817260742188,17.141723632812,5.4102783203125
0.0715,-23.177612304688,13.418090820312,9.4141845703125
0.072,-24.298706054688,10.855590820312,13.017700195312
0.0725,-22.657104492188,6.8116455078125,15.299926757812
0.073,-20.494995117188,2.0469970703125,17.782348632812
0.0735,-18.453002929688,-2.2772216796875,19.744262695312
0.074,-15.530151367188,-7.2020263671875,21.786254882812
0.0745,-13.127807617188,-11.205932617188,23.267700195312
0.075,-7.9227294921875,-15.329956054688,22.106567382812
0.0755,-4.6795654296875,-17.011596679688,20.545043945312
0.076,0.9659423828125,-19.453979492188,17.542114257812
0.0765,5.1300048828125,-21.976440429688,15.860473632812
0.077,9.8546142578125,-22.897338867188,12.136840820312
0.0775,13.097778320312,-24.378784179688,10.495239257812
0.078,16.300903320312,-22.737182617188,5.7305908203125
0.0785,18.583129882812,-21.135620117188,1.9268798828125
0.079,20.625122070312,-18.733276367188,-2.5975341796875
0.0795,22.947387695312,-16.491088867188,-6.6414794921875
0.08,23.427856445312,-13.568237304688,-10.405151367188
0.0805,23.547973632812,-9.6444091796875,-14.449096679688
0.081,22.026489257812,-6.6014404296875,-15.850463867188
0.0815,19.223754882812,-1.2762451171875,-18.372924804688
0.082,17.421997070312,3.0079345703125,-20.494995117188
0.0825,13.858520507812,8.1729736328125,-21.976440429688
0.083,11.816528320312,11.656372070312,-23.017456054688
0.0835,6.4112548828125,15.219848632812,-21.495971679688
0.084,2.8477783203125,16.981567382812,-19.574096679688
0.0845,-2.2772216796875,19.263793945312,-16.931518554688
0.085,-6.9217529296875,21.906372070312,-14.969604492188
0.0855,-10.965698242188,22.587036132812,-11.686401367188
0.086,-14.649291992188,23.067504882812,-8.6033935546875
0.0865,-16.651245117188,21.706176757812,-5.2401123046875
0.087,-19.373901367188,19.504028320312,-0.4754638671875
0.0875,-21.295776367188,17.542114257812,3.5284423828125
0.088,-22.977416992188,14.459106445312,8.1729736328125
0.0885,-23.778198242188,12.296997070312,11.055786132812
0.089,-22.817260742188,7.4122314453125,14.859497070312
0.0895,-21.335815429688,4.4893798828125,16.180786132812
0.09,-18.733276367188,-0.7156982421875,18.703247070312
0.0905,-16.731323242188,-5.3602294921875,21.185668945312
0.091,-13.127807617188,-9.9647216796875,22.066528320312
0.0915,-10.325073242188,-13.568237304688,22.867309570312
0.092,-5.8006591796875,-16.010620117188,20.705200195312
0.0925,-1.4364013671875,-18.252807617188,18.422973632812
0.093,3.0079345703125,-20.254760742188,16.300903320312
0.0935,8.2530517578125,-22.697143554688,13.578247070312
0.094,11.336059570312,-23.417846679688,11.255981445312
0.0945,15.339965820312,-22.937377929688,6.8917236328125
0.095,16.781372070312,-21.495971679688,4.0889892578125
0.0955,19.463989257812,-19.253784179688,-0.9158935546875
0.096,21.586059570312,-17.331909179688,-4.8797607421875
0.0965,22.587036132812,-13.888549804688,-9.3641357421875
0.097,23.427856445312,-11.726440429688,-12.206909179688
0.0975,21.666137695312,-7.2420654296875,-14.929565429688
0.098,19.984497070312,-3.7186279296875,-16.611206054688
0.0985,17.782348632812,1.0460205078125,-18.933471679688
0.099,15.219848632812,6.2911376953125,-21.495971679688
0.0995,12.417114257812,9.9346923828125,-22.176635742188
0.1,8.4532470703125,13.858520507812,-22.096557617188
0.1005,4.6895751953125,15.500122070312,-20.014526367188
0.101,-0.4754638671875,18.102661132812,-17.612182617188
0.1015,-4.3192138671875,20.104614257812,-15.730346679688
0.102,-9.7645263671875,22.226684570312,-12.487182617188
0.1025,-12.447143554688,22.787231445312,-10.445190429688
0.103,-15.970581054688,21.826293945312,-6.1209716796875
0.1035,-17.652221679688,20.064575195312,-2.6776123046875
0.104,-20.094604492188,18.062622070312,1.7667236328125
0.1045,-22.256713867188,15.740356445312,6.2110595703125
0.105,-23.017456054688,12.657348632812,9.9747314453125
0.1055,-23.457885742188,9.5343017578125,13.418090820312
0.106,-21.495971679688,5.6905517578125,15.299926757812
0.1065,-19.253784179688,1.2862548828125,17.341918945312
0.107,-17.371948242188,-3.0780029296875,19.584106445312
0.1075,-14.208862304688,-8.6834716796875,21.906372070312
0.108,-11.526245117188,-11.726440429688,22.266723632812
0.1085,-7.1619873046875,-15.410034179688,21.425903320312
0.109,-3.3983154296875,-16.811401367188,19.103637695312
0.1095,1.6065673828125,-19.534057617188,16.941528320312
0.11,5.8507080078125,-21.536010742188,14.779418945312
0.1105,10.535278320312,-23.217651367188,11.856567382812
0.111,13.658325195312,-23.177612304688,8.7735595703125
0.1115,16.300903320312,-21.976440429688,5.0499267578125
0.112,18.342895507812,-19.854370117188,0.8858642578125
0.1125,20.545043945312,-18.092651367188,-3.1580810546875
0.113,22.426879882812,-15.169799804688,-7.8426513671875
0.1135,22.867309570312,-12.487182617188,-10.965698242188
0.114,22.466918945312,-8.6834716796875,-14.248901367188
0.1145,20.424926757812,-4.9998779296875,-15.810424804688
0.115,18.463012695312,-0.4754638671875,-18.252807617188
0.1155,16.180786132812,3.9688720703125,-20.214721679688
0.116,13.137817382812,9.2139892578125,-22.296752929688
0.1165,9.8946533203125,12.337036132812,-22.096557617188
0.117,5.7305908203125,15.179809570312,-20.695190429688
0.1175,1.4063720703125,16.821411132812,-18.012573242188
0.118,-2.9178466796875,19.343872070312,-16.370971679688
0.1185,-7.6424560546875,21.105590820312,-13.528198242188
0.119,-11.326049804688,22.546997070312,-11.245971679688
0.1195,-14.769409179688,21.946411132812,-7.3621826171875
0.12,-16.771362304688,20.424926757812,-3.8787841796875
0.1205,-19.053588867188,18.262817382812,0.5255126953125
0.121,-21.015502929688,16.541137695312,4.1290283203125
0.1215,-22.697143554688,13.297973632812,8.8936767578125
0.122,-22.777221679688,10.615356445312,11.696411132812
0.1225,-21.936401367188,7.0518798828125,14.379028320312
0.123,-19.534057617188,2.9678955078125,15.980590820312
0.1235,-17.932495117188,-1.4364013671875,18.543090820312
0.124,-15.089721679688,-6.1209716796875,20.304809570312
0.1245,-12.727416992188,-10.365112304688,22.066528320312
0.125,-8.6434326171875,-13.768432617188,21.305786132812
0.1255,-4.8397216796875,-15.970581054688,19.544067382812
0.126,-0.1951904296875,-17.812377929688,16.901489257812
0.1265,3.6485595703125,-20.054565429688,15.500122070312
0.127,8.6534423828125,-21.936401367188,12.417114257812
0.1275,11.736450195312,-22.577026367188,10.094848632812
0.128,14.779418945312,-21.976440429688,6.4913330078125
0.1285,16.821411132812,-20.014526367188,2.5274658203125
0.129,18.903442382812,-18.412963867188,-1.5965576171875
0.1295,20.665161132812,-16.090698242188,-5.2801513671875
0.13,22.386840820312,-13.488159179688,-9.4442138671875
0.1305,21.906372070312,-9.7645263671875,-12.687377929688
0.131,20.905395507812,-6.6815185546875,-14.689331054688
0.1315,18.302856445312,-2.3572998046875,-16.330932617188
0.132,16.941528320312,1.8468017578125,-18.933471679688
0.1325,13.738403320312,6.7315673828125,-20.494995117188
0.133,11.336059570312,10.455200195312,-21.656127929688
0.1335,7.3321533203125,13.498168945312,-20.615112304688
0.134,3.2081298828125,15.500122070312,-18.533081054688
0.1345,-1.1561279296875,17.622192382812,-16.370971679688
0.135,-5.0799560546875,19.584106445312,-14.489135742188
0.1355,-9.5242919921875,21.706176757812,-12.246948242188
0.136,-12.887573242188,21.265747070312,-8.5233154296875
0.1365,-15.129760742188,20.745239257812,-5.9207763671875
0.137,-17.331909179688,18.422973632812,-1.3563232421875
0.1375,-19.774291992188,16.981567382812,2.4874267578125
0.138,-20.815307617188,14.138793945312,6.3712158203125
0.1385,-22.496948242188,12.216918945312,9.8946533203125
0.139,-21.536010742188,8.0928955078125,13.017700195312
0.1395,-20.575073242188,4.5294189453125,15.019653320312
0.14,-17.932495117188,0.4854736328125,16.821411132812
0.1405,-16.090698242188,-4.0389404296875,19.263793945312
0.141,-13.408081054688,-8.5233154296875,21.025512695312
0.1415,-10.044799804688,-12.206909179688,21.185668945312
0.142,-6.6014404296875,-14.489135742188,19.984497070312
0.1425,-1.8768310546875,-16.651245117188,17.462036132812
0.143,1.8868408203125,-19.253784179688,15.780395507812
0.1435,6.6915283203125,-20.535034179688,12.977661132812
0.144,10.094848632812,-22.737182617188,11.816528320312
0.1445,13.778442382812,-21.536010742188,7.0518798828125
0.145,15.660278320312,-20.775268554688,4.4493408203125
0.1455,17.862426757812,-18.453002929688,-0.2352294921875
0.146,20.464965820312,-16.891479492188,-4.1990966796875
0.1465,21.265747070312,-13.728393554688,-8.0028076171875
0.147,22.346801757812,-11.486206054688,-11.366088867188
0.1475,20.985473632812,-7.8426513671875,-13.608276367188
0.148,19.103637695312,-3.5985107421875,-15.890502929688
0.1485,17.301879882812,0.4854736328125,-17.932495117188
0.149,14.659301757812,5.3702392578125,-20.014526367188
0.1495,12.737426757812,9.2540283203125,-21.856323242188
0.15,7.8526611328125,13.097778320312,-20.815307617188
0.1505,4.8497314453125,14.779418945312,-19.453979492188
0.151,-0.2352294921875,17.061645507812,-16.771362304688
0.1515,-4.1990966796875,19.584106445312,-15.369995117188
0.152,-8.8436279296875,20.625122070312,-11.846557617188
0.1525,-12.006713867188,22.226684570312,-10.365112304688
0.153,-14.889526367188,20.785278320312,-6.2010498046875
0.1535,-17.131713867188,19.343872070312,-2.5574951171875
0.154,-19.053588867188,17.221801757812,1.5665283203125
0.1545,-21.295776367188,15.099731445312,5.8907470703125
0.155,-22.176635742188,12.697387695312,9.0938720703125
0.1555,-22.216674804688,8.8135986328125,12.937622070312
0.156,-20.935424804688,6.0909423828125,14.338989257812
0.1565,-18.453002929688,1.1661376953125,16.661254882812
0.157,-16.811401367188,-3.0379638671875,19.023559570312
0.1575,-13.408081054688,-7.9627685546875,20.424926757812
0.158,-11.886596679688,-11.245971679688,22.066528320312
0.1585,-6.9217529296875,-14.649291992188,20.184692382812
0.159,-3.4783935546875,-16.210815429688,18.543090820312
0.1595,1.3663330078125,-18.412963867188,16.100708007812
0.16,5.7706298828125,-21.015502929688,14.338989257812
0.1605,9.6143798828125,-21.976440429688,11.536254882812
0.161,13.177856445312,-22.536987304688,8.5733642578125
0.1615,15.099731445312,-21.295776367188,5.4102783203125
0.162,17.902465820312,-18.733276367188,0.9259033203125
0.1625,19.784301757812,-17.331909179688,-3.1180419921875
0.163,21.385864257812,-14.409057617188,-7.6024169921875
0.1635,22.546997070312,-12.767456054688,-10.244995117188
0.164,21.425903320312,-8.0828857421875,-13.768432617188
0.1645,20.144653320312,-5.4403076171875,-15.129760742188
0.165,17.742309570312,-0.5555419921875,-17.492065429688
0.1655,15.820434570312,4.1690673828125,-20.054565429688
0.166,12.497192382812,8.6134033203125,-21.015502929688
0.1665,10.014770507812,12.136840820312,-21.976440429688
0.167,5.6505126953125,14.379028320312,-19.854370117188
0.1675,1.4063720703125,16.581176757812,-17.772338867188
0.168,-2.8377685546875,18.543090820312,-15.690307617188
0.1685,-7.9627685546875,21.025512695312,-13.127807617188
0.169,-10.845581054688,21.946411132812,-11.245971679688
0.1695,-14.769409179688,21.425903320312,-6.9217529296875
0.17,-16.170776367188,20.184692382812,-4.1990966796875
0.1705,-18.813354492188,18.062622070312,0.5255126953125
0.171,-21.095581054688,16.220825195312,4.5694580078125
0.1715,-22.056518554688,12.777465820312,8.9737548828125
0.172,-23.137573242188,10.895629882812,11.816528320312
0.1725,-21.095581054688,6.6915283203125,14.058715820312
0.173,-19.574096679688,3.0079345703125,16.020629882812
0.1735,-17.452026367188,-1.6365966796875,18.342895507812
0.174,-14.929565429688,-6.9217529296875,20.945434570312
0.1745,-12.327026367188,-10.325073242188,21.626098632812
0.175,-8.3631591796875,-14.248901367188,21.505981445312
0.1755,-4.7596435546875,-15.730346679688,19.343872070312
0.176,0.4854736328125,-17.972534179688,16.941528320312
0.1765,4.2091064453125,-20.334838867188,15.099731445312
0.177,9.5743408203125,-22.376831054688,11.936645507812
0.1775,12.016723632812,-23.097534179688,10.214965820312
0.178,15.380004882812,-21.936401367188,5.8507080078125
