wavelength,x,y,z
0.0,-2.312255859375,3.813720703125,-1.591552734375
0.0005,-2.632568359375,3.413330078125,-0.910888671875
0.001,-3.072998046875,3.333251953125,-0.350341796875
0.0015,-3.193115234375,2.532470703125,0.610595703125
0.002,-3.513427734375,2.292236328125,1.131103515625
0.0025,-3.513427734375,1.571533203125,1.851806640625
0.003,-3.353271484375,1.091064453125,2.252197265625
0.0035,-3.153076171875,0.410400390625,2.772705078125
0.004,-2.912841796875,-0.270263671875,3.173095703125
0.0045,-2.392333984375,-1.071044921875,3.373291015625
0.005,-1.951904296875,-1.671630859375,3.533447265625
0.0055,-1.311279296875,-2.272216796875,3.533447265625
0.006,-0.510498046875,-2.712646484375,3.213134765625
0.0065,0.130126953125,-3.233154296875,3.213134765625
0.007,0.970947265625,-3.433349609375,2.532470703125
0.0075,1.531494140625,-3.753662109375,2.292236328125
0.008,2.052001953125,-3.753662109375,1.771728515625
0.0085,2.452392578125,-3.713623046875,1.331298828125
0.009,2.812744140625,-3.353271484375,0.650634765625
0.0095,3.173095703125,-3.153076171875,0.010009765625
0.01,3.333251953125,-2.352294921875,-1.031005859375
0.0105,3.533447265625,-2.031982421875,-1.591552734375
0.011,3.533447265625,-1.311279296875,-2.272216796875
0.0115,3.293212890625,-0.710693359375,-2.592529296875
0.012,3.173095703125,-0.150146484375,-3.153076171875
0.0125,2.692626953125,0.650634765625,-3.393310546875
0.013,2.292236328125,1.371337890625,-3.713623046875
0.0135,1.651611328125,1.931884765625,-3.673583984375
0.014,1.051025390625,2.532470703125,-3.633544921875
0.0145,0.210205078125,2.932861328125,-3.193115234375
0.015,-0.470458984375,3.453369140625,-3.153076171875
0.0155,-1.311279296875,3.573486328125,-2.432373046875
0.016,-1.791748046875,3.813720703125,-2.232177734375
0.0165,-2.272216796875,3.733642578125,-1.591552734375
0.017,-2.592529296875,3.533447265625,-1.071044921875
0.0175,-2.952880859375,3.213134765625,-0.390380859375
0.018,-3.193115234375,2.772705078125,0.290283203125
0.0185,-3.353271484375,2.252197265625,1.091064453125
0.019,-3.433349609375,1.771728515625,1.611572265625
0.0195,-3.393310546875,1.251220703125,2.172119140625
0.02,-3.113037109375,0.570556640625,2.532470703125
0.0205,-3.072998046875,0.010009765625,3.052978515625
0.021,-2.432373046875,-0.830810546875,3.213134765625
0.0215,-2.112060546875,-1.431396484375,3.533447265625
0.022,-1.431396484375,-1.991943359375,3.413330078125
0.0225,-0.830810546875,-2.512451171875,3.333251953125
0.023,-0.110107421875,-2.912841796875,3.052978515625
0.0235,0.530517578125,-3.313232421875,2.852783203125
0.024,1.291259765625,-3.553466796875,2.292236328125
0.0245,1.651611328125,-3.713623046875,2.132080078125
0.025,2.172119140625,-3.713623046875,1.611572265625
0.0255,2.452392578125,-3.393310546875,1.010986328125
0.026,2.932861328125,-3.273193359375,0.410400390625
0.0265,3.052978515625,-2.592529296875,-0.510498046875
0.027,3.373291015625,-2.312255859375,-1.151123046875
0.0275,3.333251953125,-1.671630859375,-1.671630859375
0.028,3.333251953125,-1.271240234375,-2.192138671875
0.0285,3.093017578125,-0.590576171875,-2.632568359375
0.029,3.012939453125,0.010009765625,-3.113037109375
0.0295,2.492431640625,0.810791015625,-3.353271484375
0.03,2.172119140625,1.331298828125,-3.553466796875
0.0305,1.491455078125,1.971923828125,-3.553466796875
0.031,0.810791015625,2.452392578125,-3.353271484375
0.0315,0.170166015625,2.972900390625,-3.193115234375
0.032,-0.590576171875,3.213134765625,-2.792724609375
0.0325,-1.191162109375,3.533447265625,-2.472412109375
0.033,-1.591552734375,3.533447265625,-2.112060546875
0.0335,-2.072021484375,3.573486328125,-1.711669921875
0.034,-2.392333984375,3.253173828125,-1.071044921875
0.0345,-2.832763671875,3.173095703125,-0.510498046875
0.035,-2.952880859375,2.532470703125,0.370361328125
0.0355,-3.273193359375,2.372314453125,0.890869140625
0.036,-3.233154296875,1.731689453125,1.491455078125
0.0365,-3.193115234375,1.291259765625,1.931884765625
0.037,-3.072998046875,0.610595703125,2.492431640625
0.0375,-2.832763671875,0.010009765625,2.852783203125
0.038,-2.432373046875,-0.790771484375,3.173095703125
0.0385,-1.991943359375,-1.311279296875,3.253173828125
0.039,-1.471435546875,-1.951904296875,3.333251953125
0.0395,-0.750732421875,-2.432373046875,3.133056640625
0.04,-0.190185546875,-2.952880859375,3.133056640625
0.0405,0.610595703125,-3.153076171875,2.612548828125
0.041,1.131103515625,-3.553466796875,2.532470703125
0.0415,1.571533203125,-3.553466796875,2.011962890625
0.042,1.971923828125,-3.553466796875,1.611572265625
0.0425,2.412353515625,-3.233154296875,0.890869140625
0.043,2.812744140625,-3.032958984375,0.290283203125
0.0435,3.052978515625,-2.472412109375,-0.590576171875
0.044,3.253173828125,-2.192138671875,-1.111083984375
0.0445,3.293212890625,-1.631591796875,-1.711669921875
0.045,3.173095703125,-1.111083984375,-2.192138671875
0.0455,3.133056640625,-0.470458984375,-2.752685546875
0.046,2.692626953125,0.290283203125,-3.072998046875
0.0465,2.452392578125,0.930908203125,-3.473388671875
0.047,1.851806640625,1.491455078125,-3.353271484375
0.0475,1.291259765625,2.092041015625,-3.473388671875
0.048,0.530517578125,2.572509765625,-3.193115234375
0.0485,-0.110107421875,3.012939453125,-3.032958984375
0.049,-0.830810546875,3.253173828125,-2.552490234375
0.0495,-1.311279296875,3.533447265625,-2.432373046875
0.05,-1.791748046875,3.533447265625,-1.951904296875
0.0505,-2.152099609375,3.453369140625,-1.431396484375
0.051,-2.632568359375,3.213134765625,-0.750732421875
0.0515,-2.832763671875,2.732666015625,0.010009765625
0.052,-3.153076171875,2.412353515625,0.690673828125
0.0525,-3.193115234375,1.931884765625,1.251220703125
0.053,-3.273193359375,1.531494140625,1.771728515625
0.0535,-3.072998046875,0.770751953125,2.252197265625
0.054,-2.992919921875,0.250244140625,2.732666015625
0.0545,-2.512451171875,-0.590576171875,3.052978515625
0.055,-2.192138671875,-1.151123046875,3.333251953125
0.0555,-1.551513671875,-1.751708984375,3.253173828125
0.056,-0.990966796875,-2.272216796875,3.213134765625
0.0565,-0.310302734375,-2.792724609375,3.052978515625
0.057,0.410400390625,-3.072998046875,2.732666015625
0.0575,1.091064453125,-3.473388671875,2.412353515625
0.058,1.451416015625,-3.553466796875,2.172119140625
0.0585,1.971923828125,-3.593505859375,1.691650390625
0.059,2.332275390625,-3.273193359375,1.010986328125
0.0595,2.812744140625,-3.153076171875,0.410400390625
0.06,2.972900390625,-2.512451171875,-0.510498046875
0.0605,3.333251953125,-2.272216796875,-1.151123046875
0.061,3.213134765625,-1.591552734375,-1.671630859375
0.0615,3.293212890625,-1.231201171875,-2.152099609375
0.062,3.052978515625,-0.470458984375,-2.672607421875
0.0625,2.852783203125,0.170166015625,-3.072998046875
0.063,2.412353515625,0.930908203125,-3.393310546875
0.0635,1.931884765625,1.451416015625,-3.473388671875
0.064,1.291259765625,2.092041015625,-3.473388671875
0.0645,0.570556640625,2.572509765625,-3.193115234375
0.065,0.010009765625,3.052978515625,-3.072998046875
0.0655,-0.830810546875,3.213134765625,-2.552490234375
0.066,-1.431396484375,3.613525390625,-2.392333984375
0.0665,-1.791748046875,3.493408203125,-1.871826171875
0.067,-2.272216796875,3.573486328125,-1.471435546875
0.0675,-2.552490234375,3.173095703125,-0.710693359375
0.068,-2.952880859375,2.932861328125,0.010009765625
0.0685,-3.113037109375,2.252197265625,0.770751953125
0.069,-3.353271484375,2.011962890625,1.291259765625
0.0695,-3.193115234375,1.371337890625,1.851806640625
0.07,-3.153076171875,0.930908203125,2.252197265625
0.0705,-2.912841796875,0.170166015625,2.772705078125
0.071,-2.552490234375,-0.510498046875,3.052978515625
0.0715,-2.192138671875,-1.231201171875,3.333251953125
0.072,-1.591552734375,-1.671630859375,3.213134765625
0.0725,-1.031005859375,-2.312255859375,3.373291015625
0.073,-0.310302734375,-2.712646484375,3.012939453125
0.0735,0.290283203125,-3.193115234375,2.892822265625
0.074,1.091064453125,-3.393310546875,2.332275390625
0.0745,1.531494140625,-3.593505859375,2.172119140625
0.075,1.931884765625,-3.553466796875,1.611572265625
0.0755,2.372314453125,-3.473388671875,1.171142578125
0.076,2.732666015625,-3.072998046875,0.450439453125
0.0765,3.012939453125,-2.712646484375,-0.310302734375
0.077,3.253173828125,-2.232177734375,-1.111083984375
0.0775,3.293212890625,-1.791748046875,-1.551513671875
0.078,3.293212890625,-1.231201171875,-2.112060546875
0.0785,3.093017578125,-0.630615234375,-2.552490234375
0.079,2.972900390625,0.050048828125,-3.072998046875
0.0795,2.492431640625,0.810791015625,-3.313232421875
0.08,2.172119140625,1.411376953125,-3.593505859375
0.0805,1.371337890625,1.931884765625,-3.353271484375
0.081,0.810791015625,2.532470703125,-3.393310546875
0.0815,0.010009765625,2.892822265625,-3.072998046875
0.082,-0.590576171875,3.293212890625,-2.872802734375
0.0825,-1.351318359375,3.573486328125,-2.392333984375
0.083,-1.711669921875,3.613525390625,-2.072021484375
0.0835,-2.232177734375,3.573486328125,-1.551513671875
0.084,-2.552490234375,3.333251953125,-0.950927734375
0.0845,-2.952880859375,3.052978515625,-0.270263671875
0.085,-3.072998046875,2.452392578125,0.570556640625
0.0855,-3.393310546875,2.092041015625,1.251220703125
0.086,-3.233154296875,1.531494140625,1.691650390625
0.0865,-3.353271484375,1.091064453125,2.252197265625
0.087,-2.952880859375,0.290283203125,2.652587890625
0.0875,-2.832763671875,-0.350341796875,3.093017578125
0.088,-2.272216796875,-1.151123046875,3.333251953125
0.0885,-1.791748046875,-1.711669921875,3.533447265625
0.089,-1.111083984375,-2.272216796875,3.333251953125
0.0895,-0.470458984375,-2.832763671875,3.213134765625
0.09,0.290283203125,-3.153076171875,2.892822265625
0.0905,0.970947265625,-3.393310546875,2.532470703125
0.091,1.651611328125,-3.753662109375,2.132080078125
0.0915,1.971923828125,-3.553466796875,1.651611328125
0.092,2.532470703125,-3.673583984375,1.211181640625
0.0925,2.772705078125,-3.193115234375,0.450439453125
0.093,3.173095703125,-2.912841796875,-0.270263671875
0.0935,3.333251953125,-2.192138671875,-1.151123046875
0.094,3.533447265625,-1.791748046875,-1.791748046875
0.0945,3.293212890625,-1.111083984375,-2.272216796875
0.095,3.293212890625,-0.630615234375,-2.712646484375
0.0955,2.932861328125,0.170166015625,-3.153076171875
0.096,2.572509765625,0.810791015625,-3.433349609375
0.0965,2.092041015625,1.571533203125,-3.713623046875
0.097,1.411376953125,2.052001953125,-3.553466796875
0.0975,0.770751953125,2.652587890625,-3.553466796875
0.098,0.010009765625,3.052978515625,-3.193115234375
0.0985,-0.670654296875,3.453369140625,-2.912841796875
0.099,-1.471435546875,3.653564453125,-2.312255859375
0.0995,-2.072021484375,3.853759765625,-1.951904296875
0.1,-2.352294921875,3.533447265625,-1.351318359375
0.1005,-2.832763671875,3.573486328125,-0.950927734375
0.101,-3.032958984375,3.012939453125,0.010009765625
0.1015,-3.273193359375,2.652587890625,0.610595703125
0.102,-3.473388671875,1.931884765625,1.491455078125
0.1025,-3.473388671875,1.531494140625,1.931884765625
0.103,-3.273193359375,0.890869140625,2.412353515625
0.1035,-3.113037109375,0.290283203125,2.812744140625
0.104,-2.792724609375,-0.510498046875,3.213134765625
0.1045,-2.272216796875,-1.191162109375,3.453369140625
0.105,-1.831787109375,-1.871826171875,3.693603515625
0.1055,-1.111083984375,-2.312255859375,3.333251953125
0.106,-0.510498046875,-2.912841796875,3.373291015625
0.1065,0.330322265625,-3.193115234375,2.892822265625
0.107,0.930908203125,-3.513427734375,2.652587890625
0.1075,1.731689453125,-3.713623046875,2.052001953125
0.108,2.132080078125,-3.793701171875,1.731689453125
0.1085,2.532470703125,-3.553466796875,1.131103515625
0.109,2.852783203125,-3.393310546875,0.610595703125
0.1095,3.133056640625,-2.872802734375,-0.270263671875
0.11,3.333251953125,-2.432373046875,-0.990966796875
0.1105,3.533447265625,-1.831787109375,-1.791748046875
0.111,3.333251953125,-1.271240234375,-2.152099609375
0.1115,3.333251953125,-0.710693359375,-2.712646484375
0.112,3.012939453125,0.010009765625,-3.032958984375
0.1125,2.772705078125,0.610595703125,-3.393310546875
0.113,2.212158203125,1.331298828125,-3.593505859375
0.1135,1.731689453125,1.931884765625,-3.713623046875
0.114,0.970947265625,2.412353515625,-3.393310546875
0.1145,0.330322265625,3.012939453125,-3.433349609375
0.115,-0.510498046875,3.253173828125,-2.912841796875
0.1155,-1.071044921875,3.533447265625,-2.632568359375
0.116,-1.871826171875,3.813720703125,-2.112060546875
0.1165,-2.112060546875,3.653564453125,-1.671630859375
0.117,-2.592529296875,3.613525390625,-1.151123046875
0.1175,-2.872802734375,3.213134765625,-0.510498046875
0.118,-3.193115234375,2.852783203125,0.250244140625
0.1185,-3.273193359375,2.252197265625,1.010986328125
0.119,-3.553466796875,1.851806640625,1.651611328125
0.1195,-3.233154296875,1.211181640625,2.011962890625
0.12,-3.353271484375,0.730712890625,2.612548828125
0.1205,-2.872802734375,0.010009765625,2.932861328125
0.121,-2.632568359375,-0.710693359375,3.333251953125
0.1215,-2.072021484375,-1.511474609375,3.533447265625
0.122,-1.551513671875,-1.951904296875,3.453369140625
0.1225,-0.790771484375,-2.512451171875,3.293212890625
0.123,-0.150146484375,-2.992919921875,3.133056640625
0.1235,0.570556640625,-3.273193359375,2.772705078125
0.124,1.251220703125,-3.553466796875,2.412353515625
0.1245,1.931884765625,-3.833740234375,2.011962890625
0.125,2.132080078125,-3.553466796875,1.531494140625
0.1255,2.692626953125,-3.633544921875,1.010986328125
0.126,2.892822265625,-3.072998046875,0.250244140625
0.1265,3.253173828125,-2.752685546875,-0.510498046875
0.127,3.413330078125,-2.112060546875,-1.351318359375
0.1275,3.533447265625,-1.671630859375,-1.911865234375
0.128,3.253173828125,-0.990966796875,-2.392333984375
0.1285,3.293212890625,-0.510498046875,-2.832763671875
0.129,2.852783203125,0.290283203125,-3.193115234375
0.1295,2.492431640625,0.930908203125,-3.513427734375
0.13,1.971923828125,1.771728515625,-3.833740234375
0.1305,1.291259765625,2.172119140625,-3.553466796875
0.131,0.610595703125,2.852783203125,-3.553466796875
0.1315,-0.190185546875,3.173095703125,-3.153076171875
0.132,-0.830810546875,3.533447265625,-2.832763671875
0.1325,-1.591552734375,3.693603515625,-2.272216796875
0.133,-2.112060546875,3.853759765625,-1.911865234375
0.1335,-2.432373046875,3.533447265625,-1.271240234375
0.134,-2.872802734375,3.533447265625,-0.790771484375
0.1345,-3.072998046875,2.892822265625,0.130126953125
0.135,-3.393310546875,2.532470703125,0.770751953125
0.1355,-3.553466796875,1.891845703125,1.651611328125
0.136,-3.473388671875,1.371337890625,2.052001953125
0.1365,-3.273193359375,0.690673828125,2.612548828125
0.137,-3.072998046875,0.130126953125,3.012939453125
0.1375,-2.712646484375,-0.710693359375,3.333251953125
0.138,-2.192138671875,-1.351318359375,3.533447265625
0.1385,-1.631591796875,-2.112060546875,3.693603515625
0.139,-0.830810546875,-2.552490234375,3.333251953125
0.1395,-0.270263671875,-3.193115234375,3.373291015625
0.14,0.610595703125,-3.353271484375,2.812744140625
0.1405,1.251220703125,-3.673583984375,2.532470703125
0.141,1.971923828125,-3.873779296875,1.931884765625
0.1415,2.412353515625,-3.793701171875,1.451416015625
0.142,2.772705078125,-3.553466796875,0.890869140625
0.1425,3.133056640625,-3.353271484375,0.290283203125
0.143,3.333251953125,-2.712646484375,-0.630615234375
0.1435,3.533447265625,-2.272216796875,-1.351318359375
0.144,3.693603515625,-1.591552734375,-2.232177734375
0.1445,3.333251953125,-0.990966796875,-2.512451171875
0.145,3.373291015625,-0.390380859375,-3.032958984375
0.1455,2.892822265625,0.330322265625,-3.353271484375
0.146,2.532470703125,1.091064453125,-3.713623046875
0.1465,1.931884765625,1.811767578125,-3.833740234375
0.147,1.331298828125,2.412353515625,-3.833740234375
0.1475,0.490478515625,2.812744140625,-3.393310546875
0.148,-0.190185546875,3.373291015625,-3.353271484375
0.1485,-1.031005859375,3.533447265625,-2.672607421875
0.149,-1.591552734375,3.773681640625,-2.392333984375
0.1495,-2.272216796875,3.893798828125,-1.791748046875
0.15,-2.552490234375,3.653564453125,-1.271240234375
0.1505,-2.952880859375,3.533447265625,-0.710693359375
0.151,-3.193115234375,3.052978515625,0.010009765625
0.1515,-3.353271484375,2.532470703125,0.770751953125
0.152,-3.473388671875,1.971923828125,1.451416015625
0.1525,-3.593505859375,1.451416015625,2.092041015625
0.153,-3.193115234375,0.770751953125,2.412353515625
0.1535,-3.273193359375,0.290283203125,2.972900390625
0.154,-2.712646484375,-0.510498046875,3.173095703125
0.1545,-2.392333984375,-1.111083984375,3.453369140625
0.155,-1.791748046875,-1.871826171875,3.573486328125
0.1555,-1.191162109375,-2.272216796875,3.453369140625
0.156,-0.510498046875,-2.792724609375,3.213134765625
0.1565,0.250244140625,-3.193115234375,3.052978515625
0.157,0.930908203125,-3.393310546875,2.572509765625
0.1575,1.491455078125,-3.713623046875,2.252197265625
0.158,2.052001953125,-3.833740234375,1.811767578125
0.1585,2.292236328125,-3.553466796875,1.291259765625
0.159,2.852783203125,-3.553466796875,0.770751953125
0.1595,3.012939453125,-2.912841796875,-0.110107421875
0.16,3.333251953125,-2.592529296875,-0.790771484375
0.1605,3.493408203125,-1.991943359375,-1.551513671875
0.161,3.493408203125,-1.551513671875,-1.991943359375
0.1615,3.213134765625,-0.870849609375,-2.472412109375
0.162,3.213134765625,-0.310302734375,-3.032958984375
0.1625,2.732666015625,0.530517578125,-3.353271484375
0.163,2.412353515625,1.131103515625,-3.593505859375
0.1635,1.851806640625,1.891845703125,-3.793701171875
0.164,1.131103515625,2.292236328125,-3.513427734375
0.1645,0.490478515625,2.932861328125,-3.473388671875
0.165,-0.350341796875,3.253173828125,-3.072998046875
0.1655,-1.031005859375,3.533447265625,-2.712646484375
0.166,-1.631591796875,3.773681640625,-2.272216796875
0.1665,-2.152099609375,3.813720703125,-1.831787109375
0.167,-2.512451171875,3.493408203125,-1.151123046875
0.1675,-2.952880859375,3.493408203125,-0.630615234375
0.168,-3.113037109375,2.732666015625,0.290283203125
0.1685,-3.393310546875,2.452392578125,0.970947265625
0.169,-3.553466796875,1.771728515625,1.771728515625
0.1695,-3.393310546875,1.251220703125,2.092041015625
0.17,-3.233154296875,0.610595703125,2.652587890625
0.1705,-3.032958984375,0.010009765625,3.052978515625
0.171,-2.552490234375,-0.830810546875,3.333251953125
0.1715,-2.072021484375,-1.471435546875,3.533447265625
0.172,-1.471435546875,-2.152099609375,3.653564453125
0.1725,-0.710693359375,-2.592529296875,3.253173828125
0.173,-0.110107421875,-3.193115234375,3.293212890625
0.1735,0.770751953125,-3.393310546875,2.652587890625
0.174,1.411376953125,-3.713623046875,2.412353515625
0.1745,2.011962890625,-3.833740234375,1.931884765625
0.175,2.412353515625,-3.713623046875,1.371337890625
0.1755,2.772705078125,-3.473388671875,0.770751953125
0.176,3.173095703125,-3.193115234375,0.130126953125
0.1765,3.333251953125,-2.512451171875,-0.830810546875
0.177,3.533447265625,-2.112060546875,-1.431396484375
0.1775,3.573486328125,-1.511474609375,-2.192138671875
0.178,3.253173828125,-0.830810546875,-2.552490234375
0.1785,3.213134765625,-0.270263671875,-3.072998046875
0.179,2.772705078125,0.530517578125,-3.353271484375
0.1795,2.412353515625,1.211181640625,-3.673583984375
0.18,1.771728515625,1.891845703125,-3.713623046875
0.1805,1.211181640625,2.412353515625,-3.713623046875
0.181,0.370361328125,2.852783203125,-3.273193359375
0.1815,-0.310302734375,3.333251953125,-3.193115234375
0.182,-1.151123046875,3.493408203125,-2.512451171875
0.1825,-1.631591796875,3.773681640625,-2.272216796875
0.183,-2.232177734375,3.813720703125,-1.751708984375
0.1835,-2.512451171875,3.533447265625,-1.191162109375
0.184,-2.912841796875,3.373291015625,-0.630615234375
0.1845,-3.072998046875,2.892822265625,0.170166015625
0.185,-3.273193359375,2.372314453125,0.890869140625
0.1855,-3.433349609375,1.891845703125,1.491455078125
0.186,-3.473388671875,1.411376953125,2.052001953125
0.1865,-3.113037109375,0.770751953125,2.332275390625
0.187,-3.153076171875,0.250244140625,2.892822265625
0.1875,-2.592529296875,-0.590576171875,3.093017578125
0.188,-2.272216796875,-1.151123046875,3.373291015625
