wavelength,x,y,z
0.0,-11.2509765625,8.48828125,2.3623046875
0.0005,-10.5302734375,9.4892578125,0.560546875
0.001,-10.1298828125,10.890625,-1.44140625
0.0015,-8.0478515625,10.5302734375,-3.203125
0.002,-6.7265625,10.5302734375,-4.484375
0.0025,-4.0439453125,10.5703125,-7.1669921875
0.003,-1.841796875,9.6494140625,-8.48828125
0.0035,0.240234375,9.369140625,-10.08984375
0.004,2.2822265625,8.2880859375,-11.05078125
0.0045,3.84375,6.6865234375,-10.890625
0.005,6.0458984375,4.7646484375,-11.2509765625
0.0055,8.6484375,2.162109375,-11.1708984375
0.006,9.689453125,0.0,-10.009765625
0.0065,11.37109375,-1.6416015625,-10.1298828125
0.007,11.7314453125,-3.7236328125,-8.408203125
0.0075,11.6513671875,-5.2451171875,-6.806640625
0.008,11.9716796875,-7.7275390625,-4.64453125
0.0085,11.3310546875,-9.4091796875,-2.2822265625
0.009,10.3701171875,-10.1298828125,-0.6005859375
0.0095,9.9296875,-11.4111328125,1.28125
0.01,7.52734375,-10.9306640625,3.283203125
0.0105,5.8857421875,-10.7705078125,4.8046875
0.011,3.2431640625,-10.890625,7.52734375
0.0115,0.880859375,-9.689453125,8.728515625
0.012,-0.880859375,-9.369140625,10.009765625
0.0125,-2.962890625,-8.2080078125,10.890625
0.013,-4.8447265625,-6.166015625,10.73046875
0.0135,-7.2470703125,-3.923828125,10.8505859375
0.014,-9.8095703125,-1.28125,10.73046875
0.0145,-10.5703125,1.041015625,9.208984375
0.015,-11.8916015625,2.2021484375,9.369140625
0.0155,-12.251953125,4.5244140625,7.3671875
0.016,-11.8916015625,6.2861328125,5.2451171875
0.0165,-12.1318359375,8.7685546875,2.962890625
0.017,-11.291015625,10.2900390625,0.4404296875
0.0175,-10.009765625,10.6103515625,-1.28125
0.018,-9.6494140625,11.771484375,-2.7626953125
0.0185,-6.806640625,11.2109375,-5.0048828125
0.019,-4.7646484375,10.810546875,-6.7265625
0.0195,-2.2021484375,10.970703125,-9.4091796875
0.02,0.48046875,9.44921875,-10.41015625
0.0205,1.841796875,8.96875,-11.2509765625
0.021,3.8837890625,7.7275390625,-12.091796875
0.0215,6.0859375,5.205078125,-11.69140625
0.022,8.48828125,2.6826171875,-11.611328125
0.0225,11.0107421875,0.0,-11.4111328125
0.023,11.37109375,-2.1220703125,-9.6494140625
0.0235,12.4921875,-3.0830078125,-9.76953125
0.024,12.732421875,-5.60546875,-7.5673828125
0.0245,12.171875,-7.52734375,-5.044921875
0.025,12.33203125,-9.9697265625,-2.7626953125
0.0255,11.291015625,-11.451171875,-0.2001953125
0.026,9.849609375,-11.291015625,1.3212890625
0.0265,9.3291015625,-12.2119140625,2.72265625
0.027,6.2861328125,-11.53125,5.205078125
0.0275,3.84375,-11.0107421875,7.046875
0.028,1.3212890625,-11.130859375,9.6494140625
0.0285,-1.3212890625,-9.369140625,10.490234375
0.029,-2.40234375,-8.888671875,10.970703125
0.0295,-4.564453125,-7.447265625,11.69140625
0.03,-6.88671875,-4.724609375,11.2509765625
0.0305,-9.3291015625,-2.0419921875,11.0107421875
0.031,-11.7314453125,0.720703125,10.73046875
0.0315,-11.771484375,2.5625,8.9287109375
0.032,-12.6123046875,3.5234375,8.80859375
0.0325,-12.8525390625,6.24609375,6.24609375
0.033,-12.171875,8.0078125,3.68359375
0.0335,-12.2119140625,10.41015625,1.2412109375
0.034,-11.05078125,11.771484375,-1.3212890625
0.0345,-9.4892578125,11.37109375,-2.5224609375
0.035,-8.80859375,12.091796875,-3.8837890625
0.0355,-5.525390625,11.451171875,-6.56640625
0.036,-3.04296875,10.810546875,-8.4482421875
0.0365,-0.4404296875,10.810546875,-10.9306640625
0.037,2.0419921875,9.0087890625,-11.53125
0.0375,2.9228515625,8.408203125,-11.8115234375
0.038,5.3251953125,6.646484375,-12.3720703125
0.0385,7.6875,3.8037109375,-11.8916015625
0.039,9.9296875,1.12109375,-11.4912109375
0.0395,12.171875,-1.4814453125,-11.1708984375
0.04,12.1318359375,-3.203125,-9.3291015625
0.0405,12.7724609375,-4.2841796875,-8.96875
0.041,12.9326171875,-7.1669921875,-6.166015625
0.0415,12.171875,-8.7685546875,-3.84375
0.042,12.01171875,-10.970703125,-1.3212890625
0.0425,10.8505859375,-12.0517578125,1.12109375
0.043,9.208984375,-11.53125,2.2421875
0.0435,8.0478515625,-12.01171875,3.84375
0.044,4.8046875,-11.4912109375,6.56640625
0.0445,2.40234375,-10.7705078125,8.2880859375
0.045,-0.2802734375,-10.5703125,10.650390625
0.0455,-2.40234375,-8.888671875,11.0107421875
0.046,-3.3232421875,-8.1279296875,11.130859375
0.0465,-5.9658203125,-5.92578125,11.611328125
0.047,-8.2080078125,-3.203125,11.130859375
0.0475,-10.1298828125,-0.80078125,10.5302734375
0.048,-12.1318359375,1.6416015625,10.169921875
0.0485,-12.01171875,3.4033203125,8.2080078125
0.049,-12.4921875,4.6044921875,7.4873046875
0.0495,-12.572265625,7.4873046875,4.6044921875
0.05,-11.7314453125,8.8486328125,2.482421875
0.0505,-11.4912109375,10.810546875,0.240234375
0.051,-10.25,11.6513671875,-2.001953125
0.0515,-8.6083984375,11.130859375,-3.203125
0.052,-7.126953125,11.4111328125,-4.96484375
0.0525,-4.0439453125,10.890625,-7.52734375
0.053,-1.841796875,10.2099609375,-8.96875
0.0535,0.6806640625,9.9296875,-11.0908203125
0.054,2.6025390625,8.248046875,-11.3310546875
0.0545,3.6435546875,7.3671875,-11.4111328125
0.055,6.40625,4.9248046875,-11.771484375
0.0555,8.4482421875,2.40234375,-11.2109375
0.056,10.08984375,0.16015625,-10.6103515625
0.0565,11.771484375,-2.001953125,-10.2900390625
0.057,11.69140625,-3.7236328125,-8.408203125
0.0575,12.01171875,-5.0048828125,-7.447265625
0.058,12.091796875,-7.7275390625,-4.7646484375
0.0585,11.2509765625,-8.8486328125,-2.72265625
0.059,11.0107421875,-10.5703125,-0.720703125
0.0595,9.7294921875,-11.2109375,1.4013671875
0.06,8.0478515625,-10.7705078125,2.5625
0.0605,6.3662109375,-10.970703125,4.5244140625
0.061,3.5634765625,-10.5703125,6.8466796875
0.0615,1.5615234375,-9.849609375,8.16796875
0.062,-0.720703125,-9.609375,10.08984375
0.0625,-2.6025390625,-8.0078125,10.2900390625
0.063,-3.8037109375,-6.88671875,10.3701171875
0.0635,-6.6865234375,-4.404296875,10.73046875
0.064,-8.48828125,-2.001953125,10.1298828125
0.0645,-9.9697265625,0.0400390625,9.609375
0.065,-11.4111328125,1.921875,9.1689453125
0.0655,-11.4111328125,3.68359375,7.287109375
0.066,-11.5712890625,5.1650390625,6.0458984375
0.0665,-11.7314453125,7.84765625,3.4833984375
0.067,-10.7705078125,8.80859375,1.521484375
0.0675,-10.5703125,10.330078125,-0.3203125
0.068,-9.1689453125,10.8505859375,-2.322265625
0.0685,-7.4072265625,10.3701171875,-3.603515625
0.069,-5.4853515625,10.6103515625,-5.765625
0.0695,-2.8828125,10.2099609375,-8.0078125
0.07,-0.880859375,9.4091796875,-9.12890625
0.0705,1.201171875,9.1689453125,-10.8505859375
0.071,3.1630859375,7.4072265625,-11.05078125
0.0715,4.64453125,5.92578125,-10.970703125
0.072,7.607421875,3.36328125,-11.4111328125
0.0725,9.2490234375,0.80078125,-10.5302734375
0.073,10.490234375,-1.0009765625,-9.9697265625
0.0735,11.771484375,-2.6826171875,-9.609375
0.074,11.6513671875,-4.564453125,-7.447265625
0.0745,11.6513671875,-6.24609375,-5.8056640625
0.075,11.8916015625,-8.888671875,-3.36328125
0.0755,10.5703125,-9.609375,-1.2412109375
0.076,10.3701171875,-10.8505859375,0.2802734375
0.0765,8.80859375,-11.291015625,2.40234375
0.077,6.56640625,-10.650390625,3.9638671875
0.0775,4.6044921875,-10.810546875,6.1259765625
0.078,1.921875,-10.3701171875,8.328125
0.0785,0.0,-9.2490234375,9.12890625
0.079,-1.8017578125,-9.048828125,10.5703125
0.0795,-4.00390625,-7.0869140625,10.810546875
0.08,-5.8056640625,-5.044921875,10.5302734375
0.0805,-8.6884765625,-2.5625,10.8505859375
0.081,-10.169921875,0.1201171875,9.7294921875
0.0815,-11.0107421875,1.5615234375,9.0888671875
0.082,-12.091796875,3.1630859375,8.568359375
0.0825,-11.8115234375,5.365234375,6.0859375
0.083,-11.611328125,7.1669921875,4.083984375
0.0835,-11.8515625,9.7294921875,1.7216796875
0.084,-10.169921875,10.08984375,-0.560546875
0.0845,-9.9697265625,11.0107421875,-1.681640625
0.085,-8.2080078125,11.291015625,-3.763671875
0.0855,-5.6455078125,10.5302734375,-5.5654296875
0.086,-3.5634765625,10.6103515625,-7.7275390625
0.0865,-0.880859375,10.009765625,-9.7294921875
0.087,1.0009765625,8.6884765625,-10.25
0.0875,2.4423828125,8.568359375,-11.4111328125
0.088,4.724609375,6.2861328125,-11.451171875
0.0885,6.6865234375,3.9638671875,-11.05078125
0.089,9.44921875,1.4013671875,-11.3310546875
0.0895,10.650390625,-1.1611328125,-10.0498046875
0.09,11.2109375,-2.2021484375,-9.4892578125
0.0905,12.1318359375,-3.763671875,-8.728515625
0.091,11.7314453125,-5.9658203125,-6.1259765625
0.0915,11.53125,-7.84765625,-4.00390625
0.092,11.5712890625,-10.2099609375,-1.6416015625
0.0925,9.8095703125,-10.330078125,0.3603515625
0.093,9.609375,-11.05078125,1.28125
0.0935,7.607421875,-11.130859375,3.443359375
0.094,5.044921875,-10.41015625,5.28515625
0.0945,2.9228515625,-10.5302734375,7.4873046875
0.095,0.3203125,-9.7294921875,9.2490234375
0.0955,-1.28125,-8.568359375,9.609375
0.096,-2.5625,-8.2880859375,10.5302734375
0.0965,-4.9248046875,-5.92578125,10.5302734375
0.097,-6.966796875,-3.603515625,10.169921875
0.0975,-9.689453125,-1.041015625,10.3701171875
0.098,-10.5703125,1.2412109375,9.0087890625
0.0985,-11.05078125,2.162109375,8.568359375
0.099,-11.7314453125,3.9638671875,7.447265625
0.0995,-11.3310546875,6.0859375,4.8447265625
0.1,-11.2509765625,8.0478515625,2.7626953125
0.1005,-11.05078125,10.169921875,0.48046875
0.101,-9.369140625,10.08984375,-1.28125
0.1015,-9.1689453125,10.73046875,-2.1220703125
0.102,-6.9267578125,10.6103515625,-4.3642578125
0.1025,-4.3642578125,9.9697265625,-6.2060546875
0.103,-2.2421875,10.08984375,-8.48828125
0.1035,0.3203125,9.12890625,-9.9697265625
0.104,1.5615234375,8.16796875,-10.169921875
0.1045,2.8828125,7.52734375,-11.05078125
0.105,5.4052734375,5.044921875,-10.9306640625
0.1055,7.3271484375,2.802734375,-10.5302734375
0.106,10.009765625,0.3203125,-10.6904296875
0.1065,10.6103515625,-1.681640625,-9.369140625
0.107,11.0908203125,-2.5625,-8.96875
0.1075,11.6513671875,-4.6044921875,-7.447265625
0.108,11.291015625,-6.646484375,-5.0048828125
0.1085,11.1708984375,-8.6083984375,-2.8828125
0.109,10.810546875,-10.4501953125,-0.640625
0.1095,9.208984375,-10.25,0.9208984375
0.11,8.80859375,-10.7705078125,1.841796875
0.1105,6.24609375,-10.650390625,4.2841796875
0.111,3.84375,-10.0498046875,6.0859375
0.1115,1.521484375,-10.08984375,8.4482421875
0.112,-0.8408203125,-9.048828125,9.6494140625
0.1125,-1.8818359375,-8.248046875,9.609375
0.113,-3.5634765625,-7.20703125,10.3701171875
0.1135,-6.24609375,-4.5244140625,10.3701171875
0.114,-7.9677734375,-2.2822265625,9.9296875
0.1145,-10.41015625,0.16015625,9.9296875
0.115,-10.890625,2.0419921875,8.48828125
0.1155,-11.2509765625,3.0830078125,7.84765625
0.116,-11.69140625,5.4453125,5.92578125
0.1165,-11.291015625,7.3671875,3.5234375
0.117,-10.9306640625,8.96875,1.521484375
0.1175,-10.5302734375,10.6904296875,-0.720703125
0.118,-8.7685546875,10.330078125,-2.2021484375
0.1185,-8.0078125,10.6103515625,-3.203125
0.119,-5.28515625,10.5302734375,-5.92578125
0.1195,-3.0029296875,9.8896484375,-7.52734375
0.12,-0.640625,9.7294921875,-9.689453125
0.1205,1.5615234375,8.6484375,-10.6904296875
0.121,2.6826171875,7.52734375,-10.650390625
0.1215,4.6044921875,6.0859375,-11.1708984375
0.122,7.287109375,3.4033203125,-11.05078125
0.1225,8.7685546875,1.201171875,-10.330078125
0.123,10.810546875,-0.9208984375,-10.3701171875
0.1235,11.2109375,-2.8427734375,-8.80859375
0.124,11.451171875,-3.9638671875,-7.8876953125
0.1245,11.8115234375,-6.40625,-5.765625
0.125,11.2509765625,-8.16796875,-3.443359375
0.1255,10.73046875,-9.44921875,-1.6015625
0.126,10.25,-10.890625,0.48046875
0.1265,8.328125,-10.490234375,2.08203125
0.127,7.20703125,-10.6103515625,3.283203125
0.1275,4.484375,-10.5703125,6.005859375
0.128,2.3623046875,-9.8095703125,7.3671875
0.1285,0.240234375,-9.6494140625,9.2490234375
0.129,-1.921875,-8.48828125,10.08984375
0.1295,-3.1630859375,-7.20703125,10.009765625
0.13,-5.365234375,-5.4052734375,10.41015625
0.1305,-7.84765625,-2.8427734375,10.2900390625
0.131,-9.0888671875,-0.640625,9.369140625
0.1315,-10.890625,1.1611328125,9.44921875
0.132,-11.1708984375,3.123046875,7.767578125
0.1325,-11.2509765625,4.32421875,6.56640625
0.133,-11.53125,6.7666015625,4.3642578125
0.1335,-10.9306640625,8.328125,2.162109375
0.134,-10.2900390625,9.44921875,0.4404296875
0.1345,-9.76953125,10.6904296875,-1.521484375
0.135,-7.767578125,10.2099609375,-3.0830078125
0.1355,-6.40625,10.25,-4.5244140625
0.136,-3.763671875,10.25,-7.126953125
0.1365,-1.6416015625,9.3291015625,-8.328125
0.137,0.3203125,9.12890625,-9.9697265625
0.1375,2.2822265625,7.927734375,-10.7705078125
0.138,3.763671875,6.4462890625,-10.650390625
0.1385,6.1259765625,4.404296875,-10.9306640625
0.139,8.4482421875,1.921875,-10.7705078125
0.1395,9.529296875,-0.240234375,-9.7294921875
0.14,11.0908203125,-1.6416015625,-9.8896484375
0.1405,11.3310546875,-3.6435546875,-8.087890625
0.141,11.291015625,-5.0849609375,-6.56640625
0.1415,11.611328125,-7.607421875,-4.3642578125
0.142,10.8505859375,-9.0087890625,-2.1220703125
0.1425,10.2099609375,-9.8896484375,-0.6005859375
0.143,9.5693359375,-10.970703125,1.28125
0.1435,7.287109375,-10.490234375,3.123046875
0.144,5.60546875,-10.41015625,4.724609375
0.1445,3.0830078125,-10.490234375,7.3271484375
0.145,0.8408203125,-9.3291015625,8.328125
0.1455,-0.8408203125,-9.2490234375,9.76953125
0.146,-2.9228515625,-7.8876953125,10.4501953125
0.1465,-4.64453125,-5.9658203125,10.2900390625
0.147,-7.1669921875,-3.68359375,10.5302734375
0.1475,-9.44921875,-1.1611328125,10.2099609375
0.148,-10.169921875,0.9609375,8.9287109375
0.1485,-11.53125,2.162109375,9.0888671875
0.149,-11.69140625,4.404296875,7.0068359375
0.1495,-11.4111328125,6.0859375,4.96484375
0.15,-11.771484375,8.6484375,2.7626953125
0.1505,-10.650390625,9.849609375,0.3603515625
0.151,-9.849609375,10.330078125,-1.12109375
0.1515,-9.12890625,11.2509765625,-2.7626953125
0.152,-6.4462890625,10.6103515625,-4.8046875
0.1525,-4.5244140625,10.3701171875,-6.56640625
0.153,-1.9619140625,10.4501953125,-9.12890625
0.1535,0.4404296875,8.888671875,-9.8896484375
0.154,1.681640625,8.6884765625,-10.9306640625
0.1545,3.84375,7.20703125,-11.53125
0.155,5.8056640625,4.9248046875,-11.130859375
0.1555,8.3681640625,2.4423828125,-11.2509765625
0.156,10.490234375,-0.2802734375,-10.73046875
0.1565,10.8505859375,-1.9619140625,-9.3291015625
0.157,11.931640625,-2.962890625,-9.4091796875
0.1575,12.01171875,-5.365234375,-7.046875
0.158,11.53125,-7.1669921875,-4.7646484375
0.1585,11.8115234375,-9.609375,-2.5625
0.159,10.4501953125,-10.5302734375,-0.16015625
0.1595,9.5693359375,-10.73046875,1.0009765625
0.16,8.6484375,-11.4111328125,2.642578125
0.1605,5.8056640625,-10.73046875,4.8046875
0.161,3.68359375,-10.4501953125,6.646484375
0.1615,1.2412109375,-10.41015625,9.0087890625
0.162,-1.0810546875,-8.7685546875,9.44921875
0.1625,-2.0419921875,-8.6083984375,10.3701171875
0.163,-4.2041015625,-6.806640625,10.7705078125
0.1635,-6.24609375,-4.4443359375,10.330078125
0.164,-8.8486328125,-1.921875,10.3701171875
0.1645,-10.5703125,0.6005859375,9.689453125
0.165,-10.7705078125,2.001953125,8.408203125
0.1655,-11.69140625,3.123046875,8.2880859375
0.166,-11.5712890625,5.525390625,5.7255859375
0.1665,-11.2109375,7.287109375,3.5234375
0.167,-11.4111328125,9.609375,1.3212890625
0.1675,-9.8896484375,10.2099609375,-0.9208984375
0.168,-9.208984375,10.3701171875,-1.8017578125
0.1685,-7.9677734375,10.810546875,-3.4833984375
0.169,-5.205078125,10.08984375,-5.5654296875
0.1695,-3.123046875,9.9296875,-7.4873046875
0.17,-0.720703125,9.6494140625,-9.6494140625
0.1705,1.2412109375,8.2080078125,-9.9296875
0.171,2.162109375,8.087890625,-10.6904296875
0.1715,4.484375,6.0859375,-10.890625
0.172,6.3662109375,3.8037109375,-10.5703125
0.1725,8.96875,1.28125,-10.5703125
0.173,10.330078125,-1.0009765625,-9.76953125
0.1735,10.490234375,-2.08203125,-8.8486328125
0.174,11.3310546875,-3.36328125,-8.3681640625
0.1745,11.2109375,-5.7255859375,-5.845703125
0.175,10.890625,-7.4072265625,-3.84375
0.1755,10.9306640625,-9.6494140625,-1.6416015625
0.176,9.44921875,-9.9296875,0.3203125
0.1765,8.9287109375,-10.1298828125,1.0810546875
0.177,7.3271484375,-10.41015625,2.962890625
0.1775,4.7646484375,-9.8896484375,4.9248046875
0.178,2.6826171875,-9.849609375,7.0068359375
0.1785,0.3603515625,-9.3291015625,8.80859375
0.179,-1.2412109375,-8.087890625,9.0087890625
0.1795,-2.2421875,-7.84765625,9.7294921875
0.18,-4.64453125,-5.60546875,9.9296875
0.1805,-6.5263671875,-3.4833984375,9.609375
0.181,-8.96875,-1.041015625,9.689453125
0.1815,-10.08984375,1.0009765625,8.7685546875
0.182,-10.2900390625,2.0419921875,7.927734375
0.1825,-10.970703125,3.68359375,7.046875
0.183,-10.8505859375,5.92578125,4.5244140625
0.1835,-10.5703125,7.4873046875,2.6826171875
0.184,-10.5302734375,9.5693359375,0.560546875
0.1845,-9.0087890625,9.609375,-1.201171875
0.185,-8.48828125,9.8095703125,-1.9619140625
0.1855,-6.486328125,9.9296875,-4.1240234375
0.186,-4.1640625,9.44921875,-6.0458984375
0.1865,-1.9619140625,9.369140625,-8.0478515625
0.187,0.2802734375,8.80859375,-9.5693359375
0.1875,1.521484375,7.6474609375,-9.6494140625
0.188,2.6826171875,7.0869140625,-10.2099609375
0.1885,5.365234375,4.6044921875,-10.41015625
0.189,7.046875,2.5625,-9.9697265625
0.1895,9.2490234375,0.400390625,-10.0498046875
0.19,10.169921875,-1.521484375,-9.048828125
0.1905,10.3701171875,-2.6025390625,-8.2080078125
0.191,10.890625,-4.4443359375,-6.88671875
0.1915,10.73046875,-6.56640625,-4.564453125
0.192,10.3701171875,-7.8876953125,-2.8427734375
0.1925,10.2099609375,-9.7294921875,-0.80078125
0.193,8.6484375,-9.689453125,0.880859375
0.1935,7.9677734375,-9.8896484375,1.7216796875
0.194,5.685546875,-10.009765625,4.083984375
0.1945,3.5634765625,-9.4892578125,5.765625
0.195,1.44140625,-9.3291015625,7.7275390625
0.1955,-0.640625,-8.6484375,9.0087890625
0.196,-1.8818359375,-7.4873046875,9.0888671875
0.1965,-3.36328125,-6.486328125,9.5693359375
0.197,-6.0859375,-4.00390625,9.7294921875
0.1975,-7.52734375,-2.001953125,9.208984375
0.198,-9.4892578125,0.0,9.2490234375
0.1985,-10.2099609375,1.8017578125,8.087890625
0.199,-10.41015625,2.962890625,7.0869140625
0.1995,-10.7705078125,5.044921875,5.4052734375
0.2,-10.5703125,6.966796875,3.2431640625
0.2005,-10.08984375,8.1279296875,1.521484375
0.201,-9.9296875,9.689453125,-0.400390625
0.2015,-8.2080078125,9.529296875,-1.9619140625
0.202,-7.2470703125,9.609375,-3.04296875
0.2025,-4.8447265625,9.7294921875,-5.4853515625
0.203,-2.802734375,9.208984375,-7.0068359375
0.2035,-0.8408203125,8.96875,-8.728515625
0.204,1.201171875,8.2080078125,-9.849609375
0.2045,2.5224609375,6.966796875,-9.8896484375
0.205,4.32421875,5.4853515625,-10.25
0.2055,6.966796875,3.04296875,-10.41015625
0.206,8.248046875,0.9609375,-9.609375
0.2065,9.9296875,-0.6806640625,-9.689453125
0.207,10.5302734375,-2.5224609375,-8.408203125
0.2075,10.6103515625,-3.84375,-7.20703125
0.208,10.9306640625,-6.0458984375,-5.3251953125
0.2085,10.6904296875,-7.8076171875,-3.203125
0.209,9.9697265625,-8.7685546875,-1.5615234375
0.2095,9.7294921875,-10.1298828125,0.16015625
0.21,7.767578125,-9.9697265625,1.921875
0.2105,6.5263671875,-9.8896484375,3.203125
0.211,4.1240234375,-10.009765625,5.765625
0.2115,1.9619140625,-9.2890625,7.1669921875
0.212,0.2802734375,-9.0087890625,8.6083984375
0.2125,-1.7216796875,-8.16796875,9.609375
0.213,-3.3232421875,-6.6064453125,9.609375
0.2135,-5.4453125,-4.7646484375,9.8896484375
0.214,-7.9677734375,-2.322265625,9.9697265625
0.2145,-9.0087890625,-0.2001953125,8.888671875
0.215,-10.490234375,1.201171875,9.0087890625
0.2155,-10.9306640625,3.1630859375,7.4873046875
0.216,-10.890625,4.6845703125,5.845703125
0.2165,-11.1708984375,7.046875,3.8037109375
0.217,-10.73046875,8.6484375,1.5615234375
0.2175,-9.7294921875,9.2490234375,0.0
0.218,-9.529296875,10.41015625,-1.6015625
0.2185,-7.20703125,10.169921875,-3.5634765625
0.219,-5.525390625,9.9296875,-5.044921875
0.2195,-3.1630859375,10.08984375,-7.6474609375
0.22,-0.8408203125,9.048828125,-8.8486328125
0.2205,0.7607421875,8.6884765625,-9.9296875
0.221,2.642578125,7.7275390625,-10.8505859375
0.2215,4.484375,5.7255859375,-10.650390625
0.222,6.7666015625,3.5634765625,-10.7705078125
0.2225,9.2490234375,1.0810546875,-10.6904296875
0.223,9.9296875,-1.041015625,-9.3291015625
0.2235,11.1708984375,-2.001953125,-9.529296875
0.224,11.53125,-4.1640625,-7.7275390625
0.2245,11.2109375,-5.8857421875,-5.685546875
