wavelength,x,y,z
0.0,9.0538330078125,-4.5594482421875,-5.6405029296875
0.0005,8.8135986328125,-2.8778076171875,-6.7615966796875
0.001,8.0528564453125,-1.1961669921875,-7.4822998046875
0.0015,7.1719970703125,0.6456298828125,-8.1629638671875
0.002,5.8907470703125,2.7276611328125,-8.5233154296875
0.0025,4.8096923828125,4.3292236328125,-8.6834716796875
0.003,3.2081298828125,5.6905517578125,-8.2030029296875
0.0035,1.7266845703125,6.9317626953125,-7.7625732421875
0.004,0.1251220703125,7.8526611328125,-7.0018310546875
0.0045,-1.7967529296875,8.6134033203125,-5.7205810546875
0.005,-3.8387451171875,9.3741455078125,-4.3592529296875
0.0055,-5.2401123046875,9.2940673828125,-2.8778076171875
0.006,-6.6014404296875,9.1339111328125,-1.3963623046875
0.0065,-7.5623779296875,8.5733642578125,0.0450439453125
0.007,-8.3231201171875,7.7325439453125,1.6065673828125
0.0075,-8.9637451171875,6.4112548828125,3.2882080078125
0.008,-9.4041748046875,5.2501220703125,4.7296142578125
0.0085,-9.1639404296875,3.6485595703125,5.8106689453125
0.009,-8.8035888671875,1.9268798828125,6.8917236328125
0.0095,-8.0428466796875,0.1651611328125,7.5723876953125
0.01,-7.0018310546875,-1.7166748046875,8.1729736328125
0.0105,-5.7205810546875,-3.7586669921875,8.6134033203125
0.011,-4.3592529296875,-5.1600341796875,8.3331298828125
0.0115,-2.7576904296875,-6.6014404296875,7.9727783203125
0.012,-1.3162841796875,-7.7225341796875,7.3721923828125
0.0125,0.3653564453125,-8.6033935546875,6.4913330078125
0.013,2.4073486328125,-9.2840576171875,5.0899658203125
0.0135,4.3292236328125,-9.9246826171875,3.7286376953125
0.014,5.5704345703125,-9.6444091796875,2.2071533203125
0.0145,6.8516845703125,-9.4442138671875,0.7657470703125
0.015,7.6524658203125,-8.6834716796875,-0.6756591796875
0.0155,8.3331298828125,-7.7225341796875,-2.2772216796875
0.016,8.9737548828125,-6.4012451171875,-3.9588623046875
0.0165,9.0938720703125,-5.1600341796875,-5.2000732421875
0.017,8.8536376953125,-3.4783935546875,-6.3612060546875
0.0175,8.2930908203125,-1.8367919921875,-7.2420654296875
0.018,7.4923095703125,0.0450439453125,-7.8826904296875
0.0185,6.3311767578125,1.9669189453125,-8.3231201171875
0.019,5.2100830078125,3.8887939453125,-8.7635498046875
0.0195,3.7686767578125,5.1300048828125,-8.3231201171875
0.02,2.2071533203125,6.6114501953125,-8.0028076171875
0.0205,0.6856689453125,7.5323486328125,-7.2420654296875
0.021,-1.0760498046875,8.4132080078125,-6.2410888671875
0.0215,-3.1981201171875,9.1339111328125,-4.7596435546875
0.022,-4.9598388671875,9.4542236328125,-3.2781982421875
0.0225,-6.2010498046875,9.1339111328125,-1.7967529296875
0.023,-7.4022216796875,8.8135986328125,-0.3553466796875
0.0235,-8.1629638671875,7.9727783203125,1.1260986328125
0.024,-8.7635498046875,6.8516845703125,2.7677001953125
0.0245,-9.4041748046875,5.5704345703125,4.4893798828125
0.025,-9.2440185546875,4.0489501953125,5.5303955078125
0.0255,-8.9637451171875,2.3673095703125,6.6915283203125
0.026,-8.2830810546875,0.6856689453125,7.4522705078125
0.0265,-7.3621826171875,-1.1561279296875,8.0528564453125
0.027,-6.0408935546875,-3.1981201171875,8.4532470703125
0.0275,-4.7196044921875,-4.9598388671875,8.5733642578125
0.028,-3.1580810546875,-6.2010498046875,8.0128173828125
0.0285,-1.6766357421875,-7.5223388671875,7.6925048828125
0.029,-0.1151123046875,-8.3231201171875,6.7315673828125
0.0295,1.7667236328125,-9.1239013671875,5.5704345703125
0.03,3.8887939453125,-9.8446044921875,4.0889892578125
0.0305,5.3702392578125,-9.7645263671875,2.5274658203125
0.031,6.5714111328125,-9.5242919921875,1.0860595703125
0.0315,7.5323486328125,-8.9637451171875,-0.3153076171875
0.032,8.2530517578125,-8.0428466796875,-1.8367919921875
0.0325,8.8135986328125,-6.8016357421875,-3.4783935546875
0.033,9.2540283203125,-5.5604248046875,-4.9998779296875
0.0335,8.8536376953125,-3.9588623046875,-6.0408935546875
0.034,8.5733642578125,-2.2772216796875,-7.0819091796875
0.0345,7.6925048828125,-0.5155029296875,-7.6424560546875
0.035,6.7716064453125,1.3262939453125,-8.2830810546875
0.0355,5.5303955078125,3.3682861328125,-8.6834716796875
0.036,4.1690673828125,4.8096923828125,-8.4832763671875
0.0365,2.6075439453125,6.1710205078125,-8.0428466796875
0.037,1.1661376953125,7.3321533203125,-7.5623779296875
0.0375,-0.4754638671875,8.1329345703125,-6.5614013671875
0.038,-2.3973388671875,8.8936767578125,-5.2801513671875
0.0385,-4.5194091796875,9.5343017578125,-3.8387451171875
0.039,-5.7606201171875,9.1339111328125,-2.1971435546875
0.0395,-7.0819091796875,8.9737548828125,-0.7957763671875
0.04,-7.8426513671875,8.2530517578125,0.6055908203125
0.0405,-8.5233154296875,7.2120361328125,2.2071533203125
0.041,-9.1639404296875,6.0108642578125,3.8487548828125
0.0415,-9.3641357421875,4.5694580078125,5.1700439453125
0.042,-9.0037841796875,3.0079345703125,6.2510986328125
0.0425,-8.6033935546875,1.3262939453125,7.2520751953125
0.043,-7.6824951171875,-0.4754638671875,7.8126220703125
0.0435,-6.5614013671875,-2.3973388671875,8.2930908203125
0.044,-5.2801513671875,-4.3992919921875,8.6134033203125
0.0445,-3.7186279296875,-5.7205810546875,8.1329345703125
0.045,-2.2371826171875,-7.0819091796875,7.8126220703125
0.0455,-0.7156982421875,-8.0028076171875,7.0518798828125
0.046,0.9659423828125,-8.7635498046875,6.0509033203125
0.0465,3.0079345703125,-9.5242919921875,4.6094970703125
0.047,4.8096923828125,-9.8846435546875,3.1680908203125
0.0475,6.0108642578125,-9.4842529296875,1.6065673828125
0.048,7.1719970703125,-9.2440185546875,0.2852783203125
0.0485,7.8126220703125,-8.3631591796875,-1.2362060546875
0.049,8.4532470703125,-7.3221435546875,-2.7176513671875
0.0495,9.0938720703125,-6.0809326171875,-4.4393310546875
0.05,8.9737548828125,-4.5194091796875,-5.5203857421875
0.0505,8.6534423828125,-2.8778076171875,-6.6815185546875
0.051,8.0528564453125,-1.2762451171875,-7.4022216796875
0.0515,7.1719970703125,0.5655517578125,-8.0028076171875
0.052,6.0108642578125,2.4874267578125,-8.4031982421875
0.0525,4.7696533203125,4.2891845703125,-8.6834716796875
0.053,3.2081298828125,5.4903564453125,-8.0828857421875
0.0535,1.7667236328125,6.8917236328125,-7.8026123046875
0.054,0.2052001953125,7.6925048828125,-6.9217529296875
0.0545,-1.5565185546875,8.4932861328125,-5.8406982421875
0.055,-3.6385498046875,9.2540283203125,-4.4393310546875
0.0555,-5.2000732421875,9.2540283203125,-2.8778076171875
0.056,-6.4412841796875,8.9737548828125,-1.4364013671875
0.0565,-7.5223388671875,8.5733642578125,0.0050048828125
0.057,-8.2030029296875,7.6524658203125,1.4864501953125
0.0575,-8.8436279296875,6.4913330078125,3.0479736328125
0.058,-9.4041748046875,5.2501220703125,4.7696533203125
0.0585,-9.0037841796875,3.6485595703125,5.7706298828125
0.059,-8.8436279296875,2.0469970703125,6.8917236328125
0.0595,-8.0028076171875,0.2852783203125,7.4923095703125
0.06,-7.0819091796875,-1.5965576171875,8.1329345703125
0.0605,-5.7606201171875,-3.5985107421875,8.5333251953125
0.061,-4.3192138671875,-5.2401123046875,8.3731689453125
0.0615,-2.7576904296875,-6.4813232421875,7.8927001953125
0.062,-1.3162841796875,-7.7225341796875,7.4923095703125
0.0625,0.3253173828125,-8.4832763671875,6.4512939453125
0.063,2.1671142578125,-9.2840576171875,5.2501220703125
0.0635,4.3292236328125,-9.9647216796875,3.7286376953125
0.064,5.6905517578125,-9.6444091796875,2.0870361328125
0.0645,6.8917236328125,-9.4842529296875,0.7657470703125
0.065,7.6925048828125,-8.7635498046875,-0.7156982421875
0.0655,8.3731689453125,-7.7625732421875,-2.3172607421875
0.066,8.9737548828125,-6.4813232421875,-3.9188232421875
0.0665,9.2540283203125,-5.0399169921875,-5.4403076171875
0.067,8.8135986328125,-3.3182373046875,-6.4012451171875
0.0675,8.4532470703125,-1.7166748046875,-7.4422607421875
0.068,7.4522705078125,0.1251220703125,-7.8826904296875
0.0685,6.4512939453125,1.9669189453125,-8.4432373046875
0.069,5.1300048828125,4.0489501953125,-8.8436279296875
0.0695,3.5684814453125,5.4503173828125,-8.4031982421875
0.07,2.0469970703125,6.7716064453125,-8.0028076171875
0.0705,0.4854736328125,7.8126220703125,-7.3221435546875
0.071,-1.2762451171875,8.5733642578125,-6.1610107421875
0.0715,-3.2781982421875,9.2940673828125,-4.8397216796875
0.072,-5.4002685546875,9.7344970703125,-3.1981201171875
0.0725,-6.5614013671875,9.1739501953125,-1.5164794921875
0.073,-7.8426513671875,8.9737548828125,-0.0750732421875
0.0735,-8.4832763671875,7.9727783203125,1.4063720703125
0.074,-9.0838623046875,6.8917236328125,3.0479736328125
0.0745,-9.6844482421875,5.4903564453125,4.8096923828125
0.075,-9.5643310546875,3.8087158203125,6.0909423828125
0.0755,-9.0438232421875,2.0469970703125,7.0919189453125
0.076,-8.4832763671875,0.3253173828125,7.9327392578125
0.0765,-7.3221435546875,-1.5965576171875,8.3331298828125
0.077,-6.1209716796875,-3.5584716796875,8.7335205078125
0.0775,-4.4793701171875,-5.6405029296875,8.8936767578125
0.078,-2.7176513671875,-6.9217529296875,8.1729736328125
0.0785,-1.2362060546875,-8.2030029296875,7.8126220703125
0.079,0.4854736328125,-8.9637451171875,6.6915283203125
0.0795,2.3673095703125,-9.6444091796875,5.3302001953125
0.08,4.4893798828125,-10.285034179688,3.8487548828125
0.0805,6.2110595703125,-10.365112304688,2.1671142578125
0.081,7.3321533203125,-9.7645263671875,0.4854736328125
0.0815,8.4132080078125,-9.2840576171875,-0.9158935546875
0.082,8.8536376953125,-8.0028076171875,-2.5174560546875
0.0825,9.3341064453125,-6.7615966796875,-4.0389404296875
0.083,9.8546142578125,-5.2000732421875,-5.8406982421875
0.0835,9.2540283203125,-3.2781982421875,-6.9217529296875
0.084,8.8135986328125,-1.5965576171875,-7.8426513671875
0.0845,7.8526611328125,0.2052001953125,-8.3631591796875
0.085,6.6915283203125,2.1671142578125,-8.8035888671875
0.0855,5.4102783203125,4.1690673828125,-9.1639404296875
0.086,3.6885986328125,6.0509033203125,-9.0037841796875
0.0865,1.9268798828125,7.1719970703125,-8.2030029296875
0.087,0.3653564453125,8.4532470703125,-7.7225341796875
0.0875,-1.5164794921875,9.0538330078125,-6.3211669921875
0.088,-3.4783935546875,9.6944580078125,-4.9197998046875
0.0885,-5.6405029296875,10.214965820312,-3.3182373046875
0.089,-7.0819091796875,9.8145751953125,-1.5565185546875
0.0895,-8.2030029296875,9.3341064453125,0.0050048828125
0.09,-9.0838623046875,8.5733642578125,1.5665283203125
0.0905,-9.5643310546875,7.1719970703125,3.2882080078125
0.091,-10.004760742188,5.8507080078125,4.8497314453125
0.0915,-10.285034179688,4.0889892578125,6.5714111328125
0.092,-9.4842529296875,2.0870361328125,7.4923095703125
0.0925,-9.0438232421875,0.3653564453125,8.4532470703125
0.093,-7.7225341796875,-1.6365966796875,8.7335205078125
0.0935,-6.3612060546875,-3.7186279296875,9.1339111328125
0.094,-4.7996826171875,-5.8006591796875,9.3341064453125
0.0945,-2.8778076171875,-7.4022216796875,8.8135986328125
0.095,-1.1961669921875,-8.5633544921875,8.0128173828125
0.0955,0.4854736328125,-9.6444091796875,7.2520751953125
0.096,2.6075439453125,-10.124877929688,5.4903564453125
0.0965,4.6094970703125,-10.765502929688,4.0489501953125
0.097,6.6915283203125,-11.085815429688,2.3272705078125
0.0975,7.8526611328125,-10.285034179688,0.5255126953125
0.098,8.9337158203125,-9.7645263671875,-0.9959716796875
0.0985,9.4942626953125,-8.6033935546875,-2.5975341796875
0.099,9.9346923828125,-7.0418701171875,-4.4393310546875
0.0995,10.295043945312,-5.5604248046875,-6.0408935546875
0.1,10.174926757812,-3.5985107421875,-7.5223388671875
0.1005,9.2540283203125,-1.5965576171875,-8.3231201171875
0.101,8.5733642578125,0.2052001953125,-9.0438232421875
0.1015,6.9718017578125,2.3673095703125,-9.2840576171875
0.102,5.6104736328125,4.4093017578125,-9.5643310546875
0.1025,3.9688720703125,6.4112548828125,-9.6444091796875
0.103,1.9268798828125,7.8126220703125,-8.7235107421875
0.1035,0.2852783203125,8.9737548828125,-8.0428466796875
0.104,-1.5565185546875,9.7344970703125,-6.8016357421875
0.1045,-3.9188232421875,10.214965820312,-4.9598388671875
0.105,-5.8807373046875,10.615356445312,-3.4383544921875
0.1055,-7.6824951171875,10.695434570312,-1.6365966796875
0.106,-8.6834716796875,9.7745361328125,0.1651611328125
0.1065,-9.7244873046875,9.2139892578125,1.6866455078125
0.107,-10.124877929688,7.6124267578125,3.5284423828125
0.1075,-10.525268554688,6.0509033203125,5.1700439453125
0.108,-10.765502929688,4.4093017578125,6.8516845703125
0.1085,-10.244995117188,2.3673095703125,7.9727783203125
0.109,-9.3240966796875,0.4053955078125,8.7335205078125
0.1095,-8.3631591796875,-1.5565185546875,9.2940673828125
0.11,-6.5614013671875,-3.8787841796875,9.5343017578125
0.1105,-5.1199951171875,-5.8006591796875,9.6143798828125
0.111,-3.1981201171875,-7.7225341796875,9.3341064453125
0.1115,-1.2762451171875,-8.8436279296875,8.3331298828125
0.112,0.3653564453125,-9.9647216796875,7.6524658203125
0.1125,2.4874267578125,-10.605346679688,6.0108642578125
0.113,4.7696533203125,-11.125854492188,4.2091064453125
0.1135,6.6114501953125,-11.286010742188,2.5675048828125
0.114,8.1329345703125,-10.925659179688,0.7657470703125
0.1145,8.9737548828125,-10.044799804688,-0.9158935546875
0.115,9.8946533203125,-9.2039794921875,-2.5174560546875
0.1155,10.214965820312,-7.4022216796875,-4.3992919921875
0.116,10.495239257812,-5.9207763671875,-5.9207763671875
0.1165,10.575317382812,-4.1590576171875,-7.4822998046875
0.117,9.7344970703125,-2.0770263671875,-8.4031982421875
0.1175,8.9337158203125,-0.1551513671875,-9.1239013671875
0.118,7.6124267578125,1.8868408203125,-9.4842529296875
0.1185,5.8907470703125,4.2091064453125,-9.7244873046875
0.119,4.4893798828125,6.0509033203125,-9.8045654296875
0.1195,2.5675048828125,7.7325439453125,-9.2840576171875
0.12,0.6456298828125,8.8135986328125,-8.2830810546875
0.1205,-1.0360107421875,9.7745361328125,-7.4422607421875
0.121,-3.3582763671875,10.295043945312,-5.5604248046875
0.1215,-5.4803466796875,10.855590820312,-3.8787841796875
0.122,-7.3621826171875,10.935668945312,-2.1971435546875
0.1225,-8.6434326171875,10.295043945312,-0.3553466796875
0.123,-9.5643310546875,9.5343017578125,1.2862548828125
0.1235,-10.244995117188,8.3331298828125,3.0079345703125
0.124,-10.605346679688,6.4512939453125,4.9698486328125
0.1245,-10.845581054688,4.9698486328125,6.4112548828125
0.125,-10.725463867188,3.1280517578125,7.8526611328125
0.1255,-9.7244873046875,1.0059814453125,8.6534423828125
0.126,-8.9237060546875,-0.9559326171875,9.4141845703125
0.1265,-7.2420654296875,-3.1981201171875,9.6143798828125
0.127,-5.5604248046875,-5.4803466796875,9.8546142578125
0.1275,-3.8787841796875,-7.2420654296875,9.6143798828125
0.128,-1.9168701171875,-8.7635498046875,8.8936767578125
0.1285,-0.1151123046875,-9.7645263671875,7.8927001953125
0.129,1.7667236328125,-10.685424804688,6.7716064453125
0.1295,4.3292236328125,-11.085815429688,4.6495361328125
0.13,6.2510986328125,-11.486206054688,3.0479736328125
0.1305,7.9327392578125,-11.286010742188,1.2862548828125
0.131,8.9737548828125,-10.525268554688,-0.4354248046875
0.1315,9.8546142578125,-9.6444091796875,-2.0369873046875
0.132,10.295043945312,-8.2030029296875,-3.8387451171875
0.1325,10.655395507812,-6.3612060546875,-5.7606201171875
0.133,10.695434570312,-4.7596435546875,-7.0819091796875
0.1335,10.295043945312,-2.7176513671875,-8.4031982421875
0.134,9.2540283203125,-0.6756591796875,-9.0037841796875
0.1345,8.2530517578125,1.2862548828125,-9.6444091796875
0.135,6.4112548828125,3.7286376953125,-9.8045654296875
0.1355,4.8497314453125,5.7706298828125,-9.9647216796875
0.136,3.1680908203125,7.4923095703125,-9.4842529296875
0.1365,1.1260986328125,8.6934814453125,-8.6834716796875
0.137,-0.5955810546875,9.6544189453125,-7.7625732421875
0.1375,-2.5975341796875,10.415161132812,-6.3612060546875
0.138,-5.2000732421875,10.935668945312,-4.2791748046875
0.1385,-7.0018310546875,11.055786132812,-2.5975341796875
0.139,-8.5233154296875,10.695434570312,-0.7957763671875
0.1395,-9.4442138671875,9.8145751953125,0.9259033203125
0.14,-10.244995117188,8.8936767578125,2.5274658203125
0.1405,-10.685424804688,7.0919189453125,4.4893798828125
0.141,-11.045776367188,5.4503173828125,6.2510986328125
0.1415,-10.845581054688,3.6885986328125,7.5323486328125
0.142,-10.244995117188,1.6466064453125,8.6534423828125
0.1425,-9.2440185546875,-0.3553466796875,9.2540283203125
0.143,-7.9627685546875,-2.5174560546875,9.6544189453125
0.1435,-6.0008544921875,-4.9998779296875,9.8946533203125
0.144,-4.4393310546875,-7.0018310546875,9.6544189453125
0.1445,-2.5174560546875,-8.4832763671875,9.2139892578125
0.145,-0.6356201171875,-9.6043701171875,8.2530517578125
0.1455,1.2061767578125,-10.485229492188,7.2120361328125
0.146,3.3282470703125,-11.045776367188,5.4903564453125
0.1465,5.7706298828125,-11.526245117188,3.5684814453125
0.147,7.3721923828125,-11.406127929688,1.8468017578125
0.1475,8.7735595703125,-10.885620117188,0.0450439453125
0.148,9.5743408203125,-9.9246826171875,-1.5565185546875
0.1485,10.214965820312,-8.8035888671875,-3.1981201171875
0.149,10.575317382812,-6.8817138671875,-5.2801513671875
0.1495,10.815551757812,-5.3201904296875,-6.7615966796875
0.15,10.415161132812,-3.4783935546875,-7.9627685546875
0.1505,9.6544189453125,-1.3963623046875,-8.8836669921875
0.151,8.6134033203125,0.6055908203125,-9.4041748046875
0.1515,7.1719970703125,2.7276611328125,-9.7645263671875
0.152,5.3302001953125,5.2100830078125,-9.9246826171875
0.1525,3.8087158203125,6.6915283203125,-9.6844482421875
0.153,1.9268798828125,8.2930908203125,-9.0438232421875
0.1535,0.0450439453125,9.2540283203125,-8.0428466796875
0.154,-1.7567138671875,10.134887695312,-6.9617919921875
0.1545,-4.1590576171875,10.615356445312,-4.9998779296875
0.155,-6.2811279296875,11.055786132812,-3.2781982421875
0.1555,-7.7625732421875,10.695434570312,-1.4764404296875
0.156,-9.0438232421875,10.134887695312,0.2452392578125
0.1565,-9.8045654296875,9.1739501953125,1.8468017578125
0.157,-10.405151367188,7.8927001953125,3.5684814453125
0.1575,-10.805541992188,6.0509033203125,5.6104736328125
0.158,-10.845581054688,4.4093017578125,6.9317626953125
0.1585,-10.405151367188,2.5274658203125,8.0928955078125
0.159,-9.5242919921875,0.5255126953125,8.8135986328125
0.1595,-8.4832763671875,-1.5164794921875,9.4141845703125
0.16,-6.7615966796875,-3.8387451171875,9.5743408203125
0.1605,-5.0799560546875,-6.1209716796875,9.8546142578125
0.161,-3.3983154296875,-7.7225341796875,9.2139892578125
0.1615,-1.3963623046875,-9.0037841796875,8.6134033203125
0.162,0.3253173828125,-9.8846435546875,7.5723876953125
0.1625,2.2071533203125,-10.605346679688,6.3311767578125
0.163,4.6495361328125,-11.165893554688,4.3292236328125
0.1635,6.6114501953125,-11.406127929688,2.6075439453125
0.164,7.9327392578125,-10.885620117188,0.8858642578125
0.1645,9.0137939453125,-10.244995117188,-0.7156982421875
0.165,9.6544189453125,-9.1639404296875,-2.3572998046875
0.1655,10.174926757812,-7.7225341796875,-4.1190185546875
0.166,10.575317382812,-5.9608154296875,-6.0408935546875
0.1665,10.375122070312,-4.3192138671875,-7.2020263671875
0.167,9.9346923828125,-2.3572998046875,-8.3231201171875
0.1675,8.8936767578125,-0.3953857421875,-8.9237060546875
0.168,7.6925048828125,1.5665283203125,-9.4041748046875
0.1685,6.0909423828125,3.8487548828125,-9.6444091796875
0.169,4.6094970703125,5.9708251953125,-9.8045654296875
0.1695,2.8077392578125,7.2520751953125,-9.1239013671875
0.17,0.9659423828125,8.6134033203125,-8.4432373046875
0.1705,-0.7156982421875,9.4542236328125,-7.4022216796875
0.171,-2.7176513671875,10.134887695312,-5.9608154296875
0.1715,-5.2000732421875,10.735473632812,-4.0789794921875
0.172,-6.9217529296875,10.695434570312,-2.3572998046875
0.1725,-8.2830810546875,10.214965820312,-0.6356201171875
0.173,-9.1639404296875,9.4542236328125,0.9259033203125
0.1735,-9.9246826171875,8.3731689453125,2.5675048828125
0.174,-10.325073242188,6.7315673828125,4.4493408203125
0.1745,-10.765502929688,5.1700439453125,6.2110595703125
0.175,-10.285034179688,3.3682861328125,7.2520751953125
0.1755,-9.8045654296875,1.4464111328125,8.3331298828125
0.176,-8.8035888671875,-0.5955810546875,8.8936767578125
0.1765,-7.5623779296875,-2.5975341796875,9.3341064453125
0.177,-5.8006591796875,-4.9998779296875,9.6143798828125
0.1775,-4.1590576171875,-6.7215576171875,9.4542236328125
0.178,-2.3172607421875,-8.0428466796875,8.7735595703125
