wavelength,x,y,z
0.0,-20.134643554688,-2.7176513671875,22.546997070312
0.0005,-17.492065429688,-8.2030029296875,25.309692382812
0.001,-13.728393554688,-12.927612304688,26.270629882812
0.0015,-8.6434326171875,-16.931518554688,25.109497070312
0.002,-5.3201904296875,-18.453002929688,23.467895507812
0.0025,0.6055908203125,-21.135620117188,20.424926757812
0.003,5.2100830078125,-24.218627929688,18.983520507812
0.0035,10.735473632812,-24.939331054688,14.258911132812
0.004,14.739379882812,-26.340698242188,11.736450195312
0.0045,17.942504882812,-23.938354492188,6.2110595703125
0.005,20.264770507812,-22.456909179688,2.3673095703125
0.0055,22.827270507812,-20.174682617188,-2.5574951171875
0.006,25.710083007812,-17.732299804688,-8.0028076171875
0.0065,25.549926757812,-13.167846679688,-12.407104492188
0.007,25.830200195312,-9.2039794921875,-16.731323242188
0.0075,23.628051757812,-5.6004638671875,-18.212768554688
0.008,21.265747070312,-0.3153076171875,-21.175659179688
0.0085,19.544067382812,4.3292236328125,-24.058471679688
0.009,15.580200195312,10.214965820312,-25.900268554688
0.0095,12.497192382812,14.098754882812,-26.821166992188
0.01,6.7315673828125,17.782348632812,-24.659057617188
0.0105,3.4083251953125,19.183715820312,-22.777221679688
0.011,-2.2772216796875,22.066528320312,-20.094604492188
0.0115,-7.4422607421875,25.109497070312,-18.132690429688
0.012,-12.687377929688,25.269653320312,-13.127807617188
0.0125,-16.531127929688,25.990356445312,-10.124877929688
0.013,-18.773315429688,23.387817382812,-5.2801513671875
0.0135,-21.495971679688,21.505981445312,-0.6356201171875
0.014,-23.898315429688,19.423950195312,4.0089111328125
0.0145,-26.140502929688,15.900512695312,9.8546142578125
0.015,-25.860229492188,11.896606445312,13.618286132812
0.0155,-25.139526367188,7.2120361328125,17.622192382812
0.016,-22.857299804688,3.8487548828125,18.743286132812
0.0165,-20.695190429688,-1.7967529296875,22.066528320312
0.017,-18.573120117188,-6.6815185546875,24.949340820312
0.0175,-14.048706054688,-12.327026367188,25.950317382812
0.018,-11.085815429688,-15.650268554688,26.510864257812
0.0185,-5.4403076171875,-18.653198242188,23.788208007812
0.019,-1.3162841796875,-20.414916992188,21.586059570312
0.0195,3.7686767578125,-23.097534179688,19.303833007812
0.02,9.6143798828125,-25.780151367188,16.180786132812
0.0205,13.818481445312,-25.459838867188,11.776489257812
0.021,17.742309570312,-25.339721679688,7.7725830078125
0.0215,19.383911132812,-22.817260742188,3.6485595703125
0.022,22.627075195312,-20.895385742188,-1.6365966796875
0.0225,24.629028320312,-18.533081054688,-6.0809326171875
0.023,26.230590820312,-14.328979492188,-11.886596679688
0.0235,25.910278320312,-10.765502929688,-15.329956054688
0.024,24.308715820312,-5.8006591796875,-18.573120117188
0.0245,21.986450195312,-2.3172607421875,-19.854370117188
0.025,20.184692382812,2.8477783203125,-23.217651367188
0.0255,17.021606445312,8.3731689453125,-25.660034179688
0.026,12.657348632812,13.257934570312,-26.100463867188
0.0265,9.2940673828125,16.701293945312,-26.140502929688
0.027,4.1290283203125,18.823364257812,-23.097534179688
0.0275,-0.6356201171875,21.145629882812,-20.855346679688
0.028,-5.0399169921875,23.628051757812,-19.053588867188
0.0285,-11.366088867188,25.830200195312,-14.889526367188
0.029,-14.889526367188,25.229614257812,-10.885620117188
0.0295,-18.292846679688,24.348754882812,-6.6014404296875
0.03,-19.934448242188,21.906372070312,-2.5574951171875
0.0305,-23.177612304688,20.184692382812,2.4473876953125
0.031,-24.699096679688,17.021606445312,7.2520751953125
0.0315,-25.860229492188,12.937622070312,12.497192382812
0.032,-25.499877929688,9.2940673828125,15.860473632812
0.0325,-23.217651367188,4.5294189453125,18.422973632812
0.033,-21.095581054688,0.6055908203125,20.184692382812
0.0335,-19.614135742188,-4.1990966796875,23.507934570312
0.034,-15.730346679688,-10.084838867188,25.549926757812
0.0345,-11.606323242188,-14.088745117188,25.349731445312
0.035,-7.8426513671875,-17.171752929688,24.669067382812
0.0355,-2.9178466796875,-18.973510742188,21.626098632812
0.036,1.9669189453125,-21.856323242188,19.784301757812
0.0365,6.4913330078125,-23.778198242188,17.301879882812
0.037,12.337036132812,-25.780151367188,13.458129882812
0.0375,15.740356445312,-24.819213867188,9.2139892578125
0.038,18.543090820312,-23.537963867188,5.0899658203125
0.0385,20.505004882812,-21.015502929688,0.6856689453125
0.039,23.868286132812,-19.694213867188,-4.1190185546875
0.0395,24.949340820312,-15.650268554688,-9.2840576171875
0.04,25.589965820312,-11.806518554688,-13.808471679688
0.0405,24.829223632812,-8.2030029296875,-16.811401367188
0.041,22.266723632812,-3.3983154296875,-19.093627929688
0.0415,20.344848632812,0.8858642578125,-21.455932617188
0.042,18.382934570312,5.8106689453125,-24.298706054688
0.0425,14.419067382812,11.536254882812,-26.140502929688
0.043,9.9346923828125,15.219848632812,-25.299682617188
0.0435,6.2911376953125,17.782348632812,-24.178588867188
0.044,1.2061767578125,19.664184570312,-21.055541992188
0.0445,-3.5985107421875,22.867309570312,-19.614135742188
0.045,-8.6033935546875,24.028442382812,-15.850463867188
0.0455,-13.488159179688,25.670043945312,-12.687377929688
0.046,-16.731323242188,24.108520507812,-8.0028076171875
0.0465,-19.213745117188,22.506958007812,-3.8787841796875
0.047,-21.295776367188,20.144653320312,0.6456298828125
0.0475,-24.298706054688,18.422973632812,5.4102783203125
0.048,-25.019409179688,14.058715820312,10.535278320312
0.0485,-25.139526367188,10.054809570312,14.739379882812
0.049,-24.018432617188,6.6514892578125,16.941528320312
0.0495,-21.335815429688,1.6866455078125,19.263793945312
0.05,-19.814331054688,-2.7176513671875,22.226684570312
0.0505,-16.691284179688,-7.7225341796875,24.108520507812
0.051,-13.608276367188,-12.687377929688,25.990356445312
0.0515,-8.5233154296875,-16.090698242188,24.268676757812
0.052,-4.8397216796875,-18.212768554688,22.747192382812
0.0525,0.3253173828125,-20.214721679688,19.784301757812
0.053,4.9698486328125,-23.618041992188,18.543090820312
0.0535,10.134887695312,-24.058471679688,13.978637695312
0.054,14.379028320312,-25.219604492188,10.935668945312
0.0545,16.941528320312,-23.497924804688,6.6915283203125
0.055,19.584106445312,-21.536010742188,2.0469970703125
0.0555,22.066528320312,-19.574096679688,-2.3572998046875
0.056,24.308715820312,-16.971557617188,-7.3221435546875
0.0565,25.109497070312,-13.328002929688,-11.886596679688
0.057,24.468872070312,-8.6834716796875,-15.890502929688
0.0575,23.027465820312,-5.7205810546875,-17.572143554688
0.058,20.424926757812,-0.6356201171875,-19.974487304688
0.0585,19.223754882812,4.0089111328125,-23.377807617188
0.059,14.859497070312,9.2139892578125,-24.218627929688
0.0595,12.296997070312,13.418090820312,-25.900268554688
0.06,7.1719970703125,16.300903320312,-23.618041992188
0.0605,3.2481689453125,18.422973632812,-21.816284179688
0.061,-1.5164794921875,20.625122070312,-19.373901367188
0.0615,-6.6014404296875,23.788208007812,-17.612182617188
0.062,-11.366088867188,24.148559570312,-13.287963867188
0.0625,-15.450073242188,24.308715820312,-9.3641357421875
0.063,-17.171752929688,22.747192382812,-6.1610107421875
0.0635,-19.974487304688,20.505004882812,-1.1160888671875
0.064,-22.617065429688,18.863403320312,3.3282470703125
0.0645,-23.898315429688,15.059692382812,8.3331298828125
0.065,-25.019409179688,12.216918945312,12.417114257812
0.0655,-23.417846679688,7.1719970703125,15.860473632812
0.066,-21.976440429688,4.2091064453125,17.542114257812
0.0665,-19.694213867188,-0.7156982421875,20.144653320312
0.067,-18.252807617188,-5.7606201171875,23.668090820312
0.0675,-13.728393554688,-10.565307617188,23.988403320312
0.068,-10.805541992188,-14.449096679688,24.949340820312
0.0685,-6.3612060546875,-16.531127929688,22.546997070312
0.069,-1.6766357421875,-19.013549804688,20.464965820312
0.0695,2.6876220703125,-21.335815429688,18.543090820312
0.07,8.2930908203125,-23.858276367188,15.540161132812
0.0705,12.176879882812,-24.418823242188,12.296997070312
0.071,16.180786132812,-23.417846679688,7.3721923828125
0.0715,17.622192382812,-22.056518554688,4.5694580078125
0.072,20.785278320312,-19.934448242188,-0.7156982421875
0.0725,23.427856445312,-18.092651367188,-5.3201904296875
0.073,23.948364257812,-13.728393554688,-10.325073242188
0.0735,24.949340820312,-11.045776367188,-14.128784179688
0.074,22.707153320312,-6.1610107421875,-16.691284179688
0.0745,21.105590820312,-2.5975341796875,-18.733276367188
0.075,19.223754882812,2.0469970703125,-21.455932617188
0.0755,16.661254882812,7.7725830078125,-24.538940429688
0.076,12.617309570312,11.816528320312,-24.578979492188
0.0765,8.6934814453125,15.820434570312,-24.578979492188
0.077,4.9698486328125,17.101684570312,-22.256713867188
0.0775,-0.3553466796875,20.024536132812,-20.014526367188
0.078,-4.5594482421875,22.426879882812,-18.252807617188
0.0785,-10.525268554688,24.188598632812,-14.128784179688
0.079,-13.808471679688,24.629028320312,-11.366088867188
0.0795,-17.171752929688,22.747192382812,-6.1610107421875
0.08,-18.853393554688,21.145629882812,-2.9178466796875
0.0805,-21.776245117188,19.343872070312,1.9268798828125
0.081,-24.178588867188,16.581176757812,7.0919189453125
0.0815,-24.218627929688,12.216918945312,11.496215820312
0.082,-24.699096679688,9.2139892578125,15.219848632812
0.0825,-22.056518554688,4.7296142578125,17.021606445312
0.083,-20.414916992188,0.4854736328125,19.784301757812
0.0835,-18.733276367188,-3.9188232421875,22.386840820312
0.084,-15.289916992188,-9.9246826171875,24.909301757812
0.0845,-11.686401367188,-13.247924804688,24.629028320312
0.085,-7.0018310546875,-16.731323242188,23.467895507812
0.0855,-3.2381591796875,-18.012573242188,21.065551757812
0.086,2.0069580078125,-21.215698242188,19.103637695312
0.0865,6.5714111328125,-23.337768554688,16.701293945312
0.087,11.896606445312,-24.458862304688,12.617309570312
0.0875,15.219848632812,-24.498901367188,9.4141845703125
0.088,17.902465820312,-22.336791992188,4.6094970703125
0.0885,20.144653320312,-20.494995117188,0.5255126953125
0.089,22.747192382812,-18.933471679688,-3.8387451171875
0.0895,24.629028320312,-15.329956054688,-9.4442138671875
0.09,24.188598632812,-11.245971679688,-13.087768554688
0.0905,23.988403320312,-7.6424560546875,-16.491088867188
0.091,21.265747070312,-3.5584716796875,-17.972534179688
0.0915,19.824340820312,1.2061767578125,-21.135620117188
0.092,17.462036132812,5.6905517578125,-23.217651367188
0.0925,13.738403320312,11.296020507812,-25.139526367188
0.093,10.094848632812,14.419067382812,-24.619018554688
0.0935,5.4102783203125,17.221801757812,-22.697143554688
0.094,1.4464111328125,18.623168945312,-20.254760742188
0.0945,-3.1981201171875,21.786254882812,-18.933471679688
0.095,-8.4832763671875,23.547973632812,-15.490112304688
0.0955,-12.767456054688,23.988403320312,-11.766479492188
0.096,-16.010620117188,23.507934570312,-8.1629638671875
0.0965,-18.052612304688,21.145629882812,-3.7186279296875
0.097,-20.575073242188,19.504028320312,0.5655517578125
0.0975,-22.617065429688,17.502075195312,4.5694580078125
0.098,-24.298706054688,13.818481445312,10.054809570312
0.0985,-23.698120117188,9.9346923828125,13.418090820312
0.099,-22.697143554688,6.2510986328125,16.180786132812
0.0995,-20.294799804688,2.3673095703125,17.662231445312
0.1,-19.373901367188,-2.1170654296875,21.185668945312
0.1005,-16.210815429688,-6.9217529296875,22.827270507812
0.101,-12.847534179688,-11.686401367188,24.228637695312
0.1015,-9.0838623046875,-14.729370117188,23.507934570312
0.102,-4.5194091796875,-16.971557617188,21.185668945312
0.1025,-0.2752685546875,-18.853393554688,19.103637695312
0.103,3.9288330078125,-21.856323242188,17.902465820312
0.1035,9.4542236328125,-23.457885742188,14.058715820312
0.104,13.097778320312,-23.578002929688,10.255004882812
0.1045,15.980590820312,-22.777221679688,6.8917236328125
0.105,18.182739257812,-20.494995117188,2.4473876953125
0.1055,21.185668945312,-19.293823242188,-1.9569091796875
0.106,22.627075195312,-16.370971679688,-6.2410888671875
0.1065,24.228637695312,-13.087768554688,-11.205932617188
0.107,23.307739257812,-8.9637451171875,-14.449096679688
0.1075,21.906372070312,-5.2000732421875,-16.851440429688
0.108,19.784301757812,-1.2362060546875,-18.733276367188
0.1085,18.903442382812,3.5284423828125,-22.536987304688
0.109,14.859497070312,8.6934814453125,-23.698120117188
0.1095,11.456176757812,12.937622070312,-24.498901367188
0.11,7.6925048828125,15.540161132812,-23.377807617188
0.1105,2.8477783203125,17.902465820312,-20.855346679688
0.111,-1.5965576171875,20.344848632812,-19.093627929688
0.1115,-6.2811279296875,22.787231445312,-16.971557617188
0.112,-11.366088867188,24.348754882812,-13.488159179688
0.1125,-15.089721679688,23.347778320312,-8.8035888671875
0.113,-17.452026367188,22.466918945312,-5.6805419921875
0.1135,-19.894409179688,19.984497070312,-0.7156982421875
0.114,-23.137573242188,18.703247070312,3.8887939453125
0.1145,-23.618041992188,14.659301757812,8.5733642578125
0.115,-24.979370117188,11.656372070312,12.937622070312
0.1155,-23.257690429688,7.2120361328125,15.860473632812
0.116,-21.656127929688,3.0079345703125,18.422973632812
0.1165,-19.453979492188,-1.5164794921875,20.665161132812
0.117,-17.812377929688,-6.6815185546875,24.148559570312
0.1175,-13.688354492188,-11.406127929688,24.789184570312
0.118,-9.4842529296875,-15.410034179688,24.588989257812
0.1185,-5.9207763671875,-17.331909179688,22.907348632812
0.119,-0.3553466796875,-20.014526367188,20.144653320312
0.1195,4.2091064453125,-22.777221679688,18.543090820312
0.12,9.5343017578125,-24.218627929688,14.739379882812
0.1205,13.578247070312,-25.579956054688,12.096801757812
0.121,17.221801757812,-23.497924804688,6.4112548828125
0.1215,19.263793945312,-22.256713867188,3.0479736328125
0.122,21.946411132812,-19.774291992188,-2.1170654296875
0.1225,24.989379882812,-17.852416992188,-7.1219482421875
0.123,24.669067382812,-13.087768554688,-11.686401367188
0.1235,25.469848632812,-9.8045654296875,-15.770385742188
0.124,23.187622070312,-5.5604248046875,-17.772338867188
0.1245,21.105590820312,-0.8358154296875,-20.454956054688
0.125,19.063598632812,3.7286376953125,-22.897338867188
0.1255,15.980590820312,9.3741455078125,-25.459838867188
0.126,12.497192382812,13.297973632812,-25.900268554688
0.1265,7.2120361328125,17.101684570312,-24.418823242188
0.127,3.9688720703125,18.422973632812,-22.577026367188
0.1275,-1.7567138671875,21.265747070312,-19.814331054688
0.128,-6.3612060546875,24.108520507812,-18.172729492188
0.1285,-11.726440429688,24.508911132812,-13.328002929688
0.129,-15.289916992188,25.469848632812,-10.765502929688
0.1295,-18.012573242188,22.787231445312,-5.4803466796875
0.13,-20.294799804688,21.225708007812,-1.4764404296875
0.1305,-22.657104492188,19.143676757812,3.0479736328125
0.131,-25.219604492188,16.340942382812,8.4532470703125
0.1315,-24.739135742188,12.056762695312,12.296997070312
0.132,-24.619018554688,7.9327392578125,16.340942382812
0.1325,-22.296752929688,4.5294189453125,17.502075195312
0.133,-20.214721679688,-0.5955810546875,20.545043945312
0.1335,-18.573120117188,-4.9998779296875,23.307739257812
0.134,-14.569213867188,-10.525268554688,24.749145507812
0.1345,-11.726440429688,-13.928588867188,25.349731445312
0.135,-6.2410888671875,-17.051635742188,22.987426757812
0.1355,-2.7576904296875,-18.573120117188,21.105590820312
0.136,2.2471923828125,-21.215698242188,18.903442382812
0.1365,7.3721923828125,-24.098510742188,16.661254882812
0.137,11.896606445312,-24.098510742188,12.216918945312
0.1375,15.660278320312,-24.458862304688,8.8536376953125
0.138,17.502075195312,-22.256713867188,4.8096923828125
0.1385,20.464965820312,-20.374877929688,0.0850830078125
0.139,22.707153320312,-18.613159179688,-3.9989013671875
0.1395,24.588989257812,-14.969604492188,-9.6043701171875
0.14,24.468872070312,-11.566284179688,-12.967651367188
0.1405,23.387817382812,-6.9217529296875,-16.611206054688
0.141,21.505981445312,-3.8787841796875,-17.772338867188
0.1415,19.784301757812,1.1260986328125,-21.015502929688
0.142,17.622192382812,6.0909423828125,-23.778198242188
0.1425,13.297973632812,11.175903320312,-24.619018554688
0.143,10.415161132812,14.579223632812,-25.099487304688
0.1435,5.3302001953125,16.981567382812,-22.456909179688
0.144,1.2462158203125,19.103637695312,-20.535034179688
0.1445,-3.1580810546875,21.706176757812,-18.933471679688
0.145,-9.0438232421875,24.268676757812,-15.690307617188
0.1455,-12.807495117188,24.028442382812,-11.846557617188
0.146,-16.651245117188,23.588012695312,-7.5623779296875
0.1465,-18.252807617188,21.465942382812,-3.8787841796875
0.147,-21.455932617188,19.864379882812,1.0860595703125
0.1475,-23.377807617188,17.542114257812,5.3702392578125
0.148,-24.739135742188,13.578247070312,10.815551757812
0.1485,-24.659057617188,10.214965820312,14.098754882812
0.149,-22.777221679688,5.3702392578125,17.141723632812
0.1495,-20.895385742188,1.9268798828125,18.863403320312
0.15,-19.494018554688,-3.0379638671875,22.186645507812
0.1505,-16.411010742188,-8.4832763671875,24.588989257812
0.151,-12.327026367188,-12.807495117188,24.789184570312
0.1515,-8.6834716796875,-16.210815429688,24.588989257812
0.152,-3.6385498046875,-18.332885742188,21.666137695312
0.1525,1.2862548828125,-21.015502929688,19.624145507812
0.153,5.4102783203125,-23.257690429688,17.822387695312
0.1535,11.416137695312,-25.379760742188,13.938598632812
0.154,14.859497070312,-24.619018554688,9.8546142578125
0.1545,18.222778320312,-23.457885742188,5.4503173828125
0.155,20.104614257812,-21.095581054688,1.1260986328125
0.1555,23.507934570312,-19.614135742188,-3.7987060546875
0.156,24.629028320312,-16.170776367188,-8.4031982421875
0.1565,25.549926757812,-12.286987304688,-13.287963867188
0.157,24.829223632812,-8.4432373046875,-16.531127929688
0.1575,22.466918945312,-3.5184326171875,-19.093627929688
0.158,20.344848632812,0.6856689453125,-21.135620117188
0.1585,18.743286132812,5.4102783203125,-24.298706054688
0.159,14.739379882812,11.055786132812,-25.940307617188
0.1595,10.415161132812,14.899536132812,-25.459838867188
0.16,6.5313720703125,17.822387695312,-24.458862304688
0.1605,1.3262939453125,19.784301757812,-21.335815429688
0.161,-3.5584716796875,22.627075195312,-19.494018554688
0.1615,-8.0828857421875,24.108520507812,-16.531127929688
0.162,-13.368041992188,25.830200195312,-13.007690429688
0.1625,-16.691284179688,24.388793945312,-8.2830810546875
0.163,-19.413940429688,22.867309570312,-4.0389404296875
0.1635,-21.375854492188,20.304809570312,0.5655517578125
0.164,-24.498901367188,18.743286132812,5.2501220703125
0.1645,-24.979370117188,14.539184570312,10.054809570312
0.165,-25.419799804688,10.735473632812,14.338989257812
0.1655,-24.098510742188,6.8917236328125,16.941528320312
0.166,-21.536010742188,1.9669189453125,19.303833007812
0.1665,-19.774291992188,-2.3572998046875,21.826293945312
0.167,-17.452026367188,-7.0819091796875,24.268676757812
0.1675,-13.968627929688,-12.206909179688,25.830200195312
0.168,-9.0037841796875,-15.730346679688,24.468872070312
0.1685,-5.2801513671875,-18.012573242188,22.947387695312
0.169,-0.1551513671875,-20.014526367188,19.904418945312
0.1695,4.4093017578125,-23.337768554688,18.783325195312
0.17,9.3341064453125,-23.978393554688,14.619262695312
0.1705,13.698364257812,-25.339721679688,11.736450195312
0.171,16.741333007812,-23.578002929688,6.9317626953125
0.1715,19.303833007812,-21.816284179688,2.6876220703125
0.172,21.586059570312,-19.734252929688,-1.7967529296875
0.1725,24.228637695312,-17.692260742188,-6.4813232421875
0.173,24.749145507812,-13.648315429688,-11.165893554688
0.1735,24.508911132812,-9.4842529296875,-15.129760742188
0.174,23.187622070312,-6.2811279296875,-17.091674804688
0.1745,20.625122070312,-1.2762451171875,-19.534057617188
0.175,19.423950195312,3.0479736328125,-22.657104492188
0.1755,15.700317382812,8.1329345703125,-23.978393554688
0.176,13.057739257812,12.497192382812,-25.619995117188
0.1765,7.7725830078125,15.820434570312,-23.698120117188
0.177,4.1290283203125,17.942504882812,-22.136596679688
0.1775,-0.9158935546875,20.024536132812,-19.534057617188
0.178,-5.4803466796875,23.347778320312,-18.252807617188
