wavelength,x,y,z
0.0,-6.115966796875,0.010009765625,5.895751953125
0.0005,-5.755615234375,1.211181640625,4.614501953125
0.001,-5.595458984375,2.612548828125,3.213134765625
0.0015,-5.355224609375,3.973876953125,1.851806640625
0.002,-5.114990234375,4.854736328125,0.970947265625
0.0025,-4.634521484375,5.375244140625,0.170166015625
0.003,-3.713623046875,5.575439453125,-0.990966796875
0.0035,-2.192138671875,5.695556640625,-2.512451171875
0.004,-0.830810546875,5.895751953125,-4.114013671875
0.0045,0.170166015625,6.015869140625,-5.155029296875
0.005,0.810791015625,6.216064453125,-6.035888671875
0.0055,1.771728515625,5.655517578125,-6.556396484375
0.006,3.173095703125,4.334228515625,-6.876708984375
0.0065,4.534423828125,2.852783203125,-7.076904296875
0.007,5.575439453125,1.331298828125,-6.916748046875
0.0075,6.055908203125,0.410400390625,-6.836669921875
0.008,6.095947265625,-0.390380859375,-6.516357421875
0.0085,5.855712890625,-1.391357421875,-5.675537109375
0.009,5.495361328125,-2.712646484375,-4.194091796875
0.0095,5.215087890625,-4.234130859375,-2.672607421875
0.01,4.934814453125,-5.315185546875,-1.431396484375
0.0105,4.614501953125,-6.075927734375,-0.630615234375
0.011,3.933837890625,-6.356201171875,0.290283203125
0.0115,2.692626953125,-6.436279296875,1.571533203125
0.012,1.171142578125,-6.596435546875,3.173095703125
0.0125,-0.310302734375,-6.676513671875,4.654541015625
0.013,-1.031005859375,-6.796630859375,5.615478515625
0.0135,-1.671630859375,-6.756591796875,6.336181640625
0.014,-2.792724609375,-5.955810546875,6.776611328125
0.0145,-4.194091796875,-4.474365234375,6.976806640625
0.015,-5.475341796875,-2.872802734375,7.056884765625
0.0155,-6.316162109375,-1.511474609375,6.856689453125
0.016,-6.596435546875,-0.750732421875,6.696533203125
0.0165,-6.476318359375,0.050048828125,6.176025390625
0.017,-6.115966796875,1.171142578125,5.054931640625
0.0175,-5.795654296875,2.532470703125,3.573486328125
0.018,-5.475341796875,4.013916015625,2.052001953125
0.0185,-5.155029296875,4.974853515625,0.930908203125
0.019,-4.834716796875,5.615478515625,0.170166015625
0.0195,-3.953857421875,5.775634765625,-0.830810546875
0.02,-2.552490234375,5.855712890625,-2.232177734375
0.0205,-1.031005859375,6.055908203125,-3.913818359375
0.021,0.210205078125,6.055908203125,-5.114990234375
0.0215,0.810791015625,6.256103515625,-6.035888671875
0.022,1.611572265625,6.015869140625,-6.636474609375
0.0225,2.852783203125,4.934814453125,-6.996826171875
0.023,4.214111328125,3.373291015625,-7.156982421875
0.0235,5.455322265625,1.771728515625,-7.076904296875
0.024,6.095947265625,0.610595703125,-6.916748046875
0.0245,6.256103515625,-0.270263671875,-6.756591796875
0.025,6.055908203125,-1.031005859375,-6.115966796875
0.0255,5.655517578125,-2.272216796875,-4.834716796875
0.026,5.375244140625,-3.713623046875,-3.233154296875
0.0265,5.054931640625,-4.994873046875,-1.831787109375
0.027,4.774658203125,-5.875732421875,-0.870849609375
0.0275,4.334228515625,-6.356201171875,0.010009765625
0.028,3.293212890625,-6.476318359375,1.010986328125
0.0285,1.811767578125,-6.556396484375,2.532470703125
0.029,0.290283203125,-6.676513671875,4.214111328125
0.0295,-0.790771484375,-6.756591796875,5.295166015625
0.03,-1.391357421875,-6.916748046875,6.135986328125
0.0305,-2.312255859375,-6.396240234375,6.656494140625
0.031,-3.673583984375,-5.074951171875,6.976806640625
0.0315,-5.034912109375,-3.553466796875,7.056884765625
0.032,-6.075927734375,-2.031982421875,6.976806640625
0.0325,-6.556396484375,-1.111083984375,6.816650390625
0.033,-6.596435546875,-0.390380859375,6.456298828125
0.0335,-6.396240234375,0.610595703125,5.615478515625
0.034,-5.955810546875,1.931884765625,4.214111328125
0.0345,-5.715576171875,3.533447265625,2.652587890625
0.035,-5.315185546875,4.734619140625,1.331298828125
0.0355,-5.074951171875,5.455322265625,0.490478515625
0.036,-4.354248046875,5.775634765625,-0.470458984375
0.0365,-3.153076171875,5.895751953125,-1.631591796875
0.037,-1.631591796875,6.055908203125,-3.353271484375
0.0375,-0.270263671875,6.095947265625,-4.794677734375
0.038,0.610595703125,6.256103515625,-5.755615234375
0.0385,1.291259765625,6.216064453125,-6.556396484375
0.039,2.372314453125,5.415283203125,-6.996826171875
0.0395,3.853759765625,3.933837890625,-7.197021484375
0.04,5.175048828125,2.292236328125,-7.277099609375
0.0405,6.015869140625,0.890869140625,-7.076904296875
0.041,6.336181640625,0.050048828125,-6.956787109375
0.0415,6.216064453125,-0.790771484375,-6.396240234375
0.042,5.895751953125,-1.831787109375,-5.275146484375
0.0425,5.535400390625,-3.313232421875,-3.753662109375
0.043,5.215087890625,-4.794677734375,-2.192138671875
0.0435,4.854736328125,-5.755615234375,-1.031005859375
0.044,4.494384765625,-6.356201171875,-0.310302734375
0.0445,3.613525390625,-6.516357421875,0.730712890625
0.045,2.212158203125,-6.556396484375,2.132080078125
0.0455,0.610595703125,-6.716552734375,3.853759765625
0.046,-0.630615234375,-6.716552734375,5.054931640625
0.0465,-1.311279296875,-6.876708984375,5.935791015625
0.047,-2.031982421875,-6.596435546875,6.536376953125
0.0475,-3.193115234375,-5.555419921875,6.896728515625
0.048,-4.594482421875,-4.033935546875,7.016845703125
0.0485,-5.755615234375,-2.512451171875,6.976806640625
0.049,-6.396240234375,-1.271240234375,6.736572265625
0.0495,-6.556396484375,-0.630615234375,6.576416015625
0.05,-6.356201171875,0.290283203125,5.895751953125
0.0505,-5.915771484375,1.411376953125,4.654541015625
0.051,-5.635498046875,2.852783203125,3.173095703125
0.0515,-5.315185546875,4.134033203125,1.771728515625
0.052,-5.074951171875,5.014892578125,0.850830078125
0.0525,-4.634521484375,5.455322265625,0.130126953125
0.053,-3.713623046875,5.615478515625,-0.950927734375
0.0535,-2.272216796875,5.735595703125,-2.352294921875
0.054,-0.910888671875,5.895751953125,-3.953857421875
0.0545,0.210205078125,5.975830078125,-5.034912109375
0.055,0.770751953125,6.216064453125,-5.875732421875
0.0555,1.571533203125,5.775634765625,-6.396240234375
0.056,2.852783203125,4.614501953125,-6.716552734375
0.0565,4.174072265625,3.173095703125,-6.916748046875
0.057,5.255126953125,1.651611328125,-6.836669921875
0.0575,5.775634765625,0.730712890625,-6.796630859375
0.058,5.935791015625,0.130126953125,-6.596435546875
0.0585,5.735595703125,-0.790771484375,-5.915771484375
0.059,5.415283203125,-1.991943359375,-4.674560546875
0.0595,5.175048828125,-3.513427734375,-3.193115234375
0.06,4.934814453125,-4.674560546875,-1.951904296875
0.0605,4.814697265625,-5.515380859375,-1.151123046875
0.061,4.214111328125,-5.915771484375,-0.350341796875
0.0615,3.213134765625,-6.115966796875,0.810791015625
0.062,1.851806640625,-6.356201171875,2.332275390625
0.0625,0.450439453125,-6.436279296875,3.853759765625
0.063,-0.430419921875,-6.676513671875,4.854736328125
0.0635,-1.071044921875,-6.796630859375,5.735595703125
0.064,-2.031982421875,-6.236083984375,6.256103515625
0.0645,-3.353271484375,-4.994873046875,6.456298828125
0.065,-4.714599609375,-3.553466796875,6.656494140625
0.0655,-5.635498046875,-2.232177734375,6.536376953125
0.066,-6.075927734375,-1.391357421875,6.616455078125
0.0665,-6.115966796875,-0.710693359375,6.256103515625
0.067,-5.835693359375,0.330322265625,5.375244140625
0.0675,-5.635498046875,1.571533203125,4.134033203125
0.068,-5.395263671875,3.052978515625,2.692626953125
0.0685,-5.155029296875,4.134033203125,1.611572265625
0.069,-4.954833984375,4.814697265625,0.890869140625
0.0695,-4.314208984375,5.135009765625,0.050048828125
0.07,-3.153076171875,5.255126953125,-1.271240234375
0.0705,-1.831787109375,5.575439453125,-2.792724609375
0.071,-0.670654296875,5.695556640625,-4.073974609375
0.0715,0.050048828125,6.015869140625,-5.074951171875
0.072,0.770751953125,5.935791015625,-5.755615234375
0.0725,1.851806640625,5.135009765625,-6.236083984375
0.073,3.173095703125,3.853759765625,-6.476318359375
0.0735,4.454345703125,2.412353515625,-6.596435546875
0.074,5.175048828125,1.291259765625,-6.556396484375
0.0745,5.535400390625,0.690673828125,-6.556396484375
0.075,5.495361328125,0.010009765625,-6.115966796875
0.0755,5.255126953125,-1.111083984375,-5.114990234375
0.076,5.054931640625,-2.472412109375,-3.873779296875
0.0765,4.854736328125,-3.793701171875,-2.592529296875
0.077,4.734619140625,-4.754638671875,-1.671630859375
0.0775,4.494384765625,-5.395263671875,-0.990966796875
0.078,3.733642578125,-5.675537109375,0.010009765625
0.0785,2.572509765625,-5.835693359375,1.291259765625
0.079,1.211181640625,-6.115966796875,2.812744140625
0.0795,0.290283203125,-6.316162109375,3.973876953125
0.08,-0.430419921875,-6.636474609375,4.934814453125
0.0805,-1.191162109375,-6.436279296875,5.575439453125
0.081,-2.352294921875,-5.475341796875,5.935791015625
0.0815,-3.713623046875,-4.314208984375,6.216064453125
0.082,-4.794677734375,-2.872802734375,6.296142578125
0.0825,-5.435302734375,-1.951904296875,6.376220703125
0.083,-5.715576171875,-1.391357421875,6.296142578125
0.0835,-5.635498046875,-0.630615234375,5.735595703125
0.084,-5.435302734375,0.530517578125,4.774658203125
0.0845,-5.315185546875,1.931884765625,3.533447265625
0.085,-5.155029296875,3.133056640625,2.332275390625
0.0855,-5.074951171875,4.013916015625,1.571533203125
0.086,-4.674560546875,4.534423828125,0.850830078125
0.0865,-3.833740234375,4.814697265625,-0.270263671875
0.087,-2.712646484375,5.175048828125,-1.591552734375
0.0875,-1.511474609375,5.375244140625,-3.032958984375
0.088,-0.750732421875,5.695556640625,-4.114013671875
0.0885,-0.150146484375,5.935791015625,-4.994873046875
0.089,0.850830078125,5.575439453125,-5.555419921875
0.0895,2.092041015625,4.494384765625,-5.955810546875
0.09,3.453369140625,3.253173828125,-6.236083984375
0.0905,4.454345703125,2.052001953125,-6.276123046875
0.091,5.014892578125,1.331298828125,-6.436279296875
0.0915,5.135009765625,0.690673828125,-6.236083984375
0.092,5.054931640625,-0.270263671875,-5.595458984375
0.0925,4.934814453125,-1.351318359375,-4.594482421875
0.093,4.814697265625,-2.712646484375,-3.353271484375
0.0935,4.694580078125,-3.833740234375,-2.352294921875
0.094,4.654541015625,-4.634521484375,-1.711669921875
0.0945,4.134033203125,-5.074951171875,-0.990966796875
0.095,3.213134765625,-5.355224609375,0.290283203125
0.0955,2.132080078125,-5.755615234375,1.651611328125
0.096,1.051025390625,-5.955810546875,2.932861328125
0.0965,0.410400390625,-6.396240234375,3.973876953125
0.097,-0.350341796875,-6.516357421875,4.814697265625
0.0975,-1.391357421875,-6.035888671875,5.335205078125
0.098,-2.592529296875,-4.914794921875,5.695556640625
0.0985,-3.873779296875,-3.633544921875,5.935791015625
0.099,-4.754638671875,-2.592529296875,6.055908203125
0.0995,-5.195068359375,-2.031982421875,6.216064453125
0.1,-5.275146484375,-1.351318359375,5.895751953125
0.1005,-5.155029296875,-0.510498046875,5.175048828125
0.101,-5.155029296875,0.810791015625,4.214111328125
0.1015,-5.074951171875,2.092041015625,3.093017578125
0.102,-5.074951171875,3.133056640625,2.252197265625
0.1025,-4.914794921875,3.853759765625,1.571533203125
0.103,-4.394287109375,4.334228515625,0.770751953125
0.1035,-3.473388671875,4.654541015625,-0.510498046875
0.104,-2.352294921875,5.094970703125,-1.951904296875
0.1045,-1.471435546875,5.375244140625,-3.153076171875
0.105,-0.870849609375,5.815673828125,-4.194091796875
0.1055,0.010009765625,5.735595703125,-4.994873046875
0.106,1.211181640625,5.054931640625,-5.435302734375
0.1065,2.532470703125,3.973876953125,-5.835693359375
0.107,3.693603515625,2.692626953125,-6.075927734375
0.1075,4.494384765625,1.851806640625,-6.276123046875
0.108,4.894775390625,1.251220703125,-6.356201171875
0.1085,4.974853515625,0.530517578125,-5.955810546875
0.109,4.854736328125,-0.590576171875,-5.114990234375
0.1095,4.814697265625,-1.951904296875,-3.993896484375
0.11,4.774658203125,-3.193115234375,-2.912841796875
0.1105,4.774658203125,-4.154052734375,-2.152099609375
0.111,4.494384765625,-4.754638671875,-1.431396484375
0.1115,3.733642578125,-5.155029296875,-0.470458984375
0.112,2.692626953125,-5.555419921875,0.970947265625
0.1125,1.531494140625,-5.915771484375,2.412353515625
0.113,0.770751953125,-6.276123046875,3.533447265625
0.1135,0.050048828125,-6.596435546875,4.494384765625
0.114,-0.910888671875,-6.236083984375,5.175048828125
0.1145,-2.152099609375,-5.275146484375,5.575439453125
0.115,-3.553466796875,-3.993896484375,5.895751953125
0.1155,-4.554443359375,-2.832763671875,6.015869140625
0.116,-5.155029296875,-2.112060546875,6.216064453125
0.1165,-5.355224609375,-1.471435546875,6.055908203125
0.117,-5.275146484375,-0.630615234375,5.415283203125
0.1175,-5.195068359375,0.610595703125,4.454345703125
0.118,-5.155029296875,2.011962890625,3.213134765625
0.1185,-5.074951171875,3.173095703125,2.252197265625
0.119,-4.994873046875,3.973876953125,1.531494140625
0.1195,-4.474365234375,4.414306640625,0.770751953125
0.12,-3.553466796875,4.694580078125,-0.470458984375
0.1205,-2.432373046875,5.094970703125,-1.911865234375
0.121,-1.351318359375,5.375244140625,-3.193115234375
0.1215,-0.710693359375,5.735595703125,-4.234130859375
0.122,0.090087890625,5.855712890625,-5.074951171875
0.1225,1.171142578125,5.255126953125,-5.635498046875
0.123,2.492431640625,4.093994140625,-5.955810546875
0.1235,3.813720703125,2.692626953125,-6.156005859375
0.124,4.614501953125,1.691650390625,-6.276123046875
0.1245,5.094970703125,1.051025390625,-6.396240234375
0.125,5.094970703125,0.370361328125,-6.035888671875
0.1255,4.974853515625,-0.710693359375,-5.155029296875
0.126,4.894775390625,-1.991943359375,-4.033935546875
0.1265,4.774658203125,-3.313232421875,-2.832763671875
0.127,4.694580078125,-4.314208984375,-1.951904296875
0.1275,4.494384765625,-4.994873046875,-1.271240234375
0.128,3.813720703125,-5.315185546875,-0.390380859375
0.1285,2.692626953125,-5.635498046875,0.970947265625
0.129,1.491455078125,-5.955810546875,2.492431640625
0.1295,0.570556640625,-6.276123046875,3.653564453125
0.13,0.010009765625,-6.556396484375,4.614501953125
0.1305,-0.990966796875,-6.356201171875,5.335205078125
0.131,-2.192138671875,-5.435302734375,5.735595703125
0.1315,-3.553466796875,-4.194091796875,6.095947265625
0.132,-4.674560546875,-2.872802734375,6.216064453125
0.1325,-5.355224609375,-1.951904296875,6.296142578125
0.133,-5.635498046875,-1.351318359375,6.216064453125
0.1335,-5.515380859375,-0.590576171875,5.655517578125
0.134,-5.355224609375,0.610595703125,4.614501953125
0.1345,-5.275146484375,2.052001953125,3.373291015625
0.135,-5.114990234375,3.253173828125,2.252197265625
0.1355,-5.034912109375,4.134033203125,1.451416015625
0.136,-4.594482421875,4.614501953125,0.690673828125
0.1365,-3.713623046875,4.814697265625,-0.470458984375
0.137,-2.552490234375,5.215087890625,-1.871826171875
0.1375,-1.351318359375,5.415283203125,-3.313232421875
0.138,-0.590576171875,5.775634765625,-4.394287109375
0.1385,0.170166015625,6.015869140625,-5.275146484375
0.139,1.171142578125,5.495361328125,-5.835693359375
0.1395,2.532470703125,4.334228515625,-6.236083984375
0.14,3.933837890625,2.892822265625,-6.436279296875
0.1405,4.854736328125,1.651611328125,-6.436279296875
0.141,5.415283203125,0.930908203125,-6.556396484375
0.1415,5.455322265625,0.250244140625,-6.276123046875
0.142,5.255126953125,-0.830810546875,-5.395263671875
0.1425,5.094970703125,-2.112060546875,-4.194091796875
0.143,4.974853515625,-3.593505859375,-2.832763671875
0.1435,4.814697265625,-4.634521484375,-1.791748046875
0.144,4.614501953125,-5.435302734375,-1.071044921875
0.1445,3.893798828125,-5.755615234375,-0.190185546875
0.145,2.732666015625,-5.955810546875,1.211181640625
0.1455,1.371337890625,-6.276123046875,2.812744140625
0.146,0.290283203125,-6.396240234375,4.134033203125
0.1465,-0.510498046875,-6.716552734375,5.094970703125
0.147,-1.271240234375,-6.596435546875,5.855712890625
0.1475,-2.472412109375,-5.715576171875,6.296142578125
0.148,-3.913818359375,-4.274169921875,6.576416015625
0.1485,-5.195068359375,-2.752685546875,6.656494140625
0.149,-5.915771484375,-1.631591796875,6.536376953125
0.1495,-6.196044921875,-0.950927734375,6.496337890625
0.15,-6.115966796875,0.010009765625,5.895751953125
0.1505,-5.755615234375,1.131103515625,4.614501953125
0.151,-5.635498046875,2.652587890625,3.253173828125
0.1515,-5.355224609375,3.973876953125,1.851806640625
0.152,-5.114990234375,4.854736328125,0.970947265625
0.1525,-4.634521484375,5.335205078125,0.170166015625
0.153,-3.713623046875,5.495361328125,-0.950927734375
0.1535,-2.272216796875,5.655517578125,-2.552490234375
0.154,-0.830810546875,5.895751953125,-4.114013671875
0.1545,0.210205078125,6.055908203125,-5.195068359375
0.155,0.850830078125,6.216064453125,-6.075927734375
0.1555,1.811767578125,5.655517578125,-6.596435546875
0.156,3.213134765625,4.294189453125,-6.916748046875
0.1565,4.614501953125,2.772705078125,-7.076904296875
0.157,5.615478515625,1.291259765625,-6.956787109375
0.1575,6.095947265625,0.330322265625,-6.796630859375
0.158,6.095947265625,-0.510498046875,-6.476318359375
0.1585,5.855712890625,-1.431396484375,-5.595458984375
0.159,5.415283203125,-2.752685546875,-4.154052734375
0.1595,5.175048828125,-4.274169921875,-2.592529296875
0.16,4.854736328125,-5.395263671875,-1.311279296875
0.1605,4.614501953125,-6.115966796875,-0.590576171875
0.161,3.893798828125,-6.396240234375,0.370361328125
0.1615,2.572509765625,-6.476318359375,1.611572265625
0.162,1.131103515625,-6.596435546875,3.253173828125
0.1625,-0.350341796875,-6.636474609375,4.694580078125
0.163,-1.111083984375,-6.756591796875,5.615478515625
0.1635,-1.711669921875,-6.716552734375,6.336181640625
0.164,-2.752685546875,-5.915771484375,6.736572265625
0.1645,-4.194091796875,-4.474365234375,6.936767578125
0.165,-5.475341796875,-2.872802734375,7.016845703125
0.1655,-6.276123046875,-1.511474609375,6.776611328125
0.166,-6.596435546875,-0.750732421875,6.696533203125
0.1665,-6.436279296875,0.090087890625,6.135986328125
0.167,-6.115966796875,1.131103515625,5.014892578125
0.1675,-5.755615234375,2.492431640625,3.573486328125
0.168,-5.435302734375,3.973876953125,2.052001953125
0.1685,-5.155029296875,4.934814453125,0.970947265625
0.169,-4.834716796875,5.535400390625,0.210205078125
0.1695,-4.033935546875,5.695556640625,-0.750732421875
0.17,-2.592529296875,5.775634765625,-2.112060546875
0.1705,-1.151123046875,6.015869140625,-3.793701171875
0.171,0.130126953125,6.055908203125,-5.074951171875
0.1715,0.770751953125,6.256103515625,-5.915771484375
0.172,1.531494140625,6.015869140625,-6.556396484375
0.1725,2.692626953125,4.974853515625,-6.916748046875
0.173,4.134033203125,3.453369140625,-7.076904296875
0.1735,5.415283203125,1.851806640625,-7.076904296875
0.174,6.015869140625,0.650634765625,-6.916748046875
0.1745,6.256103515625,0.010009765625,-6.756591796875
0.175,6.055908203125,-0.950927734375,-6.115966796875
0.1755,5.655517578125,-2.112060546875,-4.794677734375
0.176,5.415283203125,-3.593505859375,-3.313232421875
0.1765,5.094970703125,-4.994873046875,-1.871826171875
0.177,4.774658203125,-5.835693359375,-0.950927734375
0.1775,4.334228515625,-6.356201171875,-0.190185546875
0.178,3.333251953125,-6.436279296875,0.970947265625
0.1785,1.851806640625,-6.556396484375,2.492431640625
0.179,0.330322265625,-6.676513671875,4.134033203125
0.1795,-0.750732421875,-6.716552734375,5.255126953125
0.18,-1.351318359375,-6.916748046875,6.095947265625
0.1805,-2.272216796875,-6.396240234375,6.616455078125
0.181,-3.593505859375,-5.114990234375,6.856689453125
0.1815,-4.994873046875,-3.553466796875,7.056884765625
0.182,-6.035888671875,-2.031982421875,6.896728515625
0.1825,-6.556396484375,-1.111083984375,6.776611328125
0.183,-6.556396484375,-0.350341796875,6.456298828125
0.1835,-6.276123046875,0.610595703125,5.615478515625
0.184,-5.915771484375,1.931884765625,4.174072265625
0.1845,-5.675537109375,3.493408203125,2.612548828125
0.185,-5.315185546875,4.654541015625,1.291259765625
0.1855,-5.114990234375,5.415283203125,0.490478515625
0.186,-4.354248046875,5.735595703125,-0.430419921875
0.1865,-3.153076171875,5.815673828125,-1.631591796875
0.187,-1.631591796875,6.055908203125,-3.273193359375
0.1875,-0.270263671875,6.055908203125,-4.754638671875
0.188,0.610595703125,6.216064453125,-5.755615234375
