wavelength,x,y,z
0.0,4.484375,-5.125,0.0
0.0005,5.125,-5.0048828125,-0.720703125
0.001,4.96484375,-4.0439453125,-1.6015625
0.0015,5.044921875,-3.5634765625,-2.1220703125
0.002,5.0849609375,-2.162109375,-3.443359375
0.0025,4.6845703125,-1.3212890625,-3.8837890625
0.003,4.2841796875,-0.16015625,-4.6044921875
0.0035,3.763671875,0.80078125,-4.96484375
0.004,2.9228515625,1.6416015625,-4.96484375
0.0045,2.162109375,2.5224609375,-5.0849609375
0.005,1.0810546875,3.8037109375,-5.205078125
0.0055,0.080078125,4.1240234375,-4.5244140625
0.006,-0.80078125,4.884765625,-4.4443359375
0.0065,-1.681640625,4.884765625,-3.5634765625
0.007,-2.322265625,5.0849609375,-3.123046875
0.0075,-3.68359375,5.125,-1.841796875
0.008,-4.484375,5.044921875,-1.0009765625
0.0085,-4.8447265625,4.3642578125,0.080078125
0.009,-5.365234375,4.2041015625,0.6806640625
0.0095,-5.2451171875,3.2431640625,1.521484375
0.01,-5.28515625,2.72265625,2.08203125
0.0105,-5.4052734375,1.521484375,3.4033203125
0.011,-4.9248046875,0.6005859375,3.8037109375
0.0115,-4.6044921875,-0.5205078125,4.5244140625
0.012,-4.00390625,-1.4013671875,4.8046875
0.0125,-3.3232421875,-2.2021484375,4.884765625
0.013,-2.4423828125,-3.1630859375,4.9248046875
0.0135,-1.44140625,-4.244140625,4.96484375
0.014,-0.3603515625,-4.564453125,4.2841796875
0.0145,0.2802734375,-5.28515625,4.32421875
0.015,1.2412109375,-5.205078125,3.3232421875
0.0155,1.921875,-5.4453125,2.8427734375
0.016,3.2431640625,-5.525390625,1.6416015625
0.0165,3.8837890625,-5.3251953125,0.7607421875
0.017,4.32421875,-4.8046875,-0.16015625
0.0175,4.6044921875,-4.564453125,-0.720703125
0.018,4.5244140625,-3.6435546875,-1.44140625
0.0185,4.5244140625,-2.962890625,-2.08203125
0.019,4.724609375,-1.9619140625,-3.2431640625
0.0195,4.083984375,-1.0009765625,-3.603515625
0.02,3.9638671875,-0.080078125,-4.3642578125
0.0205,3.123046875,0.880859375,-4.404296875
0.021,2.6826171875,1.521484375,-4.6044921875
0.0215,1.76171875,2.5224609375,-4.64453125
0.022,0.9208984375,3.4033203125,-4.6845703125
0.0225,0.0,3.763671875,-4.0439453125
0.023,-0.640625,4.404296875,-4.1240234375
0.0235,-1.5615234375,4.32421875,-3.1630859375
0.024,-2.2021484375,4.5244140625,-2.72265625
0.0245,-3.4833984375,4.64453125,-1.6015625
0.025,-3.8837890625,4.32421875,-0.9208984375
0.0255,-4.484375,4.00390625,0.0
0.026,-4.64453125,3.6435546875,0.560546875
0.0265,-4.6845703125,3.0029296875,1.28125
0.027,-4.6845703125,2.2421875,1.9619140625
0.0275,-4.8447265625,1.4013671875,2.962890625
0.028,-4.244140625,0.3603515625,3.3232421875
0.0285,-4.2841796875,-0.3603515625,4.1240234375
0.029,-3.36328125,-1.28125,4.083984375
0.0295,-3.0830078125,-1.9619140625,4.404296875
0.03,-2.08203125,-3.0029296875,4.4443359375
0.0305,-1.3212890625,-3.68359375,4.32421875
0.031,-0.48046875,-4.1240234375,3.8837890625
0.0315,0.1201171875,-4.5244140625,3.763671875
0.032,1.0009765625,-4.564453125,2.9228515625
0.0325,1.76171875,-4.8447265625,2.4423828125
0.033,2.8828125,-5.0048828125,1.44140625
0.0335,3.1630859375,-4.564453125,0.6806640625
0.034,3.763671875,-4.5244140625,0.16015625
0.0345,3.763671875,-3.84375,-0.5205078125
0.035,3.9638671875,-3.443359375,-1.0810546875
0.0355,3.923828125,-2.5625,-1.921875
0.036,4.083984375,-1.9619140625,-2.6826171875
0.0365,3.5234375,-0.880859375,-3.0830078125
0.037,3.5634765625,-0.3203125,-3.7236328125
0.0375,2.72265625,0.6005859375,-3.763671875
0.038,2.482421875,1.2412109375,-4.1240234375
0.0385,1.5615234375,2.2822265625,-4.244140625
0.039,0.880859375,2.802734375,-4.0439453125
0.0395,0.16015625,3.36328125,-3.8837890625
0.04,-0.48046875,3.6435546875,-3.5634765625
0.0405,-1.28125,3.84375,-2.962890625
0.041,-2.1220703125,4.00390625,-2.322265625
0.0415,-3.04296875,4.1640625,-1.6015625
0.042,-3.36328125,3.7236328125,-0.80078125
0.0425,-3.923828125,3.8837890625,-0.400390625
0.043,-3.8837890625,3.123046875,0.3603515625
0.0435,-4.2041015625,2.8427734375,0.9208984375
0.044,-4.2041015625,1.921875,1.8818359375
0.0445,-4.244140625,1.28125,2.482421875
0.045,-3.84375,0.2802734375,3.04296875
0.0455,-3.763671875,-0.3203125,3.4833984375
0.046,-3.0830078125,-1.1611328125,3.6435546875
0.0465,-2.72265625,-1.841796875,3.923828125
0.047,-1.8818359375,-2.7626953125,4.0439453125
0.0475,-1.1611328125,-3.203125,3.68359375
0.048,-0.6806640625,-3.763671875,3.8037109375
0.0485,0.1201171875,-3.923828125,3.1630859375
0.049,0.80078125,-4.244140625,2.7626953125
0.0495,1.7216796875,-4.3642578125,1.921875
0.05,2.40234375,-4.404296875,1.44140625
0.0505,2.6826171875,-4.0439453125,0.7607421875
0.051,3.123046875,-4.1240234375,0.4404296875
0.0515,3.1630859375,-3.4033203125,-0.3203125
0.052,3.443359375,-3.203125,-0.8408203125
0.0525,3.5634765625,-2.3623046875,-1.76171875
0.053,3.443359375,-1.76171875,-2.2421875
0.0535,3.3232421875,-0.9609375,-2.8828125
0.054,3.0029296875,-0.3203125,-3.1630859375
0.0545,2.6025390625,0.48046875,-3.4833984375
0.055,2.08203125,1.201171875,-3.7236328125
0.0555,1.5615234375,1.9619140625,-3.8837890625
0.056,0.80078125,2.40234375,-3.603515625
0.0565,0.400390625,3.04296875,-3.84375
0.057,-0.5205078125,3.1630859375,-3.123046875
0.0575,-1.1611328125,3.5634765625,-2.8828125
0.058,-2.162109375,3.763671875,-2.001953125
0.0585,-2.6025390625,3.763671875,-1.5615234375
0.059,-3.1630859375,3.5634765625,-0.8408203125
0.0595,-3.4833984375,3.4833984375,-0.48046875
0.06,-3.68359375,2.8828125,0.3603515625
0.0605,-3.8837890625,2.482421875,1.0009765625
0.061,-4.1240234375,1.76171875,1.921875
0.0615,-3.8037109375,0.9208984375,2.3623046875
0.062,-3.84375,0.2802734375,3.0830078125
0.0625,-3.2431640625,-0.5205078125,3.203125
0.063,-2.962890625,-1.2412109375,3.603515625
0.0635,-2.2822265625,-2.08203125,3.7236328125
0.064,-1.6416015625,-2.72265625,3.8037109375
0.0645,-1.0009765625,-3.203125,3.4833984375
0.065,-0.5205078125,-3.68359375,3.4833984375
0.0655,0.48046875,-3.84375,2.6826171875
0.066,1.12109375,-4.1240234375,2.40234375
0.0665,1.9619140625,-4.244140625,1.6015625
0.067,2.322265625,-4.00390625,1.0810546875
0.0675,2.8427734375,-4.00390625,0.6005859375
0.068,2.9228515625,-3.5634765625,0.1201171875
0.0685,3.203125,-3.203125,-0.6005859375
0.069,3.3232421875,-2.6025390625,-1.28125
0.0695,3.4833984375,-2.0419921875,-2.001953125
0.07,3.04296875,-1.1611328125,-2.4423828125
0.0705,3.203125,-0.6806640625,-3.04296875
0.071,2.5224609375,0.16015625,-3.1630859375
0.0715,2.40234375,0.7607421875,-3.603515625
0.072,1.6015625,1.681640625,-3.7236328125
0.0725,1.0810546875,2.162109375,-3.7236328125
0.073,0.4404296875,2.6826171875,-3.5634765625
0.0735,-0.16015625,3.04296875,-3.4033203125
0.074,-1.0009765625,3.36328125,-2.7626953125
0.0745,-1.8017578125,3.68359375,-2.2822265625
0.075,-2.6025390625,3.84375,-1.6416015625
0.0755,-2.9228515625,3.5234375,-1.0009765625
0.076,-3.4833984375,3.6435546875,-0.6005859375
0.0765,-3.5634765625,2.9228515625,0.16015625
0.077,-3.923828125,2.642578125,0.8408203125
0.0775,-3.9638671875,1.8017578125,1.7216796875
0.078,-4.0439453125,1.201171875,2.40234375
0.0785,-3.603515625,0.2802734375,2.8828125
0.079,-3.603515625,-0.3203125,3.36328125
0.0795,-2.8427734375,-1.28125,3.5234375
0.08,-2.5224609375,-1.9619140625,3.84375
0.0805,-1.681640625,-2.8828125,3.84375
0.081,-1.0009765625,-3.36328125,3.603515625
0.0815,-0.400390625,-3.8037109375,3.5234375
0.082,0.48046875,-4.00390625,2.9228515625
0.0825,1.3212890625,-4.244140625,2.2822265625
0.083,2.0419921875,-4.32421875,1.6015625
0.0835,2.72265625,-4.32421875,1.0009765625
0.084,2.9228515625,-3.8837890625,0.3603515625
0.0845,3.283203125,-3.8837890625,0.0400390625
0.085,3.3232421875,-3.04296875,-0.8408203125
0.0855,3.5234375,-2.642578125,-1.44140625
0.086,3.5234375,-1.8017578125,-2.2421875
0.0865,3.36328125,-1.0810546875,-2.7626953125
0.087,3.0029296875,-0.3203125,-3.1630859375
0.0875,2.72265625,0.3203125,-3.4833984375
0.088,2.0419921875,1.28125,-3.68359375
0.0885,1.6015625,1.841796875,-3.84375
0.089,0.8408203125,2.6025390625,-3.8837890625
0.0895,0.16015625,2.962890625,-3.5634765625
0.09,-0.3603515625,3.4833984375,-3.4833984375
0.0905,-1.361328125,3.6435546875,-2.642578125
0.091,-2.1220703125,3.923828125,-2.2021484375
0.0915,-2.8828125,3.84375,-1.4013671875
0.092,-3.4833984375,3.84375,-0.80078125
0.0925,-3.7236328125,3.4033203125,-0.1201171875
0.093,-4.0439453125,3.283203125,0.2802734375
0.0935,-4.1640625,2.40234375,1.3212890625
0.094,-4.2841796875,1.921875,1.921875
0.0945,-4.2841796875,0.9609375,2.8427734375
0.095,-3.923828125,0.080078125,3.3232421875
0.0955,-3.603515625,-0.720703125,3.763671875
0.096,-3.0830078125,-1.5615234375,4.00390625
0.0965,-2.2822265625,-2.642578125,4.2041015625
0.097,-1.5615234375,-3.203125,4.083984375
0.0975,-0.720703125,-4.0439453125,4.083984375
0.098,0.0400390625,-4.2041015625,3.5634765625
0.0985,0.640625,-4.64453125,3.3232421875
0.099,1.921875,-4.8046875,2.2021484375
0.0995,2.6826171875,-4.8447265625,1.5615234375
0.1,3.36328125,-4.564453125,0.640625
0.1005,3.84375,-4.4443359375,0.0
0.101,3.84375,-3.8037109375,-0.640625
0.1015,4.00390625,-3.36328125,-1.2412109375
0.102,4.1240234375,-2.3623046875,-2.322265625
0.1025,3.8837890625,-1.6416015625,-2.802734375
0.103,3.84375,-0.720703125,-3.603515625
0.1035,3.203125,0.240234375,-3.84375
0.104,2.8427734375,0.880859375,-4.1240234375
0.1045,2.001953125,1.8017578125,-4.2841796875
0.105,1.28125,2.72265625,-4.484375
0.1055,0.4404296875,3.2431640625,-4.0439453125
0.106,-0.3203125,3.9638671875,-4.0439453125
0.1065,-1.0810546875,4.0439453125,-3.36328125
0.107,-1.7216796875,4.404296875,-3.0830078125
0.1075,-3.04296875,4.5244140625,-1.8818359375
0.108,-3.6435546875,4.4443359375,-1.1611328125
0.1085,-4.2841796875,4.1240234375,-0.3203125
0.109,-4.64453125,3.84375,0.3603515625
0.1095,-4.724609375,3.203125,1.0009765625
0.11,-4.8447265625,2.6025390625,1.76171875
0.1105,-5.0048828125,1.6015625,2.8828125
0.111,-4.564453125,0.720703125,3.36328125
0.1115,-4.5244140625,-0.240234375,4.2041015625
0.112,-3.763671875,-1.2412109375,4.404296875
0.1125,-3.3232421875,-1.9619140625,4.64453125
0.113,-2.2822265625,-3.1630859375,4.7646484375
0.1135,-1.4013671875,-4.083984375,4.8046875
0.114,-0.400390625,-4.5244140625,4.2041015625
0.1145,0.2802734375,-5.205078125,4.2041015625
0.115,1.28125,-5.2451171875,3.2431640625
0.1155,2.0419921875,-5.4453125,2.72265625
0.116,3.5234375,-5.60546875,1.44140625
0.1165,4.1240234375,-5.205078125,0.560546875
0.117,4.6044921875,-4.8447265625,-0.3603515625
0.1175,4.8447265625,-4.4443359375,-1.0009765625
0.118,4.7646484375,-3.5634765625,-1.8017578125
0.1185,4.7646484375,-2.72265625,-2.6025390625
0.119,4.884765625,-1.6416015625,-3.8037109375
0.1195,4.1240234375,-0.5205078125,-4.1240234375
0.12,4.00390625,0.3603515625,-4.8046875
0.1205,3.0029296875,1.3212890625,-4.8046875
0.121,2.482421875,2.0419921875,-4.9248046875
0.1215,1.361328125,3.283203125,-4.96484375
0.122,0.400390625,4.1240234375,-4.8447265625
0.1225,-0.640625,4.4443359375,-4.1640625
0.123,-1.28125,5.0048828125,-4.083984375
0.1235,-2.322265625,4.9248046875,-2.962890625
0.124,-3.0029296875,5.0048828125,-2.40234375
0.1245,-4.404296875,5.125,-1.1611328125
0.125,-4.8046875,4.564453125,-0.2001953125
0.1255,-5.28515625,4.2041015625,0.6005859375
0.126,-5.4453125,3.68359375,1.28125
0.1265,-5.3251953125,2.8427734375,2.0419921875
0.127,-5.28515625,1.921875,2.8828125
0.1275,-5.4453125,0.880859375,4.0439453125
0.128,-4.5244140625,-0.3603515625,4.32421875
0.1285,-4.5244140625,-1.1611328125,5.0849609375
0.129,-3.4033203125,-2.2421875,4.96484375
0.1295,-2.8427734375,-2.962890625,5.125
0.13,-1.6416015625,-4.1640625,5.0849609375
0.1305,-0.640625,-4.96484375,4.8447265625
0.131,0.400390625,-5.28515625,4.2041015625
0.1315,1.0810546875,-5.765625,4.00390625
0.132,2.2822265625,-5.7255859375,2.802734375
0.1325,2.962890625,-5.765625,2.162109375
0.133,4.32421875,-5.8056640625,0.880859375
0.1335,4.6845703125,-5.125,-0.16015625
0.134,5.0849609375,-4.8046875,-0.8408203125
0.1345,5.125,-4.0439453125,-1.6416015625
0.135,5.0849609375,-3.1630859375,-2.5224609375
0.1355,4.9248046875,-2.1220703125,-3.36328125
0.136,4.96484375,-1.0810546875,-4.404296875
0.1365,3.9638671875,0.16015625,-4.64453125
0.137,3.84375,0.8408203125,-5.205078125
0.1375,2.6025390625,2.08203125,-5.0849609375
0.138,2.001953125,2.802734375,-5.1650390625
0.1385,0.8408203125,3.923828125,-5.0849609375
0.139,-0.2001953125,4.6044921875,-4.6845703125
0.1395,-1.12109375,4.8447265625,-4.0439453125
0.14,-1.8818359375,5.205078125,-3.7236328125
0.1405,-3.0830078125,5.125,-2.482421875
0.141,-3.6435546875,5.0849609375,-1.841796875
0.1415,-4.8447265625,5.0849609375,-0.640625
0.142,-5.0048828125,4.32421875,0.2802734375
0.1425,-5.4453125,4.1240234375,0.9208984375
0.143,-5.4453125,3.1630859375,1.8017578125
0.1435,-5.4052734375,2.3623046875,2.5625
0.144,-5.205078125,1.1611328125,3.283203125
0.1445,-5.1650390625,0.2802734375,4.32421875
0.145,-4.2041015625,-0.9609375,4.484375
0.1455,-4.1640625,-1.521484375,5.0849609375
0.146,-2.8427734375,-2.7626953125,4.96484375
0.1465,-2.322265625,-3.36328125,5.044921875
0.147,-1.12109375,-4.5244140625,4.9248046875
0.1475,-0.1201171875,-5.0048828125,4.4443359375
0.148,0.640625,-5.3251953125,3.9638671875
0.1485,1.5615234375,-5.6455078125,3.36328125
0.149,2.6826171875,-5.60546875,2.2421875
0.1495,3.283203125,-5.4453125,1.5615234375
0.15,4.32421875,-5.4453125,0.5205078125
0.1505,4.4443359375,-4.64453125,-0.400390625
0.151,4.8046875,-4.5244140625,-0.880859375
0.1515,4.724609375,-3.36328125,-1.921875
0.152,4.8046875,-2.8828125,-2.642578125
0.1525,4.5244140625,-1.681640625,-3.443359375
0.153,4.404296875,-0.80078125,-4.1640625
0.1535,3.5634765625,0.3603515625,-4.3642578125
0.154,3.3232421875,1.0009765625,-4.7646484375
0.1545,2.1220703125,2.2021484375,-4.724609375
0.155,1.681640625,2.7626953125,-4.8046875
0.1555,0.560546875,3.763671875,-4.64453125
0.156,-0.3603515625,4.1240234375,-4.1240234375
0.1565,-1.0009765625,4.484375,-3.84375
0.157,-1.9619140625,4.64453125,-3.04296875
0.1575,-2.8828125,4.724609375,-2.2421875
0.158,-3.5634765625,4.5244140625,-1.44140625
0.1585,-4.3642578125,4.5244140625,-0.640625
0.159,-4.484375,3.8037109375,0.2802734375
0.1595,-4.8447265625,3.7236328125,0.640625
0.16,-4.7646484375,2.5224609375,1.6015625
0.1605,-4.8447265625,2.08203125,2.2421875
0.161,-4.8447265625,1.0009765625,3.2431640625
0.1615,-4.4443359375,0.16015625,3.7236328125
0.162,-3.8837890625,-0.80078125,4.1240234375
0.1625,-3.5634765625,-1.44140625,4.404296875
0.163,-2.5625,-2.5625,4.484375
0.1635,-2.001953125,-3.123046875,4.484375
0.164,-1.041015625,-4.0439453125,4.4443359375
0.1645,-0.16015625,-4.3642578125,3.84375
0.165,0.400390625,-4.8046875,3.763671875
0.1655,1.4814453125,-4.884765625,2.72265625
0.166,2.2421875,-5.044921875,2.162109375
0.1665,3.0029296875,-4.8447265625,1.2412109375
0.167,3.6435546875,-4.8046875,0.560546875
0.1675,3.8037109375,-4.1640625,-0.240234375
0.168,4.00390625,-4.1240234375,-0.640625
0.1685,4.0439453125,-3.04296875,-1.6416015625
0.169,4.083984375,-2.5625,-2.08203125
0.1695,4.00390625,-1.521484375,-3.04296875
0.17,3.5634765625,-0.640625,-3.4033203125
0.1705,3.2431640625,0.1201171875,-3.84375
0.171,2.6826171875,0.880859375,-4.00390625
0.1715,2.0419921875,1.8017578125,-4.2041015625
0.172,1.361328125,2.40234375,-4.1640625
0.1725,0.6005859375,3.1630859375,-4.1240234375
0.173,-0.2001953125,3.443359375,-3.603515625
0.1735,-0.640625,3.8837890625,-3.5634765625
0.174,-1.8017578125,3.923828125,-2.5625
0.1745,-2.3623046875,4.1640625,-2.2021484375
0.175,-3.1630859375,4.0439453125,-1.28125
0.1755,-3.5634765625,3.8837890625,-0.720703125
0.176,-3.923828125,3.4833984375,-0.1201171875
0.1765,-4.083984375,3.1630859375,0.400390625
0.177,-4.244140625,2.40234375,1.28125
0.1775,-4.244140625,1.921875,1.921875
0.178,-4.3642578125,1.041015625,2.802734375
0.1785,-3.84375,0.16015625,3.1630859375
0.179,-3.8037109375,-0.5205078125,3.68359375
0.1795,-2.962890625,-1.4013671875,3.8037109375
0.18,-2.5625,-2.2021484375,4.1240234375
0.1805,-1.7216796875,-2.8828125,3.923828125
0.181,-1.041015625,-3.5634765625,3.9638671875
0.1815,-0.3203125,-3.84375,3.5234375
0.182,0.2802734375,-4.244140625,3.3232421875
0.1825,1.361328125,-4.3642578125,2.40234375
0.183,1.921875,-4.5244140625,1.9619140625
0.1835,2.6826171875,-4.4443359375,1.1611328125
0.184,2.9228515625,-4.2041015625,0.6005859375
0.1845,3.283203125,-4.00390625,0.080078125
0.185,3.36328125,-3.4033203125,-0.6005859375
0.1855,3.6435546875,-2.8828125,-1.3212890625
0.186,3.4833984375,-2.1220703125,-1.921875
0.1865,3.603515625,-1.44140625,-2.642578125
0.187,3.04296875,-0.6005859375,-2.9228515625
0.1875,3.04296875,-0.080078125,-3.4033203125
0.188,2.2421875,0.880859375,-3.5234375
0.1885,2.001953125,1.4013671875,-3.84375
0.189,1.1611328125,2.162109375,-3.7236328125
0.1895,0.640625,2.642578125,-3.68359375
0.19,0.0,3.04296875,-3.36328125
0.1905,-0.640625,3.3232421875,-3.0830078125
0.191,-1.5615234375,3.5634765625,-2.4423828125
0.1915,-2.08203125,3.6435546875,-1.9619140625
0.192,-2.8427734375,3.7236328125,-1.361328125
0.1925,-3.0830078125,3.36328125,-0.80078125
0.193,-3.5634765625,3.4033203125,-0.400390625
0.1935,-3.5634765625,2.72265625,0.4404296875
0.194,-4.00390625,2.4423828125,1.12109375
0.1945,-3.8837890625,1.5615234375,1.841796875
0.195,-4.00390625,1.0009765625,2.5224609375
0.1955,-3.5634765625,0.080078125,2.9228515625
0.196,-3.5234375,-0.48046875,3.36328125
0.1965,-2.72265625,-1.44140625,3.6435546875
0.197,-2.3623046875,-2.0419921875,3.84375
0.1975,-1.6015625,-2.8828125,3.8037109375
0.198,-0.9609375,-3.283203125,3.5634765625
0.1985,-0.3603515625,-3.763671875,3.443359375
0.199,0.560546875,-3.923828125,2.7626953125
0.1995,1.4013671875,-4.2841796875,2.2421875
0.2,1.9619140625,-4.2041015625,1.5615234375
0.2005,2.5625,-4.32421875,1.0810546875
0.201,2.802734375,-3.84375,0.400390625
0.2015,3.123046875,-3.763671875,0.0400390625
0.202,3.203125,-2.9228515625,-0.80078125
0.2025,3.443359375,-2.5625,-1.44140625
0.203,3.3232421875,-1.681640625,-2.1220703125
0.2035,3.1630859375,-1.0810546875,-2.6025390625
0.204,2.8427734375,-0.3203125,-2.962890625
0.2045,2.5224609375,0.2802734375,-3.283203125
0.205,2.001953125,1.12109375,-3.603515625
0.2055,1.4814453125,1.6416015625,-3.5634765625
0.206,0.9208984375,2.3623046875,-3.68359375
0.2065,0.2802734375,2.642578125,-3.36328125
0.207,-0.2802734375,3.123046875,-3.283203125
0.2075,-1.201171875,3.3232421875,-2.5224609375
0.208,-1.8818359375,3.5634765625,-2.2021484375
0.2085,-2.4423828125,3.443359375,-1.44140625
0.209,-2.8828125,3.5234375,-1.12109375
0.2095,-3.203125,3.1630859375,-0.48046875
0.21,-3.4833984375,3.04296875,0.0
0.2105,-3.763671875,2.40234375,0.9609375
0.211,-3.84375,1.8818359375,1.521484375
0.2115,-3.923828125,1.12109375,2.3623046875
0.212,-3.6435546875,0.3603515625,2.7626953125
0.2125,-3.5234375,-0.3603515625,3.283203125
0.213,-2.8828125,-1.1611328125,3.4833984375
0.2135,-2.4423828125,-2.001953125,3.84375
0.214,-1.7216796875,-2.5625,3.68359375
0.2145,-1.1611328125,-3.283203125,3.84375
0.215,-0.4404296875,-3.5634765625,3.3232421875
0.2155,0.240234375,-4.00390625,3.123046875
0.216,1.3212890625,-4.2841796875,2.2421875
0.2165,1.9619140625,-4.3642578125,1.7216796875
0.217,2.6025390625,-4.244140625,0.9609375
0.2175,2.962890625,-4.0439453125,0.48046875
0.218,3.1630859375,-3.68359375,-0.1201171875
0.2185,3.3232421875,-3.123046875,-0.7607421875
0.219,3.5634765625,-2.5625,-1.6416015625
0.2195,3.36328125,-1.76171875,-2.1220703125
0.22,3.443359375,-1.041015625,-2.8828125
0.2205,2.8427734375,-0.2001953125,-3.0830078125
0.221,2.6826171875,0.3603515625,-3.4833984375
0.2215,1.921875,1.3212890625,-3.6435546875
0.222,1.4013671875,2.0419921875,-3.84375
0.2225,0.6806640625,2.5224609375,-3.5634765625
0.223,0.16015625,3.04296875,-3.603515625
0.2235,-0.5205078125,3.203125,-3.04296875
0.224,-1.2412109375,3.4833984375,-2.72265625
0.2245,-2.2822265625,3.7236328125,-1.921875
0.225,-2.7626953125,3.603515625,-1.3212890625
0.2255,-3.36328125,3.6435546875,-0.720703125
0.226,-3.5634765625,3.2431640625,-0.2001953125
0.2265,-3.8037109375,2.962890625,0.3603515625
0.227,-3.8837890625,2.2822265625,1.12109375
0.2275,-4.1640625,1.76171875,1.9619140625
0.228,-3.84375,0.8408203125,2.5224609375
0.2285,-3.923828125,0.240234375,3.203125
0.229,-3.2431640625,-0.720703125,3.36328125
