wavelength,x,y,z
0.0,-20.31982421875,3.26318359375,16.23583984375
0.0005,-18.91845703125,-1.10107421875,19.07861328125
0.001,-16.63623046875,-4.82470703125,20.60009765625
0.0015,-14.11376953125,-7.62744140625,21.00048828125
0.002,-11.35107421875,-10.71044921875,21.36083984375
0.0025,-6.14599609375,-14.75439453125,20.31982421875
0.003,-1.94189453125,-17.43701171875,18.95849609375
0.0035,2.34228515625,-19.35888671875,16.95654296875
0.004,5.90576171875,-20.60009765625,14.87451171875
0.0045,8.86865234375,-20.35986328125,11.91162109375
0.005,12.23193359375,-20.15966796875,8.58837890625
0.0055,15.79541015625,-19.31884765625,4.34423828125
0.006,18.71826171875,-17.47705078125,-0.38037109375
0.0065,20.31982421875,-15.39501953125,-4.02392578125
0.007,21.00048828125,-12.95263671875,-7.10693359375
0.0075,21.08056640625,-10.06982421875,-10.18994140625
0.008,20.60009765625,-5.62548828125,-14.15380859375
0.0085,19.71923828125,-2.18212890625,-16.87646484375
0.009,18.07763671875,1.86181640625,-19.19873046875
0.0095,15.87548828125,5.50537109375,-20.64013671875
0.01,12.87255859375,8.38818359375,-20.60009765625
0.0105,9.86962890625,11.55126953125,-20.80029296875
0.011,4.94482421875,15.31494140625,-19.83935546875
0.0115,0.22021484375,18.07763671875,-18.03759765625
0.012,-3.50341796875,19.51904296875,-16.03564453125
0.0125,-6.74658203125,20.39990234375,-13.95361328125
0.013,-9.74951171875,20.19970703125,-10.91064453125
0.0135,-13.51318359375,19.51904296875,-6.74658203125
0.014,-16.43603515625,18.59814453125,-3.02294921875
0.0145,-19.07861328125,16.63623046875,1.54150390625
0.015,-20.35986328125,14.39404296875,5.06494140625
0.0155,-20.64013671875,11.67138671875,7.98779296875
0.016,-20.80029296875,8.86865234375,11.11083984375
0.0165,-20.11962890625,4.34423828125,14.95458984375
0.017,-18.91845703125,0.46044921875,17.63720703125
0.0175,-17.07666015625,-3.06298828125,19.35888671875
0.018,-15.07470703125,-6.34619140625,20.64013671875
0.0185,-11.83154296875,-9.30908203125,20.47998046875
0.019,-8.10791015625,-12.75244140625,20.19970703125
0.0195,-3.86376953125,-15.87548828125,19.27880859375
0.02,1.02099609375,-18.43798828125,17.19677734375
0.0205,4.42431640625,-19.55908203125,15.19482421875
0.021,7.38720703125,-19.99951171875,12.91259765625
0.0215,10.39013671875,-19.99951171875,10.10986328125
0.022,14.31396484375,-19.03857421875,5.42529296875
0.0225,17.07666015625,-17.79736328125,1.54150390625
0.023,19.19873046875,-15.91552734375,-2.38232421875
0.0235,20.23974609375,-13.75341796875,-5.62548828125
0.024,20.23974609375,-10.75048828125,-8.82861328125
0.0245,20.23974609375,-7.58740234375,-11.91162109375
0.025,19.71923828125,-3.70361328125,-15.27490234375
0.0255,18.23779296875,0.54052734375,-17.95751953125
0.026,16.15576171875,3.82373046875,-19.23876953125
0.0265,14.07373046875,6.86669921875,-20.23974609375
0.027,11.03076171875,9.78955078125,-20.19970703125
0.0275,6.30615234375,13.63330078125,-19.39892578125
0.028,2.46240234375,16.35595703125,-18.47802734375
0.0285,-1.94189453125,18.47802734375,-16.47607421875
0.029,-5.18505859375,19.47900390625,-14.39404296875
0.0295,-8.10791015625,19.47900390625,-11.79150390625
0.03,-11.19091796875,19.47900390625,-8.94873046875
0.0305,-14.87451171875,18.51806640625,-4.46435546875
0.031,-17.63720703125,16.79638671875,0.02001953125
0.0315,-19.15869140625,14.91455078125,3.30322265625
0.032,-20.07958984375,12.59228515625,6.34619140625
0.0325,-19.99951171875,9.74951171875,9.30908203125
0.033,-19.71923828125,5.82568359375,12.99267578125
0.0335,-19.07861328125,2.42236328125,15.95556640625
0.034,-17.55712890625,-1.62158203125,18.39794921875
0.0345,-15.39501953125,-4.86474609375,19.51904296875
0.035,-12.95263671875,-7.70751953125,19.95947265625
0.0355,-10.10986328125,-10.75048828125,20.11962890625
0.036,-5.06494140625,-14.43408203125,19.03857421875
0.0365,-0.90087890625,-17.03662109375,17.55712890625
0.037,2.86279296875,-18.63818359375,15.75537109375
0.0375,6.02587890625,-19.51904296875,13.71337890625
0.038,9.02880859375,-19.31884765625,10.71044921875
0.0385,12.43212890625,-18.99853515625,7.22705078125
0.039,15.63525390625,-18.11767578125,3.26318359375
0.0395,18.27783203125,-16.23583984375,-1.26123046875
0.04,19.31884765625,-14.27392578125,-4.30419921875
0.0405,19.99951171875,-11.87158203125,-7.34716796875
0.041,20.11962890625,-8.90869140625,-10.22998046875
0.0415,19.51904296875,-4.74462890625,-14.03369140625
0.042,18.55810546875,-1.10107421875,-16.71630859375
0.0425,16.95654296875,2.58251953125,-18.75830078125
0.043,14.75439453125,5.74560546875,-19.83935546875
0.0435,11.67138671875,8.82861328125,-19.83935546875
0.044,8.30810546875,12.15185546875,-19.91943359375
0.0445,3.70361328125,15.55517578125,-18.91845703125
0.045,-1.06103515625,17.99755859375,-16.83642578125
0.0455,-4.14404296875,19.15869140625,-15.07470703125
0.046,-7.22705078125,19.83935546875,-12.91259765625
0.0465,-10.35009765625,19.51904296875,-9.74951171875
0.047,-14.03369140625,18.79833984375,-5.50537109375
0.0475,-16.95654296875,17.63720703125,-1.58154296875
0.048,-19.19873046875,15.67529296875,2.70263671875
0.0485,-20.03955078125,13.39306640625,5.74560546875
0.049,-20.35986328125,10.51025390625,8.78857421875
0.0495,-20.35986328125,7.34716796875,12.19189453125
0.05,-19.79931640625,3.18310546875,15.67529296875
0.0505,-18.15771484375,-0.90087890625,18.19775390625
0.051,-16.35595703125,-4.18408203125,19.71923828125
0.0515,-14.07373046875,-7.22705078125,20.56005859375
0.052,-10.71044921875,-10.31005859375,20.35986328125
0.0525,-6.54638671875,-13.79345703125,19.79931640625
0.053,-2.14208984375,-16.87646484375,18.63818359375
0.0535,2.54248046875,-18.95849609375,16.35595703125
0.054,5.50537109375,-19.67919921875,14.35400390625
0.0545,8.62841796875,-20.03955078125,11.79150390625
0.055,11.87158203125,-19.67919921875,8.38818359375
0.0555,15.39501953125,-18.67822265625,4.10400390625
0.056,18.15771484375,-17.15673828125,-0.26025390625
0.0565,19.95947265625,-15.11474609375,-4.02392578125
0.057,20.52001953125,-12.71240234375,-7.02685546875
0.0575,20.60009765625,-9.46923828125,-10.27001953125
0.058,20.23974609375,-5.86572265625,-13.63330078125
0.0585,19.55908203125,-2.02197265625,-16.79638671875
0.059,17.63720703125,2.26220703125,-19.07861328125
0.0595,15.43505859375,5.34521484375,-20.07958984375
0.06,12.99267578125,8.42822265625,-20.80029296875
0.0605,9.26904296875,11.71142578125,-20.43994140625
0.061,4.78466796875,15.11474609375,-19.47900390625
0.0615,0.34033203125,17.95751953125,-18.03759765625
0.062,-3.94384765625,19.71923828125,-15.87548828125
0.0625,-6.86669921875,20.11962890625,-13.55322265625
0.063,-10.06982421875,20.19970703125,-10.63037109375
0.0635,-13.51318359375,19.67919921875,-6.86669921875
0.064,-16.75634765625,18.43798828125,-2.58251953125
0.0645,-19.27880859375,16.43603515625,1.94189453125
0.065,-20.64013671875,14.27392578125,5.34521484375
0.0655,-21.08056640625,11.67138671875,8.46826171875
0.066,-21.00048828125,8.18798828125,11.91162109375
0.0665,-20.31982421875,4.22412109375,15.23486328125
0.067,-19.27880859375,0.26025390625,18.23779296875
0.0675,-17.23681640625,-3.86376953125,20.27978515625
0.068,-14.75439453125,-6.78662109375,20.80029296875
0.0685,-12.03173828125,-9.90966796875,21.24072265625
0.069,-7.86767578125,-13.43310546875,20.76025390625
0.0695,-3.18310546875,-16.63623046875,19.35888671875
0.07,1.38134765625,-18.91845703125,17.39697265625
0.0705,5.10498046875,-20.43994140625,15.39501953125
0.071,8.10791015625,-20.52001953125,12.79248046875
0.0715,11.35107421875,-20.35986328125,9.58935546875
0.072,14.95458984375,-19.67919921875,5.42529296875
0.0725,17.99755859375,-18.23779296875,1.02099609375
0.073,20.19970703125,-16.03564453125,-3.30322265625
0.0735,21.00048828125,-13.71337890625,-6.38623046875
0.074,21.32080078125,-10.87060546875,-9.54931640625
0.0745,21.00048828125,-6.98681640625,-13.19287109375
0.075,20.15966796875,-3.14306640625,-16.27587890625
0.0755,18.71826171875,0.98095703125,-18.83837890625
0.076,16.63623046875,4.78466796875,-20.64013671875
0.0765,13.83349609375,7.74755859375,-20.88037109375
0.077,10.83056640625,10.87060546875,-21.04052734375
0.0775,6.34619140625,14.59423828125,-20.35986328125
0.078,1.66162109375,17.63720703125,-18.95849609375
0.0785,-2.78271484375,19.47900390625,-16.67626953125
0.079,-6.10595703125,20.47998046875,-14.67431640625
0.0795,-9.18896484375,20.64013671875,-11.95166015625
0.08,-12.51220703125,20.15966796875,-8.26806640625
0.0805,-15.87548828125,19.23876953125,-4.30419921875
0.081,-18.83837890625,17.51708984375,0.38037109375
0.0815,-20.72021484375,15.31494140625,4.50439453125
0.082,-21.12060546875,12.75244140625,7.42724609375
0.0825,-21.44091796875,9.74951171875,10.71044921875
0.083,-20.96044921875,5.50537109375,14.51416015625
0.0835,-19.95947265625,1.58154296875,17.55712890625
0.084,-18.07763671875,-2.42236328125,19.63916015625
0.0845,-16.03564453125,-5.90576171875,21.16064453125
0.085,-13.07275390625,-8.94873046875,21.28076171875
0.0855,-9.54931640625,-12.19189453125,21.12060546875
0.086,-5.10498046875,-15.63525390625,20.19970703125
0.0865,-0.10009765625,-18.59814453125,18.43798828125
0.087,4.02392578125,-20.15966796875,16.15576171875
0.0875,7.06689453125,-20.68017578125,13.91357421875
0.088,10.35009765625,-20.84033203125,11.03076171875
0.0885,14.11376953125,-20.11962890625,6.66650390625
0.089,17.07666015625,-19.03857421875,2.70263671875
0.0895,19.71923828125,-17.03662109375,-1.82177734375
0.09,21.28076171875,-14.75439453125,-5.62548828125
0.0905,21.44091796875,-11.91162109375,-8.66845703125
0.091,21.52099609375,-8.70849609375,-12.03173828125
0.0915,20.84033203125,-4.42431640625,-15.63525390625
0.092,19.71923828125,-0.26025390625,-18.67822265625
0.0925,17.43701171875,3.62353515625,-20.35986328125
0.093,15.23486328125,6.90673828125,-21.36083984375
0.0935,12.15185546875,10.10986328125,-21.52099609375
0.094,7.66748046875,13.79345703125,-20.92041015625
0.0945,3.54345703125,16.71630859375,-19.87939453125
0.095,-1.54150390625,19.39892578125,-17.83740234375
0.0955,-5.38525390625,20.80029296875,-15.55517578125
0.096,-8.26806640625,20.80029296875,-12.95263671875
0.0965,-11.47119140625,20.88037109375,-10.10986328125
0.097,-15.47509765625,19.87939453125,-5.26513671875
0.0975,-18.35791015625,18.35791015625,-0.94091796875
0.098,-20.43994140625,16.31591796875,3.18310546875
0.0985,-21.64111328125,13.95361328125,6.70654296875
0.099,-21.64111328125,10.83056640625,9.86962890625
0.0995,-21.48095703125,7.06689453125,13.51318359375
0.1,-20.68017578125,3.18310546875,16.67626953125
0.1005,-19.23876953125,-1.26123046875,19.59912109375
0.101,-16.83642578125,-5.06494140625,21.08056640625
0.1015,-14.35400390625,-7.98779296875,21.56103515625
0.102,-11.39111328125,-11.07080078125,21.80126953125
0.1025,-6.22607421875,-15.15478515625,20.80029296875
0.103,-1.94189453125,-17.79736328125,19.39892578125
0.1035,2.58251953125,-19.87939453125,17.23681640625
0.104,6.30615234375,-21.16064453125,15.07470703125
0.1045,9.30908203125,-20.96044921875,12.03173828125
0.105,12.63232421875,-20.84033203125,8.78857421875
0.1055,16.35595703125,-19.79931640625,4.22412109375
0.106,19.35888671875,-17.87744140625,-0.62060546875
0.1065,21.04052734375,-15.67529296875,-4.42431640625
0.107,21.80126953125,-13.15283203125,-7.70751953125
0.1075,21.80126953125,-10.10986328125,-10.83056640625
0.108,21.32080078125,-5.66552734375,-14.83447265625
0.1085,20.39990234375,-2.02197265625,-17.59716796875
0.109,18.63818359375,2.26220703125,-20.03955078125
0.1095,16.19580078125,6.02587890625,-21.48095703125
0.11,13.07275390625,9.02880859375,-21.48095703125
0.1105,10.06982421875,12.23193359375,-21.64111328125
0.111,4.74462890625,16.23583984375,-20.47998046875
0.1115,-0.14013671875,18.99853515625,-18.67822265625
0.112,-4.02392578125,20.47998046875,-16.55615234375
0.1125,-7.50732421875,21.44091796875,-14.27392578125
0.113,-10.79052734375,21.08056640625,-10.95068359375
0.1135,-14.39404296875,20.47998046875,-6.90673828125
0.114,-17.63720703125,19.47900390625,-2.82275390625
0.1145,-20.47998046875,17.31689453125,2.18212890625
0.115,-21.72119140625,14.87451171875,5.82568359375
0.1155,-22.08154296875,11.99169921875,9.10888671875
0.116,-22.16162109375,8.94873046875,12.31201171875
0.1165,-21.40087890625,4.10400390625,16.43603515625
0.117,-20.03955078125,0.06005859375,19.19873046875
0.1175,-18.07763671875,-3.86376953125,21.08056640625
0.118,-15.67529296875,-7.42724609375,22.36181640625
0.1185,-12.03173828125,-10.71044921875,22.00146484375
0.119,-8.34814453125,-14.07373046875,21.80126953125
0.1195,-3.46337890625,-17.63720703125,20.60009765625
0.12,1.94189453125,-20.31982421875,18.19775390625
0.1205,5.50537109375,-21.36083984375,15.95556640625
0.121,8.86865234375,-21.92138671875,13.35302734375
0.1215,12.19189453125,-21.60107421875,10.06982421875
0.122,16.19580078125,-20.47998046875,5.10498046875
0.1225,19.15869140625,-19.07861328125,0.90087890625
0.123,21.48095703125,-16.87646484375,-3.66357421875
0.1235,22.44189453125,-14.27392578125,-7.18701171875
0.124,22.44189453125,-10.87060546875,-10.59033203125
0.1245,22.28173828125,-7.54736328125,-13.87353515625
0.125,21.40087890625,-3.02294921875,-17.55712890625
0.1255,19.51904296875,1.66162109375,-20.35986328125
0.126,17.15673828125,5.22509765625,-21.60107421875
0.1265,14.67431640625,8.66845703125,-22.56201171875
0.127,10.87060546875,11.99169921875,-22.16162109375
0.1275,6.10595703125,15.75537109375,-21.32080078125
0.128,1.66162109375,18.71826171875,-20.11962890625
0.1285,-3.54345703125,21.00048828125,-17.55712890625
0.129,-6.90673828125,21.72119140625,-15.11474609375
0.1295,-10.22998046875,21.80126953125,-12.11181640625
0.13,-13.47314453125,21.48095703125,-8.74853515625
0.1305,-17.35693359375,20.15966796875,-3.70361328125
0.131,-20.23974609375,18.15771484375,1.14111328125
0.1315,-21.88134765625,15.87548828125,4.98486328125
0.132,-22.60205078125,13.19287109375,8.34814453125
0.1325,-22.32177734375,9.58935546875,11.79150390625
0.133,-21.84130859375,5.58544921875,15.35498046875
0.1335,-20.96044921875,1.58154296875,18.47802734375
0.134,-18.83837890625,-3.06298828125,21.00048828125
0.1345,-16.19580078125,-6.42626953125,21.80126953125
0.135,-13.55322265625,-9.62939453125,22.44189453125
0.1355,-9.94970703125,-12.83251953125,22.08154296875
0.136,-4.54443359375,-16.67626953125,20.68017578125
0.1365,0.02001953125,-19.35888671875,19.07861328125
0.137,4.34423828125,-21.20068359375,16.79638671875
0.1375,7.66748046875,-21.64111328125,14.27392578125
0.138,11.03076171875,-21.40087890625,10.87060546875
0.1385,14.39404296875,-20.88037109375,7.26708984375
0.139,17.87744140625,-19.63916015625,2.66259765625
0.1395,20.56005859375,-17.35693359375,-2.30224609375
0.14,21.64111328125,-15.03466796875,-5.70556640625
0.1405,22.28173828125,-12.35205078125,-8.94873046875
0.141,21.96142578125,-8.86865234375,-12.19189453125
0.1415,21.16064453125,-4.50439453125,-15.87548828125
0.142,20.07958984375,-0.62060546875,-18.71826171875
0.1425,18.07763671875,3.62353515625,-20.88037109375
0.143,15.39501953125,6.98681640625,-21.56103515625
0.1435,12.23193359375,10.22998046875,-21.76123046875
0.144,8.50830078125,13.59326171875,-21.56103515625
0.1445,3.38330078125,17.15673828125,-20.19970703125
0.145,-1.62158203125,19.59912109375,-17.95751953125
0.1455,-5.10498046875,20.92041015625,-15.99560546875
0.146,-8.38818359375,21.48095703125,-13.43310546875
0.1465,-11.71142578125,21.00048828125,-9.90966796875
0.147,-15.35498046875,20.19970703125,-5.70556640625
0.1475,-18.43798828125,18.83837890625,-1.34130859375
0.148,-20.84033203125,16.51611328125,3.38330078125
0.1485,-21.52099609375,14.03369140625,6.54638671875
0.149,-21.92138671875,11.03076171875,9.90966796875
0.1495,-21.72119140625,7.50732421875,13.31298828125
0.15,-20.80029296875,3.14306640625,16.83642578125
0.1505,-19.19873046875,-1.10107421875,19.43896484375
0.151,-17.15673828125,-4.82470703125,21.16064453125
0.1515,-14.55419921875,-8.02783203125,21.84130859375
0.152,-11.03076171875,-11.27099609375,21.60107421875
0.1525,-6.90673828125,-14.83447265625,21.12060546875
0.153,-2.02197265625,-18.07763671875,19.67919921875
0.1535,2.90283203125,-20.11962890625,17.15673828125
0.154,6.06591796875,-20.96044921875,15.07470703125
0.1545,9.38916015625,-21.32080078125,12.39208984375
0.155,12.79248046875,-20.80029296875,8.66845703125
0.1555,16.31591796875,-19.75927734375,4.22412109375
0.156,19.23876953125,-18.07763671875,-0.30029296875
0.1565,21.24072265625,-15.83544921875,-4.50439453125
0.157,21.64111328125,-13.15283203125,-7.58740234375
0.1575,21.80126953125,-9.94970703125,-11.03076171875
0.158,21.36083984375,-6.14599609375,-14.51416015625
0.1585,20.47998046875,-1.94189453125,-17.75732421875
0.159,18.47802734375,2.38232421875,-19.99951171875
0.1595,16.19580078125,5.74560546875,-21.24072265625
0.16,13.47314453125,8.94873046875,-21.80126953125
0.1605,9.62939453125,12.35205078125,-21.36083984375
0.161,5.10498046875,15.75537109375,-20.47998046875
0.1615,0.38037109375,18.79833984375,-18.91845703125
0.162,-4.18408203125,20.64013671875,-16.51611328125
0.1625,-7.14697265625,20.92041015625,-14.11376953125
0.163,-10.47021484375,21.12060546875,-11.23095703125
0.1635,-14.07373046875,20.47998046875,-7.14697265625
0.164,-17.31689453125,19.19873046875,-2.78271484375
0.1645,-19.87939453125,17.15673828125,1.74169921875
0.165,-21.48095703125,14.87451171875,5.54541015625
0.1655,-21.76123046875,12.15185546875,8.66845703125
0.166,-21.72119140625,8.66845703125,12.19189453125
0.1665,-21.00048828125,4.58447265625,15.55517578125
0.167,-19.99951171875,0.46044921875,18.67822265625
0.1675,-17.75732421875,-3.78369140625,20.68017578125
0.168,-15.39501953125,-6.86669921875,21.40087890625
0.1685,-12.59228515625,-10.06982421875,21.92138671875
0.169,-8.26806640625,-13.67333984375,21.24072265625
0.1695,-3.70361328125,-16.71630859375,19.99951171875
0.17,1.02099609375,-19.27880859375,18.07763671875
0.1705,5.06494140625,-20.88037109375,15.91552734375
0.171,8.02783203125,-20.96044921875,13.31298828125
0.1715,11.27099609375,-20.92041015625,10.22998046875
0.172,15.07470703125,-20.15966796875,5.90576171875
0.1725,18.07763671875,-18.75830078125,1.42138671875
0.173,20.39990234375,-16.51611328125,-2.94287109375
0.1735,21.40087890625,-14.19384765625,-6.26611328125
0.174,21.76123046875,-11.35107421875,-9.50927734375
0.1745,21.52099609375,-7.46728515625,-13.19287109375
0.175,20.68017578125,-3.58349609375,-16.31591796875
0.1755,19.35888671875,0.62060546875,-19.19873046875
0.176,17.15673828125,4.62451171875,-21.04052734375
0.1765,14.39404296875,7.66748046875,-21.28076171875
0.177,11.51123046875,10.83056640625,-21.76123046875
0.1775,6.66650390625,14.87451171875,-20.96044921875
0.178,2.02197265625,17.87744140625,-19.55908203125
0.1785,-2.54248046875,19.87939453125,-17.31689453125
0.179,-6.14599609375,21.16064453125,-15.23486328125
0.1795,-9.22900390625,21.12060546875,-12.43212890625
0.18,-12.67236328125,20.80029296875,-8.82861328125
0.1805,-16.23583984375,19.87939453125,-4.62451171875
0.181,-19.27880859375,18.11767578125,0.26025390625
0.1815,-21.16064453125,15.79541015625,4.42431640625
0.182,-21.76123046875,13.19287109375,7.54736328125
0.1825,-22.08154296875,10.22998046875,10.87060546875
0.183,-21.56103515625,5.74560546875,14.91455078125
0.1835,-20.60009765625,1.90185546875,17.87744140625
0.184,-18.79833984375,-2.34228515625,20.19970703125
0.1845,-16.55615234375,-6.14599609375,21.88134765625
0.185,-13.47314453125,-9.18896484375,21.84130859375
0.1855,-10.10986328125,-12.47216796875,21.84130859375
0.186,-5.26513671875,-16.15576171875,20.88037109375
0.1865,-0.26025390625,-19.15869140625,19.07861328125
0.187,3.98388671875,-20.64013671875,16.71630859375
0.1875,7.22705078125,-21.44091796875,14.43408203125
0.188,10.55029296875,-21.48095703125,11.39111328125
0.1885,14.39404296875,-20.60009765625,7.02685546875
0.189,17.35693359375,-19.55908203125,3.06298828125
0.1895,20.19970703125,-17.55712890625,-1.70166015625
0.19,21.76123046875,-15.15478515625,-5.62548828125
0.1905,21.88134765625,-12.23193359375,-8.70849609375
0.191,22.04150390625,-9.14892578125,-12.03173828125
0.1915,21.32080078125,-4.62451171875,-15.91552734375
