wavelength,x,y,z
0.0,3.1630859375,-2.8427734375,-0.2802734375
0.0005,3.443359375,-2.2822265625,-1.0810546875
0.001,3.443359375,-1.9619140625,-1.44140625
0.0015,3.3232421875,-1.28125,-2.001953125
0.002,3.3232421875,-0.6806640625,-2.5224609375
0.0025,3.04296875,0.1201171875,-3.0830078125
0.003,2.6826171875,0.7607421875,-3.36328125
0.0035,2.2822265625,1.361328125,-3.603515625
0.004,1.6015625,1.76171875,-3.3232421875
0.0045,1.041015625,2.3623046875,-3.4033203125
0.005,0.240234375,2.8427734375,-3.0830078125
0.0055,-0.3203125,3.1630859375,-2.8828125
0.006,-1.0009765625,3.443359375,-2.482421875
0.0065,-1.3212890625,3.4833984375,-2.2021484375
0.007,-1.8017578125,3.3232421875,-1.6416015625
0.0075,-2.2822265625,3.283203125,-1.1611328125
0.008,-2.7626953125,2.8427734375,-0.2802734375
0.0085,-3.0830078125,2.5224609375,0.3603515625
0.009,-3.36328125,2.0419921875,1.12109375
0.0095,-3.203125,1.5615234375,1.361328125
0.01,-3.283203125,1.041015625,2.08203125
0.0105,-3.0830078125,0.2802734375,2.6025390625
0.011,-2.8427734375,-0.400390625,3.04296875
0.0115,-2.3623046875,-1.1611328125,3.36328125
0.012,-1.921875,-1.6416015625,3.443359375
0.0125,-1.1611328125,-2.1220703125,3.1630859375
0.013,-0.6005859375,-2.7626953125,3.2431640625
0.0135,0.240234375,-3.203125,2.8427734375
0.014,0.9208984375,-3.5634765625,2.6025390625
0.0145,1.5615234375,-3.8037109375,2.2021484375
0.015,1.8818359375,-3.603515625,1.76171875
0.0155,2.40234375,-3.5634765625,1.2412109375
0.016,2.8427734375,-3.2431640625,0.48046875
0.0165,3.203125,-2.8828125,-0.3203125
0.017,3.4833984375,-2.3623046875,-1.0810546875
0.0175,3.6435546875,-1.9619140625,-1.7216796875
0.018,3.3232421875,-1.201171875,-2.08203125
0.0185,3.4833984375,-0.6806640625,-2.6826171875
0.019,3.04296875,0.16015625,-3.1630859375
0.0195,2.72265625,0.8408203125,-3.5234375
0.02,2.2021484375,1.5615234375,-3.7236328125
0.0205,1.5615234375,1.9619140625,-3.5234375
0.021,0.880859375,2.5224609375,-3.36328125
0.0215,0.2001953125,3.0029296875,-3.203125
0.022,-0.6005859375,3.283203125,-2.72265625
0.0225,-1.201171875,3.5634765625,-2.4423828125
0.023,-1.8017578125,3.68359375,-1.9619140625
0.0235,-2.001953125,3.3232421875,-1.44140625
0.024,-2.5625,3.36328125,-0.9609375
0.0245,-2.8828125,2.802734375,-0.1201171875
0.025,-3.2431640625,2.482421875,0.560546875
0.0255,-3.4833984375,1.8818359375,1.3212890625
0.026,-3.4033203125,1.44140625,1.7216796875
0.0265,-3.1630859375,0.7607421875,2.2021484375
0.027,-3.1630859375,0.240234375,2.72265625
0.0275,-2.6826171875,-0.6005859375,3.123046875
0.028,-2.3623046875,-1.2412109375,3.443359375
0.0285,-1.8017578125,-1.921875,3.5634765625
0.029,-1.12109375,-2.2421875,3.203125
0.0295,-0.5205078125,-2.8427734375,3.2431640625
0.03,0.2802734375,-3.283203125,2.8828125
0.0305,0.9609375,-3.603515625,2.5625
0.031,1.6015625,-3.8037109375,2.162109375
0.0315,2.0419921875,-3.8037109375,1.76171875
0.032,2.3623046875,-3.4833984375,1.12109375
0.0325,2.8828125,-3.5234375,0.6005859375
0.033,3.1630859375,-2.8427734375,-0.2802734375
0.0335,3.5234375,-2.5625,-1.0009765625
0.034,3.68359375,-1.8818359375,-1.7216796875
0.0345,3.4833984375,-1.3212890625,-2.001953125
0.035,3.4033203125,-0.6806640625,-2.6025390625
0.0355,3.203125,0.0,-3.123046875
0.036,2.802734375,0.7607421875,-3.4833984375
0.0365,2.3623046875,1.4013671875,-3.7236328125
0.037,1.8017578125,1.9619140625,-3.763671875
0.0375,1.0009765625,2.3623046875,-3.36328125
0.038,0.48046875,2.962890625,-3.443359375
0.0385,-0.4404296875,3.2431640625,-2.8828125
0.039,-1.041015625,3.603515625,-2.6025390625
0.0395,-1.681640625,3.68359375,-2.08203125
0.04,-2.001953125,3.5234375,-1.6416015625
0.0405,-2.40234375,3.283203125,-1.041015625
0.041,-2.9228515625,3.123046875,-0.400390625
0.0415,-3.203125,2.482421875,0.48046875
0.042,-3.4833984375,2.162109375,1.12109375
0.0425,-3.5634765625,1.5615234375,1.76171875
0.043,-3.2431640625,0.9208984375,2.1220703125
0.0435,-3.283203125,0.400390625,2.6826171875
0.044,-2.8828125,-0.4404296875,3.1630859375
0.0445,-2.482421875,-1.1611328125,3.443359375
0.045,-1.9619140625,-1.8017578125,3.603515625
0.0455,-1.28125,-2.2822265625,3.5234375
0.046,-0.5205078125,-2.72265625,3.1630859375
0.0465,0.080078125,-3.36328125,3.1630859375
0.047,1.0009765625,-3.603515625,2.5224609375
0.0475,1.5615234375,-3.8837890625,2.2822265625
0.048,2.162109375,-3.8837890625,1.76171875
0.0485,2.4423828125,-3.6435546875,1.201171875
0.049,2.8828125,-3.5634765625,0.6005859375
0.0495,3.3232421875,-3.0830078125,-0.240234375
0.05,3.5234375,-2.4423828125,-1.0009765625
0.0505,3.7236328125,-1.9619140625,-1.6416015625
0.051,3.68359375,-1.4013671875,-2.2021484375
0.0515,3.36328125,-0.6806640625,-2.6025390625
0.052,3.4033203125,-0.1201171875,-3.203125
0.0525,2.802734375,0.80078125,-3.5234375
0.053,2.4423828125,1.4013671875,-3.84375
0.0535,1.8017578125,2.0419921875,-3.84375
0.054,1.0810546875,2.482421875,-3.5634765625
0.0545,0.400390625,2.9228515625,-3.36328125
0.055,-0.3603515625,3.4833984375,-3.1630859375
0.0555,-1.201171875,3.603515625,-2.482421875
0.056,-1.6416015625,3.8037109375,-2.2421875
0.0565,-2.2021484375,3.68359375,-1.6416015625
0.057,-2.482421875,3.3232421875,-1.041015625
0.0575,-3.0830078125,3.3232421875,-0.5205078125
0.058,-3.283203125,2.6025390625,0.5205078125
0.0585,-3.5634765625,2.2021484375,1.1611328125
0.059,-3.603515625,1.6015625,1.841796875
0.0595,-3.4833984375,1.041015625,2.2421875
0.06,-3.203125,0.3203125,2.6826171875
0.0605,-3.123046875,-0.3203125,3.283203125
0.061,-2.4423828125,-1.2412109375,3.5234375
0.0615,-2.08203125,-1.8017578125,3.763671875
0.062,-1.361328125,-2.40234375,3.68359375
0.0625,-0.6005859375,-2.8427734375,3.3232421875
0.063,0.0400390625,-3.36328125,3.203125
0.0635,1.0009765625,-3.8037109375,2.72265625
0.064,1.681640625,-3.923828125,2.2421875
0.0645,2.2021484375,-4.0439453125,1.841796875
0.065,2.6025390625,-3.923828125,1.28125
0.0655,2.8828125,-3.5234375,0.6005859375
0.066,3.5234375,-3.36328125,0.0
0.0665,3.68359375,-2.4423828125,-1.12109375
0.067,3.8837890625,-2.08203125,-1.681640625
0.0675,3.84375,-1.4013671875,-2.40234375
0.068,3.603515625,-0.6806640625,-2.7626953125
0.0685,3.36328125,-0.0400390625,-3.2431640625
0.069,3.04296875,0.80078125,-3.763671875
0.0695,2.40234375,1.6416015625,-4.00390625
0.07,1.921875,2.2021484375,-4.0439453125
0.0705,1.12109375,2.7626953125,-3.8837890625
0.071,0.2802734375,3.123046875,-3.443359375
0.0715,-0.3203125,3.68359375,-3.36328125
0.072,-1.4013671875,3.8837890625,-2.5625
0.0725,-2.001953125,4.00390625,-2.1220703125
0.073,-2.5224609375,3.8837890625,-1.5615234375
0.0735,-2.9228515625,3.68359375,-0.9609375
0.074,-3.203125,3.2431640625,-0.240234375
0.0745,-3.7236328125,2.962890625,0.560546875
0.075,-3.84375,2.001953125,1.5615234375
0.0755,-3.9638671875,1.6015625,2.162109375
0.076,-3.8037109375,0.8408203125,2.72265625
0.0765,-3.4033203125,0.1201171875,3.123046875
0.077,-3.203125,-0.560546875,3.5634765625
0.0775,-2.5625,-1.5615234375,3.923828125
0.078,-1.9619140625,-2.2822265625,4.083984375
0.0785,-1.2412109375,-2.7626953125,3.8837890625
0.079,-0.48046875,-3.283203125,3.68359375
0.0795,0.3603515625,-3.603515625,3.1630859375
0.08,1.12109375,-4.1640625,3.0029296875
0.0805,2.2021484375,-4.32421875,2.0419921875
0.081,2.642578125,-4.3642578125,1.6416015625
0.0815,3.04296875,-4.083984375,0.9609375
0.082,3.443359375,-3.7236328125,0.3603515625
0.0825,3.7236328125,-3.2431640625,-0.3603515625
0.083,4.083984375,-2.6826171875,-1.28125
0.0835,4.1240234375,-1.8818359375,-2.2021484375
0.084,4.083984375,-1.3212890625,-2.642578125
0.0845,3.84375,-0.5205078125,-3.203125
0.085,3.443359375,0.16015625,-3.5234375
0.0855,3.203125,0.880859375,-4.00390625
0.086,2.4423828125,1.8818359375,-4.244140625
0.0865,1.8818359375,2.5224609375,-4.3642578125
0.087,1.0810546875,2.9228515625,-4.00390625
0.0875,0.2802734375,3.443359375,-3.763671875
0.088,-0.5205078125,3.7236328125,-3.2431640625
0.0885,-1.28125,4.1240234375,-2.9228515625
0.089,-2.2421875,4.1640625,-2.08203125
0.0895,-2.6025390625,4.083984375,-1.6416015625
0.09,-3.0830078125,3.84375,-0.9208984375
0.0905,-3.36328125,3.4833984375,-0.2802734375
0.091,-3.8037109375,3.123046875,0.48046875
0.0915,-4.00390625,2.322265625,1.44140625
0.092,-4.1240234375,1.6416015625,2.2421875
0.0925,-3.8837890625,1.041015625,2.642578125
0.093,-3.7236328125,0.2802734375,3.203125
0.0935,-3.203125,-0.48046875,3.5234375
0.094,-2.962890625,-1.201171875,3.9638671875
0.0945,-2.08203125,-2.2822265625,4.1640625
0.095,-1.521484375,-2.7626953125,4.1240234375
0.0955,-0.640625,-3.203125,3.763671875
0.096,0.1201171875,-3.68359375,3.5234375
0.0965,0.9208984375,-4.0439453125,3.0830078125
0.097,1.76171875,-4.3642578125,2.5224609375
0.0975,2.6025390625,-4.5244140625,1.8017578125
0.098,2.9228515625,-4.1640625,1.28125
0.0985,3.443359375,-3.9638671875,0.6005859375
0.099,3.6435546875,-3.443359375,-0.080078125
0.0995,4.083984375,-3.0830078125,-0.880859375
0.1,4.1240234375,-2.1220703125,-1.921875
0.1005,4.2841796875,-1.5615234375,-2.5625
0.101,3.84375,-0.80078125,-2.9228515625
0.1015,3.7236328125,-0.16015625,-3.4833984375
0.102,3.2431640625,0.640625,-3.8037109375
0.1025,2.8427734375,1.361328125,-4.1640625
0.103,2.08203125,2.3623046875,-4.3642578125
0.1035,1.44140625,2.72265625,-4.1640625
0.104,0.560546875,3.2431640625,-3.84375
0.1045,-0.1201171875,3.5634765625,-3.4833984375
0.105,-0.9208984375,3.9638671875,-3.1630859375
0.1055,-1.8017578125,4.083984375,-2.4423828125
0.106,-2.5224609375,4.244140625,-1.841796875
0.1065,-2.7626953125,3.8037109375,-1.2412109375
0.107,-3.283203125,3.763671875,-0.640625
0.1075,-3.5234375,3.1630859375,0.16015625
0.108,-3.8837890625,2.802734375,0.9208984375
0.1085,-4.0439453125,1.8818359375,1.921875
0.109,-4.0439453125,1.361328125,2.482421875
0.1095,-3.6435546875,0.560546875,2.8828125
0.11,-3.4833984375,-0.0400390625,3.3232421875
0.1105,-3.0830078125,-0.9208984375,3.763671875
0.111,-2.5224609375,-1.681640625,4.00390625
0.1115,-1.841796875,-2.5625,4.244140625
0.112,-1.041015625,-2.8828125,3.84375
0.1125,-0.2802734375,-3.5234375,3.68359375
0.113,0.560546875,-3.84375,3.1630859375
0.1135,1.28125,-4.32421875,2.8427734375
0.114,2.2421875,-4.3642578125,2.1220703125
0.1145,2.8427734375,-4.404296875,1.5615234375
0.115,3.0830078125,-3.8837890625,0.9208984375
0.1155,3.5634765625,-3.8037109375,0.3203125
0.116,3.84375,-3.1630859375,-0.6005859375
0.1165,4.1240234375,-2.642578125,-1.361328125
0.117,4.2841796875,-1.8017578125,-2.3623046875
0.1175,4.083984375,-1.201171875,-2.7626953125
0.118,3.8037109375,-0.3603515625,-3.283203125
0.1185,3.4833984375,0.2802734375,-3.68359375
0.119,3.04296875,1.12109375,-4.1240234375
0.1195,2.40234375,1.921875,-4.2841796875
0.12,1.76171875,2.6826171875,-4.4443359375
0.1205,0.880859375,2.9228515625,-3.84375
0.121,0.16015625,3.5634765625,-3.8037109375
0.1215,-0.720703125,3.84375,-3.203125
0.122,-1.44140625,4.1240234375,-2.7626953125
0.1225,-2.322265625,4.2841796875,-2.0419921875
0.123,-2.802734375,4.083984375,-1.44140625
0.1235,-3.123046875,3.68359375,-0.720703125
0.124,-3.5634765625,3.4833984375,-0.1201171875
0.1245,-3.84375,2.8427734375,0.80078125
0.125,-4.00390625,2.2421875,1.5615234375
0.1255,-4.2041015625,1.4814453125,2.482421875
0.126,-3.7236328125,0.7607421875,2.72265625
0.1265,-3.6435546875,0.080078125,3.36328125
0.127,-3.1630859375,-0.640625,3.68359375
0.1275,-2.72265625,-1.4814453125,4.00390625
0.128,-2.001953125,-2.322265625,4.1240234375
0.1285,-1.28125,-2.9228515625,4.083984375
0.129,-0.400390625,-3.2431640625,3.5234375
0.1295,0.240234375,-3.84375,3.4833984375
0.13,1.2412109375,-4.1240234375,2.8427734375
0.1305,1.8818359375,-4.2841796875,2.40234375
0.131,2.72265625,-4.4443359375,1.76171875
0.1315,2.962890625,-4.00390625,1.0810546875
0.132,3.4033203125,-3.8037109375,0.48046875
0.1325,3.7236328125,-3.36328125,-0.2802734375
0.133,4.00390625,-2.7626953125,-1.1611328125
0.1335,4.083984375,-2.08203125,-1.921875
0.134,4.2041015625,-1.44140625,-2.642578125
0.1345,3.6435546875,-0.640625,-2.8828125
0.135,3.68359375,-0.080078125,-3.5234375
0.1355,3.123046875,0.7607421875,-3.8037109375
0.136,2.6826171875,1.4814453125,-4.1240234375
0.1365,2.0419921875,2.2822265625,-4.244140625
0.137,1.3212890625,2.6025390625,-3.9638671875
0.1375,0.48046875,3.0830078125,-3.6435546875
0.138,-0.16015625,3.5234375,-3.4033203125
0.1385,-1.0009765625,3.8037109375,-2.8427734375
0.139,-1.6416015625,3.9638671875,-2.4423828125
0.1395,-2.3623046875,4.083984375,-1.841796875
0.14,-2.5625,3.603515625,-1.2412109375
0.1405,-3.0830078125,3.603515625,-0.6806640625
0.141,-3.36328125,3.04296875,0.1201171875
0.1415,-3.68359375,2.6025390625,0.9208984375
0.142,-3.8037109375,1.921875,1.6416015625
0.1425,-3.8037109375,1.4013671875,2.162109375
0.143,-3.36328125,0.640625,2.5625
0.1435,-3.4033203125,0.1201171875,3.123046875
0.144,-2.8828125,-0.7607421875,3.4833984375
0.1445,-2.482421875,-1.44140625,3.763671875
0.145,-1.8818359375,-2.2021484375,3.923828125
0.1455,-1.1611328125,-2.5625,3.5234375
0.146,-0.4404296875,-3.123046875,3.4833984375
0.1465,0.3603515625,-3.5634765625,3.123046875
0.147,1.12109375,-3.8837890625,2.72265625
0.1475,1.76171875,-4.0439453125,2.2421875
0.148,2.322265625,-4.1240234375,1.76171875
0.1485,2.6025390625,-3.68359375,1.12109375
0.149,3.1630859375,-3.7236328125,0.6005859375
0.1495,3.443359375,-3.0029296875,-0.3203125
0.15,3.8037109375,-2.642578125,-1.0009765625
0.1505,3.923828125,-1.9619140625,-1.8818359375
0.151,3.7236328125,-1.361328125,-2.2421875
0.1515,3.5234375,-0.640625,-2.802734375
0.152,3.4033203125,0.0,-3.2431640625
0.1525,2.9228515625,0.7607421875,-3.68359375
0.153,2.482421875,1.4013671875,-3.8837890625
0.1535,1.921875,2.0419921875,-4.0439453125
0.154,1.0810546875,2.482421875,-3.5234375
0.1545,0.48046875,3.0830078125,-3.5634765625
0.155,-0.3603515625,3.4033203125,-3.0830078125
0.1555,-1.0009765625,3.68359375,-2.72265625
0.156,-1.681640625,3.8037109375,-2.2021484375
0.1565,-2.08203125,3.68359375,-1.7216796875
0.157,-2.4423828125,3.443359375,-1.12109375
0.1575,-2.962890625,3.3232421875,-0.5205078125
0.158,-3.2431640625,2.6826171875,0.3603515625
0.1585,-3.5634765625,2.322265625,0.9609375
0.159,-3.7236328125,1.76171875,1.76171875
0.1595,-3.36328125,1.12109375,2.0419921875
0.16,-3.36328125,0.5205078125,2.6826171875
0.1605,-3.0830078125,-0.2802734375,3.123046875
0.161,-2.642578125,-1.0009765625,3.443359375
0.1615,-2.1220703125,-1.681640625,3.603515625
0.162,-1.6015625,-2.162109375,3.603515625
0.1625,-0.80078125,-2.5625,3.2431640625
0.163,-0.2001953125,-3.203125,3.3232421875
0.1635,0.6806640625,-3.5634765625,2.7626953125
0.164,1.28125,-3.84375,2.5224609375
0.1645,1.921875,-3.9638671875,2.0419921875
0.165,2.2421875,-3.68359375,1.4814453125
0.1655,2.6826171875,-3.603515625,0.9609375
0.166,3.1630859375,-3.2431640625,0.16015625
0.1665,3.4833984375,-2.72265625,-0.640625
0.167,3.68359375,-2.2421875,-1.3212890625
0.1675,3.8037109375,-1.76171875,-1.921875
0.168,3.443359375,-1.0009765625,-2.322265625
0.1685,3.5234375,-0.5205078125,-2.9228515625
0.169,3.04296875,0.3603515625,-3.36328125
0.1695,2.72265625,1.0009765625,-3.763671875
0.17,2.1220703125,1.76171875,-3.84375
0.1705,1.521484375,2.162109375,-3.603515625
0.171,0.7607421875,2.642578125,-3.4033203125
0.1715,0.080078125,3.203125,-3.3232421875
0.172,-0.720703125,3.443359375,-2.72265625
0.1725,-1.28125,3.68359375,-2.482421875
0.173,-1.8818359375,3.763671875,-1.9619140625
0.1735,-2.1220703125,3.4033203125,-1.361328125
0.174,-2.72265625,3.443359375,-0.8408203125
0.1745,-3.0830078125,2.8427734375,0.0400390625
0.175,-3.36328125,2.482421875,0.720703125
0.1755,-3.5634765625,1.921875,1.4013671875
0.176,-3.4833984375,1.4013671875,1.841796875
0.1765,-3.203125,0.6806640625,2.2822265625
0.177,-3.203125,0.1201171875,2.8828125
0.1775,-2.6826171875,-0.7607421875,3.203125
0.178,-2.322265625,-1.361328125,3.5634765625
0.1785,-1.76171875,-1.9619140625,3.603515625
0.179,-1.0009765625,-2.3623046875,3.283203125
0.1795,-0.3603515625,-2.962890625,3.2431640625
0.18,0.4404296875,-3.4033203125,2.8828125
0.1805,1.12109375,-3.7236328125,2.5224609375
0.181,1.681640625,-3.84375,2.162109375
0.1815,2.08203125,-3.84375,1.76171875
0.182,2.4423828125,-3.4833984375,1.041015625
0.1825,3.04296875,-3.4833984375,0.5205078125
0.183,3.2431640625,-2.72265625,-0.4404296875
0.1835,3.603515625,-2.482421875,-1.0009765625
0.184,3.68359375,-1.8017578125,-1.76171875
0.1845,3.4833984375,-1.3212890625,-2.08203125
0.185,3.36328125,-0.640625,-2.642578125
0.1855,3.1630859375,0.0400390625,-3.203125
0.186,2.72265625,0.8408203125,-3.5234375
0.1865,2.322265625,1.44140625,-3.7236328125
0.187,1.76171875,1.9619140625,-3.7236328125
0.1875,0.9208984375,2.40234375,-3.36328125
0.188,0.3603515625,3.04296875,-3.4833984375
0.1885,-0.5205078125,3.3232421875,-2.8427734375
0.189,-1.041015625,3.6435546875,-2.642578125
0.1895,-1.6416015625,3.6435546875,-2.08203125
0.19,-1.9619140625,3.5234375,-1.681640625
0.1905,-2.40234375,3.283203125,-1.041015625
0.191,-2.9228515625,3.1630859375,-0.3603515625
0.1915,-3.1630859375,2.482421875,0.48046875
0.192,-3.4833984375,2.2021484375,1.0810546875
0.1925,-3.4833984375,1.5615234375,1.6416015625
0.193,-3.203125,0.9609375,2.0419921875
0.1935,-3.283203125,0.3603515625,2.642578125
0.194,-2.8427734375,-0.400390625,3.0830078125
0.1945,-2.482421875,-1.0810546875,3.443359375
0.195,-1.9619140625,-1.681640625,3.4833984375
0.1955,-1.361328125,-2.1220703125,3.4033203125
0.196,-0.6005859375,-2.5625,3.123046875
0.1965,0.0,-3.2431640625,3.1630859375
0.197,0.880859375,-3.4833984375,2.5224609375
0.1975,1.3212890625,-3.8037109375,2.40234375
0.198,1.921875,-3.763671875,1.8818359375
0.1985,2.162109375,-3.5234375,1.4013671875
0.199,2.6826171875,-3.4033203125,0.7607421875
0.1995,3.123046875,-2.962890625,0.0
0.2,3.36328125,-2.5625,-0.720703125
0.2005,3.5634765625,-2.1220703125,-1.361328125
0.201,3.5234375,-1.6015625,-1.841796875
0.2015,3.2431640625,-0.9609375,-2.2822265625
0.202,3.36328125,-0.3203125,-2.9228515625
0.2025,2.8427734375,0.48046875,-3.2431640625
0.203,2.5625,1.0810546875,-3.603515625
0.2035,1.9619140625,1.6416015625,-3.5634765625
0.204,1.361328125,2.08203125,-3.4033203125
0.2045,0.6806640625,2.5625,-3.283203125
0.205,0.0,3.123046875,-3.123046875
0.2055,-0.720703125,3.3232421875,-2.6025390625
0.206,-1.1611328125,3.5234375,-2.4423828125
0.2065,-1.6416015625,3.5234375,-1.9619140625
0.207,-2.001953125,3.283203125,-1.44140625
0.2075,-2.6025390625,3.3232421875,-0.8408203125
0.208,-2.8828125,2.6826171875,0.0400390625
0.2085,-3.2431640625,2.40234375,0.6005859375
0.209,-3.36328125,1.8818359375,1.2412109375
0.2095,-3.3232421875,1.44140625,1.6015625
0.21,-3.1630859375,0.7607421875,2.2021484375
0.2105,-3.123046875,0.1201171875,2.802734375
0.211,-2.6025390625,-0.640625,3.123046875
0.2115,-2.322265625,-1.2412109375,3.443359375
0.212,-1.681640625,-1.8017578125,3.3232421875
0.2125,-1.0009765625,-2.2421875,3.1630859375
0.213,-0.400390625,-2.8828125,3.1630859375
0.2135,0.4404296875,-3.2431640625,2.7626953125
0.214,1.0009765625,-3.603515625,2.5224609375
0.2145,1.4814453125,-3.68359375,2.2021484375
0.215,1.8818359375,-3.603515625,1.76171875
0.2155,2.2421875,-3.36328125,1.12109375
0.216,2.8427734375,-3.3232421875,0.48046875
0.2165,3.123046875,-2.642578125,-0.400390625
0.217,3.443359375,-2.4423828125,-0.9208984375
0.2175,3.4033203125,-1.8818359375,-1.5615234375
0.218,3.3232421875,-1.3212890625,-1.921875
0.2185,3.283203125,-0.640625,-2.5625
0.219,3.04296875,0.0400390625,-3.04296875
0.2195,2.6826171875,0.720703125,-3.36328125
0.22,2.2822265625,1.28125,-3.5234375
0.2205,1.681640625,1.8017578125,-3.443359375
0.221,0.9609375,2.2421875,-3.203125
0.2215,0.400390625,2.8828125,-3.3232421875
0.222,-0.4404296875,3.123046875,-2.72265625
0.2225,-0.9208984375,3.4833984375,-2.6025390625
0.223,-1.4013671875,3.443359375,-2.1220703125
0.2235,-1.76171875,3.4033203125,-1.76171875
0.224,-2.2822265625,3.203125,-1.041015625
0.2245,-2.7626953125,2.962890625,-0.3603515625
0.225,-3.0830078125,2.40234375,0.4404296875
0.2255,-3.36328125,2.162109375,0.9609375
0.226,-3.283203125,1.6015625,1.4814453125
0.2265,-3.1630859375,1.041015625,1.921875
0.227,-3.203125,0.3603515625,2.642578125
0.2275,-2.72265625,-0.4404296875,3.0029296875
0.228,-2.4423828125,-1.0810546875,3.36328125
