wavelength,x,y,z
0.0,15.209838867188,-21.105590820312,6.4412841796875
0.0005,18.132690429688,-19.904418945312,2.4373779296875
0.001,20.454956054688,-17.782348632812,-2.0069580078125
0.0015,22.096557617188,-15.580200195312,-5.7706298828125
0.002,22.216674804688,-12.577270507812,-8.7735595703125
0.0025,22.176635742188,-9.0538330078125,-12.337036132812
0.003,21.415893554688,-4.6495361328125,-15.900512695312
0.0035,20.014526367188,-0.2852783203125,-18.903442382812
0.004,17.612182617188,3.7987060546875,-19.223754882812
0.0045,15.410034179688,7.0418701171875,-21.666137695312
0.005,12.286987304688,10.204956054688,-21.866333007812
0.0055,7.2420654296875,14.288940429688,-20.985473632812
0.006,2.9578857421875,17.171752929688,-19.904418945312
0.0065,-2.0870361328125,19.694213867188,-17.702270507812
0.007,-6.0509033203125,21.255737304688,-15.580200195312
0.0075,-8.9337158203125,21.455932617188,-13.017700195312
0.008,-12.136840820312,21.656127929688,-10.214965820312
0.0085,-16.100708007812,20.615112304688,-5.3702392578125
0.009,-18.943481445312,18.973510742188,-0.9659423828125
0.0095,-20.785278320312,16.771362304688,3.0379638671875
0.01,-22.146606445312,14.609252929688,6.5614013671875
0.0105,-22.186645507812,11.446166992188,9.7244873046875
0.011,-21.946411132812,7.3621826171875,13.528198242188
0.0115,-21.145629882812,3.3182373046875,17.932495117188
0.012,-19.383911132812,-1.1661376953125,19.453979492188
0.0125,-17.061645507812,-5.0499267578125,21.055541992188
0.013,-14.539184570312,-8.0128173828125,21.616088867188
0.0135,-10.255004882812,-11.255981445312,21.936401367188
0.014,-5.8507080078125,-15.500122070312,20.775268554688
0.0145,-1.3262939453125,-18.222778320312,20.494995117188
0.015,3.2381591796875,-20.224731445312,16.971557617188
0.0155,6.8817138671875,-21.746215820312,15.049682617188
0.016,10.044799804688,-21.666137695312,12.006713867188
0.0165,13.368041992188,-21.546020507812,8.7235107421875
0.017,17.011596679688,-20.665161132812,4.1990966796875
0.0175,19.854370117188,-18.583129882812,-0.6456298828125
0.018,21.415893554688,-16.340942382812,-4.3692626953125
0.0185,22.336791992188,-13.938598632812,-7.5723876953125
0.019,22.416870117188,-10.815551757812,-10.775512695312
0.0195,21.816284179688,-5.9307861328125,-14.939575195312
0.02,20.775268554688,-2.2071533203125,-17.662231445312
0.0205,18.773315429688,2.2371826171875,-20.104614257812
0.021,16.531127929688,6.0809326171875,-21.746215820312
0.0215,13.287963867188,9.1239013671875,-21.706176757812
0.022,9.8846435546875,12.527221679688,-21.866333007812
0.0225,4.3192138671875,17.932495117188,-20.665161132812
0.023,-0.8057861328125,19.333862304688,-18.583129882812
0.0235,-4.6895751953125,20.935424804688,-16.461059570312
0.024,-8.1729736328125,22.096557617188,-14.459106445312
0.0245,-10.255004882812,21.976440429688,-11.095825195312
0.025,-15.219848632812,21.295776367188,-6.8917236328125
0.0255,-18.422973632812,20.214721679688,-2.7677001953125
0.026,-20.985473632812,19.213745117188,2.1170654296875
0.0265,-22.306762695312,15.650268554688,5.7205810546875
0.027,-22.787231445312,12.727416992188,10.244995117188
0.0275,-22.827270507812,9.4842529296875,12.286987304688
0.028,-21.986450195312,4.3992919921875,16.531127929688
0.0285,-20.424926757812,0.1551513671875,20.494995117188
0.029,-18.302856445312,-3.9288330078125,21.095581054688
0.0295,-16.140747070312,-7.5323486328125,22.657104492188
0.03,-12.296997070312,-10.855590820312,22.296752929688
0.0305,-8.0528564453125,-14.539184570312,21.976440429688
0.031,-2.9678955078125,-18.102661132812,20.655151367188
0.0315,2.5174560546875,-20.665161132812,18.092651367188
0.032,6.0809326171875,-21.826293945312,15.930541992188
0.0325,9.4442138671875,-22.627075195312,13.488159179688
0.033,12.727416992188,-22.426879882812,10.204956054688
0.0335,16.771362304688,-21.305786132812,5.0799560546875
0.034,19.574096679688,-19.704223632812,0.8758544921875
0.0345,21.736206054688,-17.341918945312,-3.5684814453125
0.035,22.777221679688,-14.939575195312,-7.0118408203125
0.0355,22.737182617188,-11.496215820312,-10.335083007812
0.036,22.577026367188,-7.9727783203125,-13.738403320312
0.0365,21.656127929688,-3.2882080078125,-17.462036132812
0.037,19.574096679688,1.3963623046875,-19.984497070312
0.0375,17.251831054688,5.0399169921875,-21.385864257812
0.038,14.889526367188,8.4432373046875,-22.546997070312
0.0385,11.005737304688,11.726440429688,-22.106567382812
0.039,5.8406982421875,15.730346679688,-21.145629882812
0.0395,2.5574951171875,18.693237304688,-19.824340820312
0.04,-3.7686767578125,20.895385742188,-17.341918945312
0.0405,-7.1319580078125,21.816284179688,-15.099731445312
0.041,-10.455200195312,22.056518554688,-12.216918945312
0.0415,-13.698364257812,21.816284179688,-7.6925048828125
0.042,-17.502075195312,20.615112304688,-4.0089111328125
0.0425,-20.104614257812,18.533081054688,0.6756591796875
0.043,-21.706176757812,16.330932617188,4.3992919921875
0.0435,-22.627075195312,13.928588867188,8.9637451171875
0.044,-22.386840820312,10.325073242188,10.965698242188
0.0445,-21.906372070312,6.1209716796875,14.729370117188
0.045,-20.985473632812,2.0369873046875,17.852416992188
0.0455,-18.863403320312,-1.2862548828125,20.294799804688
0.046,-16.501098632812,-5.9708251953125,21.415893554688
0.0465,-13.858520507812,-9.1339111328125,22.096557617188
0.047,-10.134887695312,-12.457153320312,21.816284179688
0.0475,-4.5694580078125,-16.380981445312,20.454956054688
0.048,0.1551513671875,-18.943481445312,18.613159179688
0.0485,4.4393310546875,-20.865356445312,16.451049804688
0.049,8.9637451171875,-21.666137695312,14.328979492188
0.0495,11.005737304688,-21.626098632812,11.005737304688
0.05,14.288940429688,-21.145629882812,7.4422607421875
0.0505,17.652221679688,-19.944458007812,2.9979248046875
0.051,20.094604492188,-17.662231445312,-1.8067626953125
0.0515,21.335815429688,-15.540161132812,-5.0499267578125
0.052,22.056518554688,-12.977661132812,-8.2530517578125
0.0525,23.057495117188,-9.5343017578125,-11.416137695312
0.053,21.055541992188,-5.0098876953125,-15.179809570312
0.0535,19.854370117188,-1.0860595703125,-17.902465820312
0.054,17.852416992188,3.1580810546875,-20.064575195312
0.0545,15.450073242188,7.6824951171875,-21.065551757812
0.055,12.286987304688,9.6043701171875,-21.225708007812
0.0555,8.4432373046875,13.087768554688,-21.065551757812
0.056,3.2381591796875,16.691284179688,-19.704223632812
0.0565,-1.6466064453125,19.013549804688,-17.421997070312
0.057,-3.8487548828125,20.454956054688,-15.660278320312
0.0575,-8.3331298828125,21.255737304688,-13.458129882812
0.058,-11.576293945312,21.095581054688,-10.134887695312
0.0585,-15.179809570312,20.414916992188,-5.9708251953125
0.059,-18.142700195312,19.053588867188,-1.8067626953125
0.0595,-20.384887695312,16.771362304688,2.7176513671875
0.06,-21.305786132812,14.649291992188,5.7205810546875
0.0605,-20.505004882812,11.726440429688,9.0838623046875
0.061,-21.626098632812,8.1229248046875,12.407104492188
0.0615,-20.785278320312,3.6785888671875,16.050659179688
0.062,-19.103637695312,-0.5255126953125,18.533081054688
0.0625,-17.181762695312,-4.2491455078125,20.414916992188
0.063,-14.859497070312,-7.4122314453125,21.295776367188
0.0635,-11.296020507812,-10.615356445312,21.095581054688
0.064,-6.8917236328125,-14.298950195312,20.575073242188
0.0645,-1.9268798828125,-17.622192382812,19.133666992188
0.065,2.9178466796875,-19.704223632812,17.932495117188
0.0655,6.0008544921875,-20.785278320312,14.849487304688
0.066,9.2039794921875,-21.305786132812,12.487182617188
0.0665,12.487182617188,-20.905395507812,8.9237060546875
0.067,16.010620117188,-20.024536132812,4.5994873046875
0.0675,18.693237304688,-18.302856445312,0.3553466796875
0.068,20.655151367188,-16.180786132812,-3.8087158203125
0.0685,21.295776367188,-13.818481445312,-6.6915283203125
0.069,21.455932617188,-10.735473632812,-9.9346923828125
0.0695,21.095581054688,-6.7716064453125,-13.458129882812
0.07,20.214721679688,-2.6475830078125,-16.701293945312
0.0705,18.132690429688,1.5965576171875,-18.903442382812
0.071,16.170776367188,4.9598388671875,-20.184692382812
0.0715,13.688354492188,8.0428466796875,-21.025512695312
0.072,9.7244873046875,11.406127929688,-20.585083007812
0.0725,5.1600341796875,14.849487304688,-19.744262695312
0.073,0.4754638671875,17.772338867188,-18.142700195312
0.0735,-3.8887939453125,19.654174804688,-15.980590820312
0.074,-6.7315673828125,20.414916992188,-14.058715820312
0.0745,-9.9346923828125,20.735229492188,-11.416137695312
0.075,-13.458129882812,20.254760742188,-7.5723876953125
0.0755,-16.541137695312,20.494995117188,-3.4483642578125
0.076,-18.863403320312,17.291870117188,0.7957763671875
0.0765,-19.223754882812,15.249877929688,4.3192138671875
0.077,-21.025512695312,14.088745117188,7.2821044921875
0.0775,-21.025512695312,9.4442138671875,10.565307617188
0.078,-20.464965820312,5.3602294921875,15.369995117188
0.0785,-19.463989257812,1.3963623046875,17.091674804688
0.079,-17.341918945312,-2.7276611328125,19.053588867188
0.0795,-14.098754882812,-5.6505126953125,20.094604492188
0.08,-11.536254882812,-8.7335205078125,20.695190429688
0.0805,-8.4932861328125,-12.377075195312,20.134643554688
0.081,-3.8887939453125,-15.540161132812,18.933471679688
0.0815,0.6356201171875,-17.982543945312,17.091674804688
0.082,4.4793701171875,-19.624145507812,15.209838867188
0.0825,7.2020263671875,-20.104614257812,13.127807617188
0.083,10.204956054688,-20.264770507812,10.405151367188
0.0835,13.888549804688,-19.704223632812,6.3612060546875
0.084,16.811401367188,-18.463012695312,2.2371826171875
0.0845,18.893432617188,-16.421020507812,-1.8067626953125
0.085,20.094604492188,-14.539184570312,-4.8497314453125
0.0855,20.535034179688,-11.976684570312,-7.8526611328125
0.086,20.334838867188,-8.3331298828125,-11.255981445312
0.0865,19.694213867188,-4.5294189453125,-14.379028320312
0.087,18.372924804688,-0.6055908203125,-17.021606445312
0.0875,16.491088867188,3.2781982421875,-18.943481445312
0.088,14.208862304688,6.0408935546875,-19.504028320312
0.0885,12.807495117188,10.244995117188,-19.904418945312
0.089,6.9217529296875,14.088745117188,-19.303833007812
0.0895,2.4774169921875,15.770385742188,-18.062622070312
0.09,-1.8067626953125,17.772338867188,-16.060668945312
0.0905,-5.0899658203125,19.293823242188,-14.499145507812
0.091,-7.8927001953125,19.654174804688,-12.216918945312
0.0915,-10.975708007812,19.494018554688,-9.1339111328125
0.092,-14.379028320312,18.973510742188,-5.3302001953125
0.0925,-17.061645507812,17.452026367188,-1.1661376953125
0.093,-18.943481445312,15.490112304688,2.6375732421875
0.0935,-19.744262695312,13.488159179688,5.4002685546875
0.094,-20.224731445312,10.845581054688,8.4432373046875
0.0945,-19.904418945312,6.8416748046875,12.166870117188
0.095,-17.942504882812,3.1580810546875,15.049682617188
0.0955,-17.582153320312,-0.6856689453125,17.211791992188
0.096,-15.900512695312,-4.1290283203125,19.053588867188
0.0965,-13.418090820312,-6.9317626953125,19.453979492188
0.097,-10.295043945312,-9.9346923828125,19.494018554688
0.0975,-5.8507080078125,-13.578247070312,18.813354492188
0.098,-1.2462158203125,-16.380981445312,17.291870117188
0.0985,2.7176513671875,-18.102661132812,15.289916992188
0.099,5.5604248046875,-19.183715820312,13.768432617188
0.0995,8.4832763671875,-19.544067382812,11.366088867188
0.1,11.966674804688,-19.143676757812,8.9637451171875
0.1005,14.849487304688,-18.463012695312,4.1590576171875
0.101,17.291870117188,-16.821411132812,0.1551513671875
0.1015,19.053588867188,-14.939575195312,-3.4483642578125
0.102,19.453979492188,-12.697387695312,-6.0909423828125
0.1025,19.774291992188,-9.9747314453125,-9.0538330078125
0.103,19.333862304688,-5.8907470703125,-12.737426757812
0.1035,18.493041992188,-2.1671142578125,-15.540161132812
0.104,17.932495117188,1.5565185546875,-17.341918945312
0.1045,15.009643554688,4.5594482421875,-18.863403320312
0.105,12.367065429688,7.4022216796875,-17.942504882812
0.1055,8.4432373046875,10.845581054688,-18.903442382812
0.106,4.5194091796875,13.928588867188,-18.222778320312
0.1065,1.2762451171875,16.611206054688,-16.380981445312
0.107,-3.6885986328125,18.212768554688,-14.739379882812
0.1075,-6.2510986328125,18.813354492188,-12.937622070312
0.108,-9.0538330078125,19.253784179688,-10.735473632812
0.1085,-12.857543945312,18.653198242188,-6.4512939453125
0.109,-15.500122070312,17.612182617188,-2.8878173828125
0.1095,-17.502075195312,15.930541992188,0.7957763671875
0.11,-19.103637695312,14.208862304688,3.9989013671875
0.1105,-19.303833007812,11.686401367188,6.6815185546875
0.111,-19.423950195312,8.4832763671875,10.004760742188
0.1115,-18.983520507812,4.7996826171875,13.247924804688
0.112,-17.822387695312,0.9158935546875,15.970581054688
0.1125,-16.020629882812,-2.6475830078125,17.652221679688
0.113,-14.258911132812,-5.3302001953125,18.613159179688
0.1135,-11.776489257812,-8.1729736328125,19.093627929688
0.114,-7.0919189453125,-11.936645507812,18.412963867188
0.1145,-3.1680908203125,-14.619262695312,17.411987304688
0.115,0.9559326171875,-16.781372070312,15.690307617188
0.1155,4.2791748046875,-18.382934570312,14.168823242188
0.116,6.8016357421875,-18.623168945312,12.046752929688
0.1165,9.6444091796875,-18.863403320312,9.6043701171875
0.117,13.247924804688,-18.342895507812,5.5604248046875
0.1175,15.850463867188,-16.941528320312,1.7166748046875
0.118,17.572143554688,-15.259887695312,-1.6866455078125
0.1185,18.693237304688,-13.498168945312,-4.5294189453125
0.119,18.933471679688,-11.015747070312,-7.2520751953125
0.1195,18.813354492188,-7.2120361328125,-10.895629882812
0.12,18.372924804688,-4.0089111328125,-13.578247070312
0.1205,16.931518554688,-0.2852783203125,-16.020629882812
0.121,15.289916992188,3.1580810546875,-17.702270507812
0.1215,13.007690429688,5.7205810546875,-18.102661132812
0.122,10.525268554688,8.5633544921875,-18.583129882812
0.1225,5.7205810546875,12.447143554688,-17.902465820312
0.123,1.6766357421875,15.049682617188,-16.541137695312
0.1235,-1.9268798828125,16.771362304688,-14.979614257812
0.124,-4.9298095703125,18.212768554688,-13.618286132812
0.1245,-7.6524658203125,18.412963867188,-11.215942382812
0.125,-10.775512695312,18.292846679688,-8.0928955078125
0.1255,-13.938598632812,17.852416992188,-4.6495361328125
0.126,-16.380981445312,16.210815429688,-0.6456298828125
0.1265,-17.982543945312,14.569213867188,3.8387451171875
0.127,-18.663208007812,12.487182617188,5.2401123046875
0.1275,-19.063598632812,10.124877929688,8.0428466796875
0.128,-18.663208007812,5.8006591796875,11.966674804688
0.1285,-17.982543945312,2.3973388671875,14.569213867188
0.129,-16.461059570312,-1.1661376953125,16.611206054688
0.1295,-14.939575195312,-4.3692626953125,18.292846679688
0.13,-12.216918945312,-7.0118408203125,18.412963867188
0.1305,-9.1339111328125,-10.094848632812,18.533081054688
0.131,-4.7696533203125,-13.618286132812,17.892456054688
0.1315,-0.2052001953125,-16.180786132812,16.090698242188
0.132,3.1580810546875,-17.662231445312,14.569213867188
0.1325,5.9608154296875,-18.743286132812,12.967651367188
0.133,8.6834716796875,-18.983520507812,10.605346679688
0.1335,12.447143554688,-18.463012695312,6.5213623046875
0.134,15.209838867188,-17.702270507812,3.0780029296875
0.1345,17.371948242188,-16.020629882812,-0.8057861328125
0.135,18.813354492188,-14.258911132812,-3.8887939453125
0.1355,19.093627929688,-11.736450195312,-6.6514892578125
0.136,19.373901367188,-7.6925048828125,-9.6544189453125
0.1365,18.893432617188,-4.8497314453125,-13.378051757812
0.137,17.612182617188,-1.0059814453125,-15.980590820312
0.1375,15.930541992188,2.3572998046875,-17.582153320312
0.138,14.208862304688,5.4403076171875,-18.983520507812
0.1385,11.245971679688,8.2830810546875,-18.983520507812
0.139,6.9617919921875,12.006713867188,-18.543090820312
0.1395,3.0379638671875,15.009643554688,-17.782348632812
0.14,-1.5665283203125,17.291870117188,-15.820434570312
0.1405,-4.6495361328125,18.613159179688,-14.178833007812
0.141,-7.5323486328125,19.133666992188,-12.056762695312
0.1415,-10.375122070312,19.333862304688,-9.5743408203125
0.142,-14.178833007812,18.533081054688,-5.0899658203125
0.1425,-16.741333007812,17.131713867188,-1.1661376953125
0.143,-18.503051757812,16.651245117188,2.3172607421875
0.1435,-19.664184570312,13.448120117188,5.3201904296875
0.144,-19.664184570312,10.485229492188,8.2430419921875
0.1445,-19.584106445312,7.0418701171875,11.566284179688
0.145,-19.063598632812,3.2781982421875,14.769409179688
0.1455,-17.381958007812,-0.8458251953125,17.211791992188
0.146,-15.460083007812,-4.0089111328125,18.533081054688
0.1465,-13.458129882812,-6.8116455078125,19.373901367188
0.147,-10.455200195312,-9.7745361328125,19.453979492188
0.1475,-5.4102783203125,-13.658325195312,18.453002929688
0.148,-0.0050048828125,-16.220825195312,17.211791992188
0.1485,2.7977294921875,-18.102661132812,15.329956054688
0.149,5.7205810546875,-17.942504882812,13.648315429688
0.1495,8.6834716796875,-19.303833007812,10.925659179688
0.15,11.646362304688,-17.942504882812,8.0428466796875
0.1505,15.049682617188,-18.422973632812,3.9588623046875
0.151,17.452026367188,-16.541137695312,-0.3653564453125
0.1515,18.773315429688,-14.779418945312,-3.3682861328125
0.152,19.614135742188,-12.697387695312,-6.2510986328125
0.1525,19.534057617188,-9.8946533203125,-7.6925048828125
0.153,19.093627929688,-5.7706298828125,-12.617309570312
0.1535,18.292846679688,-2.3272705078125,-15.299926757812
0.154,16.691284179688,1.5565185546875,-17.421997070312
0.1545,14.729370117188,4.5994873046875,-18.583129882812
0.155,12.166870117188,7.4022216796875,-18.903442382812
0.1555,8.9237060546875,10.485229492188,-19.063598632812
0.156,4.1590576171875,14.128784179688,-17.982543945312
0.1565,-0.2852783203125,16.531127929688,-16.180786132812
0.157,-3.5284423828125,18.012573242188,-14.739379882812
0.1575,-5.1300048828125,19.053588867188,-13.017700195312
0.158,-9.2940673828125,19.013549804688,-8.9737548828125
0.1585,-12.657348632812,18.613159179688,-6.6114501953125
0.159,-15.580200195312,17.772338867188,-2.9278564453125
0.1595,-17.782348632812,15.850463867188,1.1561279296875
0.16,-18.903442382812,15.369995117188,3.9588623046875
0.1605,-19.463989257812,11.646362304688,6.8817138671875
0.161,-19.504028320312,8.7635498046875,9.7645263671875
0.1615,-18.943481445312,4.5194091796875,13.448120117188
0.162,-17.742309570312,0.8358154296875,15.970581054688
0.1625,-16.180786132812,-2.6075439453125,17.852416992188
0.163,-14.419067382812,-5.5303955078125,19.053588867188
0.1635,-11.376098632812,-8.4132080078125,19.013549804688
0.164,-7.5723876953125,-11.896606445312,18.853393554688
0.1645,-3.0880126953125,-15.139770507812,17.852416992188
0.165,1.5164794921875,-17.381958007812,15.730346679688
0.1655,4.3992919921875,-18.583129882812,14.248901367188
0.166,7.3221435546875,-19.383911132812,12.286987304688
0.1665,10.325073242188,-19.263793945312,9.3641357421875
0.167,13.848510742188,-18.583129882812,5.2801513671875
0.1675,16.531127929688,-17.341918945312,1.4764404296875
0.168,18.533081054688,-15.460083007812,-2.4473876953125
0.1685,19.373901367188,-13.578247070312,-5.1700439453125
0.169,19.654174804688,-10.735473632812,-8.2530517578125
0.1695,19.574096679688,-7.4522705078125,-11.456176757812
0.17,18.973510742188,-3.4884033203125,-14.699340820312
0.1705,17.251831054688,0.5955810546875,-17.021606445312
0.171,15.530151367188,3.7987060546875,-18.543090820312
0.1715,13.408081054688,6.7615966796875,-19.504028320312
0.172,9.9647216796875,9.8446044921875,-19.303833007812
0.1725,5.6004638671875,13.408081054688,-18.663208007812
0.173,2.5574951171875,16.330932617188,-17.502075195312
0.1735,-3.1280517578125,18.372924804688,-15.420043945312
0.174,-5.9307861328125,20.494995117188,-13.778442382812
0.1745,-7.6925048828125,19.774291992188,-11.255981445312
0.175,-12.216918945312,19.494018554688,-7.9727783203125
0.1755,-15.540161132812,18.613159179688,-2.5675048828125
0.176,-17.982543945312,16.891479492188,0.3153076171875
0.1765,-19.744262695312,14.969604492188,5.1199951171875
0.177,-20.384887695312,12.687377929688,6.7215576171875
0.1775,-20.464965820312,9.4442138671875,10.044799804688
0.178,-20.064575195312,5.5604248046875,13.488159179688
