wavelength,x,y,z
0.0,3.012939453125,19.829345703125,-22.932373046875
0.0005,-2.592529296875,22.672119140625,-20.369873046875
0.001,-7.237060546875,24.313720703125,-17.487060546875
0.0015,-12.161865234375,24.273681640625,-12.602294921875
0.002,-15.885498046875,24.834228515625,-9.559326171875
0.0025,-19.689208984375,23.432861328125,-4.314208984375
0.003,-22.451904296875,21.911376953125,0.010009765625
0.0035,-23.973388671875,19.148681640625,4.334228515625
0.004,-25.815185546875,15.865478515625,9.619384765625
0.0045,-24.774169921875,11.180908203125,13.302978515625
0.005,-25.054443359375,7.457275390625,17.346923828125
0.0055,-23.332763671875,3.133056640625,19.949462890625
0.006,-21.490966796875,-2.152099609375,23.312744140625
0.0065,-18.327880859375,-6.356201171875,24.353759765625
0.007,-14.203857421875,-11.641357421875,25.514892578125
0.0075,-10.520263671875,-15.084716796875,25.274658203125
0.008,-5.395263671875,-19.088623046875,24.113525390625
0.0085,-0.870849609375,-21.290771484375,21.911376953125
0.009,4.134033203125,-23.693115234375,19.348876953125
0.0095,9.259033203125,-25.134521484375,15.785400390625
0.01,13.703369140625,-24.453857421875,10.820556640625
0.0105,17.467041015625,-25.014404296875,7.697509765625
0.011,20.950439453125,-23.132568359375,2.412353515625
0.0115,23.673095703125,-21.290771484375,-2.272216796875
0.012,24.473876953125,-18.287841796875,-6.156005859375
0.0125,26.035400390625,-14.684326171875,-11.401123046875
0.013,24.994384765625,-10.119873046875,-14.924560546875
0.0135,24.834228515625,-6.035888671875,-18.928466796875
0.014,22.632080078125,-1.551513671875,-21.290771484375
0.0145,20.790283203125,3.453369140625,-24.333740234375
0.015,17.026611328125,7.937744140625,-25.014404296875
0.0155,12.702392578125,12.822509765625,-25.614990234375
0.016,9.218994140625,16.145751953125,-25.494873046875
0.0165,3.693603515625,19.829345703125,-23.693115234375
0.017,-0.990966796875,22.031494140625,-21.290771484375
0.0175,-5.355224609375,23.753173828125,-18.848388671875
0.018,-10.760498046875,25.234619140625,-14.884521484375
0.0185,-14.724365234375,24.153564453125,-9.959716796875
0.019,-18.528076171875,24.593994140625,-6.676513671875
0.0195,-21.330810546875,22.351806640625,-1.591552734375
0.02,-24.053466796875,20.429931640625,3.133056640625
0.0205,-24.413818359375,16.986572265625,7.016845703125
0.021,-25.614990234375,13.142822265625,12.101806640625
0.0215,-24.734130859375,9.018798828125,15.425048828125
0.022,-24.213623046875,4.614501953125,19.348876953125
0.0225,-21.851318359375,0.210205078125,21.470947265625
0.023,-19.969482421875,-4.514404296875,24.153564453125
0.0235,-15.965576171875,-9.239013671875,24.874267578125
0.024,-11.401123046875,-13.643310546875,24.714111328125
0.0245,-8.318115234375,-16.926513671875,24.914306640625
0.025,-2.512451171875,-20.209716796875,22.431884765625
0.0255,1.971923828125,-22.491943359375,20.269775390625
0.026,6.376220703125,-23.693115234375,17.306884765625
0.0265,11.701416015625,-25.054443359375,13.423095703125
0.027,15.465087890625,-23.933349609375,8.618408203125
0.0275,19.348876953125,-24.213623046875,5.014892578125
0.028,21.911376953125,-21.771240234375,0.010009765625
0.0285,24.473876953125,-19.809326171875,-4.594482421875
0.029,24.634033203125,-16.005615234375,-8.598388671875
0.0295,25.434814453125,-12.041748046875,-13.443115234375
0.03,24.754150390625,-8.318115234375,-16.606201171875
0.0305,23.633056640625,-3.273193359375,-20.489990234375
0.031,21.310791015625,1.291259765625,-22.652099609375
0.0315,18.868408203125,6.015869140625,-24.934326171875
0.032,14.784423828125,10.740478515625,-25.655029296875
0.0325,9.939697265625,15.024658203125,-25.014404296875
0.033,6.736572265625,18.227783203125,-25.134521484375
0.0335,0.570556640625,21.470947265625,-22.251708984375
0.034,-3.993896484375,23.753173828125,-20.089599609375
0.0345,-8.718505859375,24.393798828125,-16.085693359375
0.035,-13.643310546875,25.594970703125,-12.482177734375
0.0355,-17.326904296875,24.313720703125,-7.557373046875
0.036,-20.970458984375,23.953369140625,-3.553466796875
0.0365,-23.372802734375,21.230712890625,1.611572265625
0.037,-25.735107421875,18.788330078125,6.456298828125
0.0375,-25.294677734375,14.303955078125,10.580322265625
0.038,-25.935302734375,10.219970703125,15.385009765625
0.0385,-25.094482421875,6.496337890625,18.307861328125
0.039,-23.332763671875,0.970947265625,22.111572265625
0.0395,-20.770263671875,-3.713623046875,24.193603515625
0.04,-17.447021484375,-8.758544921875,25.835205078125
0.0405,-13.483154296875,-13.122802734375,26.235595703125
0.041,-8.318115234375,-17.286865234375,25.194580078125
0.0415,-4.754638671875,-20.169677734375,24.513916015625
0.042,1.571533203125,-23.092529296875,21.390869140625
0.0425,6.376220703125,-25.254638671875,18.868408203125
0.043,11.341064453125,-25.214599609375,13.903564453125
0.0435,15.665283203125,-26.095458984375,10.540283203125
0.044,19.388916015625,-24.654052734375,5.455322265625
0.0445,22.792236328125,-23.572998046875,0.970947265625
0.045,24.834228515625,-20.610107421875,-4.114013671875
0.0455,26.916259765625,-17.687255859375,-9.198974609375
0.046,25.995361328125,-12.922607421875,-13.122802734375
0.0465,26.235595703125,-8.798583984375,-17.567138671875
0.047,25.034423828125,-4.914794921875,-20.249755859375
0.0475,22.832275390625,0.970947265625,-23.853271484375
0.048,19.949462890625,5.535400390625,-25.614990234375
0.0485,15.705322265625,10.740478515625,-26.575927734375
0.049,12.021728515625,14.704345703125,-26.856201171875
0.0495,6.576416015625,18.708251953125,-25.454833984375
0.05,2.572509765625,21.350830078125,-24.053466796875
0.0505,-3.353271484375,24.033447265625,-21.010498046875
0.051,-8.398193359375,26.075439453125,-18.087646484375
0.0515,-13.202880859375,25.394775390625,-12.682373046875
0.052,-17.166748046875,25.955322265625,-9.359130859375
0.0525,-20.650146484375,24.393798828125,-4.354248046875
0.053,-23.693115234375,22.752197265625,0.490478515625
0.0535,-25.174560546875,19.629150390625,5.054931640625
0.054,-26.896240234375,16.225830078125,10.260009765625
0.0545,-25.935302734375,11.541259765625,14.023681640625
0.055,-25.735107421875,7.217041015625,18.227783203125
0.0555,-24.333740234375,3.453369140625,20.630126953125
0.056,-22.051513671875,-2.312255859375,24.073486328125
0.0565,-18.928466796875,-7.036865234375,25.594970703125
0.057,-14.364013671875,-12.041748046875,25.995361328125
0.0575,-10.960693359375,-15.685302734375,26.235595703125
0.058,-5.595458984375,-19.328857421875,24.593994140625
0.0585,-1.111083984375,-21.771240234375,22.632080078125
0.059,4.053955078125,-23.973388671875,19.829345703125
0.0595,9.579345703125,-25.935302734375,16.345947265625
0.06,13.863525390625,-24.934326171875,11.180908203125
0.0605,17.867431640625,-25.454833984375,7.697509765625
0.061,20.990478515625,-23.773193359375,3.012939453125
0.0615,24.073486328125,-21.931396484375,-2.072021484375
0.062,25.114501953125,-18.768310546875,-6.316162109375
0.0625,26.435791015625,-14.964599609375,-11.481201171875
0.063,25.755126953125,-10.800537109375,-15.044677734375
0.0635,25.114501953125,-6.196044921875,-19.048583984375
0.064,23.352783203125,-2.152099609375,-21.410888671875
0.0645,21.310791015625,3.052978515625,-24.493896484375
0.065,17.667236328125,8.137939453125,-25.975341796875
0.0655,12.862548828125,12.822509765625,-25.815185546875
0.066,9.739501953125,16.385986328125,-26.215576171875
0.0665,4.093994140625,19.909423828125,-24.133544921875
0.067,-0.790771484375,22.552001953125,-22.011474609375
0.0675,-5.355224609375,24.233642578125,-19.208740234375
0.068,-11.120849609375,26.075439453125,-15.364990234375
0.0685,-14.924560546875,24.794189453125,-10.400146484375
0.069,-18.968505859375,25.114501953125,-6.716552734375
0.0695,-21.731201171875,23.072509765625,-1.951904296875
0.07,-24.734130859375,21.070556640625,3.173095703125
0.0705,-25.374755859375,17.427001953125,7.537353515625
0.071,-26.295654296875,13.302978515625,12.662353515625
0.0715,-25.775146484375,9.419189453125,16.065673828125
0.072,-24.774169921875,4.454345703125,20.029541015625
0.0725,-22.692138671875,0.050048828125,22.391845703125
0.073,-20.489990234375,-4.874755859375,24.994384765625
0.0735,-16.486083984375,-10.159912109375,26.235595703125
0.074,-11.401123046875,-14.484130859375,25.554931640625
0.0745,-8.318115234375,-17.887451171875,25.915283203125
0.075,-2.272216796875,-21.130615234375,23.192626953125
0.0755,2.692626953125,-23.773193359375,21.030517578125
0.076,7.217041015625,-24.854248046875,17.587158203125
0.0765,12.942626953125,-26.335693359375,13.463134765625
0.077,16.626220703125,-25.014404296875,8.578369140625
0.0775,20.750244140625,-25.014404296875,4.454345703125
0.078,23.232666015625,-22.491943359375,-0.630615234375
0.0785,25.955322265625,-20.329833984375,-5.515380859375
0.079,26.155517578125,-16.245849609375,-9.879638671875
0.0795,26.595947265625,-11.841552734375,-14.804443359375
0.08,25.995361328125,-8.197998046875,-17.927490234375
0.0805,24.353759765625,-2.672607421875,-21.851318359375
0.081,22.031494140625,1.931884765625,-24.053466796875
0.0815,19.148681640625,6.816650390625,-26.135498046875
0.082,15.024658203125,12.021728515625,-27.096435546875
0.0825,9.619384765625,16.185791015625,-25.895263671875
0.083,6.336181640625,19.509033203125,-25.935302734375
0.0835,0.010009765625,22.552001953125,-22.732177734375
0.084,-4.834716796875,25.034423828125,-20.489990234375
0.0845,-9.639404296875,25.434814453125,-16.245849609375
0.085,-14.764404296875,26.595947265625,-12.322021484375
0.0855,-18.247802734375,25.114501953125,-7.517333984375
0.086,-22.051513671875,24.433837890625,-2.952880859375
0.0865,-24.253662109375,21.711181640625,2.052001953125
0.087,-26.615966796875,19.148681640625,7.016845703125
0.0875,-26.335693359375,14.584228515625,11.381103515625
0.088,-26.455810546875,10.019775390625,16.105712890625
0.0885,-25.815185546875,6.576416015625,18.948486328125
0.089,-23.653076171875,0.730712890625,22.672119140625
0.0895,-21.290771484375,-3.873779296875,24.794189453125
0.09,-17.647216796875,-8.798583984375,26.115478515625
0.0905,-13.803466796875,-13.483154296875,26.956298828125
0.091,-8.398193359375,-17.366943359375,25.394775390625
0.0915,-4.714599609375,-20.329833984375,24.794189453125
0.092,1.411376953125,-23.052490234375,21.510986328125
0.0925,6.216064453125,-25.454833984375,19.228759765625
0.093,11.100830078125,-25.334716796875,14.223876953125
0.0935,15.745361328125,-26.135498046875,10.540283203125
0.094,19.108642578125,-24.894287109375,6.015869140625
0.0945,22.672119140625,-23.613037109375,1.131103515625
0.095,24.634033203125,-20.810302734375,-3.793701171875
0.0955,26.595947265625,-17.927490234375,-8.678466796875
0.096,26.235595703125,-13.443115234375,-12.802490234375
0.0965,25.915283203125,-8.918701171875,-17.166748046875
0.097,25.234619140625,-5.635498046875,-19.809326171875
0.0975,22.752197265625,0.370361328125,-23.292724609375
0.098,20.389892578125,4.974853515625,-25.454833984375
0.0985,15.985595703125,9.979736328125,-26.015380859375
0.099,12.462158203125,14.303955078125,-26.856201171875
0.0995,7.177001953125,18.027587890625,-25.254638671875
0.1,3.012939453125,20.910400390625,-24.013427734375
0.1005,-2.672607421875,23.392822265625,-21.010498046875
0.101,-7.717529296875,25.755126953125,-18.407958984375
0.1015,-12.482177734375,25.154541015625,-13.162841796875
0.102,-16.646240234375,25.635009765625,-9.559326171875
0.1025,-19.729248046875,24.473876953125,-5.355224609375
0.103,-23.132568359375,22.712158203125,-0.150146484375
0.1035,-24.854248046875,19.829345703125,4.534423828125
0.104,-26.375732421875,16.345947265625,9.579345703125
0.1045,-26.095458984375,12.101806640625,13.623291015625
0.105,-25.374755859375,7.377197265625,17.667236328125
0.1055,-24.413818359375,3.893798828125,20.189697265625
0.106,-21.931396484375,-1.911865234375,23.552978515625
0.1065,-19.208740234375,-6.716552734375,25.594970703125
0.107,-14.444091796875,-11.521240234375,25.635009765625
0.1075,-11.160888671875,-15.405029296875,26.235595703125
0.108,-6.075927734375,-18.728271484375,24.473876953125
0.1085,-1.271240234375,-21.571044921875,22.552001953125
0.109,3.693603515625,-23.613037109375,19.789306640625
0.1095,9.299072265625,-25.735107421875,16.426025390625
0.11,13.503173828125,-24.854248046875,11.421142578125
0.1105,17.667236328125,-25.174560546875,7.657470703125
0.111,20.469970703125,-23.773193359375,3.533447265625
0.1115,23.713134765625,-21.771240234375,-1.871826171875
0.112,25.034423828125,-18.688232421875,-6.316162109375
0.1125,25.955322265625,-14.804443359375,-11.240966796875
0.113,25.795166015625,-11.040771484375,-14.884521484375
0.1135,24.714111328125,-6.316162109375,-18.608154296875
0.114,23.312744140625,-2.312255859375,-21.130615234375
0.1145,21.030517578125,2.852783203125,-23.933349609375
0.115,17.667236328125,8.097900390625,-25.895263671875
0.1155,12.822509765625,12.502197265625,-25.334716796875
0.116,9.619384765625,16.185791015625,-25.895263671875
0.1165,4.534423828125,19.188720703125,-23.853271484375
0.117,-0.630615234375,22.071533203125,-21.771240234375
0.1175,-4.954833984375,23.633056640625,-18.968505859375
0.118,-10.720458984375,25.434814453125,-15.124755859375
0.1185,-14.364013671875,24.473876953125,-10.640380859375
0.119,-18.447998046875,24.473876953125,-6.596435546875
0.1195,-20.730224609375,22.832275390625,-2.712646484375
0.12,-23.653076171875,20.710205078125,2.492431640625
0.1205,-24.854248046875,17.306884765625,7.056884765625
0.121,-25.134521484375,12.982666015625,11.701416015625
0.1215,-25.334716796875,9.699462890625,15.224853515625
0.122,-23.853271484375,4.934814453125,18.668212890625
0.1225,-22.291748046875,0.770751953125,21.230712890625
0.123,-20.009521484375,-3.793701171875,23.512939453125
0.1235,-16.486083984375,-9.239013671875,25.434814453125
0.124,-11.601318359375,-13.202880859375,24.433837890625
0.1245,-8.398193359375,-16.806396484375,24.874267578125
0.125,-3.473388671875,-19.288818359375,22.471923828125
0.1255,1.571533203125,-22.291748046875,20.550048828125
0.126,6.015869140625,-23.412841796875,17.386962890625
0.1265,11.541259765625,-24.814208984375,13.302978515625
0.127,14.904541015625,-24.173583984375,9.339111328125
0.1275,18.908447265625,-23.733154296875,4.974853515625
0.128,21.150634765625,-21.971435546875,0.970947265625
0.1285,23.713134765625,-19.889404296875,-3.833740234375
0.129,24.834228515625,-16.365966796875,-8.518310546875
0.1295,24.634033203125,-11.881591796875,-12.962646484375
0.13,24.954345703125,-8.918701171875,-16.165771484375
0.1305,23.072509765625,-3.793701171875,-19.408935546875
0.131,21.470947265625,0.610595703125,-22.171630859375
0.1315,18.708251953125,5.054931640625,-23.853271484375
0.132,15.104736328125,10.460205078125,-25.655029296875
0.1325,10.300048828125,14.103759765625,-24.493896484375
0.133,6.736572265625,17.747314453125,-24.573974609375
0.1335,1.771728515625,20.029541015625,-21.931396484375
0.134,-3.153076171875,22.992431640625,-20.129638671875
0.1345,-7.837646484375,23.673095703125,-16.205810546875
0.135,-12.962646484375,24.634033203125,-12.121826171875
0.1355,-16.165771484375,24.153564453125,-8.598388671875
0.136,-19.889404296875,23.072509765625,-3.713623046875
0.1365,-22.091552734375,21.030517578125,0.610595703125
0.137,-24.093505859375,18.548095703125,5.054931640625
0.1375,-25.054443359375,14.744384765625,9.859619140625
0.138,-24.533935546875,10.099853515625,14.063720703125
0.1385,-24.694091796875,7.297119140625,17.146728515625
0.139,-22.411865234375,1.971923828125,20.149658203125
0.1395,-20.810302734375,-2.512451171875,22.992431640625
0.14,-17.246826171875,-6.956787109375,23.833251953125
0.1405,-13.723388671875,-12.041748046875,25.434814453125
0.141,-9.078857421875,-15.405029296875,24.113525390625
0.1415,-4.954833984375,-18.808349609375,23.432861328125
0.142,0.050048828125,-20.970458984375,20.670166015625
0.1425,4.814697265625,-23.613037109375,18.708251953125
0.143,9.619384765625,-23.893310546875,14.263916015625
0.1435,14.183837890625,-24.333740234375,10.219970703125
0.144,17.306884765625,-24.053466796875,6.936767578125
0.1445,20.750244140625,-22.411865234375,1.771728515625
0.145,22.912353515625,-20.209716796875,-2.632568359375
0.1455,24.273681640625,-17.366943359375,-6.916748046875
0.146,25.034423828125,-13.603271484375,-11.521240234375
0.1465,24.153564453125,-8.958740234375,-15.324951171875
0.147,24.033447265625,-5.835693359375,-18.327880859375
0.1475,21.510986328125,-0.630615234375,-21.090576171875
0.148,19.869384765625,3.853759765625,-23.893310546875
0.1485,15.665283203125,8.378173828125,-24.093505859375
0.149,12.181884765625,12.982666015625,-25.254638671875
0.1495,7.897705078125,16.185791015625,-24.173583984375
0.15,3.173095703125,19.428955078125,-22.692138671875
0.1505,-1.471435546875,21.390869140625,-20.129638671875
0.151,-6.276123046875,23.673095703125,-17.767333984375
0.1515,-10.880615234375,23.793212890625,-13.322998046875
0.152,-15.044677734375,23.673095703125,-9.158935546875
0.1525,-17.927490234375,23.472900390625,-6.156005859375
0.153,-21.010498046875,21.310791015625,-0.990966796875
0.1535,-23.052490234375,19.068603515625,3.493408203125
0.154,-23.773193359375,15.665283203125,7.697509765625
0.1545,-24.654052734375,12.181884765625,12.101806640625
0.155,-23.572998046875,7.737548828125,15.505126953125
0.1555,-23.052490234375,4.334228515625,18.508056640625
0.156,-20.650146484375,-0.590576171875,20.950439453125
0.1565,-18.728271484375,-5.114990234375,23.552978515625
0.157,-14.404052734375,-9.359130859375,23.472900390625
0.1575,-10.800537109375,-13.603271484375,24.073486328125
0.158,-7.197021484375,-16.365966796875,23.272705078125
0.1585,-1.951904296875,-19.489013671875,21.150634765625
0.159,2.252197265625,-21.290771484375,18.908447265625
0.1595,7.177001953125,-23.012451171875,15.785400390625
0.16,11.461181640625,-23.372802734375,11.941650390625
0.1605,15.385009765625,-23.012451171875,7.697509765625
0.161,18.067626953125,-22.612060546875,4.654541015625
0.1615,20.910400390625,-20.489990234375,-0.390380859375
0.162,22.992431640625,-18.247802734375,-4.674560546875
0.1625,23.192626953125,-14.404052734375,-8.798583984375
0.163,24.153564453125,-11.240966796875,-12.962646484375
0.1635,23.032470703125,-7.116943359375,-16.005615234375
0.164,21.951416015625,-3.072998046875,-19.088623046875
0.1645,19.869384765625,1.251220703125,-21.250732421875
0.165,17.306884765625,6.135986328125,-23.532958984375
0.1655,13.262939453125,10.139892578125,-23.452880859375
0.166,9.419189453125,14.223876953125,-23.693115234375
0.1665,6.015869140625,16.666259765625,-22.772216796875
0.167,0.610595703125,19.789306640625,-20.489990234375
0.1675,-3.553466796875,21.591064453125,-18.327880859375
0.168,-8.638427734375,22.752197265625,-14.484130859375
0.1685,-12.402099609375,23.192626953125,-11.321044921875
0.169,-16.125732421875,22.471923828125,-6.956787109375
0.1695,-18.648193359375,21.711181640625,-3.713623046875
0.17,-21.130615234375,19.549072265625,1.091064453125
0.1705,-23.132568359375,16.946533203125,5.735595703125
0.171,-22.812255859375,12.822509765625,9.619384765625
0.1715,-23.693115234375,9.739501953125,13.663330078125
0.172,-22.572021484375,5.935791015625,16.345947265625
0.1725,-21.130615234375,1.411376953125,19.509033203125
0.173,-19.008544921875,-2.672607421875,21.430908203125
0.1735,-15.885498046875,-7.717529296875,23.272705078125
0.174,-12.121826171875,-11.361083984375,23.152587890625
0.1745,-8.117919921875,-15.204833984375,22.992431640625
0.175,-4.554443359375,-17.326904296875,21.551025390625
0.1755,0.610595703125,-20.209716796875,19.388916015625
0.176,5.094970703125,-22.011474609375,16.826416015625
0.1765,9.859619140625,-22.451904296875,12.622314453125
0.177,13.423095703125,-23.132568359375,9.739501953125
0.1775,16.906494140625,-22.171630859375,5.295166015625
0.178,19.509033203125,-20.890380859375,1.491455078125
0.1785,21.470947265625,-18.728271484375,-2.672607421875
0.179,23.352783203125,-15.885498046875,-7.477294921875
0.1795,22.712158203125,-11.721435546875,-11.080810546875
0.18,23.312744140625,-8.598388671875,-14.844482421875
0.1805,21.871337890625,-4.794677734375,-17.246826171875
