wavelength,x,y,z
0.0,4.14404296875,-23.76318359375,19.51904296875
0.0005,9.42919921875,-25.12451171875,15.67529296875
0.001,14.55419921875,-25.92529296875,11.47119140625
0.0015,17.47705078125,-25.96533203125,8.54833984375
0.002,20.88037109375,-24.04345703125,3.34326171875
0.0025,22.96240234375,-21.80126953125,-1.06103515625
0.003,25.00439453125,-18.83837890625,-6.10595703125
0.0035,26.56591796875,-15.03466796875,-11.51123046875
0.004,25.68505859375,-10.27001953125,-15.47509765625
0.0045,25.88525390625,-7.42724609375,-18.51806640625
0.005,22.96240234375,-2.30224609375,-20.76025390625
0.0055,20.84033203125,2.86279296875,-23.72314453125
0.006,16.67626953125,8.02783203125,-24.80419921875
0.0065,12.83251953125,13.71337890625,-26.60595703125
0.007,8.78857421875,16.79638671875,-25.60498046875
0.0075,4.26416015625,20.03955078125,-24.32373046875
0.008,-0.62060546875,21.80126953125,-21.32080078125
0.0085,-6.10595703125,24.56396484375,-18.83837890625
0.009,-11.51123046875,25.60498046875,-14.47412109375
0.0095,-16.03564453125,25.84521484375,-10.27001953125
0.01,-18.75830078125,25.72509765625,-7.54736328125
0.0105,-21.76123046875,23.24267578125,-1.98193359375
0.011,-23.96337890625,20.76025390625,2.78271484375
0.0115,-25.48486328125,17.23681640625,7.86767578125
0.012,-26.68603515625,13.43310546875,12.95263671875
0.0125,-25.56494140625,8.78857421875,16.51611328125
0.013,-25.16455078125,5.58544921875,19.35888671875
0.0135,-22.00146484375,0.30029296875,21.48095703125
0.014,-19.83935546875,-5.06494140625,24.60400390625
0.0145,-15.11474609375,-10.27001953125,25.08447265625
0.015,-11.31103515625,-15.23486328125,26.20556640625
0.0155,-7.50732421875,-17.91748046875,25.12451171875
0.016,-2.34228515625,-20.92041015625,23.00244140625
0.0165,2.58251953125,-22.72216796875,19.99951171875
0.017,8.14794921875,-25.24462890625,16.99658203125
0.0175,13.15283203125,-25.92529296875,12.79248046875
0.018,17.19677734375,-25.60498046875,8.50830078125
0.0185,19.71923828125,-25.12451171875,5.62548828125
0.019,22.48193359375,-22.28173828125,0.02001953125
0.0195,24.80419921875,-19.59912109375,-5.10498046875
0.02,25.48486328125,-15.63525390625,-9.86962890625
0.0205,26.52587890625,-12.19189453125,-14.39404296875
0.021,25.12451171875,-7.82763671875,-17.39697265625
0.0215,24.04345703125,-4.02392578125,-20.11962890625
0.022,20.92041015625,1.18115234375,-22.12158203125
0.0225,18.27783203125,6.70654296875,-25.04443359375
0.023,13.43310546875,11.59130859375,-25.12451171875
0.0235,9.82958984375,15.87548828125,-25.76513671875
0.024,6.42626953125,18.23779296875,-24.68408203125
0.0245,0.86083984375,21.12060546875,-22.08154296875
0.025,-3.94384765625,22.96240234375,-19.27880859375
0.0255,-9.50927734375,24.84423828125,-15.75537109375
0.026,-13.95361328125,25.60498046875,-12.11181640625
0.0265,-17.59716796875,24.88427734375,-7.78759765625
0.027,-19.83935546875,24.04345703125,-4.74462890625
0.0275,-22.32177734375,21.28076171875,0.62060546875
0.028,-24.76416015625,18.39794921875,5.98583984375
0.0285,-24.80419921875,13.95361328125,10.51025390625
0.029,-25.84521484375,10.87060546875,14.67431640625
0.0295,-24.44384765625,6.94677734375,17.27685546875
0.03,-22.84228515625,2.70263671875,19.91943359375
0.0305,-19.91943359375,-2.22216796875,21.84130859375
0.031,-16.83642578125,-7.94775390625,24.48388671875
0.0315,-12.47216796875,-12.35205078125,24.56396484375
0.032,-8.74853515625,-16.27587890625,24.64404296875
0.0325,-5.42529296875,-18.19775390625,23.28271484375
0.033,0.30029296875,-21.08056640625,20.52001953125
0.0335,5.10498046875,-23.12255859375,17.83740234375
0.034,10.55029296875,-24.36376953125,13.83349609375
0.0345,14.27392578125,-25.16455078125,11.03076171875
0.035,17.83740234375,-24.20361328125,6.54638671875
0.0355,19.99951171875,-22.92236328125,3.06298828125
0.036,22.40185546875,-20.19970703125,-2.10205078125
0.0365,24.88427734375,-17.31689453125,-7.50732421875
0.037,24.48388671875,-12.83251953125,-11.67138671875
0.0375,25.32470703125,-9.86962890625,-15.51513671875
0.038,23.76318359375,-6.10595703125,-17.75732421875
0.0385,21.80126953125,-1.22119140625,-20.68017578125
0.039,18.91845703125,3.66357421875,-22.60205078125
0.0395,15.15478515625,9.58935546875,-24.76416015625
0.04,11.43115234375,13.39306640625,-24.84423828125
0.0405,7.38720703125,17.07666015625,-24.52392578125
0.041,3.86376953125,18.75830078125,-22.68212890625
0.0415,-1.90185546875,21.64111328125,-19.99951171875
0.042,-7.10693359375,23.84326171875,-16.99658203125
0.0425,-12.39208984375,24.48388671875,-12.51220703125
0.043,-15.63525390625,25.24462890625,-10.06982421875
0.0435,-18.83837890625,23.76318359375,-5.46533203125
0.044,-21.08056640625,22.08154296875,-1.46142578125
0.0445,-23.12255859375,19.11865234375,3.58349609375
0.045,-25.32470703125,15.71533203125,9.26904296875
0.0455,-24.64404296875,11.31103515625,13.11279296875
0.046,-25.16455078125,8.26806640625,16.67626953125
0.0465,-23.12255859375,4.38427734375,18.51806640625
0.047,-21.00048828125,-0.98095703125,21.68115234375
0.0475,-17.71728515625,-5.94580078125,23.36279296875
0.048,-13.55322265625,-11.71142578125,24.96435546875
0.0485,-10.22998046875,-14.95458984375,24.80419921875
0.049,-5.74560546875,-18.47802734375,23.84326171875
0.0495,-1.62158203125,-20.15966796875,21.44091796875
0.05,3.78369140625,-22.76220703125,18.87841796875
0.0505,9.34912109375,-24.72412109375,15.39501953125
0.051,14.07373046875,-24.80419921875,10.83056640625
0.0515,17.27685546875,-25.40478515625,8.30810546875
0.052,20.07958984375,-23.24267578125,3.38330078125
0.0525,22.48193359375,-21.20068359375,-1.22119140625
0.053,24.04345703125,-17.95751953125,-6.06591796875
0.0535,25.80517578125,-14.35400390625,-11.47119140625
0.054,24.88427734375,-10.10986328125,-14.83447265625
0.0545,24.88427734375,-6.78662109375,-18.19775390625
0.055,22.16162109375,-2.50244140625,-19.79931640625
0.0555,19.91943359375,2.86279296875,-22.88232421875
0.056,16.03564453125,8.06787109375,-24.20361328125
0.0565,11.87158203125,13.19287109375,-25.16455078125
0.057,8.98876953125,16.07568359375,-25.08447265625
0.0575,3.98388671875,19.15869140625,-23.20263671875
0.058,-0.46044921875,20.96044921875,-20.72021484375
0.0585,-5.42529296875,23.20263671875,-18.07763671875
0.059,-11.07080078125,25.00439453125,-14.27392578125
0.0595,-15.03466796875,24.48388671875,-9.86962890625
0.06,-18.07763671875,24.88427734375,-7.30712890625
0.0605,-20.35986328125,22.24169921875,-2.38232421875
0.061,-22.88232421875,20.11962890625,2.38232421875
0.0615,-23.84326171875,16.47607421875,7.02685546875
0.062,-25.28466796875,12.79248046875,12.15185546875
0.0625,-24.40380859375,9.06884765625,15.07470703125
0.063,-23.84326171875,5.42529296875,18.19775390625
0.0635,-21.12060546875,1.22119140625,19.71923828125
0.064,-18.91845703125,-3.98388671875,22.60205078125
0.0645,-14.87451171875,-9.22900390625,23.76318359375
0.065,-10.75048828125,-13.63330078125,24.04345703125
0.0655,-8.18798828125,-16.35595703125,24.12353515625
0.066,-2.94287109375,-18.91845703125,21.52099609375
0.0665,1.46142578125,-21.00048828125,19.35888671875
0.067,6.26611328125,-22.72216796875,16.35595703125
0.0675,11.55126953125,-24.40380859375,12.91259765625
0.068,14.99462890625,-23.72314453125,8.86865234375
0.0685,18.03759765625,-23.84326171875,5.94580078125
0.069,19.99951171875,-21.20068359375,1.42138671875
0.0695,22.76220703125,-19.07861328125,-3.58349609375
0.07,23.36279296875,-15.35498046875,-7.98779296875
0.0705,24.36376953125,-11.75146484375,-12.67236328125
0.071,23.96337890625,-8.82861328125,-15.23486328125
0.0715,22.52197265625,-4.50439453125,-18.11767578125
0.072,20.07958984375,-0.26025390625,-19.95947265625
0.0725,17.43701171875,4.86474609375,-22.44189453125
0.073,13.67333984375,9.94970703125,-23.72314453125
0.0735,9.66943359375,13.79345703125,-23.56298828125
0.074,7.10693359375,16.39599609375,-23.56298828125
0.0745,1.94189453125,18.75830078125,-20.76025390625
0.075,-2.82275390625,21.28076171875,-18.71826171875
0.0755,-7.54736328125,22.52197265625,-15.27490234375
0.076,-12.35205078125,24.08349609375,-12.11181640625
0.0765,-15.43505859375,23.40283203125,-8.42822265625
0.077,-18.39794921875,22.76220703125,-4.86474609375
0.0775,-20.23974609375,20.27978515625,-0.50048828125
0.078,-22.96240234375,17.83740234375,4.70458984375
0.0785,-23.36279296875,13.95361328125,9.02880859375
0.079,-24.04345703125,10.31005859375,13.43310546875
0.0795,-23.68310546875,7.70751953125,15.75537109375
0.08,-21.64111328125,2.86279296875,18.55810546875
0.0805,-19.27880859375,-1.66162109375,20.68017578125
0.081,-15.99560546875,-6.98681640625,22.56201171875
0.0815,-12.63232421875,-11.63134765625,23.92333984375
0.082,-8.46826171875,-15.07470703125,23.24267578125
0.0825,-5.42529296875,-17.39697265625,22.52197265625
0.083,-0.14013671875,-19.71923828125,19.59912109375
0.0835,4.86474609375,-22.44189453125,17.43701171875
0.084,9.74951171875,-23.04248046875,13.31298828125
0.0845,13.87353515625,-24.32373046875,10.55029296875
0.085,16.87646484375,-23.48291015625,6.78662109375
0.0855,19.67919921875,-22.12158203125,2.58251953125
0.086,21.64111328125,-19.47900390625,-2.06201171875
0.0865,24.00341796875,-16.63623046875,-7.30712890625
0.087,24.04345703125,-12.75244140625,-11.35107421875
0.0875,24.28369140625,-9.02880859375,-15.31494140625
0.088,23.48291015625,-6.26611328125,-17.35693359375
0.0885,20.96044921875,-0.90087890625,-20.23974609375
0.089,18.39794921875,3.98388671875,-22.48193359375
0.0895,14.15380859375,9.42919921875,-23.72314453125
0.09,11.31103515625,13.43310546875,-24.76416015625
0.0905,6.90673828125,16.67626953125,-23.64306640625
0.091,3.22314453125,18.87841796875,-22.16162109375
0.0915,-2.10205078125,21.12060546875,-19.19873046875
0.092,-7.42724609375,23.76318359375,-16.63623046875
0.0925,-12.03173828125,23.72314453125,-12.11181640625
0.093,-15.71533203125,24.60400390625,-9.34912109375
0.0935,-18.27783203125,23.32275390625,-5.54541015625
0.094,-21.00048828125,21.48095703125,-0.98095703125
0.0945,-22.76220703125,18.55810546875,3.86376953125
0.095,-24.60400390625,15.07470703125,9.10888671875
0.0955,-24.52392578125,11.39111328125,12.87255859375
0.096,-24.32373046875,7.50732421875,16.55615234375
0.0965,-22.96240234375,4.42431640625,18.27783203125
0.097,-20.35986328125,-1.14111328125,21.12060546875
0.0975,-17.43701171875,-6.26611328125,23.32275390625
0.098,-12.79248046875,-11.39111328125,23.84326171875
0.0985,-10.18994140625,-14.79443359375,24.64404296875
0.099,-5.62548828125,-17.75732421875,23.04248046875
0.0995,-1.26123046875,-19.99951171875,21.08056640625
0.1,3.66357421875,-21.88134765625,18.15771484375
0.1005,9.26904296875,-24.36376953125,15.07470703125
0.101,13.19287109375,-23.96337890625,10.83056640625
0.1015,16.95654296875,-24.56396484375,7.70751953125
0.102,19.19873046875,-22.80224609375,3.82373046875
0.1025,22.00146484375,-20.76025390625,-1.14111328125
0.103,23.52294921875,-17.63720703125,-5.82568359375
0.1035,24.68408203125,-13.79345703125,-10.91064453125
0.104,24.72412109375,-10.55029296875,-14.27392578125
0.1045,23.96337890625,-6.42626953125,-17.63720703125
0.105,22.08154296875,-2.86279296875,-19.47900390625
0.1055,19.47900390625,2.42236328125,-22.00146484375
0.106,15.99560546875,8.06787109375,-24.20361328125
0.1065,11.51123046875,12.55224609375,-24.12353515625
0.107,8.86865234375,15.87548828125,-24.80419921875
0.1075,4.18408203125,18.39794921875,-22.60205078125
0.108,-0.62060546875,20.88037109375,-20.47998046875
0.1085,-5.26513671875,22.48193359375,-17.47705078125
0.109,-10.95068359375,24.60400390625,-13.99365234375
0.1095,-14.39404296875,24.00341796875,-10.10986328125
0.11,-18.07763671875,24.20361328125,-6.62646484375
0.1105,-19.87939453125,22.08154296875,-2.74267578125
0.111,-22.56201171875,19.87939453125,2.30224609375
0.1115,-23.96337890625,16.35595703125,7.22705078125
0.112,-24.60400390625,12.19189453125,12.11181640625
0.1125,-24.72412109375,9.34912109375,15.07470703125
0.113,-23.36279296875,4.94482421875,18.11767578125
0.1135,-21.28076171875,0.90087890625,20.07958984375
0.114,-18.51806640625,-4.14404296875,22.36181640625
0.1145,-14.79443359375,-9.86962890625,24.40380859375
0.115,-10.35009765625,-13.75341796875,23.80322265625
0.1155,-7.54736328125,-16.91650390625,24.16357421875
0.116,-2.62255859375,-19.07861328125,21.44091796875
0.1165,2.30224609375,-21.76123046875,19.35888671875
0.117,7.02685546875,-23.08251953125,15.99560546875
0.1175,12.47216796875,-24.72412109375,12.31201171875
0.118,15.55517578125,-24.28369140625,8.82861328125
0.1185,19.11865234375,-23.80322265625,4.82470703125
0.119,20.88037109375,-21.40087890625,0.66064453125
0.1195,23.48291015625,-18.95849609375,-4.46435546875
0.12,24.52392578125,-15.23486328125,-9.30908203125
0.1205,24.64404296875,-10.95068359375,-13.71337890625
0.121,24.80419921875,-8.46826171875,-16.43603515625
0.1215,22.56201171875,-3.54345703125,-19.19873046875
0.122,20.39990234375,1.02099609375,-21.48095703125
0.1225,17.03662109375,6.02587890625,-23.08251953125
0.123,13.39306640625,11.51123046875,-24.92431640625
0.1235,9.06884765625,14.87451171875,-24.04345703125
0.124,5.90576171875,17.95751953125,-23.92333984375
0.1245,0.94091796875,19.87939453125,-20.88037109375
0.125,-4.14404296875,22.68212890625,-18.79833984375
0.1255,-8.90869140625,23.52294921875,-14.95458984375
0.126,-13.83349609375,24.68408203125,-11.27099609375
0.1265,-16.67626953125,24.32373046875,-8.14794921875
0.127,-19.87939453125,22.92236328125,-3.54345703125
0.1275,-21.60107421875,20.47998046875,0.66064453125
0.128,-23.84326171875,17.59716796875,5.82568359375
0.1285,-24.64404296875,13.83349609375,10.51025390625
0.129,-24.32373046875,9.50927734375,14.47412109375
0.1295,-24.44384765625,7.06689453125,17.03662109375
0.13,-21.68115234375,1.98193359375,19.47900390625
0.1305,-19.59912109375,-2.70263671875,22.04150390625
0.131,-15.67529296875,-7.70751953125,23.04248046875
0.1315,-12.39208984375,-12.59228515625,24.64404296875
0.132,-8.26806640625,-15.67529296875,23.60302734375
0.1325,-4.42431640625,-18.55810546875,22.68212890625
0.133,0.50048828125,-20.35986328125,19.71923828125
0.1335,5.58544921875,-23.16259765625,17.51708984375
0.134,10.31005859375,-23.68310546875,13.35302734375
0.1345,14.71435546875,-24.40380859375,9.78955078125
0.135,17.43701171875,-24.12353515625,6.90673828125
0.1355,20.35986328125,-22.16162109375,1.94189453125
0.136,22.36181640625,-19.67919921875,-2.58251953125
0.1365,24.04345703125,-16.43603515625,-7.62744140625
0.137,24.88427734375,-12.95263671875,-11.99169921875
0.1375,24.08349609375,-8.78857421875,-15.51513671875
0.138,23.76318359375,-5.90576171875,-17.95751953125
0.1385,20.84033203125,-0.62060546875,-20.31982421875
0.139,18.63818359375,4.42431640625,-23.12255859375
0.1395,14.11376953125,9.38916015625,-23.56298828125
0.14,11.07080078125,13.71337890625,-24.80419921875
0.1405,7.18701171875,16.59619140625,-23.76318359375
0.141,2.70263671875,19.35888671875,-22.12158203125
0.1415,-2.18212890625,21.24072265625,-19.23876953125
0.142,-7.50732421875,23.88330078125,-16.67626953125
0.1425,-12.15185546875,24.16357421875,-12.43212890625
0.143,-16.07568359375,24.40380859375,-8.82861328125
0.1435,-18.43798828125,23.76318359375,-5.82568359375
0.144,-21.16064453125,21.44091796875,-0.78076171875
0.1445,-23.24267578125,18.59814453125,4.22412109375
0.145,-24.24365234375,14.71435546875,9.10888671875
0.1455,-25.04443359375,11.51123046875,13.15283203125
0.146,-24.00341796875,7.34716796875,16.43603515625
0.1465,-23.04248046875,3.98388671875,18.75830078125
0.147,-20.07958984375,-1.26123046875,21.08056640625
0.1475,-17.55712890625,-6.50634765625,23.76318359375
0.148,-12.79248046875,-11.27099609375,23.72314453125
0.1485,-9.70947265625,-15.19482421875,24.60400390625
0.149,-5.90576171875,-17.63720703125,23.24267578125
0.1495,-0.90087890625,-20.43994140625,21.08056640625
0.15,3.98388671875,-22.16162109375,18.07763671875
0.1505,9.62939453125,-24.32373046875,14.71435546875
0.151,13.55322265625,-24.52392578125,11.07080078125
0.1515,17.39697265625,-24.32373046875,7.06689453125
0.152,19.47900390625,-23.08251953125,3.86376953125
0.1525,22.08154296875,-20.60009765625,-1.42138671875
0.153,24.12353515625,-17.67724609375,-6.42626953125
0.1535,24.36376953125,-13.43310546875,-10.95068359375
0.154,25.08447265625,-10.55029296875,-14.59423828125
0.1545,23.72314453125,-6.30615234375,-17.51708984375
0.155,22.08154296875,-2.26220703125,-19.91943359375
0.1555,19.15869140625,2.70263671875,-21.92138671875
0.156,15.95556640625,8.46826171875,-24.48388671875
0.1565,11.51123046875,12.63232421875,-24.20361328125
0.157,8.26806640625,16.31591796875,-24.60400390625
0.1575,4.46435546875,18.23779296875,-22.76220703125
0.158,-0.90087890625,21.04052734375,-20.27978515625
0.1585,-5.58544921875,22.72216796875,-17.35693359375
0.159,-11.07080078125,24.24365234375,-13.43310546875
0.1595,-14.39404296875,24.40380859375,-10.51025390625
0.16,-17.95751953125,23.68310546875,-6.18603515625
0.1605,-19.83935546875,22.04150390625,-2.74267578125
0.161,-22.12158203125,19.47900390625,2.18212890625
0.1615,-24.20361328125,16.43603515625,7.38720703125
0.162,-23.92333984375,11.99169921875,11.59130859375
0.1625,-24.68408203125,9.26904296875,15.11474609375
0.163,-23.00244140625,5.30517578125,17.43701171875
0.1635,-21.16064453125,0.78076171875,20.11962890625
0.164,-18.23779296875,-3.98388671875,21.92138671875
0.1645,-14.67431640625,-9.70947265625,24.08349609375
0.165,-10.75048828125,-13.23291015625,23.68310546875
0.1655,-7.14697265625,-16.67626953125,23.52294921875
0.166,-3.22314453125,-18.39794921875,21.36083984375
0.1665,1.90185546875,-21.12060546875,19.07861328125
0.167,6.70654296875,-22.84228515625,16.07568359375
0.1675,11.75146484375,-23.68310546875,11.95166015625
0.168,14.95458984375,-24.20361328125,9.34912109375
0.1685,18.27783203125,-23.00244140625,4.82470703125
0.169,20.35986328125,-21.28076171875,1.06103515625
0.1695,22.32177734375,-18.71826171875,-3.62353515625
0.17,24.32373046875,-15.43505859375,-8.90869140625
0.1705,23.72314453125,-11.07080078125,-12.67236328125
0.171,24.32373046875,-8.34814453125,-16.03564453125
0.1715,22.16162109375,-4.18408203125,-18.07763671875
0.172,20.31982421875,0.66064453125,-21.08056640625
0.1725,16.95654296875,5.42529296875,-22.44189453125
0.173,13.23291015625,10.95068359375,-24.20361328125
0.1735,9.74951171875,14.11376953125,-24.00341796875
0.174,5.62548828125,17.63720703125,-23.24267578125
0.1745,1.54150390625,19.35888671875,-21.00048828125
0.175,-3.54345703125,22.04150390625,-18.71826171875
0.1755,-8.70849609375,23.68310546875,-15.31494140625
0.176,-13.43310546875,24.00341796875,-10.99072265625
0.1765,-16.55615234375,24.52392578125,-8.50830078125
0.177,-19.51904296875,22.56201171875,-3.54345703125
0.1775,-21.76123046875,20.64013671875,0.62060546875
0.178,-23.32275390625,17.43701171875,5.50537109375
0.1785,-25.00439453125,14.03369140625,10.63037109375
0.179,-24.20361328125,9.62939453125,14.23388671875
0.1795,-24.36376953125,6.62646484375,17.51708984375
0.18,-21.64111328125,1.94189453125,19.47900390625
0.1805,-19.75927734375,-3.10302734375,22.56201171875
0.181,-15.67529296875,-8.06787109375,23.48291015625
0.1815,-11.87158203125,-13.27294921875,24.84423828125
0.182,-8.46826171875,-16.27587890625,24.40380859375
0.1825,-3.46337890625,-19.55908203125,22.76220703125
0.183,1.18115234375,-21.32080078125,19.99951171875
0.1835,6.34619140625,-23.80322265625,17.39697265625
0.184,11.55126953125,-25.00439453125,13.47314453125
0.1845,15.71533203125,-24.80419921875,9.10888671875
0.185,18.71826171875,-24.96435546875,6.34619140625
0.1855,21.48095703125,-22.32177734375,0.90087890625
0.186,23.88330078125,-19.87939453125,-3.94384765625
0.1865,24.84423828125,-16.15576171875,-8.66845703125
0.187,26.04541015625,-12.67236328125,-13.39306640625
0.1875,24.88427734375,-8.30810546875,-16.63623046875
0.188,24.32373046875,-4.58447265625,-19.79931640625
0.1885,21.12060546875,0.58056640625,-21.76123046875
0.189,18.87841796875,5.82568359375,-24.72412109375
0.1895,14.03369140625,10.95068359375,-25.04443359375
0.19,10.22998046875,15.55517578125,-25.76513671875
0.1905,6.70654296875,18.23779296875,-25.00439453125
0.191,1.26123046875,21.24072265625,-22.56201171875
