wavelength,x,y,z
0.0,-9.679443359375,-10.159912109375,19.188720703125
0.0005,-5.675537109375,-13.643310546875,18.748291015625
0.001,-1.511474609375,-16.606201171875,17.627197265625
0.0015,2.692626953125,-18.407958984375,15.585205078125
0.002,5.495361328125,-18.968505859375,13.583251953125
0.0025,8.658447265625,-19.368896484375,10.980712890625
0.003,12.101806640625,-19.048583984375,7.497314453125
0.0035,15.184814453125,-18.407958984375,3.893798828125
0.004,17.467041015625,-16.926513671875,0.250244140625
0.0045,19.028564453125,-14.884521484375,-3.353271484375
0.005,19.348876953125,-12.362060546875,-6.156005859375
0.0055,19.388916015625,-9.239013671875,-9.399169921875
0.006,19.068603515625,-5.555419921875,-12.802490234375
0.0065,18.468017578125,-1.951904296875,-15.805419921875
0.007,16.706298828125,1.851806640625,-17.807373046875
0.0075,14.584228515625,4.854736328125,-18.728271484375
0.008,12.021728515625,7.977783203125,-19.368896484375
0.0085,8.177978515625,11.421142578125,-19.128662109375
0.009,4.174072265625,14.664306640625,-18.528076171875
0.0095,0.050048828125,17.146728515625,-17.046630859375
0.01,-3.833740234375,18.828369140625,-15.084716796875
0.0105,-6.556396484375,19.108642578125,-12.842529296875
0.011,-9.719482421875,19.308837890625,-10.119873046875
0.0115,-13.282958984375,18.908447265625,-6.356201171875
0.012,-16.165771484375,18.027587890625,-2.712646484375
0.0125,-18.207763671875,16.305908203125,1.091064453125
0.013,-19.328857421875,14.103759765625,4.334228515625
0.0135,-19.689208984375,11.381103515625,7.377197265625
0.014,-19.609130859375,7.817626953125,11.020751953125
0.0145,-19.208740234375,4.214111328125,14.103759765625
0.015,-18.207763671875,0.530517578125,16.866455078125
0.0155,-16.325927734375,-3.273193359375,18.748291015625
0.016,-13.923583984375,-6.075927734375,19.228759765625
0.0165,-11.240966796875,-9.239013671875,19.709228515625
0.017,-6.876708984375,-13.002685546875,19.228759765625
0.0175,-2.752685546875,-16.005615234375,18.227783203125
0.018,1.331298828125,-17.967529296875,16.466064453125
0.0185,4.814697265625,-19.288818359375,14.584228515625
0.019,7.737548828125,-19.448974609375,12.021728515625
0.0195,10.980712890625,-19.368896484375,8.858642578125
0.02,14.384033203125,-19.008544921875,5.255126953125
0.0205,17.146728515625,-17.767333984375,1.331298828125
0.021,18.908447265625,-15.725341796875,-2.432373046875
0.0215,19.468994140625,-13.443115234375,-5.275146484375
0.022,19.829345703125,-10.520263671875,-8.398193359375
0.0225,19.509033203125,-6.596435546875,-12.201904296875
0.023,19.028564453125,-3.193115234375,-15.084716796875
0.0235,17.667236328125,0.530517578125,-17.447021484375
0.024,15.665283203125,4.174072265625,-19.168701171875
0.0245,12.942626953125,7.056884765625,-19.368896484375
0.025,9.939697265625,10.219970703125,-19.609130859375
0.0255,5.495361328125,13.983642578125,-19.168701171875
0.026,1.291259765625,16.866455078125,-17.887451171875
0.0265,-2.632568359375,18.548095703125,-15.885498046875
0.027,-5.795654296875,19.509033203125,-13.923583984375
0.0275,-8.958740234375,19.669189453125,-11.160888671875
0.028,-12.442138671875,19.268798828125,-7.477294921875
0.0285,-15.525146484375,18.868408203125,-4.114013671875
0.029,-18.007568359375,17.306884765625,-0.190185546875
0.0295,-19.609130859375,15.064697265625,3.653564453125
0.03,-19.929443359375,12.422119140625,6.536376953125
0.0305,-20.209716796875,9.499267578125,9.859619140625
0.031,-19.809326171875,5.175048828125,13.743408203125
0.0315,-19.008544921875,1.571533203125,16.586181640625
0.032,-17.286865234375,-2.072021484375,18.548095703125
0.0325,-15.244873046875,-5.515380859375,19.949462890625
0.033,-12.201904296875,-8.598388671875,19.989501953125
0.0335,-8.478271484375,-12.081787109375,19.869384765625
0.034,-4.354248046875,-15.405029296875,19.268798828125
0.0345,0.330322265625,-18.087646484375,17.507080078125
0.035,4.134033203125,-19.489013671875,15.385009765625
0.0355,7.096923828125,-19.969482421875,13.062744140625
0.036,10.300048828125,-20.209716796875,10.300048828125
0.0365,14.183837890625,-19.529052734375,5.935791015625
0.037,16.946533203125,-18.608154296875,2.452392578125
0.0375,19.068603515625,-16.886474609375,-1.431396484375
0.038,20.349853515625,-14.484130859375,-4.994873046875
0.0385,20.309814453125,-11.481201171875,-8.037841796875
0.039,20.469970703125,-8.197998046875,-11.521240234375
0.0395,19.989501953125,-4.154052734375,-15.124755859375
0.04,18.788330078125,-0.150146484375,-17.887451171875
0.0405,16.666259765625,3.493408203125,-19.489013671875
0.041,14.343994140625,6.696533203125,-20.409912109375
0.0415,11.180908203125,9.939697265625,-20.530029296875
0.042,6.456298828125,13.903564453125,-19.889404296875
0.0425,2.652587890625,16.786376953125,-19.168701171875
0.043,-1.951904296875,19.148681640625,-17.166748046875
0.0435,-5.635498046875,20.349853515625,-14.924560546875
0.044,-8.678466796875,20.349853515625,-12.081787109375
0.0445,-11.881591796875,20.469970703125,-9.239013671875
0.045,-15.765380859375,19.709228515625,-4.794677734375
0.0455,-18.407958984375,18.227783203125,-0.790771484375
0.046,-20.049560546875,16.225830078125,2.892822265625
0.0465,-21.010498046875,13.743408203125,6.336181640625
0.047,-20.890380859375,10.380126953125,9.579345703125
0.0475,-20.690185546875,6.376220703125,13.423095703125
0.048,-20.129638671875,2.692626953125,16.546142578125
0.0485,-18.688232421875,-1.431396484375,19.188720703125
0.049,-16.285888671875,-5.155029296875,20.510009765625
0.0495,-13.523193359375,-8.197998046875,20.870361328125
0.05,-10.400146484375,-11.481201171875,21.150634765625
0.0505,-5.114990234375,-15.605224609375,20.149658203125
0.051,-0.950927734375,-18.207763671875,18.748291015625
0.0515,3.213134765625,-20.049560546875,16.786376953125
0.052,6.856689453125,-21.130615234375,14.424072265625
0.0525,10.179931640625,-20.810302734375,11.060791015625
0.053,13.543212890625,-20.650146484375,7.697509765625
0.0535,17.026611328125,-19.929443359375,3.653564453125
0.054,19.629150390625,-17.967529296875,-0.790771484375
0.0545,20.830322265625,-15.685302734375,-4.274169921875
0.055,21.430908203125,-12.962646484375,-7.637451171875
0.0555,21.350830078125,-9.639404296875,-10.880615234375
0.056,20.830322265625,-5.074951171875,-15.004638671875
0.0565,19.909423828125,-1.431396484375,-17.727294921875
0.057,18.227783203125,2.572509765625,-20.049560546875
0.0575,15.625244140625,6.256103515625,-21.210693359375
0.058,12.181884765625,9.619384765625,-21.130615234375
0.0585,8.698486328125,13.102783203125,-21.290771484375
0.059,3.653564453125,16.986572265625,-20.289794921875
0.0595,-1.191162109375,19.509033203125,-18.247802734375
0.06,-4.834716796875,20.790283203125,-16.085693359375
0.0605,-8.318115234375,21.551025390625,-13.683349609375
0.061,-11.801513671875,21.230712890625,-10.039794921875
0.0615,-15.445068359375,20.550048828125,-5.915771484375
0.062,-18.528076171875,19.629150390625,-2.072021484375
0.0625,-20.850341796875,17.467041015625,2.412353515625
0.063,-21.691162109375,14.864501953125,5.815673828125
0.0635,-21.971435546875,11.621337890625,9.339111328125
0.064,-21.891357421875,8.137939453125,12.782470703125
0.0645,-21.250732421875,3.453369140625,16.826416015625
0.065,-19.729248046875,-0.670654296875,19.428955078125
0.0655,-17.687255859375,-4.514404296875,21.230712890625
0.066,-15.124755859375,-7.957763671875,22.231689453125
0.0665,-11.080810546875,-11.481201171875,21.791259765625
0.067,-6.916748046875,-15.124755859375,21.430908203125
0.0675,-2.232177734375,-18.568115234375,20.349853515625
0.068,2.932861328125,-20.850341796875,17.867431640625
0.0685,6.376220703125,-21.731201171875,15.465087890625
0.069,9.859619140625,-22.131591796875,12.662353515625
0.0695,13.383056640625,-21.731201171875,8.978759765625
0.07,17.226806640625,-20.810302734375,4.414306640625
0.0705,19.909423828125,-19.368896484375,0.290283203125
0.071,21.831298828125,-17.006591796875,-3.953857421875
0.0715,22.391845703125,-14.203857421875,-7.237060546875
0.072,22.271728515625,-10.480224609375,-10.920654296875
0.0725,21.951416015625,-6.756591796875,-14.444091796875
0.073,21.270751953125,-2.432373046875,-18.087646484375
0.0735,19.268798828125,2.092041015625,-20.369873046875
0.074,16.786376953125,5.735595703125,-21.731201171875
0.0745,14.023681640625,9.218994140625,-22.451904296875
0.075,9.739501953125,12.822509765625,-21.971435546875
0.0755,4.974853515625,16.626220703125,-21.090576171875
0.076,0.570556640625,19.509033203125,-19.809326171875
0.0765,-4.354248046875,21.510986328125,-17.286865234375
0.077,-7.637451171875,21.951416015625,-14.684326171875
0.0775,-11.240966796875,22.031494140625,-11.321044921875
0.078,-14.724365234375,21.551025390625,-7.637451171875
0.0785,-18.247802734375,20.469970703125,-3.193115234375
0.079,-20.690185546875,18.508056640625,1.291259765625
0.0795,-22.131591796875,15.985595703125,5.094970703125
0.08,-22.491943359375,13.062744140625,8.458251953125
0.0805,-22.211669921875,9.018798828125,12.181884765625
0.081,-21.651123046875,4.894775390625,15.785400390625
0.0815,-20.650146484375,0.930908203125,18.868408203125
0.082,-18.568115234375,-3.553466796875,21.150634765625
0.0825,-15.845458984375,-6.876708984375,21.831298828125
0.083,-12.842529296875,-10.280029296875,22.311767578125
0.0835,-8.598388671875,-13.963623046875,21.831298828125
0.084,-3.593505859375,-17.567138671875,20.630126953125
0.0845,1.010986328125,-20.009521484375,18.828369140625
0.085,5.255126953125,-21.651123046875,16.506103515625
0.0855,8.498291015625,-21.931396484375,13.743408203125
0.086,12.101806640625,-21.731201171875,10.179931640625
0.0865,15.625244140625,-21.210693359375,6.256103515625
0.087,18.868408203125,-20.009521484375,1.971923828125
0.0875,21.110595703125,-17.807373046875,-2.432373046875
0.088,21.951416015625,-15.244873046875,-5.795654296875
0.0885,22.311767578125,-12.241943359375,-9.239013671875
0.089,21.951416015625,-8.197998046875,-12.962646484375
0.0895,21.230712890625,-4.033935546875,-16.526123046875
0.09,19.989501953125,0.050048828125,-19.208740234375
0.0905,17.867431640625,4.294189453125,-21.290771484375
0.091,14.864501953125,7.537353515625,-21.691162109375
0.0915,11.541259765625,11.020751953125,-21.931396484375
0.092,7.096923828125,14.864501953125,-21.490966796875
0.0925,2.292236328125,18.227783203125,-20.249755859375
0.093,-2.392333984375,20.389892578125,-17.967529296875
0.0935,-6.115966796875,21.631103515625,-15.725341796875
0.094,-9.399169921875,21.831298828125,-12.922607421875
0.0945,-13.042724609375,21.470947265625,-9.118896484375
0.095,-16.606201171875,20.830322265625,-5.114990234375
0.0955,-19.529052734375,19.388916015625,-0.830810546875
0.096,-21.611083984375,16.986572265625,3.573486328125
0.0965,-22.051513671875,14.223876953125,6.776611328125
0.097,-22.371826171875,10.860595703125,10.460205078125
0.0975,-21.971435546875,6.616455078125,14.343994140625
0.098,-21.170654296875,2.532470703125,17.747314453125
0.0985,-19.448974609375,-1.591552734375,20.109619140625
0.099,-17.206787109375,-5.595458984375,21.911376953125
0.0995,-14.123779296875,-8.838623046875,22.151611328125
0.1,-10.320068359375,-12.402099609375,21.991455078125
0.1005,-5.755615234375,-16.165771484375,21.310791015625
0.101,-0.790771484375,-19.288818359375,19.829345703125
0.1015,3.853759765625,-21.130615234375,17.306884765625
0.102,7.177001953125,-21.931396484375,14.904541015625
0.1025,10.780517578125,-22.131591796875,11.821533203125
0.103,14.584228515625,-21.490966796875,7.617431640625
0.1035,17.867431640625,-20.690185546875,3.693603515625
0.104,20.469970703125,-18.928466796875,-0.710693359375
0.1045,22.271728515625,-16.446044921875,-4.994873046875
0.105,22.351806640625,-13.322998046875,-8.157958984375
0.1055,22.471923828125,-9.839599609375,-11.841552734375
0.106,21.911376953125,-5.315185546875,-15.725341796875
0.1065,20.950439453125,-1.231201171875,-18.888427734375
0.107,18.748291015625,3.012939453125,-20.890380859375
0.1075,16.265869140625,6.696533203125,-22.171630859375
0.108,12.942626953125,10.099853515625,-22.371826171875
0.1085,8.458251953125,13.983642578125,-21.891357421875
0.109,4.134033203125,17.306884765625,-21.170654296875
0.1095,-0.990966796875,20.229736328125,-19.208740234375
0.11,-5.395263671875,21.831298828125,-16.646240234375
0.1105,-8.518310546875,22.071533203125,-13.963623046875
0.111,-12.121826171875,22.271728515625,-10.800537109375
0.1115,-16.085693359375,21.390869140625,-6.156005859375
0.112,-19.088623046875,20.229736328125,-2.112060546875
0.1125,-21.330810546875,18.147705078125,2.172119140625
0.113,-22.732177734375,15.505126953125,6.216064453125
0.1135,-22.652099609375,12.181884765625,9.539306640625
0.114,-22.612060546875,8.218017578125,13.423095703125
0.1145,-21.931396484375,3.893798828125,17.026611328125
0.115,-20.570068359375,-0.430419921875,20.029541015625
0.1155,-18.087646484375,-4.634521484375,21.791259765625
0.116,-15.405029296875,-7.877685546875,22.431884765625
0.1165,-12.081787109375,-11.401123046875,22.672119140625
0.117,-6.996826171875,-15.525146484375,21.791259765625
0.1175,-2.632568359375,-18.447998046875,20.630126953125
0.118,2.252197265625,-20.810302734375,18.468017578125
0.1185,6.416259765625,-22.251708984375,15.985595703125
0.119,9.619384765625,-21.971435546875,12.862548828125
0.1195,13.102783203125,-22.091552734375,9.619384765625
0.12,17.026611328125,-21.290771484375,5.054931640625
0.1205,19.869384765625,-19.729248046875,0.610595703125
0.121,21.711181640625,-17.447021484375,-3.393310546875
0.1215,22.632080078125,-14.684326171875,-6.956787109375
0.122,22.552001953125,-11.240966796875,-10.400146484375
0.1225,22.231689453125,-6.836669921875,-14.524169921875
0.123,21.470947265625,-3.072998046875,-17.607177734375
0.1235,19.869384765625,1.331298828125,-20.369873046875
0.124,17.306884765625,5.495361328125,-21.931396484375
0.1245,14.143798828125,8.698486328125,-22.091552734375
0.125,10.860595703125,12.181884765625,-22.451904296875
0.1255,5.455322265625,16.466064453125,-21.490966796875
0.126,0.970947265625,19.268798828125,-19.969482421875
0.1265,-3.433349609375,21.150634765625,-17.767333984375
0.127,-7.317138671875,22.351806640625,-15.405029296875
0.1275,-10.760498046875,22.071533203125,-11.881591796875
0.128,-14.364013671875,21.751220703125,-8.157958984375
0.1285,-17.967529296875,20.990478515625,-3.993896484375
0.129,-20.650146484375,19.028564453125,0.650634765625
0.1295,-22.131591796875,16.506103515625,4.654541015625
0.13,-22.612060546875,13.583251953125,8.097900390625
0.1305,-22.732177734375,10.139892578125,11.581298828125
0.131,-22.131591796875,5.135009765625,15.985595703125
0.1315,-21.090576171875,1.371337890625,18.788330078125
0.132,-19.248779296875,-2.832763671875,21.110595703125
0.1325,-16.646240234375,-6.756591796875,22.552001953125
0.133,-13.042724609375,-9.999755859375,22.271728515625
0.1335,-9.439208984375,-13.603271484375,22.351806640625
0.134,-4.314208984375,-17.567138671875,21.310791015625
0.1345,0.770751953125,-20.249755859375,19.228759765625
0.135,4.774658203125,-21.611083984375,16.906494140625
0.1355,8.338134765625,-22.411865234375,14.343994140625
0.136,11.861572265625,-22.171630859375,10.820556640625
0.1365,15.785400390625,-21.450927734375,6.336181640625
0.137,18.828369140625,-20.489990234375,2.532470703125
0.1375,21.230712890625,-18.367919921875,-1.951904296875
0.138,22.351806640625,-15.725341796875,-5.755615234375
0.1385,22.351806640625,-12.402099609375,-9.078857421875
0.139,22.431884765625,-8.998779296875,-12.522216796875
0.1395,21.751220703125,-4.234130859375,-16.646240234375
0.14,20.269775390625,-0.150146484375,-19.288818359375
0.1405,18.107666015625,3.773681640625,-21.010498046875
0.141,15.545166015625,7.497314453125,-22.251708984375
0.1415,11.701416015625,10.860595703125,-21.931396484375
0.142,7.377197265625,14.704345703125,-21.490966796875
0.1425,3.012939453125,18.027587890625,-20.690185546875
0.143,-2.112060546875,20.510009765625,-18.327880859375
0.1435,-5.835693359375,21.591064453125,-15.965576171875
0.144,-9.118896484375,21.911376953125,-13.162841796875
0.1445,-12.562255859375,21.831298828125,-9.959716796875
0.145,-16.646240234375,20.830322265625,-5.074951171875
0.1455,-19.328857421875,19.468994140625,-1.071044921875
0.146,-21.210693359375,17.306884765625,2.892822265625
0.1465,-22.131591796875,14.704345703125,6.456298828125
0.147,-21.931396484375,11.020751953125,9.899658203125
0.1475,-21.811279296875,7.297119140625,13.583251953125
0.148,-21.170654296875,3.173095703125,17.146728515625
0.1485,-19.529052734375,-1.231201171875,19.789306640625
0.149,-17.006591796875,-4.874755859375,21.030517578125
0.1495,-14.484130859375,-8.197998046875,21.871337890625
0.15,-10.920654296875,-11.521240234375,21.751220703125
0.1505,-5.755615234375,-15.605224609375,20.790283203125
0.151,-1.711669921875,-18.287841796875,19.629150390625
0.1515,2.892822265625,-20.449951171875,17.427001953125
0.152,6.456298828125,-21.450927734375,14.944580078125
0.1525,9.899658203125,-21.290771484375,11.701416015625
0.153,13.182861328125,-21.250732421875,8.538330078125
0.1535,16.946533203125,-20.369873046875,4.134033203125
0.154,19.509033203125,-18.528076171875,-0.190185546875
0.1545,20.830322265625,-16.365966796875,-3.673583984375
0.155,21.591064453125,-13.723388671875,-7.036865234375
0.1555,21.390869140625,-10.239990234375,-10.280029296875
0.156,20.990478515625,-5.955810546875,-14.243896484375
0.1565,20.309814453125,-2.352294921875,-17.166748046875
0.157,18.668212890625,1.851806640625,-19.649169921875
0.1575,16.065673828125,5.415283203125,-20.770263671875
0.158,13.102783203125,8.698486328125,-21.090576171875
0.1585,9.659423828125,12.181884765625,-21.210693359375
0.159,4.494384765625,16.185791015625,-20.249755859375
0.1595,0.130126953125,18.708251953125,-18.568115234375
0.16,-3.793701171875,20.309814453125,-16.566162109375
0.1605,-7.237060546875,21.110595703125,-14.203857421875
0.161,-10.600341796875,20.830322265625,-10.800537109375
0.1615,-14.243896484375,20.469970703125,-7.036865234375
0.162,-17.447021484375,19.709228515625,-3.153076171875
0.1625,-19.769287109375,17.667236328125,1.291259765625
0.163,-20.810302734375,15.264892578125,4.574462890625
0.1635,-21.330810546875,12.382080078125,7.977783203125
0.164,-21.290771484375,8.978759765625,11.301025390625
0.1645,-20.730224609375,4.494384765625,15.385009765625
0.165,-19.609130859375,0.730712890625,17.947509765625
0.1655,-17.847412109375,-3.153076171875,20.069580078125
0.166,-15.364990234375,-6.556396484375,21.070556640625
0.1665,-11.841552734375,-9.879638671875,20.910400390625
0.167,-8.077880859375,-13.443115234375,20.870361328125
0.1675,-3.273193359375,-17.046630859375,19.909423828125
0.168,1.531494140625,-19.408935546875,17.667236328125
0.1685,4.814697265625,-20.530029296875,15.665283203125
0.169,8.177978515625,-21.170654296875,13.142822265625
0.1695,11.661376953125,-20.770263671875,9.619384765625
0.17,15.344970703125,-20.129638671875,5.455322265625
0.1705,18.067626953125,-19.008544921875,1.771728515625
0.171,20.189697265625,-16.926513671875,-2.432373046875
0.1715,20.750244140625,-14.364013671875,-5.555419921875
0.172,20.910400390625,-11.160888671875,-8.958740234375
0.1725,20.830322265625,-7.717529296875,-12.322021484375
0.173,20.309814453125,-3.513427734375,-16.005615234375
0.1735,18.668212890625,0.530517578125,-18.407958984375
0.174,16.666259765625,4.053955078125,-19.929443359375
0.1745,14.143798828125,7.377197265625,-20.810302734375
0.175,10.420166015625,10.740478515625,-20.530029296875
0.1755,6.135986328125,14.384033203125,-20.089599609375
0.176,1.931884765625,17.427001953125,-19.128662109375
0.1765,-2.712646484375,19.549072265625,-16.806396484375
0.177,-5.835693359375,20.229736328125,-14.684326171875
0.1775,-9.198974609375,20.630126953125,-11.841552734375
0.178,-12.602294921875,20.349853515625,-8.438232421875
0.1785,-16.085693359375,19.589111328125,-4.354248046875
0.179,-18.568115234375,18.027587890625,-0.430419921875
0.1795,-20.209716796875,15.905517578125,3.413330078125
0.18,-20.690185546875,13.262939453125,6.496337890625
0.1805,-20.650146484375,9.819580078125,9.939697265625
0.181,-20.369873046875,6.015869140625,13.463134765625
