wavelength,x,y,z
0.0,24.188598632812,-11.045776367188,-13.247924804688
0.0005,23.948364257812,-6.9217529296875,-17.251831054688
0.001,22.346801757812,-3.1580810546875,-19.373901367188
0.0015,20.304809570312,2.0870361328125,-22.577026367188
0.002,17.782348632812,6.5313720703125,-24.458862304688
0.0025,13.017700195312,11.616333007812,-24.699096679688
0.003,9.8946533203125,15.099731445312,-25.099487304688
0.0035,4.8096923828125,18.503051757812,-23.457885742188
0.004,0.5655517578125,20.825317382812,-21.576049804688
0.0045,-3.7586669921875,22.747192382812,-19.333862304688
0.005,-8.9237060546875,24.629028320312,-16.130737304688
0.0055,-13.047729492188,23.668090820312,-11.165893554688
0.006,-16.811401367188,23.908325195312,-7.6824951171875
0.0065,-19.293823242188,22.146606445312,-3.5184326171875
0.007,-22.096557617188,20.464965820312,1.1260986328125
0.0075,-23.137573242188,17.862426757812,4.8096923828125
0.008,-23.978393554688,13.778442382812,9.7344970703125
0.0085,-23.658081054688,10.014770507812,13.257934570312
0.009,-22.897338867188,5.6104736328125,16.981567382812
0.0095,-21.335815429688,1.9268798828125,19.103637695312
0.01,-19.574096679688,-2.6375732421875,21.906372070312
0.0105,-16.691284179688,-7.4822998046875,23.868286132812
0.011,-11.886596679688,-12.006713867188,23.547973632812
0.0115,-9.0037841796875,-15.410034179688,24.068481445312
0.012,-4.0789794921875,-18.252807617188,21.986450195312
0.0125,0.4454345703125,-20.815307617188,20.184692382812
0.013,4.1290283203125,-22.296752929688,18.142700195312
0.0135,9.6944580078125,-23.858276367188,14.178833007812
0.014,13.217895507812,-23.017456054688,9.8946533203125
0.0145,17.141723632812,-23.057495117188,6.0909423828125
0.015,19.263793945312,-21.295776367188,2.2071533203125
0.0155,21.946411132812,-19.654174804688,-2.1971435546875
0.016,22.987426757812,-16.771362304688,-6.1610107421875
0.0165,23.227661132812,-12.567260742188,-10.845581054688
0.017,23.347778320312,-9.4442138671875,-14.128784179688
0.0175,22.026489257812,-4.6795654296875,-17.652221679688
0.018,20.384887695312,-0.6756591796875,-19.934448242188
0.0185,18.623168945312,3.6085205078125,-22.376831054688
0.019,15.139770507812,8.8936767578125,-24.178588867188
0.0195,10.415161132812,12.897583007812,-23.417846679688
0.02,7.4122314453125,16.340942382812,-23.898315429688
0.0205,2.4874267578125,18.863403320312,-21.495971679688
0.021,-1.9969482421875,21.586059570312,-19.854370117188
0.0215,-5.8006591796875,22.587036132812,-17.171752929688
0.022,-11.286010742188,23.788208007812,-12.967651367188
0.0225,-14.489135742188,22.987426757812,-9.0438232421875
0.023,-18.252807617188,22.466918945312,-4.8397216796875
0.0235,-20.214721679688,20.545043945312,-0.9158935546875
0.024,-22.577026367188,18.783325195312,3.2882080078125
0.0245,-23.137573242188,15.059692382812,7.6524658203125
0.025,-23.057495117188,10.655395507812,12.016723632812
0.0255,-23.217651367188,7.6925048828125,15.179809570312
0.026,-21.335815429688,2.7276611328125,18.342895507812
0.0265,-19.734252929688,-1.4364013671875,20.825317382812
0.027,-17.492065429688,-5.4403076171875,22.627075195312
0.0275,-13.768432617188,-10.685424804688,24.108520507812
0.028,-9.2039794921875,-14.208862304688,23.067504882812
0.0285,-5.7606201171875,-17.492065429688,22.907348632812
0.029,-0.7957763671875,-19.734252929688,20.224731445312
0.0295,3.4083251953125,-22.296752929688,18.783325195312
0.03,7.6524658203125,-22.697143554688,14.979614257812
0.0305,12.497192382812,-23.457885742188,11.015747070312
0.031,15.580200195312,-22.817260742188,7.3721923828125
0.0315,19.023559570312,-21.656127929688,2.8477783203125
0.032,20.905395507812,-19.654174804688,-1.1561279296875
0.0325,22.707153320312,-17.772338867188,-4.9197998046875
0.033,23.147583007812,-13.928588867188,-9.3240966796875
0.0335,22.627075195312,-9.5242919921875,-13.328002929688
0.034,22.627075195312,-6.5614013671875,-16.250854492188
0.0345,20.344848632812,-1.5164794921875,-19.013549804688
0.035,18.983520507812,2.5274658203125,-21.696166992188
0.0355,15.740356445312,6.7315673828125,-22.577026367188
0.036,12.216918945312,11.496215820312,-23.858276367188
0.0365,8.0128173828125,14.779418945312,-22.937377929688
0.037,4.1290283203125,17.902465820312,-22.096557617188
0.0375,-0.4754638671875,19.824340820312,-19.614135742188
0.038,-4.3592529296875,22.266723632812,-18.292846679688
0.0385,-8.9237060546875,22.386840820312,-13.848510742188
0.039,-13.127807617188,22.587036132812,-10.004760742188
0.0395,-16.010620117188,22.346801757812,-6.9617919921875
0.04,-18.933471679688,20.625122070312,-2.2772216796875
0.0405,-20.815307617188,18.823364257812,1.4864501953125
0.041,-21.856323242188,16.180786132812,5.1700439453125
0.0415,-22.536987304688,12.497192382812,9.6143798828125
0.042,-21.816284179688,8.2930908203125,13.217895507812
0.0425,-21.656127929688,5.2501220703125,16.140747070312
0.043,-19.413940429688,0.6055908203125,18.543090820312
0.0435,-18.412963867188,-3.3182373046875,21.425903320312
0.044,-14.409057617188,-7.6424560546875,21.746215820312
0.0445,-11.045776367188,-11.926635742188,22.707153320312
0.045,-7.4822998046875,-14.889526367188,22.066528320312
0.0455,-3.0379638671875,-17.812377929688,20.464965820312
0.046,0.9659423828125,-19.574096679688,18.503051757812
0.0465,4.9698486328125,-21.656127929688,16.581176757812
0.047,9.4542236328125,-21.936401367188,12.497192382812
0.0475,13.297973632812,-21.656127929688,8.4532470703125
0.048,16.020629882812,-21.616088867188,5.7305908203125
0.0485,18.703247070312,-19.734252929688,1.0860595703125
0.049,20.745239257812,-18.252807617188,-2.5574951171875
0.0495,21.105590820312,-14.889526367188,-6.2811279296875
0.05,22.026489257812,-11.646362304688,-10.445190429688
0.0505,21.225708007812,-7.6824951171875,-13.648315429688
0.051,20.585083007812,-4.1190185546875,-16.651245117188
0.0515,18.623168945312,0.1251220703125,-18.893432617188
0.052,17.221801757812,4.2891845703125,-21.656127929688
0.0525,13.017700195312,8.5733642578125,-21.776245117188
0.053,9.6143798828125,12.537231445312,-22.256713867188
0.0535,6.5313720703125,15.099731445312,-21.776245117188
0.054,1.7266845703125,17.982543945312,-19.894409179688
0.0545,-1.9569091796875,19.864379882812,-18.252807617188
0.055,-6.4012451171875,21.185668945312,-15.169799804688
0.0555,-10.405151367188,21.786254882812,-11.886596679688
0.056,-13.968627929688,21.145629882812,-7.7225341796875
0.0565,-16.531127929688,20.745239257812,-4.7996826171875
0.057,-18.893432617188,18.863403320312,-0.5955810546875
0.0575,-20.895385742188,17.141723632812,3.2481689453125
0.058,-20.655151367188,13.097778320312,7.0919189453125
0.0585,-21.656127929688,10.134887695312,11.135864257812
0.059,-20.815307617188,6.5714111328125,13.938598632812
0.0595,-19.734252929688,2.5274658203125,16.941528320312
0.06,-18.092651367188,-1.2362060546875,19.023559570312
0.0605,-15.810424804688,-5.7606201171875,21.265747070312
0.061,-12.126831054688,-9.6444091796875,21.465942382812
0.0615,-8.3631591796875,-13.448120117188,21.465942382812
0.062,-5.4002685546875,-15.610229492188,20.665161132812
0.0625,-0.5955810546875,-18.332885742188,18.623168945312
0.063,2.9678955078125,-20.294799804688,17.221801757812
0.0635,7.6124267578125,-20.775268554688,13.097778320312
0.064,11.175903320312,-21.536010742188,10.455200195312
0.0645,14.539184570312,-20.815307617188,6.3311767578125
0.065,17.101684570312,-20.014526367188,2.9678955078125
0.0655,19.063598632812,-18.252807617188,-0.7957763671875
0.066,21.025512695312,-16.170776367188,-4.8397216796875
0.0665,20.505004882812,-12.166870117188,-8.4031982421875
0.067,21.265747070312,-9.0037841796875,-12.327026367188
0.0675,20.344848632812,-5.7606201171875,-14.769409179688
0.068,19.023559570312,-1.3563232421875,-17.892456054688
0.0685,17.462036132812,2.2872314453125,-19.894409179688
0.069,14.138793945312,7.0518798828125,-21.335815429688
0.0695,11.135864257812,10.615356445312,-21.856323242188
0.07,7.0518798828125,14.258911132812,-21.455932617188
0.0705,3.8087158203125,16.380981445312,-20.294799804688
0.071,-0.6356201171875,18.863403320312,-18.533081054688
0.0715,-4.6395263671875,20.945434570312,-16.651245117188
0.072,-9.0838623046875,20.825317382812,-12.206909179688
0.0725,-12.567260742188,21.586059570312,-9.5242919921875
0.073,-15.570190429688,20.545043945312,-5.6405029296875
0.0735,-18.172729492188,19.463989257812,-1.8768310546875
0.074,-19.694213867188,17.622192382812,1.6065673828125
0.0745,-21.215698242188,14.659301757812,6.1309814453125
0.075,-20.895385742188,10.935668945312,9.5743408203125
0.0755,-21.135620117188,7.3721923828125,13.458129882812
0.076,-20.054565429688,4.1290283203125,15.620239257812
0.0765,-18.613159179688,-0.3553466796875,18.703247070312
0.077,-16.731323242188,-4.3192138671875,20.705200195312
0.0775,-12.727416992188,-9.0037841796875,21.385864257812
0.078,-10.044799804688,-12.246948242188,21.946411132812
0.0785,-5.6405029296875,-15.530151367188,20.865356445312
0.079,-1.8768310546875,-17.732299804688,19.303833007812
0.0795,1.9268798828125,-19.734252929688,17.662231445312
0.08,6.7315673828125,-21.616088867188,14.779418945312
0.0805,10.575317382812,-21.135620117188,10.495239257812
0.081,14.218872070312,-21.656127929688,7.4522705078125
0.0815,16.781372070312,-20.294799804688,3.5284423828125
0.082,19.463989257812,-18.933471679688,-0.5155029296875
0.0825,20.585083007812,-16.811401367188,-3.7987060546875
0.083,21.546020507812,-13.207885742188,-8.3231201171875
0.0835,21.385864257812,-9.9647216796875,-11.566284179688
0.084,20.945434570312,-5.9608154296875,-15.129760742188
0.0845,19.463989257812,-2.4373779296875,-17.291870117188
0.085,18.102661132812,1.8067626953125,-20.014526367188
0.0855,15.380004882812,6.3311767578125,-21.856323242188
0.086,11.135864257812,10.575317382812,-21.816284179688
0.0865,8.5733642578125,13.818481445312,-22.496948242188
0.087,3.9288330078125,16.661254882812,-20.775268554688
0.0875,-0.2352294921875,19.103637695312,-19.133666992188
0.088,-3.5985107421875,20.625122070312,-17.331909179688
0.0885,-8.8436279296875,22.066528320312,-13.808471679688
0.089,-12.206909179688,21.385864257812,-9.7244873046875
0.0895,-15.850463867188,21.626098632812,-6.4012451171875
0.09,-18.012573242188,19.904418945312,-2.4774169921875
0.0905,-20.535034179688,18.503051757812,1.5665283203125
0.091,-21.295776367188,15.580200195312,5.2501220703125
0.0915,-21.776245117188,11.656372070312,9.7344970703125
0.092,-21.816284179688,8.6534423828125,12.897583007812
0.0925,-20.815307617188,4.3292236328125,16.260864257812
0.093,-19.213745117188,0.4854736328125,18.543090820312
0.0935,-17.772338867188,-3.4783935546875,20.865356445312
0.094,-14.409057617188,-8.3631591796875,22.466918945312
0.0945,-10.044799804688,-12.206909179688,21.906372070312
0.095,-7.2821044921875,-15.410034179688,22.386840820312
0.0955,-2.3572998046875,-17.972534179688,20.024536132812
0.096,1.8468017578125,-20.454956054688,18.503051757812
0.0965,5.4503173828125,-21.495971679688,15.900512695312
0.097,10.535278320312,-22.737182617188,12.136840820312
0.0975,13.738403320312,-21.896362304688,8.1729736328125
0.098,17.381958007812,-21.536010742188,4.2891845703125
0.0985,19.423950195312,-19.614135742188,0.3253173828125
0.099,21.746215820312,-18.052612304688,-3.5985107421875
0.0995,22.066528320312,-14.529174804688,-7.6024169921875
0.1,22.266723632812,-10.525268554688,-11.846557617188
0.1005,22.266723632812,-7.6024169921875,-14.809448242188
0.101,20.545043945312,-2.6776123046875,-18.052612304688
0.1015,18.863403320312,1.4063720703125,-20.454956054688
0.102,16.621215820312,5.4903564453125,-22.256713867188
0.1025,13.017700195312,10.415161132812,-23.578002929688
0.103,8.5333251953125,14.018676757812,-22.617065429688
0.1035,5.3302001953125,17.141723632812,-22.577026367188
0.104,0.2852783203125,19.504028320312,-20.014526367188
0.1045,-3.8387451171875,22.026489257812,-18.573120117188
0.105,-8.0428466796875,22.266723632812,-14.649291992188
0.1055,-12.687377929688,23.187622070312,-11.085815429688
0.106,-15.730346679688,22.346801757812,-7.2020263671875
0.1065,-19.093627929688,21.265747070312,-2.8377685546875
0.107,-20.895385742188,19.143676757812,1.2462158203125
0.1075,-22.777221679688,17.021606445312,5.2501220703125
0.108,-22.777221679688,12.937622070312,9.4542236328125
0.1085,-22.577026367188,8.6934814453125,13.538208007812
0.109,-22.376831054688,5.7706298828125,16.300903320312
0.1095,-20.214721679688,0.6055908203125,19.343872070312
0.11,-18.573120117188,-3.5184326171875,21.786254882812
0.1105,-15.249877929688,-7.8426513671875,22.747192382812
0.111,-11.846557617188,-12.327026367188,23.868286132812
0.1115,-7.3221435546875,-15.690307617188,22.667114257812
0.112,-3.4783935546875,-18.573120117188,21.706176757812
0.1125,1.4063720703125,-20.695190429688,19.023559570312
0.113,5.4903564453125,-23.097534179688,17.421997070312
0.1135,10.014770507812,-22.777221679688,12.657348632812
0.114,14.178833007812,-23.217651367188,9.1339111328125
0.1145,17.101684570312,-22.456909179688,5.5303955078125
0.115,20.184692382812,-20.815307617188,0.7657470703125
0.1155,21.906372070312,-18.653198242188,-3.1981201171875
0.116,23.187622070312,-15.890502929688,-7.2821044921875
0.1165,23.267700195312,-12.046752929688,-11.286010742188
0.117,22.546997070312,-7.6424560546875,-15.089721679688
0.1175,22.026489257812,-4.5194091796875,-17.692260742188
0.118,19.664184570312,0.7257080078125,-20.494995117188
0.1185,18.062622070312,4.9298095703125,-23.137573242188
0.119,13.578247070312,9.5743408203125,-23.257690429688
0.1195,10.535278320312,13.578247070312,-24.298706054688
0.12,6.1309814453125,16.781372070312,-23.017456054688
0.1205,1.6866455078125,19.584106445312,-21.495971679688
0.121,-2.7576904296875,21.425903320312,-19.013549804688
0.1215,-7.2821044921875,23.668090820312,-16.811401367188
0.122,-11.646362304688,23.147583007812,-12.046752929688
0.1225,-15.570190429688,23.147583007812,-8.1629638671875
0.123,-18.212768554688,22.306762695312,-4.7196044921875
0.1235,-21.135620117188,20.344848632812,0.2052001953125
0.124,-22.737182617188,18.062622070312,4.1290283203125
0.1245,-23.257690429688,14.218872070312,8.6134033203125
0.125,-23.658081054688,10.855590820312,12.457153320312
0.1255,-22.577026367188,6.2110595703125,16.060668945312
0.126,-21.616088867188,2.6876220703125,18.623168945312
0.1265,-19.333862304688,-2.1971435546875,21.185668945312
0.127,-17.331909179688,-6.8016357421875,23.828247070312
0.1275,-12.407104492188,-11.245971679688,23.347778320312
0.128,-9.3240966796875,-15.089721679688,24.028442382812
0.1285,-4.9197998046875,-17.892456054688,22.466918945312
0.129,0.0850830078125,-20.815307617188,20.464965820312
0.1295,3.9688720703125,-22.336791992188,18.182739257812
0.13,9.2139892578125,-24.018432617188,14.779418945312
0.1305,12.977661132812,-23.537963867188,10.615356445312
0.131,17.021606445312,-23.177612304688,6.2510986328125
0.1315,19.383911132812,-21.936401367188,2.7276611328125
0.132,22.066528320312,-19.894409179688,-2.0770263671875
0.1325,23.588012695312,-17.371948242188,-6.2010498046875
0.133,23.507934570312,-12.887573242188,-10.605346679688
0.1335,24.028442382812,-9.8846435546875,-14.248901367188
0.134,22.506958007812,-5.1199951171875,-17.612182617188
0.1345,21.025512695312,-0.9559326171875,-20.294799804688
0.135,18.863403320312,3.5284423828125,-22.456909179688
0.1355,15.940551757812,8.8135986328125,-24.859252929688
0.136,10.975708007812,12.857543945312,-23.978393554688
0.1365,7.6124267578125,16.661254882812,-24.418823242188
0.137,3.1680908203125,19.063598632812,-22.456909179688
0.1375,-2.0369873046875,22.026489257812,-20.334838867188
0.138,-5.8006591796875,23.307739257812,-17.852416992188
0.1385,-11.406127929688,24.348754882812,-13.448120117188
0.139,-14.689331054688,23.948364257812,-9.8045654296875
0.1395,-18.693237304688,23.187622070312,-5.1199951171875
0.14,-20.775268554688,21.465942382812,-1.2762451171875
0.1405,-23.057495117188,19.223754882812,3.2481689453125
0.141,-24.298706054688,16.020629882812,7.8126220703125
0.1415,-23.658081054688,11.175903320312,12.136840820312
0.142,-24.178588867188,8.1729736328125,15.660278320312
0.1425,-22.256713867188,3.3282470703125,18.663208007812
0.143,-20.494995117188,-1.3162841796875,21.505981445312
0.1435,-18.212768554688,-5.2801513671875,23.147583007812
0.144,-14.569213867188,-10.845581054688,25.029418945312
0.1445,-9.8846435546875,-14.409057617188,23.948364257812
0.145,-6.0809326171875,-18.212768554688,23.908325195312
0.1455,-1.4364013671875,-20.214721679688,21.305786132812
0.146,3.4483642578125,-22.937377929688,19.383911132812
0.1465,7.6124267578125,-23.778198242188,16.180786132812
0.147,12.817504882812,-24.338745117188,11.536254882812
0.1475,15.980590820312,-24.018432617188,8.1329345703125
0.148,19.704223632812,-22.737182617188,3.1680908203125
0.1485,21.786254882812,-20.775268554688,-0.9559326171875
0.149,23.547973632812,-18.613159179688,-4.8797607421875
0.1495,24.629028320312,-14.929565429688,-9.7645263671875
0.15,23.708129882812,-10.124877929688,-13.728393554688
0.1505,23.988403320312,-7.0819091796875,-17.091674804688
0.151,21.626098632812,-1.9969482421875,-19.814331054688
0.1515,19.984497070312,2.6075439453125,-22.737182617188
0.152,16.941528320312,6.8116455078125,-23.898315429688
0.1525,12.977661132812,12.176879882812,-25.379760742188
0.153,8.6934814453125,15.500122070312,-24.378784179688
0.1535,4.4093017578125,19.143676757812,-23.698120117188
0.154,-0.3153076171875,21.065551757812,-21.015502929688
0.1545,-4.6795654296875,23.628051757812,-19.293823242188
0.155,-9.5643310546875,24.188598632812,-15.089721679688
0.1555,-14.248901367188,24.268676757812,-10.565307617188
0.156,-17.291870117188,24.068481445312,-7.4022216796875
0.1565,-20.655151367188,22.186645507812,-2.1971435546875
0.157,-22.657104492188,20.144653320312,2.0469970703125
0.1575,-23.858276367188,17.502075195312,5.8507080078125
0.158,-24.739135742188,13.418090820312,10.935668945312
0.1585,-23.698120117188,8.6934814453125,14.699340820312
0.159,-23.698120117188,5.3702392578125,18.022583007812
0.1595,-21.055541992188,0.2852783203125,20.505004882812
0.16,-19.574096679688,-4.1990966796875,23.507934570312
0.1605,-15.690307617188,-8.7235107421875,24.068481445312
0.161,-11.726440429688,-13.768432617188,25.109497070312
0.1615,-7.7625732421875,-16.851440429688,24.188598632812
0.162,-2.8377685546875,-20.134643554688,22.627075195312
0.1625,1.8868408203125,-21.936401367188,19.904418945312
0.163,6.1309814453125,-24.178588867188,17.982543945312
0.1635,11.215942382812,-24.458862304688,13.297973632812
0.164,15.500122070312,-24.058471679688,8.6934814453125
0.1645,18.543090820312,-23.938354492188,5.5704345703125
0.165,21.586059570312,-21.616088867188,0.2052001953125
0.1655,23.668090820312,-19.534057617188,-4.0789794921875
0.166,24.228637695312,-16.170776367188,-8.0428466796875
0.1665,24.989379882812,-12.367065429688,-12.727416992188
0.167,23.788208007812,-7.6824951171875,-16.250854492188
0.1675,23.187622070312,-3.8387451171875,-19.534057617188
0.168,20.424926757812,1.2862548828125,-21.816284179688
0.1685,18.783325195312,5.8907470703125,-24.819213867188
0.169,13.978637695312,10.575317382812,-24.699096679688
0.1695,10.054809570312,15.139770507812,-25.339721679688
0.17,6.3311767578125,18.062622070312,-24.498901367188
0.1705,0.8057861328125,21.345825195312,-22.336791992188
0.171,-3.7186279296875,23.027465820312,-19.694213867188
0.1715,-8.3231201171875,24.829223632812,-16.931518554688
0.172,-13.127807617188,24.989379882812,-12.447143554688
0.1725,-17.091674804688,24.068481445312,-7.6424560546875
0.173,-19.934448242188,23.628051757812,-4.2791748046875
0.1735,-22.577026367188,21.105590820312,0.9659423828125
0.174,-24.659057617188,18.743286132812,5.4503173828125
0.1745,-24.378784179688,14.258911132812,9.7344970703125
0.175,-25.179565429688,10.735473632812,14.098754882812
0.1755,-23.778198242188,6.0909423828125,17.381958007812
0.176,-22.577026367188,1.7667236328125,20.585083007812
0.1765,-19.894409179688,-3.0379638671875,22.587036132812
0.177,-17.652221679688,-8.0028076171875,25.309692382812
0.1775,-12.687377929688,-12.527221679688,24.829223632812
0.178,-8.6033935546875,-16.691284179688,24.989379882812
