wavelength,x,y,z
0.0,-23.417846679688,3.1680908203125,19.864379882812
0.0005,-20.775268554688,-1.5565185546875,21.906372070312
0.001,-18.372924804688,-6.3612060546875,24.268676757812
0.0015,-14.008666992188,-11.205932617188,24.709106445312
0.002,-9.3240966796875,-15.249877929688,24.188598632812
0.0025,-6.3612060546875,-17.972534179688,23.988403320312
0.003,-0.5155029296875,-20.975463867188,21.185668945312
0.0035,4.1690673828125,-23.097534179688,18.783325195312
0.004,8.8936767578125,-24.058471679688,15.179809570312
0.0045,13.658325195312,-25.139526367188,11.536254882812
0.005,16.981567382812,-23.898315429688,7.0518798828125
0.0055,20.224731445312,-23.578002929688,3.4884033203125
0.006,22.466918945312,-21.015502929688,-1.3963623046875
0.0065,24.749145507812,-18.653198242188,-6.1209716796875
0.007,24.508911132812,-14.449096679688,-10.124877929688
0.0075,24.989379882812,-10.645385742188,-14.449096679688
0.008,24.148559570312,-7.1619873046875,-17.091674804688
0.0085,22.466918945312,-2.2772216796875,-20.414916992188
0.009,19.984497070312,2.2872314453125,-22.456909179688
0.0095,16.941528320312,7.0919189453125,-24.258666992188
0.01,12.897583007812,11.816528320312,-24.819213867188
0.0105,8.2930908203125,15.660278320312,-23.978393554688
0.011,5.0899658203125,18.302856445312,-23.578002929688
0.0115,-0.6356201171875,21.105590820312,-20.775268554688
0.012,-5.3602294921875,23.387817382812,-18.412963867188
0.0125,-10.044799804688,23.868286132812,-14.248901367188
0.013,-14.409057617188,24.789184570312,-10.885620117188
0.0135,-17.532104492188,23.668090820312,-6.7215576171875
0.014,-20.655151367188,22.787231445312,-2.6776123046875
0.0145,-22.657104492188,20.184692382812,1.9669189453125
0.015,-24.699096679688,17.462036132812,6.8116455078125
0.0155,-24.338745117188,13.097778320312,10.855590820312
0.016,-24.578979492188,9.2540283203125,14.939575195312
0.0165,-23.778198242188,6.0509033203125,17.341918945312
0.017,-21.776245117188,0.7657470703125,20.625122070312
0.0175,-19.253784179688,-3.8387451171875,22.667114257812
0.018,-15.650268554688,-8.7235107421875,23.988403320312
0.0185,-11.846557617188,-12.967651367188,24.468872070312
0.019,-7.2420654296875,-16.531127929688,23.427856445312
0.0195,-3.5985107421875,-19.093627929688,22.346801757812
0.02,1.8468017578125,-21.656127929688,19.664184570312
0.0205,6.8917236328125,-23.898315429688,16.941528320312
0.021,11.456176757812,-23.858276367188,12.457153320312
0.0215,15.380004882812,-24.578979492188,9.2940673828125
0.022,18.503051757812,-23.457885742188,5.0899658203125
0.0225,21.505981445312,-22.136596679688,0.6856689453125
0.023,23.267700195312,-19.373901367188,-3.7987060546875
0.0235,24.989379882812,-16.370971679688,-8.7235107421875
0.024,24.388793945312,-12.046752929688,-12.447143554688
0.0245,24.348754882812,-8.2030029296875,-16.370971679688
0.025,23.227661132812,-4.7596435546875,-18.653198242188
0.0255,21.105590820312,0.6456298828125,-21.936401367188
0.026,18.222778320312,5.4503173828125,-23.738159179688
0.0265,13.938598632812,10.455200195312,-24.498901367188
0.027,10.535278320312,14.218872070312,-24.819213867188
0.0275,5.7706298828125,17.742309570312,-23.578002929688
0.028,1.5264892578125,20.224731445312,-21.896362304688
0.0285,-3.5584716796875,22.546997070312,-19.373901367188
0.029,-8.8436279296875,24.629028320312,-16.170776367188
0.0295,-13.167846679688,24.068481445312,-11.406127929688
0.03,-16.811401367188,24.629028320312,-8.3631591796875
0.0305,-19.854370117188,23.147583007812,-3.8787841796875
0.031,-22.617065429688,21.465942382812,0.7257080078125
0.0315,-23.898315429688,18.382934570312,5.0899658203125
0.032,-25.299682617188,14.779418945312,10.094848632812
0.0325,-24.538940429688,10.535278320312,13.578247070312
0.033,-24.258666992188,6.5313720703125,17.341918945312
0.0335,-22.617065429688,2.8077392578125,19.463989257812
0.034,-20.494995117188,-2.4774169921875,22.546997070312
0.0345,-17.131713867188,-7.2821044921875,24.028442382812
0.035,-12.567260742188,-12.126831054688,24.308715820312
0.0355,-9.3641357421875,-15.530151367188,24.468872070312
0.036,-4.3192138671875,-18.853393554688,22.827270507812
0.0365,0.3253173828125,-21.215698242188,20.705200195312
0.037,4.8497314453125,-23.137573242188,18.142700195312
0.0375,10.415161132812,-24.939331054688,14.459106445312
0.038,14.338989257812,-24.018432617188,9.7344970703125
0.0385,17.942504882812,-24.498901367188,6.6915283203125
0.039,20.745239257812,-22.617065429688,1.9669189453125
0.0395,23.387817382812,-20.775268554688,-2.5975341796875
0.04,24.228637695312,-17.452026367188,-6.8016357421875
0.0405,25.229614257812,-13.608276367188,-11.686401367188
0.041,24.468872070312,-9.7645263671875,-14.889526367188
0.0415,23.828247070312,-5.4403076171875,-18.573120117188
0.042,21.746215820312,-1.2362060546875,-20.695190429688
0.0425,19.664184570312,3.6885986328125,-23.417846679688
0.043,15.660278320312,8.7335205078125,-24.498901367188
0.0435,11.015747070312,13.217895507812,-24.338745117188
0.044,8.0528564453125,16.380981445312,-24.538940429688
0.0445,2.6075439453125,19.624145507812,-22.416870117188
0.045,-1.9969482421875,21.946411132812,-20.214721679688
0.0455,-6.4012451171875,23.427856445312,-17.411987304688
0.046,-11.806518554688,24.949340820312,-13.608276367188
0.0465,-15.369995117188,23.788208007812,-8.9637451171875
0.047,-18.853393554688,24.028442382812,-5.7606201171875
0.0475,-21.335815429688,21.826293945312,-1.0360107421875
0.048,-23.818237304688,19.824340820312,3.5284423828125
0.0485,-24.178588867188,15.980590820312,7.7325439453125
0.049,-24.819213867188,11.976684570312,12.457153320312
0.0495,-24.258666992188,8.4532470703125,15.380004882812
0.05,-23.137573242188,3.8887939453125,18.903442382812
0.0505,-21.015502929688,-0.3953857421875,20.985473632812
0.051,-18.653198242188,-4.9998779296875,23.347778320312
0.0515,-14.649291992188,-10.044799804688,24.308715820312
0.052,-9.8446044921875,-14.088745117188,23.588012695312
0.0525,-7.0418701171875,-17.091674804688,23.788208007812
0.053,-1.3563232421875,-20.014526367188,21.105590820312
0.0535,3.1280517578125,-22.376831054688,19.103637695312
0.054,7.6124267578125,-23.337768554688,15.660278320312
0.0545,12.577270507812,-24.578979492188,12.016723632812
0.055,15.940551757812,-23.537963867188,7.7325439453125
0.0555,19.423950195312,-23.377807617188,4.0489501953125
0.056,21.586059570312,-21.055541992188,-0.5155029296875
0.0565,23.948364257812,-18.973510742188,-4.9998779296875
0.057,24.028442382812,-15.009643554688,-9.1239013671875
0.0575,24.308715820312,-10.965698242188,-13.488159179688
0.058,23.948364257812,-7.8426513671875,-16.250854492188
0.0585,22.226684570312,-2.7176513671875,-19.614135742188
0.059,20.144653320312,1.5665283203125,-21.776245117188
0.0595,17.301879882812,6.1309814453125,-23.537963867188
0.06,13.378051757812,11.015747070312,-24.458862304688
0.0605,8.6134033203125,14.739379882812,-23.417846679688
0.061,5.4903564453125,17.782348632812,-23.417846679688
0.0615,0.0050048828125,20.464965820312,-20.655151367188
0.062,-4.5594482421875,22.907348632812,-18.653198242188
0.0625,-9.1639404296875,23.347778320312,-14.609252929688
0.063,-13.608276367188,24.308715820312,-11.205932617188
0.0635,-16.731323242188,23.387817382812,-7.2420654296875
0.064,-20.134643554688,22.587036132812,-2.9979248046875
0.0645,-22.056518554688,20.184692382812,1.3663330078125
0.065,-24.098510742188,17.622192382812,6.0108642578125
0.0655,-23.898315429688,13.458129882812,9.9747314453125
0.066,-23.858276367188,9.3741455078125,14.138793945312
0.0665,-23.618041992188,6.5313720703125,16.741333007812
0.067,-21.495971679688,1.2061767578125,19.984497070312
0.0675,-19.373901367188,-3.1580810546875,22.146606445312
0.068,-15.850463867188,-7.7625732421875,23.227661132812
0.0685,-12.246948242188,-12.206909179688,24.068481445312
0.069,-7.6024169921875,-15.650268554688,22.867309570312
0.0695,-3.9989013671875,-18.453002929688,22.146606445312
0.07,1.2862548828125,-20.895385742188,19.463989257812
0.0705,6.0108642578125,-23.297729492188,17.301879882812
0.071,10.455200195312,-23.257690429688,12.777465820312
0.0715,14.499145507812,-23.858276367188,9.4542236328125
0.072,17.542114257812,-23.137573242188,5.7305908203125
0.0725,20.745239257812,-21.856323242188,1.2061767578125
0.073,22.426879882812,-19.453979492188,-3.0780029296875
0.0735,24.188598632812,-16.611206054688,-7.6824951171875
0.074,23.868286132812,-12.527221679688,-11.406127929688
0.0745,23.507934570312,-8.3631591796875,-15.209838867188
0.075,22.987426757812,-5.4403076171875,-17.692260742188
0.0755,20.625122070312,0.0450439453125,-20.775268554688
0.076,18.382934570312,4.4893798828125,-22.937377929688
0.0765,14.178833007812,9.1339111328125,-23.377807617188
0.077,10.855590820312,13.097778320312,-24.058471679688
0.0775,6.3712158203125,16.380981445312,-22.857299804688
0.078,2.2071533203125,19.223754882812,-21.536010742188
0.0785,-2.5574951171875,21.385864257812,-19.093627929688
0.079,-7.6024169921875,23.588012695312,-16.370971679688
0.0795,-11.726440429688,23.187622070312,-11.886596679688
0.08,-15.490112304688,23.507934570312,-8.6033935546875
0.0805,-18.252807617188,22.627075195312,-4.9598388671875
0.081,-21.215698242188,20.985473632812,-0.3153076171875
0.0815,-22.777221679688,18.302856445312,3.9688720703125
0.082,-23.858276367188,14.859497070312,8.6134033203125
0.0825,-23.738159179688,11.215942382812,12.176879882812
0.083,-23.097534179688,7.0518798828125,15.740356445312
0.0835,-22.256713867188,3.8487548828125,18.102661132812
0.084,-20.014526367188,-1.3162841796875,20.985473632812
0.0845,-17.331909179688,-5.9608154296875,22.987426757812
0.085,-12.887573242188,-10.405151367188,22.987426757812
0.0855,-9.7645263671875,-14.008666992188,23.387817382812
0.086,-5.4002685546875,-16.971557617188,22.066528320312
0.0865,-0.7957763671875,-19.774291992188,20.304809570312
0.087,3.5284423828125,-21.576049804688,17.942504882812
0.0875,8.8135986328125,-23.537963867188,14.699340820312
0.088,12.537231445312,-22.977416992188,10.455200195312
0.0885,16.220825195312,-23.217651367188,7.0118408203125
0.089,18.823364257812,-22.056518554688,3.2481689453125
0.0895,21.626098632812,-20.294799804688,-1.3563232421875
0.09,23.027465820312,-17.492065429688,-5.4803466796875
0.0905,23.588012695312,-13.728393554688,-9.9246826171875
0.091,23.547973632812,-10.405151367188,-13.247924804688
0.0915,22.667114257812,-6.1209716796875,-16.651245117188
0.092,21.345825195312,-2.3973388671875,-19.093627929688
0.0925,19.263793945312,2.2071533203125,-21.576049804688
0.093,16.060668945312,7.2921142578125,-23.417846679688
0.0935,11.536254882812,11.376098632812,-22.977416992188
0.094,8.4932861328125,14.819458007812,-23.417846679688
0.0945,3.9288330078125,17.662231445312,-21.776245117188
0.095,-0.9158935546875,20.505004882812,-19.894409179688
0.0955,-4.9598388671875,21.986450195312,-17.371948242188
0.096,-10.244995117188,23.628051757812,-13.848510742188
0.0965,-13.608276367188,22.907348632812,-9.8045654296875
0.097,-17.331909179688,22.907348632812,-6.1610107421875
0.0975,-19.694213867188,21.305786132812,-2.2772216796875
0.098,-22.176635742188,19.463989257812,2.2471923828125
0.0985,-23.257690429688,16.300903320312,6.5313720703125
0.099,-23.377807617188,12.176879882812,10.815551757812
0.0995,-23.497924804688,9.1339111328125,14.018676757812
0.1,-22.256713867188,4.6495361328125,17.301879882812
0.1005,-20.655151367188,0.5655517578125,19.784301757812
0.101,-18.453002929688,-3.7186279296875,21.786254882812
0.1015,-14.969604492188,-8.9237060546875,23.507934570312
0.102,-10.325073242188,-12.607299804688,22.546997070312
0.1025,-7.2020263671875,-16.010620117188,22.867309570312
0.103,-2.3973388671875,-18.533081054688,20.625122070312
0.1035,2.2872314453125,-21.295776367188,18.823364257812
0.104,6.4112548828125,-22.296752929688,15.780395507812
0.1045,11.456176757812,-23.578002929688,12.056762695312
0.105,14.579223632812,-22.937377929688,8.3731689453125
0.1055,18.342895507812,-22.496948242188,4.1690673828125
0.106,20.464965820312,-20.655151367188,0.3253173828125
0.1065,22.587036132812,-18.613159179688,-3.9188232421875
0.107,23.507934570312,-15.249877929688,-8.3231201171875
0.1075,23.107543945312,-10.965698242188,-12.206909179688
0.108,23.307739257812,-8.2030029296875,-15.249877929688
0.1085,21.505981445312,-3.3582763671875,-18.292846679688
0.109,19.864379882812,0.9259033203125,-20.935424804688
0.1095,17.141723632812,5.0499267578125,-22.216674804688
0.11,13.538208007812,10.094848632812,-23.738159179688
0.1105,9.0538330078125,13.458129882812,-22.617065429688
0.111,5.6104736328125,16.941528320312,-22.617065429688
0.1115,0.8057861328125,19.183715820312,-20.174682617188
0.112,-3.7586669921875,21.826293945312,-18.453002929688
0.1125,-8.0028076171875,22.426879882812,-14.889526367188
0.113,-12.647338867188,23.187622070312,-11.045776367188
0.1135,-15.530151367188,22.787231445312,-7.9627685546875
0.114,-19.053588867188,21.786254882812,-3.2781982421875
0.1145,-21.055541992188,19.864379882812,0.6856689453125
0.115,-22.737182617188,17.542114257812,4.7696533203125
0.1155,-23.457885742188,13.938598632812,9.1739501953125
0.116,-22.817260742188,9.6143798828125,12.857543945312
0.1165,-23.057495117188,6.8917236328125,15.860473632812
0.117,-20.855346679688,1.9268798828125,18.623168945312
0.1175,-19.373901367188,-2.3572998046875,21.385864257812
0.118,-16.010620117188,-6.4813232421875,22.066528320312
0.1185,-12.487182617188,-11.286010742188,23.387817382812
0.119,-8.2830810546875,-14.409057617188,22.306762695312
0.1195,-4.2391357421875,-17.732299804688,21.706176757812
0.12,0.4854736328125,-19.854370117188,19.183715820312
0.1205,4.9698486328125,-22.456909179688,17.301879882812
0.121,9.4141845703125,-22.857299804688,13.378051757812
0.1215,13.698364257812,-23.217651367188,9.4542236328125
0.122,16.621215820312,-23.017456054688,6.5313720703125
0.1225,19.944458007812,-21.455932617188,1.5665283203125
0.123,22.026489257812,-19.413940429688,-2.5574951171875
0.1235,23.307739257812,-16.651245117188,-6.6815185546875
0.124,23.948364257812,-13.127807617188,-10.885620117188
0.1245,23.027465820312,-8.6834716796875,-14.449096679688
0.125,22.907348632812,-5.6405029296875,-17.411987304688
0.1255,20.464965820312,-0.3553466796875,-20.254760742188
0.126,18.743286132812,4.1290283203125,-22.977416992188
0.1265,14.499145507812,8.5733642578125,-23.137573242188
0.127,11.095825195312,12.937622070312,-24.098510742188
0.1275,6.8917236328125,16.020629882812,-23.017456054688
0.128,2.2071533203125,19.383911132812,-21.736206054688
0.1285,-2.6375732421875,21.425903320312,-19.133666992188
0.129,-7.5223388671875,23.748168945312,-16.691284179688
0.1295,-11.806518554688,23.748168945312,-12.487182617188
0.13,-15.770385742188,23.708129882812,-8.4832763671875
0.1305,-18.653198242188,23.187622070312,-5.1199951171875
0.131,-21.856323242188,21.225708007812,0.1651611328125
0.1315,-23.698120117188,18.663208007812,4.6094970703125
0.132,-24.458862304688,15.019653320312,9.0137939453125
0.1325,-24.739135742188,11.536254882812,12.857543945312
0.133,-23.578002929688,6.8917236328125,16.380981445312
0.1335,-22.857299804688,3.3682861328125,19.183715820312
0.134,-20.214721679688,-2.0770263671875,21.906372070312
0.1345,-17.812377929688,-6.8817138671875,24.308715820312
0.135,-13.047729492188,-11.286010742188,23.908325195312
0.1355,-9.6043701171875,-15.169799804688,24.348754882812
0.136,-5.1199951171875,-18.092651367188,22.907348632812
0.1365,0.2052001953125,-21.295776367188,20.865356445312
0.137,4.7296142578125,-23.057495117188,18.102661132812
0.1375,10.054809570312,-25.019409179688,14.859497070312
0.138,13.898559570312,-24.378784179688,10.615356445312
0.1385,17.742309570312,-24.098510742188,6.4512939453125
0.139,20.464965820312,-22.937377929688,2.6475830078125
0.1395,23.307739257812,-20.775268554688,-2.4774169921875
0.14,24.829223632812,-17.892456054688,-6.9217529296875
0.1405,24.989379882812,-13.728393554688,-11.326049804688
0.141,25.029418945312,-10.405151367188,-14.769409179688
0.1415,23.628051757812,-5.6405029296875,-18.132690429688
0.142,22.146606445312,-1.4764404296875,-20.815307617188
0.1425,19.544067382812,3.5284423828125,-23.137573242188
0.143,16.461059570312,8.6534423828125,-25.179565429688
0.1435,11.536254882812,12.777465820312,-24.378784179688
0.144,8.0928955078125,16.340942382812,-24.578979492188
0.1445,3.4884033203125,19.063598632812,-22.737182617188
0.145,-1.9168701171875,22.106567382812,-20.494995117188
0.1455,-6.2410888671875,23.507934570312,-17.732299804688
0.146,-11.526245117188,24.989379882812,-13.968627929688
0.1465,-14.929565429688,24.348754882812,-9.9647216796875
0.147,-18.613159179688,23.788208007812,-5.7606201171875
0.1475,-21.015502929688,22.186645507812,-1.7567138671875
0.148,-23.457885742188,19.864379882812,3.0479736328125
0.1485,-24.739135742188,16.661254882812,7.6524658203125
0.149,-24.418823242188,12.216918945312,11.816528320312
0.1495,-24.578979492188,9.2139892578125,15.059692382812
0.15,-23.017456054688,4.5294189453125,18.142700195312
0.1505,-21.375854492188,0.2052001953125,20.865356445312
0.151,-18.773315429688,-4.3192138671875,22.747192382812
0.1515,-15.369995117188,-9.5643310546875,24.508911132812
0.152,-10.685424804688,-13.207885742188,23.547973632812
0.1525,-7.2020263671875,-16.691284179688,23.507934570312
0.153,-2.5975341796875,-19.093627929688,21.385864257812
0.1535,2.4073486328125,-21.976440429688,19.343872070312
0.154,6.7716064453125,-23.097534179688,16.260864257812
0.1545,11.816528320312,-24.138549804688,12.296997070312
0.155,15.019653320312,-23.738159179688,8.8536376953125
0.1555,18.623168945312,-23.017456054688,4.4893798828125
0.156,20.945434570312,-21.375854492188,0.5655517578125
0.1565,23.067504882812,-19.173706054688,-3.8787841796875
0.157,24.348754882812,-15.930541992188,-8.4832763671875
0.1575,23.748168945312,-11.486206054688,-12.327026367188
0.158,24.028442382812,-8.6033935546875,-15.530151367188
0.1585,22.186645507812,-3.8787841796875,-18.453002929688
0.159,20.625122070312,0.7257080078125,-21.455932617188
0.1595,17.742309570312,5.0098876953125,-22.817260742188
0.16,14.098754882812,10.295043945312,-24.498901367188
0.1605,9.7745361328125,13.618286132812,-23.578002929688
0.161,5.9708251953125,17.261840820312,-23.377807617188
0.1615,1.2462158203125,19.544067382812,-21.055541992188
0.162,-3.6785888671875,22.466918945312,-19.133666992188
0.1625,-8.2830810546875,23.507934570312,-15.650268554688
0.163,-13.007690429688,24.108520507812,-11.566284179688
0.1635,-16.090698242188,23.948364257812,-8.4031982421875
0.164,-19.814331054688,22.747192382812,-3.5584716796875
0.1645,-22.056518554688,20.825317382812,0.7657470703125
0.165,-23.818237304688,18.222778320312,5.0899658203125
0.1655,-24.859252929688,14.659301757812,9.8546142578125
0.166,-24.058471679688,10.014770507812,13.618286132812
0.1665,-24.218627929688,7.0118408203125,16.901489257812
0.167,-21.936401367188,1.8468017578125,19.784301757812
0.1675,-20.214721679688,-2.9979248046875,22.827270507812
0.168,-16.651245117188,-7.4022216796875,23.628051757812
0.1685,-12.887573242188,-12.527221679688,24.989379882812
0.169,-8.4031982421875,-15.770385742188,23.788208007812
0.1695,-3.9588623046875,-19.413940429688,23.027465820312
0.17,1.2061767578125,-21.495971679688,20.144653320312
0.1705,6.1309814453125,-24.218627929688,17.982543945312
0.171,10.855590820312,-24.619018554688,13.778442382812
0.1715,15.299926757812,-24.779174804688,9.5743408203125
0.172,18.382934570312,-24.458862304688,6.2510986328125
0.1725,21.946411132812,-22.657104492188,0.8458251953125
0.173,24.028442382812,-20.214721679688,-3.7987060546875
0.1735,25.309692382812,-17.091674804688,-8.2030029296875
0.174,25.910278320312,-13.368041992188,-12.607299804688
0.1745,24.629028320312,-8.4832763671875,-16.290893554688
0.175,24.348754882812,-5.1600341796875,-19.293823242188
0.1755,21.425903320312,0.6055908203125,-22.136596679688
0.176,19.383911132812,5.4102783203125,-24.939331054688
0.1765,14.819458007812,9.9346923828125,-24.899291992188
0.177,11.095825195312,14.579223632812,-25.780151367188
0.1775,6.6114501953125,17.622192382812,-24.418823242188
0.178,1.5665283203125,21.105590820312,-22.817260742188
