wavelength,x,y,z
0.0,11.526245117188,10.485229492188,-20.264770507812
0.0005,5.0799560546875,14.369018554688,-17.942504882812
0.001,0.6756591796875,16.771362304688,-17.381958007812
0.0015,-2.9678955078125,18.212768554688,-15.700317382812
0.002,-6.0909423828125,19.413940429688,-13.778442382812
0.0025,-9.1339111328125,19.253784179688,-10.695434570312
0.003,-12.617309570312,18.893432617188,-7.0118408203125
0.0035,-15.820434570312,18.052612304688,-3.0880126953125
0.004,-18.262817382812,16.010620117188,1.4364013671875
0.0045,-19.504028320312,14.008666992188,4.5594482421875
0.005,-20.144653320312,12.807495117188,8.9637451171875
0.0055,-20.424926757812,8.8035888671875,10.605346679688
0.006,-19.904418945312,4.4393310546875,14.449096679688
0.0065,-18.703247070312,0.6756591796875,17.091674804688
0.007,-16.981567382812,-2.9678955078125,19.013549804688
0.0075,-15.099731445312,-6.0509033203125,20.214721679688
0.008,-11.896606445312,-9.0137939453125,20.174682617188
0.0085,-8.5733642578125,-12.337036132812,20.214721679688
0.009,-3.8087158203125,-15.780395507812,19.133666992188
0.0095,1.1160888671875,-18.102661132812,16.691284179688
0.01,4.1990966796875,-19.143676757812,15.049682617188
0.0105,7.2821044921875,-19.864379882812,12.847534179688
0.011,10.405151367188,-19.744262695312,9.8045654296875
0.0115,14.128784179688,-18.943481445312,5.4002685546875
0.012,16.971557617188,-17.662231445312,1.3563232421875
0.0125,19.133666992188,-15.660278320312,-2.8477783203125
0.013,20.014526367188,-13.498168945312,-5.7706298828125
0.0135,20.334838867188,-10.535278320312,-9.0137939453125
0.014,20.414916992188,-7.4923095703125,-12.136840820312
0.0145,19.814331054688,-3.4083251953125,-15.580200195312
0.015,18.052612304688,0.7557373046875,-17.982543945312
0.0155,16.170776367188,3.9588623046875,-19.343872070312
0.016,15.369995117188,6.9617919921875,-20.424926757812
0.0165,10.885620117188,9.9246826171875,-20.224731445312
0.017,6.4412841796875,13.488159179688,-19.624145507812
0.0175,2.2772216796875,16.330932617188,-18.583129882812
0.018,-2.3272705078125,18.533081054688,-16.180786132812
0.0185,-5.2901611328125,20.494995117188,-14.298950195312
0.019,-8.3331298828125,19.534057617188,-11.696411132812
0.0195,-10.255004882812,19.453979492188,-8.5333251953125
0.02,-15.139770507812,18.493041992188,-4.1690673828125
0.0205,-17.702270507812,16.731323242188,0.1551513671875
0.021,-19.383911132812,14.809448242188,3.7186279296875
0.0215,-20.224731445312,12.647338867188,6.6815185546875
0.022,-20.344848632812,9.5242919921875,9.8446044921875
0.0225,-20.064575195312,5.8807373046875,13.247924804688
0.023,-19.504028320312,2.1971435546875,16.290893554688
0.0235,-17.582153320312,-1.9669189453125,18.573120117188
0.024,-15.540161132812,-4.8497314453125,19.574096679688
0.0245,-13.418090820312,-7.8526611328125,20.414916992188
0.025,-10.014770507812,-10.975708007812,20.334838867188
0.0255,-5.2100830078125,-14.579223632812,20.494995117188
0.026,-0.9259033203125,-17.061645507812,17.612182617188
0.0265,3.1580810546875,-18.823364257812,15.650268554688
0.027,6.0408935546875,-19.463989257812,13.608276367188
0.0275,9.1239013671875,-19.504028320312,10.725463867188
0.028,12.567260742188,-17.942504882812,7.1619873046875
0.0285,15.850463867188,-18.222778320312,2.9578857421875
0.029,18.212768554688,-16.180786132812,-1.4464111328125
0.0295,19.534057617188,-14.298950195312,-4.5294189453125
0.03,20.254760742188,-11.856567382812,-7.6524658203125
0.0305,20.294799804688,-8.6934814453125,-10.895629882812
0.031,19.814331054688,-4.8096923828125,-14.258911132812
0.0315,18.813354492188,-1.1260986328125,-16.981567382812
0.032,16.931518554688,2.9178466796875,-18.943481445312
0.0325,14.809448242188,5.7205810546875,-19.824340820312
0.033,12.166870117188,8.6834716796875,-20.264770507812
0.0335,8.4432373046875,12.166870117188,-20.224731445312
0.034,3.6785888671875,15.490112304688,-18.943481445312
0.0345,-0.8458251953125,17.652221679688,-16.821411132812
0.035,-4.2091064453125,19.053588867188,-15.139770507812
0.0355,-7.2120361328125,19.574096679688,-11.536254882812
0.036,-10.335083007812,19.494018554688,-9.7344970703125
0.0365,-13.978637695312,18.933471679688,-5.7305908203125
0.037,-16.941528320312,17.612182617188,-1.4864501953125
0.0375,-19.103637695312,15.490112304688,2.7977294921875
0.038,-20.024536132812,13.408081054688,5.6805419921875
0.0385,-20.545043945312,10.725463867188,8.9237060546875
0.039,-19.223754882812,7.2020263671875,12.327026367188
0.0395,-19.864379882812,3.3182373046875,15.570190429688
0.04,-18.342895507812,-0.6456298828125,19.213745117188
0.0405,-16.541137695312,-4.2891845703125,19.854370117188
0.041,-14.258911132812,-7.0919189453125,20.414916992188
0.0415,-11.215942382812,-10.094848632812,21.776245117188
0.042,-6.9718017578125,-13.658325195312,20.054565429688
0.0425,-2.2471923828125,-16.701293945312,18.573120117188
0.043,2.2371826171875,-18.543090820312,16.250854492188
0.0435,5.2401123046875,-19.544067382812,14.449096679688
0.044,8.3231201171875,-19.904418945312,11.886596679688
0.0445,11.686401367188,-19.544067382812,8.3231201171875
0.045,15.009643554688,-18.783325195312,4.3992919921875
0.0455,17.732299804688,-17.101684570312,0.0750732421875
0.046,19.694213867188,-15.019653320312,-3.9288330078125
0.0465,20.174682617188,-12.697387695312,-6.7315673828125
0.047,20.535034179688,-9.8946533203125,-9.8946533203125
0.0475,20.294799804688,-5.9708251953125,-13.458129882812
0.048,19.494018554688,-2.2471923828125,-16.501098632812
0.0485,17.492065429688,1.7567138671875,-18.463012695312
0.049,15.690307617188,4.9598388671875,-19.944458007812
0.0495,13.167846679688,7.8826904296875,-20.464965820312
0.05,9.7244873046875,11.045776367188,-20.304809570312
0.0505,5.4002685546875,14.409057617188,-19.544067382812
0.051,0.7557373046875,17.171752929688,-17.822387695312
0.0515,-3.4483642578125,18.893432617188,-15.660278320312
0.052,-6.1309814453125,19.373901367188,-13.658325195312
0.0525,-9.2540283203125,19.734252929688,-11.055786132812
0.053,-12.937622070312,19.173706054688,-6.9317626953125
0.0535,-15.940551757812,18.132690429688,-3.0479736328125
0.054,-18.262817382812,16.290893554688,1.1961669921875
0.0545,-19.944458007812,14.248901367188,4.7596435546875
0.055,-20.304809570312,11.686401367188,8.9637451171875
0.0555,-20.545043945312,8.6834716796875,10.885620117188
0.056,-20.144653320312,4.7596435546875,14.369018554688
0.0565,-19.103637695312,0.8358154296875,17.291870117188
0.057,-17.061645507812,-3.0880126953125,19.093627929688
0.0575,-15.139770507812,-5.9307861328125,20.094604492188
0.058,-12.577270507812,-8.8936767578125,20.655151367188
0.0585,-8.3731689453125,-12.497192382812,20.254760742188
0.059,-4.1690673828125,-15.420043945312,19.173706054688
0.0595,0.4754638671875,-17.782348632812,17.131713867188
0.06,4.2791748046875,-19.383911132812,15.209838867188
0.0605,7.0018310546875,-19.584106445312,12.847534179688
0.061,10.044799804688,-19.864379882812,10.204956054688
0.0615,13.928588867188,-19.183715820312,5.8406982421875
0.062,16.811401367188,-17.742309570312,1.5965576171875
0.0625,18.853393554688,-15.780395507812,-2.3673095703125
0.063,20.134643554688,-13.818481445312,-5.5303955078125
0.0635,20.414916992188,-11.055786132812,-8.6134033203125
0.064,20.414916992188,-7.4522705078125,-12.216918945312
0.0645,19.854370117188,-3.9288330078125,-15.179809570312
0.065,18.453002929688,0.1951904296875,-17.862426757812
0.0655,16.411010742188,3.8787841796875,-19.584106445312
0.066,15.369995117188,6.6414794921875,-20.064575195312
0.0665,11.606323242188,9.6043701171875,-20.585083007812
0.067,6.6815185546875,13.568237304688,-19.904418945312
0.0675,2.5174560546875,16.290893554688,-18.583129882812
0.068,-1.8067626953125,18.172729492188,-16.461059570312
0.0685,-5.2100830078125,19.614135742188,-14.699340820312
0.069,-8.1729736328125,19.574096679688,-11.976684570312
0.0695,-11.416137695312,19.534057617188,-8.7335205078125
0.07,-15.019653320312,18.933471679688,-4.7696533203125
0.0705,-17.822387695312,17.131713867188,-0.2052001953125
0.071,-19.584106445312,15.089721679688,3.5985107421875
0.0715,-20.464965820312,12.887573242188,6.6414794921875
0.072,-20.865356445312,10.204956054688,9.7244873046875
0.0725,-20.545043945312,5.8406982421875,13.728393554688
0.073,-19.824340820312,2.3172607421875,16.531127929688
0.0735,-18.102661132812,-1.6866455078125,18.733276367188
0.074,-16.180786132812,-5.2100830078125,20.454956054688
0.0745,-13.418090820312,-8.0128173828125,20.615112304688
0.075,-10.535278320312,-11.095825195312,20.935424804688
0.0755,-5.4903564453125,-15.019653320312,19.974487304688
0.076,-0.7257080078125,-17.662231445312,18.092651367188
0.0765,3.1580810546875,-19.183715820312,16.050659179688
0.077,7.6824951171875,-20.264770507812,15.369995117188
0.0775,9.5242919921875,-20.264770507812,11.205932617188
0.078,13.287963867188,-19.704223632812,6.9617919921875
0.0785,16.370971679688,-18.903442382812,3.1580810546875
0.079,19.013549804688,-16.861450195312,-1.4464111328125
0.0795,20.535034179688,-14.779418945312,-5.0499267578125
0.08,20.935424804688,-12.056762695312,-8.0928955078125
0.0805,21.295776367188,-9.2940673828125,-11.255981445312
0.081,20.735229492188,-4.7296142578125,-15.259887695312
0.0815,19.494018554688,-0.8057861328125,-17.982543945312
0.082,17.492065429688,3.0379638671875,-19.704223632812
0.0825,15.610229492188,6.3612060546875,-21.225708007812
0.083,12.286987304688,9.4442138671875,-21.105590820312
0.0835,8.4432373046875,12.927612304688,-21.025512695312
0.084,3.9989013671875,16.290893554688,-20.024536132812
0.0845,-1.2061767578125,18.773315429688,-17.662231445312
0.085,-4.6895751953125,20.014526367188,-15.660278320312
0.0855,-7.8126220703125,20.655151367188,-13.217895507812
0.086,-11.015747070312,20.775268554688,-10.415161132812
0.0865,-15.139770507812,19.694213867188,-5.4102783203125
0.087,-17.982543945312,18.372924804688,-1.2462158203125
0.0875,-20.144653320312,16.250854492188,2.9979248046875
0.088,-21.465942382812,14.048706054688,7.6824951171875
0.0885,-21.505981445312,10.805541992188,9.6444091796875
0.089,-21.586059570312,7.5223388671875,13.007690429688
0.0895,-20.985473632812,3.3182373046875,16.571166992188
0.09,-17.942504882812,-1.1260986328125,19.253784179688
0.0905,-16.981567382812,-4.6495361328125,20.615112304688
0.091,-14.899536132812,-7.7725830078125,21.736206054688
0.0915,-11.656372070312,-10.855590820312,21.736206054688
0.092,-6.6114501953125,-14.779418945312,20.815307617188
0.0925,-2.3272705078125,-17.582153320312,19.534057617188
0.093,3.8387451171875,-19.744262695312,17.131713867188
0.0935,6.0408935546875,-20.785278320312,14.969604492188
0.094,9.2039794921875,-20.785278320312,11.966674804688
0.0945,12.367065429688,-20.825317382812,9.0037841796875
0.095,16.290893554688,-19.744262695312,4.0789794921875
0.0955,19.053588867188,-17.702270507812,-0.6456298828125
0.096,20.655151367188,-15.620239257812,-4.2891845703125
0.0965,21.616088867188,-13.338012695312,-7.5723876953125
0.097,21.495971679688,-9.9747314453125,-10.775512695312
0.0975,21.175659179688,-6.0108642578125,-14.419067382812
0.098,20.454956054688,-2.2471923828125,-17.341918945312
0.0985,18.453002929688,2.2371826171875,-19.824340820312
0.099,16.130737304688,5.5604248046875,-20.865356445312
0.0995,13.448120117188,8.6033935546875,-21.385864257812
0.1,10.485229492188,11.646362304688,-21.586059570312
0.1005,4.9197998046875,15.650268554688,-20.264770507812
0.101,0.5155029296875,18.132690429688,-18.543090820312
0.1015,-3.6885986328125,19.854370117188,-16.421020507812
0.102,-6.9317626953125,20.775268554688,-14.298950195312
0.1025,-8.9737548828125,20.535034179688,-10.895629882812
0.103,-13.658325195312,20.254760742188,-7.3321533203125
0.1035,-17.061645507812,20.494995117188,-2.9678955078125
0.104,-19.664184570312,16.891479492188,1.9168701171875
0.1045,-20.865356445312,14.729370117188,5.1600341796875
0.105,-21.626098632812,12.166870117188,8.4432373046875
0.1055,-21.666137695312,9.0037841796875,11.566284179688
0.106,-21.025512695312,4.4793701171875,15.490112304688
0.1065,-19.864379882812,0.7557373046875,18.172729492188
0.107,-17.982543945312,-3.3682861328125,20.294799804688
0.1075,-15.740356445312,-6.5714111328125,21.375854492188
0.108,-12.537231445312,-9.6944580078125,21.415893554688
0.1085,-9.2540283203125,-12.937622070312,21.495971679688
0.109,-3.8887939453125,-15.380004882812,20.134643554688
0.1095,1.0360107421875,-18.943481445312,17.732299804688
0.11,4.4793701171875,-20.224731445312,15.810424804688
0.1105,7.7225341796875,-21.025512695312,13.568237304688
0.111,11.005737304688,-20.705200195312,10.164916992188
0.1115,14.769409179688,-19.944458007812,5.7205810546875
0.112,17.852416992188,-18.703247070312,1.5965576171875
0.1125,20.174682617188,-16.421020507812,-3.0479736328125
0.113,21.055541992188,-14.338989257812,-6.1309814453125
0.1135,21.455932617188,-11.255981445312,-9.4942626953125
0.114,21.455932617188,-7.8927001953125,-12.737426757812
0.1145,20.735229492188,-3.5684814453125,-16.380981445312
0.115,19.013549804688,0.6756591796875,-18.783325195312
0.1155,17.011596679688,4.2791748046875,-19.223754882812
0.116,14.809448242188,7.4022216796875,-21.505981445312
0.1165,11.326049804688,10.525268554688,-21.305786132812
0.117,7.1619873046875,14.128784179688,-20.905395507812
0.1175,2.4774169921875,17.331909179688,-19.624145507812
0.118,-1.2862548828125,19.494018554688,-17.061645507812
0.1185,-5.6505126953125,20.334838867188,-15.099731445312
0.119,-7.6925048828125,20.855346679688,-12.497192382812
0.1195,-12.337036132812,20.615112304688,-7.6925048828125
0.12,-16.060668945312,19.574096679688,-4.3292236328125
0.1205,-18.863403320312,17.892456054688,0.1151123046875
0.121,-20.905395507812,15.650268554688,4.2791748046875
0.1215,-21.586059570312,13.247924804688,7.3221435546875
0.122,-20.505004882812,9.9246826171875,10.805541992188
0.1225,-21.546020507812,6.2010498046875,14.328979492188
0.123,-20.785278320312,2.1170654296875,17.612182617188
0.1235,-18.623168945312,-2.3673095703125,19.934448242188
0.124,-16.541137695312,-5.6505126953125,21.175659179688
0.1245,-14.138793945312,-8.7335205078125,22.056518554688
0.125,-10.295043945312,-12.096801757812,21.736206054688
0.1255,-5.4903564453125,-15.700317382812,20.655151367188
0.126,-0.8057861328125,-18.463012695312,19.013549804688
0.1265,3.9188232421875,-20.464965820312,16.571166992188
0.127,6.8817138671875,-20.945434570312,14.288940429688
0.1275,10.285034179688,-21.145629882812,11.286010742188
0.128,13.928588867188,-20.665161132812,7.3621826171875
0.1285,17.331909179688,-19.504028320312,2.8377685546875
0.129,19.854370117188,-17.341918945312,-1.7667236328125
0.1295,21.375854492188,-15.179809570312,-5.4903564453125
0.13,21.896362304688,-12.457153320312,-8.6934814453125
0.1305,21.896362304688,-8.9337158203125,-12.136840820312
0.131,21.295776367188,-4.8897705078125,-15.580200195312
0.1315,20.214721679688,-0.8057861328125,-18.583129882812
0.132,19.213745117188,3.5584716796875,-20.665161132812
0.1325,15.610229492188,6.5614013671875,-21.425903320312
0.133,12.847534179688,9.8045654296875,-22.026489257812
0.1335,8.6834716796875,13.408081054688,-21.666137695312
0.134,3.7987060546875,16.731323242188,-20.304809570312
0.1345,-1.0059814453125,19.053588867188,-18.142700195312
0.135,-5.0098876953125,20.775268554688,-16.060668945312
0.1355,-8.0128173828125,21.055541992188,-13.538208007812
0.136,-11.416137695312,21.015502929688,-10.335083007812
0.1365,-15.139770507812,20.334838867188,-6.0108642578125
0.137,-18.262817382812,18.773315429688,-1.4464111328125
0.1375,-19.223754882812,16.451049804688,3.0780029296875
0.138,-21.626098632812,14.208862304688,6.3612060546875
0.1385,-22.066528320312,11.326049804688,9.7244873046875
0.139,-21.946411132812,7.4822998046875,13.408081054688
0.1395,-21.145629882812,3.4383544921875,17.932495117188
0.14,-19.584106445312,-0.7257080078125,19.253784179688
0.1405,-17.421997070312,-4.8096923828125,21.255737304688
0.141,-14.899536132812,-7.7325439453125,21.696166992188
0.1415,-11.936645507812,-10.855590820312,22.016479492188
0.142,-7.3721923828125,-14.699340820312,21.455932617188
0.1425,-2.3673095703125,-17.742309570312,19.774291992188
0.143,2.2371826171875,-19.664184570312,17.291870117188
0.1435,5.8006591796875,-20.945434570312,16.651245117188
0.144,10.244995117188,-21.145629882812,12.567260742188
0.1445,12.407104492188,-20.825317382812,10.244995117188
0.145,15.930541992188,-20.104614257812,4.7996826171875
0.1455,18.893432617188,-18.262817382812,0.0750732421875
0.146,20.855346679688,-15.900512695312,-4.2091064453125
0.1465,21.576049804688,-13.458129882812,-7.2120361328125
0.147,21.896362304688,-10.575317382812,-10.535278320312
0.1475,21.536010742188,-6.3311767578125,-14.379028320312
0.148,20.655151367188,-2.4473876953125,-17.381958007812
0.1485,18.733276367188,1.7166748046875,-19.544067382812
0.149,16.691284179688,5.4002685546875,-21.305786132812
0.1495,13.888549804688,8.3631591796875,-21.546020507812
0.15,10.525268554688,11.566284179688,-21.586059570312
0.1505,5.8807373046875,15.289916992188,-20.825317382812
0.151,0.9158935546875,18.172729492188,-18.983520507812
0.1515,-3.4483642578125,19.854370117188,-16.621215820312
0.152,-6.5313720703125,20.695190429688,-14.579223632812
0.1525,-9.8145751953125,20.935424804688,-11.736450195312
0.153,-13.538208007812,20.214721679688,-7.4522705078125
0.1535,-15.380004882812,19.293823242188,-3.5684814453125
0.154,-19.303833007812,17.291870117188,1.1160888671875
0.1545,-21.105590820312,15.009643554688,4.9598388671875
0.155,-21.425903320312,12.407104492188,8.0028076171875
0.1555,-20.505004882812,9.3641357421875,11.366088867188
0.156,-21.225708007812,5.0399169921875,15.209838867188
0.1565,-20.144653320312,0.9959716796875,18.092651367188
0.157,-17.982543945312,-2.9678955078125,19.934448242188
0.1575,-16.060668945312,-6.2110595703125,21.335815429688
0.158,-13.177856445312,-9.2940673828125,21.656127929688
0.1585,-9.1339111328125,-11.536254882812,21.255737304688
0.159,-4.7696533203125,-16.020629882812,20.294799804688
0.1595,0.3553466796875,-18.583129882812,18.092651367188
0.16,4.3192138671875,-20.184692382812,15.930541992188
0.1605,7.2020263671875,-20.545043945312,13.568237304688
0.161,10.365112304688,-20.825317382812,10.885620117188
0.1615,14.369018554688,-20.024536132812,6.0809326171875
0.162,17.291870117188,-18.583129882812,1.9569091796875
0.1625,19.453979492188,-16.581176757812,-2.2071533203125
0.163,20.975463867188,-14.459106445312,-5.7706298828125
0.1635,21.135620117188,-10.255004882812,-8.8135986328125
0.164,21.255737304688,-8.0928955078125,-12.337036132812
0.1645,20.695190429688,-4.2491455078125,-15.620239257812
0.165,20.494995117188,0.0350341796875,-18.422973632812
0.1655,17.011596679688,5.1199951171875,-20.024536132812
0.166,14.849487304688,6.6815185546875,-20.865356445312
0.1665,12.166870117188,9.7244873046875,-21.305786132812
0.167,7.2420654296875,13.728393554688,-20.585083007812
0.1675,3.1580810546875,16.451049804688,-19.383911132812
0.168,-1.5665283203125,18.613159179688,-17.181762695312
0.1685,-3.8487548828125,20.014526367188,-15.259887695312
0.169,-8.0928955078125,20.014526367188,-12.497192382812
0.1695,-11.215942382812,20.174682617188,-9.6944580078125
0.17,-15.099731445312,19.413940429688,-3.8487548828125
0.1705,-17.902465820312,17.612182617188,-0.6456298828125
0.171,-19.704223632812,15.570190429688,3.1981201171875
0.1715,-20.825317382812,13.408081054688,6.4412841796875
0.172,-21.105590820312,10.525268554688,9.5643310546875
0.1725,-20.905395507812,6.4412841796875,13.528198242188
0.173,-20.264770507812,2.9578857421875,16.290893554688
0.1735,-18.583129882812,-1.2462158203125,18.773315429688
0.174,-16.621215820312,-4.8497314453125,20.414916992188
0.1745,-13.978637695312,-7.5723876953125,20.695190429688
0.175,-11.376098632812,-10.535278320312,21.135620117188
0.1755,-6.1309814453125,-14.579223632812,20.174682617188
0.176,-1.6065673828125,-17.141723632812,18.412963867188
0.1765,2.4373779296875,-18.903442382812,16.370971679688
0.177,5.7606201171875,-20.064575195312,14.489135742188
0.1775,8.8436279296875,-19.984497070312,11.446166992188
0.178,12.206909179688,-19.624145507812,7.9227294921875
