wavelength,x,y,z
0.0,-1.9969482421875,8.2130126953125,-10.004760742188
0.0005,-0.0350341796875,9.9346923828125,-9.6444091796875
0.001,1.9268798828125,10.335083007812,-8.0828857421875
0.0015,3.6885986328125,10.735473632812,-6.6815185546875
0.002,6.3311767578125,11.376098632812,-4.6395263671875
0.0025,7.8526611328125,11.175903320312,-2.7977294921875
0.003,8.8936767578125,10.575317382812,-1.1561279296875
0.0035,10.174926757812,9.9346923828125,0.7657470703125
0.004,9.9346923828125,7.8526611328125,2.6075439453125
0.0045,10.375122070312,6.4112548828125,4.4093017578125
0.005,10.695434570312,4.2091064453125,6.8516845703125
0.0055,9.8546142578125,2.4874267578125,7.6925048828125
0.006,9.6143798828125,0.6856689453125,9.1339111328125
0.0065,8.2130126953125,-1.4364013671875,9.7745361328125
0.007,6.4512939453125,-3.1981201171875,9.7344970703125
0.0075,4.8497314453125,-5.5203857421875,10.295043945312
0.008,2.6075439453125,-7.7225341796875,10.134887695312
0.0085,0.9259033203125,-8.5233154296875,9.2540283203125
0.009,-0.9559326171875,-10.204956054688,8.8936767578125
0.0095,-2.9178466796875,-10.485229492188,7.0919189453125
0.01,-4.8797607421875,-10.885620117188,5.4903564453125
0.0105,-7.4422607421875,-11.486206054688,3.5284423828125
0.011,-8.6434326171875,-10.845581054688,1.6466064453125
0.0115,-9.5242919921875,-10.285034179688,0.1651611328125
0.012,-10.565307617188,-9.4442138671875,-1.7166748046875
0.0125,-10.405151367188,-7.3221435546875,-3.5584716796875
0.013,-10.765502929688,-5.7205810546875,-5.4803466796875
0.0135,-11.005737304688,-3.5985107421875,-7.7625732421875
0.014,-9.9246826171875,-1.8768310546875,-8.3231201171875
0.0145,-9.6444091796875,-0.0750732421875,-9.8045654296875
0.015,-8.0028076171875,2.1270751953125,-10.204956054688
0.0155,-6.2010498046875,4.0089111328125,-10.244995117188
0.016,-4.4393310546875,6.4112548828125,-10.765502929688
0.0165,-2.3973388671875,8.2930908203125,-10.405151367188
0.017,-0.6356201171875,8.9737548828125,-9.3641357421875
0.0175,1.0059814453125,10.375122070312,-9.0438232421875
0.018,3.2481689453125,10.695434570312,-7.0418701171875
0.0185,5.2501220703125,11.015747070312,-5.2401123046875
0.019,7.8526611328125,11.656372070312,-3.2781982421875
0.0195,8.7335205078125,10.575317382812,-1.3162841796875
0.02,9.6143798828125,10.054809570312,0.0450439453125
0.0205,10.415161132812,8.9737548828125,1.9669189453125
0.021,10.174926757812,6.6915283203125,3.9688720703125
0.0215,10.455200195312,4.9298095703125,5.9708251953125
0.022,10.535278320312,2.8477783203125,8.0128173828125
0.0225,9.2540283203125,1.1260986328125,8.3331298828125
0.023,8.9337158203125,-0.5555419921875,9.6944580078125
0.0235,7.1719970703125,-2.7977294921875,10.014770507812
0.024,5.1700439453125,-4.7996826171875,9.9346923828125
0.0245,3.3282470703125,-7.2020263671875,10.415161132812
0.025,1.0860595703125,-8.7635498046875,9.5743408203125
0.0255,-0.3553466796875,-9.3240966796875,8.6134033203125
0.026,-1.9969482421875,-10.565307617188,8.1329345703125
0.0265,-4.3592529296875,-10.765502929688,5.9708251953125
0.027,-6.3612060546875,-10.925659179688,4.0889892578125
0.0275,-8.8035888671875,-11.526245117188,2.1270751953125
0.028,-9.2840576171875,-10.124877929688,0.2452392578125
0.0285,-10.124877929688,-9.7244873046875,-0.9559326171875
0.029,-10.685424804688,-8.3231201171875,-2.8778076171875
0.0295,-10.445190429688,-6.0809326171875,-4.8397216796875
0.03,-10.765502929688,-4.3192138671875,-6.8817138671875
0.0305,-10.565307617188,-2.2772216796875,-8.6834716796875
0.031,-9.2440185546875,-0.5955810546875,-8.9237060546875
0.0315,-8.9237060546875,1.0059814453125,-10.084838867188
0.032,-6.8817138671875,3.3682861328125,-10.244995117188
0.0325,-4.9598388671875,5.3702392578125,-10.244995117188
0.033,-3.1981201171875,7.7325439453125,-10.845581054688
0.0335,-0.9158935546875,8.9337158203125,-9.6043701171875
0.034,0.2852783203125,9.4942626953125,-8.9637451171875
0.0345,2.0469970703125,10.575317382812,-8.1629638671875
0.035,4.4893798828125,10.855590820312,-5.9207763671875
0.0355,6.5313720703125,11.055786132812,-3.9989013671875
0.036,8.8135986328125,11.376098632812,-1.9969482421875
0.0365,9.0938720703125,9.8546142578125,-0.1951904296875
0.037,9.9346923828125,9.5343017578125,0.9259033203125
0.0375,10.295043945312,7.7325439453125,3.0880126953125
0.038,10.134887695312,5.4503173828125,5.0899658203125
0.0385,10.495239257812,3.6885986328125,7.1719970703125
0.039,9.9346923828125,1.5665283203125,8.6534423828125
0.0395,8.6534423828125,0.0050048828125,8.8936767578125
0.04,8.2930908203125,-1.4764404296875,9.9346923828125
0.0405,6.0108642578125,-4.0389404296875,10.054809570312
0.041,3.9688720703125,-6.1209716796875,9.9747314453125
0.0415,1.9669189453125,-8.4832763671875,10.214965820312
0.042,-0.1551513671875,-9.4442138671875,8.8936767578125
0.0425,-1.3162841796875,-9.9246826171875,8.2530517578125
0.043,-3.2381591796875,-10.845581054688,7.0919189453125
0.0435,-5.7606201171875,-11.045776367188,4.8096923828125
0.044,-7.7625732421875,-11.245971679688,2.9278564453125
0.0445,-9.7645263671875,-11.165893554688,0.8057861328125
0.045,-9.9246826171875,-9.6444091796875,-0.7957763671875
0.0455,-10.525268554688,-9.1239013671875,-1.9569091796875
0.046,-10.925659179688,-7.0819091796875,-4.3592529296875
0.0465,-10.685424804688,-4.7996826171875,-6.3612060546875
0.047,-10.885620117188,-2.8778076171875,-8.3231201171875
0.0475,-10.124877929688,-0.6756591796875,-9.6444091796875
0.048,-8.7235107421875,0.7657470703125,-9.6444091796875
0.0485,-8.0428466796875,2.3673095703125,-10.525268554688
0.049,-5.6405029296875,5.0899658203125,-10.725463867188
0.0495,-3.5985107421875,7.0518798828125,-10.565307617188
0.05,-1.5965576171875,9.2139892578125,-10.565307617188
0.0505,0.4854736328125,9.9747314453125,-9.1639404296875
0.051,1.6466064453125,10.375122070312,-8.3631591796875
0.0515,3.9688720703125,11.255981445312,-6.8416748046875
0.052,6.3712158203125,11.376098632812,-4.5194091796875
0.0525,8.0528564453125,11.336059570312,-2.7176513671875
0.053,9.9346923828125,11.015747070312,-0.5555419921875
0.0535,9.9346923828125,9.3341064453125,1.1260986328125
0.054,10.375122070312,8.5733642578125,2.3673095703125
0.0545,10.775512695312,6.2911376953125,4.9698486328125
0.055,10.415161132812,4.1290283203125,6.6915283203125
0.0555,10.375122070312,2.1671142578125,8.5333251953125
0.056,9.4542236328125,0.0450439453125,9.6143798828125
0.0565,8.1329345703125,-1.3162841796875,9.6143798828125
0.057,7.0919189453125,-3.1981201171875,10.295043945312
0.0575,4.6094970703125,-5.9207763671875,10.455200195312
0.058,2.5675048828125,-7.7225341796875,10.094848632812
0.0585,0.4854736328125,-9.6444091796875,9.8546142578125
0.059,-1.4364013671875,-10.244995117188,8.4532470703125
0.0595,-2.7176513671875,-10.565307617188,7.4122314453125
0.06,-5.2801513671875,-11.406127929688,5.6505126953125
0.0605,-7.4022216796875,-11.406127929688,3.4884033203125
0.061,-8.8436279296875,-11.165893554688,1.7667236328125
0.0615,-10.525268554688,-10.765502929688,-0.2752685546875
0.062,-10.445190429688,-9.0037841796875,-1.9569091796875
0.0625,-10.885620117188,-8.0028076171875,-3.3983154296875
0.063,-11.245971679688,-5.6405029296875,-6.1209716796875
0.0635,-10.845581054688,-3.6385498046875,-7.5623779296875
0.064,-10.605346679688,-1.6365966796875,-9.2840576171875
0.0645,-9.6043701171875,0.4854736328125,-10.244995117188
0.065,-8.0028076171875,2.0069580078125,-10.164916992188
0.0655,-6.7215576171875,4.1290283203125,-10.885620117188
0.066,-4.2791748046875,6.8516845703125,-11.045776367188
0.0665,-2.5174560546875,8.2530517578125,-10.525268554688
0.067,-0.3153076171875,10.094848632812,-10.164916992188
0.0675,1.6466064453125,10.695434570312,-8.6834716796875
0.068,3.2882080078125,11.015747070312,-7.3221435546875
0.0685,5.9708251953125,11.776489257812,-5.2801513671875
0.069,7.9327392578125,11.696411132812,-3.1981201171875
0.0695,8.9737548828125,11.055786132812,-1.5164794921875
0.07,10.535278320312,10.615356445312,0.4854736328125
0.0705,10.455200195312,8.5733642578125,2.4073486328125
0.071,10.815551757812,7.1719970703125,4.1290283203125
0.0715,11.135864257812,4.7696533203125,6.8516845703125
0.072,10.455200195312,2.8477783203125,7.9327392578125
0.0725,10.094848632812,0.9659423828125,9.4141845703125
0.073,8.9337158203125,-1.2762451171875,10.335083007812
0.0735,7.0919189453125,-3.0780029296875,10.214965820312
0.074,5.4903564453125,-5.3201904296875,10.735473632812
0.0745,3.0479736328125,-7.8826904296875,10.775512695312
0.075,1.2061767578125,-8.8436279296875,9.7745361328125
0.0755,-0.7156982421875,-10.565307617188,9.4542236328125
0.076,-2.8778076171875,-11.045776367188,7.7725830078125
0.0765,-4.7596435546875,-11.326049804688,6.0909423828125
0.077,-7.3621826171875,-11.886596679688,3.9688720703125
0.0775,-9.0438232421875,-11.606323242188,1.9669189453125
0.078,-9.8045654296875,-10.765502929688,0.3253173828125
0.0785,-11.205932617188,-10.204956054688,-1.5565185546875
0.079,-10.925659179688,-7.9227294921875,-3.5584716796875
0.0795,-11.205932617188,-6.3612060546875,-5.3201904296875
0.08,-11.526245117188,-4.0389404296875,-7.8826904296875
0.0805,-10.565307617188,-2.1571044921875,-8.6834716796875
0.081,-10.124877929688,-0.3553466796875,-10.044799804688
0.0815,-8.7235107421875,1.8868408203125,-10.765502929688
0.082,-6.7215576171875,3.8487548828125,-10.605346679688
0.0825,-5.0399169921875,6.1309814453125,-11.085815429688
0.083,-2.8377685546875,8.4532470703125,-11.085815429688
0.0835,-0.9959716796875,9.1739501953125,-9.8045654296875
0.084,0.7657470703125,10.735473632812,-9.6444091796875
0.0845,3.0479736328125,11.135864257812,-7.6824951171875
0.085,4.9698486328125,11.376098632812,-5.9207763671875
0.0855,7.6925048828125,12.016723632812,-3.7987060546875
0.086,8.9737548828125,11.376098632812,-1.7967529296875
0.0865,9.6544189453125,10.455200195312,-0.1951904296875
0.087,10.855590820312,9.8145751953125,1.6065673828125
0.0875,10.575317382812,7.3321533203125,3.7686767578125
0.088,10.815551757812,5.6905517578125,5.6104736328125
0.0885,11.175903320312,3.4884033203125,8.0528564453125
0.089,9.8946533203125,1.5665283203125,8.5733642578125
0.0895,9.4942626953125,-0.1951904296875,9.8946533203125
0.09,8.0528564453125,-2.4373779296875,10.535278320312
0.0905,5.8106689453125,-4.5594482421875,10.375122070312
0.091,4.1290283203125,-6.8817138671875,10.855590820312
0.0915,1.7266845703125,-9.0037841796875,10.495239257812
0.092,-0.0750732421875,-9.5643310546875,9.1339111328125
0.0925,-1.6766357421875,-11.005737304688,8.9737548828125
0.093,-4.1590576171875,-11.366088867188,6.7315673828125
0.0935,-6.2010498046875,-11.526245117188,4.8096923828125
0.094,-8.9637451171875,-12.206909179688,2.6876220703125
0.0945,-10.004760742188,-11.165893554688,0.5655517578125
0.095,-10.565307617188,-10.244995117188,-0.9158935546875
0.0955,-11.526245117188,-9.4442138671875,-2.6375732421875
0.096,-11.286010742188,-6.7615966796875,-4.9998779296875
0.0965,-11.406127929688,-4.8797607421875,-6.9617919921875
0.097,-11.646362304688,-2.6776123046875,-9.3641357421875
0.0975,-10.004760742188,-0.6356201171875,-9.6844482421875
0.098,-9.6043701171875,0.9659423828125,-10.845581054688
0.0985,-7.8426513671875,3.3682861328125,-11.245971679688
0.099,-5.4403076171875,5.6905517578125,-11.085815429688
0.0995,-3.5184326171875,8.1729736328125,-11.486206054688
0.1,-1.1160888671875,10.014770507812,-10.845581054688
0.1005,0.6456298828125,10.375122070312,-9.3240966796875
0.101,2.0469970703125,11.536254882812,-9.0438232421875
0.1015,4.9298095703125,11.976684570312,-6.5614013671875
0.102,6.9317626953125,11.896606445312,-4.4393310546875
0.1025,9.6143798828125,12.417114257812,-2.1971435546875
0.103,10.415161132812,10.935668945312,0.0050048828125
0.1035,10.735473632812,9.9747314453125,1.3262939453125
0.104,11.456176757812,8.8536376953125,3.1680908203125
0.1045,11.215942382812,5.9708251953125,5.7305908203125
0.105,11.175903320312,3.9688720703125,7.5323486328125
0.1055,11.175903320312,1.6466064453125,9.7745361328125
0.106,9.2940673828125,-0.3153076171875,9.8946533203125
0.1065,8.9337158203125,-1.6766357421875,10.815551757812
0.107,6.8917236328125,-4.2391357421875,11.135864257812
0.1075,4.4093017578125,-6.5213623046875,10.855590820312
0.108,2.2872314453125,-8.9237060546875,11.015747070312
0.1085,-0.1551513671875,-10.525268554688,10.014770507812
0.109,-1.6766357421875,-10.685424804688,8.6134033203125
0.1095,-3.1580810546875,-11.606323242188,8.0528564453125
0.11,-6.0809326171875,-12.046752929688,5.4503173828125
0.1105,-8.0028076171875,-11.886596679688,3.3282470703125
0.111,-10.445190429688,-12.126831054688,1.0860595703125
0.1115,-10.925659179688,-10.605346679688,-0.9158935546875
0.112,-11.205932617188,-9.6444091796875,-2.1170654296875
0.1125,-11.766479492188,-8.2030029296875,-4.1190185546875
0.113,-11.526245117188,-5.4403076171875,-6.5614013671875
0.1135,-11.406127929688,-3.4783935546875,-8.3631591796875
0.114,-11.205932617188,-1.1561279296875,-10.405151367188
0.1145,-9.3641357421875,0.8057861328125,-10.365112304688
0.115,-8.8436279296875,2.1270751953125,-11.045776367188
0.1155,-6.6014404296875,4.8497314453125,-11.446166992188
0.116,-4.1990966796875,7.0919189453125,-11.165893554688
0.1165,-2.1571044921875,9.2540283203125,-11.245971679688
0.117,0.2052001953125,10.655395507812,-10.124877929688
0.1175,1.6065673828125,10.855590820312,-8.8436279296875
0.118,3.3282470703125,11.696411132812,-7.8426513671875
0.1185,6.2911376953125,12.096801757812,-5.2801513671875
0.119,7.9727783203125,11.856567382812,-3.3182373046875
0.1195,10.214965820312,11.856567382812,-0.9959716796875
0.12,10.615356445312,10.214965820312,0.9259033203125
0.1205,10.815551757812,9.2139892578125,2.1671142578125
0.121,11.376098632812,7.3721923828125,4.4893798828125
0.1215,11.095825195312,4.7696533203125,6.7315673828125
0.122,10.815551757812,2.7677001953125,8.3731689453125
0.1225,10.455200195312,0.5655517578125,10.174926757812
0.123,8.6534423828125,-1.2362060546875,10.054809570312
0.1235,7.9727783203125,-2.6375732421875,10.695434570312
0.124,5.5303955078125,-5.6004638671875,11.055786132812
0.1245,3.2081298828125,-7.5623779296875,10.655395507812
0.125,1.0460205078125,-9.6043701171875,10.375122070312
0.1255,-1.0760498046875,-10.765502929688,9.2540283203125
0.126,-2.5574951171875,-10.885620117188,7.8927001953125
0.1265,-4.5994873046875,-11.686401367188,6.5714111328125
0.127,-7.3621826171875,-11.966674804688,4.0889892578125
0.1275,-8.6834716796875,-11.566284179688,2.2872314453125
0.128,-10.645385742188,-11.446166992188,0.1651611328125
0.1285,-10.925659179688,-9.7645263671875,-1.7967529296875
0.129,-11.045776367188,-8.6033935546875,-3.0780029296875
0.1295,-11.526245117188,-6.5614013671875,-5.5203857421875
0.13,-11.366088867188,-4.2391357421875,-7.5223388671875
0.1305,-10.845581054688,-2.2772216796875,-8.9637451171875
0.131,-10.365112304688,-0.0750732421875,-10.525268554688
0.1315,-8.4432373046875,1.7667236328125,-10.325073242188
0.132,-7.5223388671875,3.4083251953125,-10.925659179688
0.1325,-5.0399169921875,6.3712158203125,-11.286010742188
0.133,-3.1580810546875,7.9727783203125,-10.885620117188
0.1335,-0.9959716796875,9.7344970703125,-10.405151367188
0.134,1.0860595703125,10.775512695312,-9.2840576171875
0.1345,2.6876220703125,10.895629882812,-7.7625732421875
0.135,4.9698486328125,11.656372070312,-6.2410888671875
0.1355,7.5323486328125,11.936645507812,-3.8787841796875
0.136,8.4932861328125,11.255981445312,-2.1971435546875
0.1365,10.255004882812,11.095825195312,-0.1951904296875
0.137,10.495239257812,9.2139892578125,1.7667236328125
0.1375,10.575317382812,7.8126220703125,3.2481689453125
0.138,11.015747070312,5.6505126953125,5.8106689453125
0.1385,10.735473632812,3.6485595703125,7.4522705078125
0.139,10.134887695312,1.7667236328125,8.6534423828125
0.1395,9.5743408203125,-0.3153076171875,10.094848632812
0.14,7.6524658203125,-2.1971435546875,9.9346923828125
0.1405,6.4112548828125,-4.0389404296875,10.495239257812
0.141,3.9688720703125,-6.8817138671875,10.815551757812
0.1415,2.0469970703125,-8.2030029296875,10.054809570312
0.142,0.1251220703125,-9.7645263671875,9.6143798828125
0.1425,-1.9569091796875,-10.685424804688,8.3731689453125
0.143,-3.7186279296875,-10.845581054688,6.6915283203125
0.1435,-6.0008544921875,-11.486206054688,4.9698486328125
0.144,-8.3231201171875,-11.726440429688,2.8878173828125
0.1445,-9.0037841796875,-10.765502929688,1.2061767578125
0.145,-10.605346679688,-10.685424804688,-0.5955810546875
0.1455,-10.725463867188,-8.6434326171875,-2.5975341796875
0.146,-10.885620117188,-7.2020263671875,-4.1990966796875
0.1465,-11.286010742188,-4.9998779296875,-6.7215576171875
0.147,-10.765502929688,-3.0780029296875,-8.0828857421875
0.1475,-10.124877929688,-1.2762451171875,-9.1239013671875
0.148,-9.4041748046875,0.8458251953125,-10.405151367188
0.1485,-7.2821044921875,2.8878173828125,-10.244995117188
0.149,-5.9608154296875,4.8497314453125,-10.765502929688
0.1495,-3.7186279296875,7.5323486328125,-11.125854492188
0.15,-1.8367919921875,8.4532470703125,-10.044799804688
0.1505,-0.0350341796875,10.014770507812,-9.7244873046875
0.151,2.0469970703125,10.735473632812,-8.3231201171875
0.1515,3.9688720703125,10.975708007812,-6.5614013671875
0.152,6.4112548828125,11.536254882812,-4.5594482421875
0.1525,8.3331298828125,11.576293945312,-2.6375732421875
0.153,8.9337158203125,10.375122070312,-0.9959716796875
0.1535,10.375122070312,10.174926757812,0.6856689453125
0.154,10.214965820312,7.8927001953125,2.8477783203125
0.1545,10.415161132812,6.3712158203125,4.5294189453125
0.155,10.895629882812,4.2491455078125,7.0518798828125
0.1555,10.054809570312,2.3272705078125,8.0528564453125
0.156,9.4542236328125,0.6456298828125,9.0538330078125
0.1565,8.5733642578125,-1.3963623046875,10.134887695312
0.157,6.3712158203125,-3.5584716796875,9.9346923828125
0.1575,4.8497314453125,-5.6004638671875,10.375122070312
0.158,2.6075439453125,-8.0828857421875,10.535278320312
0.1585,0.6456298828125,-8.7235107421875,9.1739501953125
0.159,-0.8358154296875,-10.204956054688,8.9737548828125
0.1595,-3.0379638671875,-10.765502929688,7.2921142578125
0.16,-4.9998779296875,-10.925659179688,5.4903564453125
0.1605,-7.5623779296875,-11.526245117188,3.4483642578125
0.161,-9.1239013671875,-11.245971679688,1.5264892578125
0.1615,-9.5242919921875,-10.084838867188,-0.0350341796875
0.162,-10.805541992188,-9.7645263671875,-1.5965576171875
0.1625,-10.605346679688,-7.3221435546875,-3.7987060546875
0.163,-10.725463867188,-5.6405029296875,-5.5203857421875
0.1635,-11.205932617188,-3.5985107421875,-8.0028076171875
0.164,-10.004760742188,-1.6365966796875,-8.6834716796875
0.1645,-9.4842529296875,0.0050048828125,-9.7244873046875
0.165,-8.2830810546875,2.0469970703125,-10.445190429688
0.1655,-6.1209716796875,4.2091064453125,-10.365112304688
0.166,-4.4393310546875,6.4112548828125,-10.765502929688
0.1665,-2.3973388671875,8.6134033203125,-10.765502929688
0.167,-0.3953857421875,9.0938720703125,-9.2440185546875
0.1675,0.8858642578125,10.375122070312,-9.1239013671875
0.168,3.2882080078125,10.855590820312,-7.1219482421875
0.1685,5.2501220703125,11.015747070312,-5.2801513671875
0.169,7.8526611328125,11.536254882812,-3.1981201171875
0.1695,9.0137939453125,10.815551757812,-1.2362060546875
0.17,9.3341064453125,9.6544189453125,0.1651611328125
0.1705,10.375122070312,9.1739501953125,1.7266845703125
0.171,10.174926757812,6.5714111328125,4.0489501953125
0.1715,10.295043945312,4.9698486328125,5.7706298828125
0.172,10.575317382812,2.8477783203125,8.0928955078125
0.1725,9.2540283203125,1.0059814453125,8.4532470703125
0.173,8.8135986328125,-0.5155029296875,9.4942626953125
0.1735,7.4122314453125,-2.5975341796875,10.054809570312
0.174,5.1700439453125,-4.7596435546875,9.9346923828125
0.1745,3.4483642578125,-7.0018310546875,10.255004882812
0.175,1.2061767578125,-8.8436279296875,9.7745361328125
0.1755,-0.4354248046875,-9.2039794921875,8.4532470703125
0.176,-1.6766357421875,-10.325073242188,8.2930908203125
0.1765,-4.2391357421875,-10.805541992188,6.1309814453125
0.177,-6.1209716796875,-10.925659179688,4.2491455078125
0.1775,-8.6834716796875,-11.446166992188,2.2071533203125
0.178,-9.5643310546875,-10.405151367188,0.2852783203125
