wavelength,x,y,z
0.0,0.530517578125,3.773681640625,-4.594482421875
0.0005,-0.510498046875,4.334228515625,-4.194091796875
0.001,-1.431396484375,4.494384765625,-3.553466796875
0.0015,-2.272216796875,4.734619140625,-2.872802734375
0.002,-3.353271484375,4.934814453125,-1.951904296875
0.0025,-4.354248046875,5.054931640625,-1.111083984375
0.003,-4.514404296875,4.174072265625,-0.150146484375
0.0035,-5.074951171875,4.093994140625,0.610595703125
0.004,-4.994873046875,3.052978515625,1.531494140625
0.0045,-5.155029296875,2.612548828125,2.092041015625
0.005,-5.355224609375,1.651611328125,3.213134765625
0.0055,-5.114990234375,0.970947265625,3.653564453125
0.006,-4.434326171875,-0.190185546875,4.093994140625
0.0065,-3.953857421875,-1.071044921875,4.454345703125
0.007,-3.072998046875,-2.072021484375,4.494384765625
0.0075,-2.552490234375,-2.792724609375,4.694580078125
0.008,-1.631591796875,-3.833740234375,4.814697265625
0.0085,-0.790771484375,-4.033935546875,4.134033203125
0.009,0.010009765625,-4.674560546875,3.933837890625
0.0095,0.970947265625,-4.794677734375,3.052978515625
0.01,1.771728515625,-4.994873046875,2.572509765625
0.0105,2.812744140625,-5.155029296875,1.731689453125
0.011,3.533447265625,-5.155029296875,1.010986328125
0.0115,3.733642578125,-4.434326171875,0.130126953125
0.012,4.134033203125,-4.274169921875,-0.510498046875
0.0125,4.214111328125,-3.393310546875,-1.351318359375
0.013,4.374267578125,-3.032958984375,-1.911865234375
0.0135,4.614501953125,-2.232177734375,-2.912841796875
0.014,4.134033203125,-1.511474609375,-3.193115234375
0.0145,3.773681640625,-0.470458984375,-3.753662109375
0.015,3.133056640625,0.490478515625,-3.993896484375
0.0155,2.572509765625,1.291259765625,-4.234130859375
0.016,1.971923828125,2.052001953125,-4.434326171875
0.0165,1.331298828125,2.852783203125,-4.594482421875
0.017,0.450439453125,3.052978515625,-3.873779296875
0.0175,-0.270263671875,3.693603515625,-3.833740234375
0.018,-1.271240234375,3.853759765625,-2.952880859375
0.0185,-1.951904296875,4.214111328125,-2.632568359375
0.019,-3.032958984375,4.414306640625,-1.751708984375
0.0195,-3.473388671875,4.214111328125,-1.151123046875
0.02,-3.873779296875,3.733642578125,-0.270263671875
0.0205,-4.194091796875,3.453369140625,0.330322265625
0.021,-4.354248046875,2.732666015625,1.171142578125
0.0215,-4.554443359375,2.372314453125,1.771728515625
0.022,-4.834716796875,1.731689453125,2.652587890625
0.0225,-4.234130859375,0.890869140625,2.852783203125
0.023,-4.073974609375,0.010009765625,3.533447265625
0.0235,-3.273193359375,-0.990966796875,3.693603515625
0.024,-2.952880859375,-1.671630859375,4.053955078125
0.0245,-2.272216796875,-2.552490234375,4.134033203125
0.025,-1.751708984375,-3.113037109375,4.134033203125
0.0255,-0.830810546875,-3.433349609375,3.533447265625
0.026,-0.230224609375,-3.913818359375,3.493408203125
0.0265,0.810791015625,-4.114013671875,2.692626953125
0.027,1.411376953125,-4.514404296875,2.412353515625
0.0275,2.412353515625,-4.674560546875,1.611572265625
0.028,2.692626953125,-4.314208984375,1.051025390625
0.0285,3.173095703125,-4.114013671875,0.330322265625
0.029,3.373291015625,-3.673583984375,-0.310302734375
0.0295,3.693603515625,-3.233154296875,-0.990966796875
0.03,3.853759765625,-2.752685546875,-1.631591796875
0.0305,4.053955078125,-2.272216796875,-2.312255859375
0.031,3.413330078125,-1.311279296875,-2.592529296875
0.0315,3.373291015625,-0.630615234375,-3.193115234375
0.032,2.572509765625,0.370361328125,-3.353271484375
0.0325,2.532470703125,0.890869140625,-3.873779296875
0.033,1.851806640625,1.771728515625,-4.033935546875
0.0335,1.331298828125,2.052001953125,-3.873779296875
0.034,0.530517578125,2.612548828125,-3.513427734375
0.0345,-0.150146484375,3.052978515625,-3.273193359375
0.035,-1.031005859375,3.373291015625,-2.712646484375
0.0355,-1.751708984375,3.733642578125,-2.352294921875
0.036,-2.552490234375,3.933837890625,-1.791748046875
0.0365,-2.792724609375,3.493408203125,-1.111083984375
0.037,-3.353271484375,3.493408203125,-0.550537109375
0.0375,-3.553466796875,2.892822265625,0.250244140625
0.038,-3.993896484375,2.732666015625,0.810791015625
0.0385,-4.154052734375,2.172119140625,1.571533203125
0.039,-4.274169921875,1.771728515625,2.052001953125
0.0395,-3.713623046875,0.730712890625,2.492431640625
0.04,-3.713623046875,0.130126953125,3.052978515625
0.0405,-2.952880859375,-0.950927734375,3.253173828125
0.041,-2.872802734375,-1.471435546875,3.693603515625
0.0415,-2.232177734375,-2.312255859375,3.853759765625
0.042,-1.631591796875,-2.512451171875,3.573486328125
0.0425,-0.990966796875,-3.113037109375,3.453369140625
0.043,-0.150146484375,-3.473388671875,2.972900390625
0.0435,0.690673828125,-3.873779296875,2.572509765625
0.044,1.411376953125,-4.154052734375,2.092041015625
0.0445,2.052001953125,-4.274169921875,1.651611328125
0.045,2.292236328125,-3.833740234375,0.930908203125
0.0455,2.852783203125,-3.833740234375,0.490478515625
0.046,3.052978515625,-3.233154296875,-0.310302734375
0.0465,3.413330078125,-3.153076171875,-0.790771484375
0.047,3.653564453125,-2.552490234375,-1.591552734375
0.0475,3.493408203125,-2.072021484375,-1.951904296875
0.048,3.133056640625,-1.151123046875,-2.472412109375
0.0485,2.852783203125,-0.470458984375,-2.912841796875
0.049,2.452392578125,0.370361328125,-3.273193359375
0.0495,2.252197265625,0.970947265625,-3.713623046875
0.05,1.731689453125,1.651611328125,-3.793701171875
0.0505,1.051025390625,1.931884765625,-3.353271484375
0.051,0.490478515625,2.572509765625,-3.393310546875
0.0515,-0.510498046875,2.892822265625,-2.792724609375
0.052,-1.151123046875,3.373291015625,-2.632568359375
0.0525,-1.951904296875,3.573486328125,-1.991943359375
0.053,-2.352294921875,3.533447265625,-1.591552734375
0.0535,-2.792724609375,3.213134765625,-0.830810546875
0.054,-3.193115234375,3.173095703125,-0.390380859375
0.0545,-3.473388671875,2.612548828125,0.450439453125
0.055,-3.873779296875,2.532470703125,0.930908203125
0.0555,-4.114013671875,1.931884765625,1.731689453125
0.056,-3.713623046875,1.251220703125,2.011962890625
0.0565,-3.633544921875,0.410400390625,2.652587890625
0.057,-3.113037109375,-0.470458984375,2.932861328125
0.0575,-2.912841796875,-1.151123046875,3.413330078125
0.058,-2.472412109375,-1.791748046875,3.653564453125
0.0585,-1.991943359375,-2.312255859375,3.693603515625
0.059,-1.231201171875,-2.712646484375,3.253173828125
0.0595,-0.630615234375,-3.313232421875,3.253173828125
0.06,0.450439453125,-3.593505859375,2.572509765625
0.0605,1.091064453125,-4.073974609375,2.412353515625
0.061,1.891845703125,-4.234130859375,1.771728515625
0.0615,2.252197265625,-3.993896484375,1.171142578125
0.062,2.692626953125,-3.793701171875,0.570556640625
0.0625,3.012939453125,-3.513427734375,-0.070068359375
0.063,3.333251953125,-3.072998046875,-0.790771484375
0.0635,3.573486328125,-2.712646484375,-1.391357421875
0.064,3.773681640625,-2.192138671875,-2.072021484375
0.0645,3.133056640625,-1.271240234375,-2.432373046875
0.065,3.093017578125,-0.630615234375,-3.072998046875
0.0655,2.412353515625,0.370361328125,-3.273193359375
0.066,2.292236328125,1.010986328125,-3.713623046875
0.0665,1.651611328125,1.771728515625,-3.793701171875
0.067,1.051025390625,2.212158203125,-3.593505859375
0.0675,0.290283203125,2.572509765625,-3.193115234375
0.068,-0.430419921875,3.093017578125,-3.032958984375
0.0685,-1.431396484375,3.373291015625,-2.312255859375
0.069,-1.991943359375,3.693603515625,-2.072021484375
0.0695,-2.752685546875,3.773681640625,-1.431396484375
0.07,-3.032958984375,3.293212890625,-0.710693359375
0.0705,-3.473388671875,3.173095703125,-0.150146484375
0.071,-3.673583984375,2.612548828125,0.610595703125
0.0715,-4.033935546875,2.332275390625,1.251220703125
0.072,-4.114013671875,1.771728515625,1.931884765625
0.0725,-4.114013671875,1.171142578125,2.452392578125
0.073,-3.473388671875,0.130126953125,2.772705078125
0.0735,-3.393310546875,-0.510498046875,3.293212890625
0.074,-2.552490234375,-1.511474609375,3.533447265625
0.0745,-2.472412109375,-2.031982421875,3.893798828125
0.075,-1.711669921875,-2.752685546875,3.853759765625
0.0755,-0.990966796875,-3.153076171875,3.533447265625
0.076,-0.310302734375,-3.553466796875,3.213134765625
0.0765,0.650634765625,-3.993896484375,2.732666015625
0.077,1.571533203125,-4.314208984375,2.092041015625
0.0775,2.172119140625,-4.394287109375,1.651611328125
0.078,2.852783203125,-4.434326171875,1.010986328125
0.0785,3.052978515625,-3.833740234375,0.250244140625
0.079,3.493408203125,-3.713623046875,-0.310302734375
0.0795,3.693603515625,-2.912841796875,-1.311279296875
0.08,3.973876953125,-2.632568359375,-1.871826171875
0.0805,3.933837890625,-1.951904296875,-2.552490234375
0.081,3.693603515625,-1.151123046875,-3.072998046875
0.0815,3.012939453125,-0.150146484375,-3.353271484375
0.082,2.732666015625,0.650634765625,-3.833740234375
0.0825,1.891845703125,1.771728515625,-3.993896484375
0.083,1.571533203125,2.252197265625,-4.154052734375
0.0835,0.730712890625,2.932861328125,-3.993896484375
0.084,-0.110107421875,3.253173828125,-3.513427734375
0.0845,-0.790771484375,3.613525390625,-3.153076171875
0.085,-1.951904296875,3.973876953125,-2.392333984375
0.0855,-2.872802734375,4.174072265625,-1.751708984375
0.086,-3.353271484375,4.013916015625,-1.111083984375
0.0865,-3.913818359375,3.893798828125,-0.350341796875
0.087,-4.033935546875,3.173095703125,0.450439453125
0.0875,-4.394287109375,2.972900390625,1.010986328125
0.088,-4.594482421875,1.971923828125,2.172119140625
0.0885,-4.674560546875,1.571533203125,2.572509765625
0.089,-4.434326171875,0.650634765625,3.213134765625
0.0895,-4.033935546875,-0.190185546875,3.653564453125
0.09,-3.273193359375,-1.151123046875,3.853759765625
0.0905,-2.872802734375,-1.951904296875,4.214111328125
0.091,-1.951904296875,-3.072998046875,4.414306640625
0.0915,-1.431396484375,-3.393310546875,4.214111328125
0.092,-0.590576171875,-4.114013671875,4.013916015625
0.0925,0.290283203125,-4.274169921875,3.333251953125
0.093,1.091064453125,-4.674560546875,2.972900390625
0.0935,2.332275390625,-4.954833984375,1.971923828125
0.094,3.173095703125,-5.114990234375,1.331298828125
0.0945,3.573486328125,-4.674560546875,0.530517578125
0.095,4.134033203125,-4.514404296875,-0.190185546875
0.0955,4.134033203125,-3.673583984375,-1.031005859375
0.096,4.454345703125,-3.353271484375,-1.671630859375
0.0965,4.694580078125,-2.352294921875,-2.912841796875
0.097,4.534423828125,-1.791748046875,-3.313232421875
0.0975,4.174072265625,-0.790771484375,-3.993896484375
0.098,3.573486328125,0.290283203125,-4.274169921875
0.0985,2.812744140625,1.291259765625,-4.474365234375
0.099,2.132080078125,2.252197265625,-4.714599609375
0.0995,1.291259765625,3.373291015625,-4.954833984375
0.1,0.450439453125,3.653564453125,-4.394287109375
0.1005,-0.470458984375,4.334228515625,-4.154052734375
0.101,-1.431396484375,4.374267578125,-3.273193359375
0.1015,-2.272216796875,4.734619140625,-2.832763671875
0.102,-3.593505859375,4.934814453125,-1.671630859375
0.1025,-4.434326171875,4.934814453125,-0.910888671875
0.103,-4.714599609375,4.214111328125,0.130126953125
0.1035,-5.195068359375,3.973876953125,0.810791015625
0.104,-5.114990234375,2.932861328125,1.731689453125
0.1045,-5.275146484375,2.412353515625,2.412353515625
0.105,-5.515380859375,1.331298828125,3.653564453125
0.1055,-5.034912109375,0.490478515625,3.973876953125
0.106,-4.514404296875,-0.550537109375,4.494384765625
0.1065,-3.873779296875,-1.471435546875,4.774658203125
0.107,-2.992919921875,-2.432373046875,4.814697265625
0.1075,-2.232177734375,-3.393310546875,4.974853515625
0.108,-1.271240234375,-4.514404296875,5.094970703125
0.1085,-0.270263671875,-4.674560546875,4.214111328125
0.109,0.530517578125,-5.235107421875,4.093994140625
0.1095,1.571533203125,-5.275146484375,3.012939453125
0.11,2.412353515625,-5.475341796875,2.412353515625
0.1105,3.733642578125,-5.715576171875,1.331298828125
0.111,4.414306640625,-5.475341796875,0.490478515625
0.1115,4.614501953125,-4.714599609375,-0.510498046875
0.112,5.054931640625,-4.434326171875,-1.151123046875
0.1125,4.974853515625,-3.393310546875,-2.192138671875
0.113,5.054931640625,-2.832763671875,-2.872802734375
0.1135,5.335205078125,-1.791748046875,-4.114013671875
0.114,4.614501953125,-0.790771484375,-4.314208984375
0.1145,4.093994140625,0.330322265625,-4.834716796875
0.115,3.213134765625,1.371337890625,-4.994873046875
0.1155,2.412353515625,2.372314453125,-5.114990234375
0.116,1.611572265625,3.293212890625,-5.155029296875
0.1165,0.650634765625,4.294189453125,-5.235107421875
0.117,-0.510498046875,4.454345703125,-4.194091796875
0.1175,-1.231201171875,4.974853515625,-4.073974609375
0.118,-2.512451171875,5.054931640625,-2.872802734375
0.1185,-3.233154296875,5.175048828125,-2.272216796875
0.119,-4.514404296875,5.295166015625,-1.191162109375
0.1195,-5.074951171875,4.974853515625,-0.270263671875
0.12,-5.275146484375,4.134033203125,0.770751953125
0.1205,-5.635498046875,3.693603515625,1.451416015625
0.121,-5.595458984375,2.532470703125,2.572509765625
0.1215,-5.595458984375,1.931884765625,3.133056640625
0.122,-5.755615234375,0.970947265625,4.334228515625
0.1225,-4.834716796875,-0.190185546875,4.494384765625
0.123,-4.434326171875,-1.191162109375,4.974853515625
0.1235,-3.393310546875,-2.272216796875,5.054931640625
0.124,-2.592529296875,-3.193115234375,5.135009765625
0.1245,-1.791748046875,-4.033935546875,5.094970703125
0.125,-0.750732421875,-4.954833984375,5.014892578125
0.1255,0.370361328125,-4.994873046875,3.973876953125
0.126,1.010986328125,-5.515380859375,3.853759765625
0.1265,2.452392578125,-5.595458984375,2.492431640625
0.127,3.052978515625,-5.635498046875,1.971923828125
0.1275,4.214111328125,-5.715576171875,0.930908203125
0.128,4.574462890625,-5.155029296875,0.010009765625
0.1285,4.814697265625,-4.554443359375,-0.910888671875
0.129,5.054931640625,-3.993896484375,-1.631591796875
0.1295,5.094970703125,-2.992919921875,-2.752685546875
0.13,5.054931640625,-2.352294921875,-3.193115234375
0.1305,5.175048828125,-1.391357421875,-4.234130859375
0.131,4.134033203125,-0.150146484375,-4.394287109375
0.1315,3.773681640625,0.690673828125,-4.874755859375
0.132,2.692626953125,1.931884765625,-4.954833984375
0.1325,2.052001953125,2.692626953125,-5.114990234375
0.133,1.251220703125,3.533447265625,-5.074951171875
0.1335,0.250244140625,4.214111328125,-4.794677734375
0.134,-0.830810546875,4.414306640625,-3.833740234375
0.1345,-1.551513671875,4.854736328125,-3.633544921875
0.135,-2.952880859375,4.974853515625,-2.312255859375
0.1355,-3.473388671875,4.974853515625,-1.951904296875
0.136,-4.514404296875,5.014892578125,-0.870849609375
0.1365,-4.794677734375,4.294189453125,0.050048828125
0.137,-5.074951171875,3.773681640625,0.850830078125
0.1375,-5.275146484375,3.052978515625,1.691650390625
0.138,-5.355224609375,2.252197265625,2.652587890625
0.1385,-5.275146484375,1.611572265625,3.173095703125
0.139,-5.275146484375,0.730712890625,4.053955078125
0.1395,-4.194091796875,-0.510498046875,4.134033203125
0.14,-3.993896484375,-1.271240234375,4.654541015625
0.1405,-2.832763671875,-2.512451171875,4.734619140625
0.141,-2.432373046875,-3.153076171875,4.854736328125
0.1415,-1.431396484375,-3.913818359375,4.734619140625
0.142,-0.590576171875,-4.474365234375,4.334228515625
0.1425,0.370361328125,-4.634521484375,3.573486328125
0.143,1.211181640625,-5.114990234375,3.213134765625
0.1435,2.492431640625,-5.195068359375,2.092041015625
0.144,2.892822265625,-5.195068359375,1.731689453125
0.1445,3.853759765625,-5.275146484375,0.770751953125
0.145,3.973876953125,-4.514404296875,-0.150146484375
0.1455,4.334228515625,-4.194091796875,-0.790771484375
0.146,4.494384765625,-3.313232421875,-1.671630859375
0.1465,4.654541015625,-2.752685546875,-2.392333984375
0.147,4.494384765625,-2.072021484375,-2.952880859375
0.1475,4.494384765625,-1.271240234375,-3.713623046875
0.148,3.453369140625,0.010009765625,-3.833740234375
0.1485,3.293212890625,0.650634765625,-4.394287109375
0.149,2.172119140625,1.891845703125,-4.434326171875
0.1495,1.971923828125,2.372314453125,-4.634521484375
0.15,1.010986328125,3.173095703125,-4.514404296875
0.1505,0.130126953125,3.533447265625,-3.993896484375
0.151,-0.710693359375,3.853759765625,-3.513427734375
0.1515,-1.591552734375,4.214111328125,-2.912841796875
0.152,-2.592529296875,4.414306640625,-2.152099609375
0.1525,-3.072998046875,4.334228515625,-1.711669921875
0.153,-3.833740234375,4.294189453125,-0.910888671875
0.1535,-3.993896484375,3.533447265625,0.010009765625
0.154,-4.434326171875,3.453369140625,0.610595703125
0.1545,-4.514404296875,2.532470703125,1.571533203125
0.155,-4.794677734375,2.252197265625,2.052001953125
0.1555,-4.674560546875,1.411376953125,2.772705078125
0.156,-4.474365234375,0.690673828125,3.253173828125
0.1565,-3.673583984375,-0.430419921875,3.573486328125
0.157,-3.513427734375,-1.111083984375,4.013916015625
0.1575,-2.552490234375,-2.192138671875,4.134033203125
0.158,-2.352294921875,-2.592529296875,4.334228515625
0.1585,-1.431396484375,-3.393310546875,4.134033203125
0.159,-0.630615234375,-3.673583984375,3.653564453125
0.1595,0.130126953125,-4.154052734375,3.373291015625
0.16,1.171142578125,-4.394287109375,2.612548828125
0.1605,1.931884765625,-4.754638671875,2.132080078125
0.161,2.492431640625,-4.634521484375,1.491455078125
0.1615,3.052978515625,-4.594482421875,0.850830078125
0.162,3.253173828125,-3.873779296875,0.050048828125
0.1625,3.733642578125,-3.833740234375,-0.470458984375
0.163,3.853759765625,-2.912841796875,-1.471435546875
0.1635,4.134033203125,-2.792724609375,-1.871826171875
0.164,4.013916015625,-1.951904296875,-2.592529296875
0.1645,3.613525390625,-1.151123046875,-2.952880859375
0.165,3.133056640625,-0.150146484375,-3.393310546875
0.1655,2.732666015625,0.610595703125,-3.753662109375
0.166,2.172119140625,1.531494140625,-4.033935546875
0.1665,1.771728515625,1.931884765625,-4.114013671875
0.167,1.010986328125,2.612548828125,-3.953857421875
0.1675,0.170166015625,2.852783203125,-3.353271484375
0.168,-0.510498046875,3.453369140625,-3.273193359375
0.1685,-1.551513671875,3.573486328125,-2.432373046875
0.169,-2.112060546875,3.893798828125,-2.272216796875
0.1695,-2.712646484375,3.773681640625,-1.471435546875
0.17,-3.193115234375,3.653564453125,-0.910888671875
0.1705,-3.433349609375,3.133056640625,-0.150146484375
0.171,-3.793701171875,2.972900390625,0.410400390625
0.1715,-4.033935546875,2.372314453125,1.251220703125
0.172,-4.194091796875,2.132080078125,1.651611328125
0.1725,-4.234130859375,1.411376953125,2.372314453125
0.173,-3.713623046875,0.570556640625,2.612548828125
0.1735,-3.513427734375,-0.270263671875,3.213134765625
0.174,-2.872802734375,-1.151123046875,3.453369140625
0.1745,-2.712646484375,-1.791748046875,3.853759765625
0.175,-2.112060546875,-2.272216796875,3.773681640625
0.1755,-1.551513671875,-2.832763671875,3.733642578125
0.176,-0.670654296875,-3.153076171875,3.173095703125
0.1765,0.010009765625,-3.833740234375,3.093017578125
0.177,1.051025390625,-4.033935546875,2.292236328125
0.1775,1.571533203125,-4.394287109375,2.172119140625
0.178,2.212158203125,-4.234130859375,1.411376953125
0.1785,2.532470703125,-3.993896484375,0.890869140625
0.179,2.972900390625,-3.713623046875,0.170166015625
0.1795,3.213134765625,-3.353271484375,-0.470458984375
0.18,3.653564453125,-3.032958984375,-1.191162109375
0.1805,3.653564453125,-2.512451171875,-1.631591796875
0.181,3.693603515625,-1.871826171875,-2.312255859375
0.1815,3.012939453125,-0.870849609375,-2.592529296875
0.182,2.972900390625,-0.190185546875,-3.233154296875
0.1825,2.252197265625,0.770751953125,-3.433349609375
0.183,2.252197265625,1.211181640625,-3.873779296875
0.1835,1.451416015625,1.811767578125,-3.673583984375
0.184,0.930908203125,2.252197265625,-3.553466796875
0.1845,0.050048828125,2.612548828125,-3.153076171875
0.185,-0.670654296875,3.093017578125,-2.872802734375
0.1855,-1.551513671875,3.413330078125,-2.312255859375
0.186,-1.991943359375,3.613525390625,-1.991943359375
0.1865,-2.592529296875,3.533447265625,-1.311279296875
0.187,-2.872802734375,3.173095703125,-0.670654296875
0.1875,-3.353271484375,3.052978515625,-0.150146484375
0.188,-3.553466796875,2.492431640625,0.650634765625
