wavelength,x,y,z
0.0,3.693603515625,-5.835693359375,0.170166015625
0.0005,2.452392578125,-5.955810546875,1.371337890625
0.001,1.010986328125,-6.115966796875,2.892822265625
0.0015,-0.190185546875,-6.276123046875,4.214111328125
0.002,-0.790771484375,-6.436279296875,5.094970703125
0.0025,-1.431396484375,-6.276123046875,5.695556640625
0.003,-2.472412109375,-5.395263671875,5.935791015625
0.0035,-3.753662109375,-4.114013671875,6.176025390625
0.004,-4.954833984375,-2.672607421875,6.256103515625
0.0045,-5.715576171875,-1.631591796875,6.336181640625
0.005,-5.875732421875,-1.111083984375,6.256103515625
0.0055,-5.755615234375,-0.350341796875,5.695556640625
0.006,-5.395263671875,0.770751953125,4.574462890625
0.0065,-5.195068359375,2.052001953125,3.333251953125
0.007,-5.114990234375,3.373291015625,2.172119140625
0.0075,-5.034912109375,4.294189453125,1.331298828125
0.008,-4.634521484375,4.774658203125,0.650634765625
0.0085,-3.833740234375,4.894775390625,-0.310302734375
0.009,-2.592529296875,5.014892578125,-1.551513671875
0.0095,-1.311279296875,5.215087890625,-3.072998046875
0.01,-0.430419921875,5.575439453125,-4.194091796875
0.0105,0.210205078125,5.735595703125,-5.034912109375
0.011,0.970947265625,5.455322265625,-5.595458984375
0.0115,2.052001953125,4.494384765625,-5.835693359375
0.012,3.333251953125,3.253173828125,-6.115966796875
0.0125,4.454345703125,1.971923828125,-6.236083984375
0.013,5.094970703125,1.171142578125,-6.396240234375
0.0135,5.295166015625,0.490478515625,-6.196044921875
0.014,5.135009765625,-0.350341796875,-5.635498046875
0.0145,4.894775390625,-1.391357421875,-4.514404296875
0.015,4.774658203125,-2.752685546875,-3.273193359375
0.0155,4.774658203125,-3.993896484375,-2.272216796875
0.016,4.654541015625,-4.794677734375,-1.591552734375
0.0165,4.214111328125,-5.275146484375,-0.830810546875
0.017,3.253173828125,-5.435302734375,0.210205078125
0.0175,2.052001953125,-5.715576171875,1.531494140625
0.018,0.850830078125,-5.835693359375,3.012939453125
0.0185,0.130126953125,-6.276123046875,4.093994140625
0.019,-0.510498046875,-6.356201171875,4.814697265625
0.0195,-1.351318359375,-5.875732421875,5.295166015625
0.02,-2.512451171875,-4.834716796875,5.575439453125
0.0205,-3.793701171875,-3.553466796875,5.815673828125
0.021,-4.834716796875,-2.472412109375,6.015869140625
0.0215,-5.315185546875,-1.831787109375,6.135986328125
0.022,-5.435302734375,-1.151123046875,5.855712890625
0.0225,-5.235107421875,-0.310302734375,5.094970703125
0.023,-5.114990234375,0.890869140625,4.134033203125
0.0235,-4.994873046875,2.252197265625,2.892822265625
0.024,-5.074951171875,3.373291015625,2.052001953125
0.0245,-4.874755859375,3.973876953125,1.411376953125
0.025,-4.354248046875,4.334228515625,0.650634765625
0.0255,-3.353271484375,4.534423828125,-0.510498046875
0.026,-2.272216796875,4.854736328125,-1.871826171875
0.0265,-1.231201171875,5.175048828125,-3.193115234375
0.027,-0.630615234375,5.575439453125,-4.154052734375
0.0275,0.130126953125,5.575439453125,-4.834716796875
0.028,1.131103515625,4.934814453125,-5.275146484375
0.0285,2.292236328125,3.893798828125,-5.635498046875
0.029,3.573486328125,2.612548828125,-5.835693359375
0.0295,4.494384765625,1.731689453125,-6.115966796875
0.03,4.854736328125,1.131103515625,-6.156005859375
0.0305,4.894775390625,0.490478515625,-5.835693359375
0.031,4.694580078125,-0.550537109375,-4.994873046875
0.0315,4.614501953125,-1.751708984375,-3.993896484375
0.032,4.614501953125,-3.072998046875,-2.952880859375
0.0325,4.694580078125,-4.114013671875,-2.192138671875
0.033,4.494384765625,-4.714599609375,-1.551513671875
0.0335,3.813720703125,-5.034912109375,-0.710693359375
0.034,2.812744140625,-5.235107421875,0.610595703125
0.0345,1.571533203125,-5.515380859375,1.971923828125
0.035,0.770751953125,-5.955810546875,3.213134765625
0.0355,0.210205078125,-6.276123046875,4.134033203125
0.036,-0.630615234375,-6.115966796875,4.774658203125
0.0365,-1.751708984375,-5.315185546875,5.135009765625
0.037,-2.912841796875,-4.274169921875,5.495361328125
0.0375,-4.154052734375,-3.113037109375,5.775634765625
0.038,-4.874755859375,-2.272216796875,6.015869140625
0.0385,-5.155029296875,-1.671630859375,5.975830078125
0.039,-5.155029296875,-0.990966796875,5.495361328125
0.0395,-4.994873046875,0.130126953125,4.614501953125
0.04,-4.954833984375,1.411376953125,3.493408203125
0.0405,-5.074951171875,2.612548828125,2.572509765625
0.041,-5.034912109375,3.533447265625,1.931884765625
0.0415,-4.714599609375,4.053955078125,1.171142578125
0.042,-3.833740234375,4.334228515625,0.210205078125
0.0425,-2.832763671875,4.694580078125,-1.191162109375
0.043,-1.671630859375,5.054931640625,-2.592529296875
0.0435,-0.990966796875,5.455322265625,-3.713623046875
0.044,-0.350341796875,5.655517578125,-4.514404296875
0.0445,0.610595703125,5.255126953125,-5.074951171875
0.045,1.851806640625,4.294189453125,-5.435302734375
0.0455,3.093017578125,3.093017578125,-5.755615234375
0.046,4.134033203125,2.052001953125,-6.035888671875
0.0465,4.774658203125,1.291259765625,-6.196044921875
0.047,4.934814453125,0.610595703125,-5.955810546875
0.0475,4.814697265625,-0.310302734375,-5.275146484375
0.048,4.694580078125,-1.431396484375,-4.274169921875
0.0485,4.614501953125,-2.872802734375,-3.072998046875
0.049,4.694580078125,-4.033935546875,-2.272216796875
0.0495,4.534423828125,-4.714599609375,-1.591552734375
0.05,3.973876953125,-5.034912109375,-0.790771484375
0.0505,2.972900390625,-5.235107421875,0.450439453125
0.051,1.851806640625,-5.555419921875,1.851806640625
0.0515,0.770751953125,-5.875732421875,3.173095703125
0.052,0.130126953125,-6.236083984375,4.174072265625
0.0525,-0.630615234375,-6.196044921875,4.854736328125
0.053,-1.631591796875,-5.515380859375,5.295166015625
0.0535,-2.912841796875,-4.394287109375,5.615478515625
0.054,-4.194091796875,-3.072998046875,5.815673828125
0.0545,-5.034912109375,-2.112060546875,6.055908203125
0.055,-5.395263671875,-1.551513671875,6.095947265625
0.0555,-5.355224609375,-0.830810546875,5.575439453125
0.056,-5.114990234375,0.290283203125,4.614501953125
0.0565,-5.074951171875,1.451416015625,3.533447265625
0.057,-5.034912109375,2.812744140625,2.412353515625
0.0575,-5.074951171875,3.773681640625,1.651611328125
0.058,-4.714599609375,4.374267578125,0.970947265625
0.0585,-3.913818359375,4.614501953125,0.130126953125
0.059,-2.752685546875,4.814697265625,-1.271240234375
0.0595,-1.591552734375,5.094970703125,-2.712646484375
0.06,-0.710693359375,5.455322265625,-3.873779296875
0.0605,0.010009765625,5.735595703125,-4.794677734375
0.061,0.810791015625,5.375244140625,-5.355224609375
0.0615,1.971923828125,4.414306640625,-5.715576171875
0.062,3.253173828125,3.173095703125,-6.035888671875
0.0625,4.454345703125,1.891845703125,-6.196044921875
0.063,5.094970703125,1.091064453125,-6.356201171875
0.0635,5.255126953125,0.450439453125,-6.156005859375
0.064,5.094970703125,-0.390380859375,-5.515380859375
0.0645,4.814697265625,-1.591552734375,-4.394287109375
0.065,4.694580078125,-2.992919921875,-3.153076171875
0.0655,4.734619140625,-4.234130859375,-2.112060546875
0.066,4.614501953125,-4.994873046875,-1.391357421875
0.0665,4.134033203125,-5.395263671875,-0.630615234375
0.067,3.052978515625,-5.475341796875,0.490478515625
0.0675,1.851806640625,-5.755615234375,1.931884765625
0.068,0.570556640625,-5.955810546875,3.413330078125
0.0685,-0.190185546875,-6.276123046875,4.414306640625
0.069,-0.830810546875,-6.396240234375,5.175048828125
0.0695,-1.751708984375,-5.755615234375,5.575439453125
0.07,-3.032958984375,-4.554443359375,5.855712890625
0.0705,-4.274169921875,-3.233154296875,6.095947265625
0.071,-5.315185546875,-2.072021484375,6.216064453125
0.0715,-5.715576171875,-1.311279296875,6.256103515625
0.072,-5.755615234375,-0.630615234375,5.815673828125
0.0725,-5.475341796875,0.330322265625,4.934814453125
0.073,-5.275146484375,1.611572265625,3.693603515625
0.0735,-5.155029296875,3.012939453125,2.412353515625
0.074,-5.155029296875,4.134033203125,1.531494140625
0.0745,-4.834716796875,4.774658203125,0.810791015625
0.075,-4.154052734375,4.974853515625,0.050048828125
0.0755,-2.872802734375,5.054931640625,-1.311279296875
0.076,-1.591552734375,5.295166015625,-2.832763671875
0.0765,-0.510498046875,5.575439453125,-4.234130859375
0.077,0.210205078125,5.815673828125,-5.114990234375
0.0775,0.970947265625,5.655517578125,-5.755615234375
0.078,2.052001953125,4.734619140625,-6.115966796875
0.0785,3.453369140625,3.373291015625,-6.356201171875
0.079,4.734619140625,1.931884765625,-6.476318359375
0.0795,5.495361328125,0.890869140625,-6.556396484375
0.08,5.735595703125,0.210205078125,-6.436279296875
0.0805,5.575439453125,-0.710693359375,-5.755615234375
0.081,5.255126953125,-1.951904296875,-4.554443359375
0.0815,5.054931640625,-3.353271484375,-3.193115234375
0.082,4.934814453125,-4.634521484375,-1.951904296875
0.0825,4.814697265625,-5.515380859375,-1.111083984375
0.083,4.334228515625,-5.995849609375,-0.350341796875
0.0835,3.213134765625,-6.035888671875,0.730712890625
0.084,1.771728515625,-6.115966796875,2.252197265625
0.0845,0.290283203125,-6.276123046875,3.853759765625
0.085,-0.670654296875,-6.476318359375,5.054931640625
0.0855,-1.271240234375,-6.556396484375,5.735595703125
0.086,-2.192138671875,-5.995849609375,6.256103515625
0.0865,-3.473388671875,-4.674560546875,6.416259765625
0.087,-4.794677734375,-3.193115234375,6.576416015625
0.0875,-5.915771484375,-1.791748046875,6.616455078125
0.088,-6.356201171875,-0.950927734375,6.536376953125
0.0885,-6.356201171875,-0.270263671875,6.135986328125
0.089,-5.955810546875,0.730712890625,5.175048828125
0.0895,-5.635498046875,2.052001953125,3.733642578125
0.09,-5.275146484375,3.533447265625,2.252197265625
0.0905,-5.195068359375,4.734619140625,1.131103515625
0.091,-4.874755859375,5.335205078125,0.410400390625
0.0915,-4.154052734375,5.615478515625,-0.510498046875
0.092,-2.872802734375,5.575439453125,-1.671630859375
0.0925,-1.311279296875,5.655517578125,-3.273193359375
0.093,0.130126953125,5.735595703125,-4.794677734375
0.0935,0.770751953125,5.935791015625,-5.715576171875
0.094,1.411376953125,5.815673828125,-6.276123046875
0.0945,2.412353515625,4.934814453125,-6.556396484375
0.095,3.813720703125,3.453369140625,-6.756591796875
0.0955,5.014892578125,1.931884765625,-6.796630859375
0.096,5.895751953125,0.690673828125,-6.796630859375
0.0965,6.135986328125,-0.190185546875,-6.676513671875
0.097,6.015869140625,-0.990966796875,-6.115966796875
0.0975,5.575439453125,-1.991943359375,-4.914794921875
0.098,5.175048828125,-3.313232421875,-3.393310546875
0.0985,4.934814453125,-4.754638671875,-1.951904296875
0.099,4.814697265625,-5.795654296875,-0.950927734375
0.0995,4.414306640625,-6.236083984375,-0.270263671875
0.1,3.453369140625,-6.356201171875,0.730712890625
0.1005,2.011962890625,-6.316162109375,2.052001953125
0.101,0.450439453125,-6.396240234375,3.733642578125
0.1015,-0.750732421875,-6.516357421875,5.054931640625
0.102,-1.351318359375,-6.636474609375,5.815673828125
0.1025,-2.072021484375,-6.356201171875,6.376220703125
0.103,-3.153076171875,-5.275146484375,6.536376953125
0.1035,-4.514404296875,-3.793701171875,6.696533203125
0.104,-5.715576171875,-2.232177734375,6.696533203125
0.1045,-6.396240234375,-1.151123046875,6.656494140625
0.105,-6.476318359375,-0.510498046875,6.416259765625
0.1055,-6.236083984375,0.370361328125,5.655517578125
0.106,-5.755615234375,1.571533203125,4.334228515625
0.1065,-5.475341796875,3.012939453125,2.852783203125
0.107,-5.275146484375,4.334228515625,1.571533203125
0.1075,-5.114990234375,5.215087890625,0.690673828125
0.108,-4.554443359375,5.575439453125,0.010009765625
0.1085,-3.553466796875,5.575439453125,-1.031005859375
0.109,-2.031982421875,5.615478515625,-2.552490234375
0.1095,-0.550537109375,5.735595703125,-4.154052734375
0.11,0.450439453125,5.935791015625,-5.315185546875
0.1105,1.010986328125,6.015869140625,-6.035888671875
0.111,1.931884765625,5.455322265625,-6.476318359375
0.1115,3.173095703125,4.174072265625,-6.676513671875
0.112,4.494384765625,2.692626953125,-6.836669921875
0.1125,5.575439453125,1.211181640625,-6.876708984375
0.113,6.095947265625,0.290283203125,-6.796630859375
0.1135,6.095947265625,-0.510498046875,-6.436279296875
0.114,5.775634765625,-1.311279296875,-5.595458984375
0.1145,5.375244140625,-2.632568359375,-4.114013671875
0.115,5.094970703125,-4.154052734375,-2.552490234375
0.1155,4.974853515625,-5.395263671875,-1.431396484375
0.116,4.654541015625,-6.115966796875,-0.630615234375
0.1165,3.973876953125,-6.396240234375,0.290283203125
0.117,2.692626953125,-6.356201171875,1.451416015625
0.1175,1.171142578125,-6.436279296875,3.093017578125
0.118,-0.390380859375,-6.516357421875,4.614501953125
0.1185,-1.151123046875,-6.676513671875,5.655517578125
0.119,-1.711669921875,-6.596435546875,6.256103515625
0.1195,-2.712646484375,-5.795654296875,6.576416015625
0.12,-4.154052734375,-4.274169921875,6.696533203125
0.1205,-5.435302734375,-2.752685546875,6.776611328125
0.121,-6.356201171875,-1.431396484375,6.776611328125
0.1215,-6.676513671875,-0.670654296875,6.656494140625
0.122,-6.476318359375,0.290283203125,6.015869140625
0.1225,-6.115966796875,1.291259765625,4.854736328125
0.123,-5.715576171875,2.732666015625,3.373291015625
0.1235,-5.395263671875,4.214111328125,1.771728515625
0.124,-5.275146484375,5.255126953125,0.810791015625
0.1245,-4.834716796875,5.735595703125,0.090087890625
0.125,-3.873779296875,5.815673828125,-0.910888671875
0.1255,-2.352294921875,5.775634765625,-2.312255859375
0.126,-0.830810546875,5.895751953125,-3.993896484375
0.1265,0.490478515625,5.975830078125,-5.355224609375
0.127,1.131103515625,6.095947265625,-6.156005859375
0.1275,1.811767578125,5.735595703125,-6.596435546875
0.128,2.932861328125,4.614501953125,-6.836669921875
0.1285,4.334228515625,3.012939453125,-6.996826171875
0.129,5.535400390625,1.371337890625,-6.916748046875
0.1295,6.216064453125,0.290283203125,-6.876708984375
0.13,6.296142578125,-0.470458984375,-6.596435546875
0.1305,6.015869140625,-1.311279296875,-5.795654296875
0.131,5.495361328125,-2.472412109375,-4.394287109375
0.1315,5.175048828125,-3.873779296875,-2.912841796875
0.132,4.934814453125,-5.235107421875,-1.551513671875
0.1325,4.734619140625,-6.075927734375,-0.670654296875
0.133,4.134033203125,-6.396240234375,0.130126953125
0.1335,3.093017578125,-6.356201171875,1.051025390625
0.134,1.571533203125,-6.276123046875,2.532470703125
0.1345,0.010009765625,-6.396240234375,4.134033203125
0.135,-0.990966796875,-6.476318359375,5.255126953125
0.1355,-1.551513671875,-6.596435546875,5.935791015625
0.136,-2.272216796875,-6.115966796875,6.336181640625
0.1365,-3.473388671875,-4.874755859375,6.456298828125
0.137,-4.754638671875,-3.473388671875,6.576416015625
0.1375,-5.835693359375,-1.991943359375,6.576416015625
0.138,-6.356201171875,-1.031005859375,6.536376953125
0.1385,-6.356201171875,-0.390380859375,6.216064453125
0.139,-5.955810546875,0.490478515625,5.415283203125
0.1395,-5.555419921875,1.651611328125,4.053955078125
0.14,-5.315185546875,3.093017578125,2.612548828125
0.1405,-5.195068359375,4.294189453125,1.571533203125
0.141,-4.994873046875,5.054931640625,0.770751953125
0.1415,-4.394287109375,5.335205078125,0.050048828125
0.142,-3.313232421875,5.375244140625,-1.111083984375
0.1425,-1.951904296875,5.495361328125,-2.552490234375
0.143,-0.510498046875,5.615478515625,-4.073974609375
0.1435,0.290283203125,5.895751953125,-5.114990234375
0.144,0.890869140625,5.895751953125,-5.795654296875
0.1445,1.771728515625,5.255126953125,-6.236083984375
0.145,3.052978515625,3.893798828125,-6.396240234375
0.1455,4.334228515625,2.532470703125,-6.556396484375
0.146,5.375244140625,1.291259765625,-6.676513671875
0.1465,5.735595703125,0.530517578125,-6.596435546875
0.147,5.735595703125,-0.270263671875,-6.236083984375
0.1475,5.455322265625,-1.151123046875,-5.355224609375
0.148,5.135009765625,-2.432373046875,-3.993896484375
0.1485,4.934814453125,-3.913818359375,-2.552490234375
0.149,4.854736328125,-5.034912109375,-1.591552734375
0.1495,4.614501953125,-5.635498046875,-0.910888671875
0.15,3.853759765625,-5.835693359375,0.050048828125
0.1505,2.612548828125,-5.915771484375,1.251220703125
0.151,1.171142578125,-6.075927734375,2.772705078125
0.1515,0.010009765625,-6.276123046875,4.174072265625
0.152,-0.710693359375,-6.476318359375,5.094970703125
0.1525,-1.351318359375,-6.396240234375,5.695556640625
0.153,-2.352294921875,-5.555419921875,5.975830078125
0.1535,-3.713623046875,-4.194091796875,6.135986328125
0.154,-4.874755859375,-2.752685546875,6.296142578125
0.1545,-5.675537109375,-1.711669921875,6.376220703125
0.155,-5.915771484375,-1.111083984375,6.256103515625
0.1555,-5.755615234375,-0.350341796875,5.695556640625
0.156,-5.435302734375,0.730712890625,4.654541015625
0.1565,-5.235107421875,2.052001953125,3.373291015625
0.157,-5.114990234375,3.373291015625,2.172119140625
0.1575,-5.034912109375,4.334228515625,1.331298828125
0.158,-4.674560546875,4.814697265625,0.650634765625
0.1585,-3.873779296875,4.974853515625,-0.310302734375
0.159,-2.592529296875,5.054931640625,-1.551513671875
0.1595,-1.311279296875,5.255126953125,-2.992919921875
0.16,-0.390380859375,5.495361328125,-4.234130859375
0.1605,0.290283203125,5.735595703125,-5.074951171875
0.161,0.970947265625,5.415283203125,-5.595458984375
0.1615,2.011962890625,4.494384765625,-5.875732421875
0.162,3.333251953125,3.253173828125,-6.115966796875
0.1625,4.494384765625,1.971923828125,-6.236083984375
0.163,5.135009765625,1.091064453125,-6.356201171875
0.1635,5.375244140625,0.490478515625,-6.276123046875
0.164,5.175048828125,-0.310302734375,-5.635498046875
0.1645,4.854736328125,-1.351318359375,-4.594482421875
0.165,4.734619140625,-2.712646484375,-3.353271484375
0.1655,4.734619140625,-3.953857421875,-2.312255859375
0.166,4.614501953125,-4.794677734375,-1.591552734375
0.1665,4.214111328125,-5.235107421875,-0.910888671875
0.167,3.333251953125,-5.435302734375,0.130126953125
0.1675,2.172119140625,-5.635498046875,1.451416015625
0.168,0.890869140625,-5.795654296875,2.932861328125
0.1685,0.170166015625,-6.196044921875,4.013916015625
0.169,-0.510498046875,-6.396240234375,4.814697265625
0.1695,-1.311279296875,-5.995849609375,5.255126953125
0.17,-2.432373046875,-4.954833984375,5.575439453125
0.1705,-3.713623046875,-3.713623046875,5.815673828125
0.171,-4.794677734375,-2.552490234375,6.055908203125
0.1715,-5.315185546875,-1.911865234375,6.176025390625
0.172,-5.475341796875,-1.231201171875,5.935791015625
0.1725,-5.275146484375,-0.430419921875,5.255126953125
0.173,-5.114990234375,0.770751953125,4.214111328125
0.1735,-4.994873046875,2.092041015625,3.012939453125
0.174,-5.074951171875,3.293212890625,2.172119140625
0.1745,-4.954833984375,4.013916015625,1.491455078125
0.175,-4.474365234375,4.414306640625,0.770751953125
0.1755,-3.473388671875,4.574462890625,-0.390380859375
0.176,-2.352294921875,4.854736328125,-1.751708984375
0.1765,-1.231201171875,5.175048828125,-3.193115234375
0.177,-0.630615234375,5.535400390625,-4.154052734375
0.1775,0.130126953125,5.575439453125,-4.874755859375
0.178,1.051025390625,5.054931640625,-5.275146484375
0.1785,2.252197265625,3.973876953125,-5.635498046875
0.179,3.533447265625,2.732666015625,-5.835693359375
0.1795,4.494384765625,1.771728515625,-6.115966796875
0.18,4.854736328125,1.131103515625,-6.196044921875
0.1805,4.934814453125,0.490478515625,-5.835693359375
0.181,4.774658203125,-0.550537109375,-5.074951171875
0.1815,4.654541015625,-1.711669921875,-4.033935546875
0.182,4.654541015625,-3.072998046875,-2.912841796875
0.1825,4.654541015625,-4.114013671875,-2.112060546875
0.183,4.494384765625,-4.754638671875,-1.471435546875
0.1835,3.853759765625,-4.994873046875,-0.670654296875
0.184,2.852783203125,-5.275146484375,0.570556640625
0.1845,1.571533203125,-5.555419921875,1.971923828125
0.185,0.730712890625,-5.955810546875,3.253173828125
0.1855,0.130126953125,-6.276123046875,4.134033203125
0.186,-0.670654296875,-6.115966796875,4.814697265625
0.1865,-1.671630859375,-5.355224609375,5.175048828125
0.187,-2.912841796875,-4.314208984375,5.495361328125
0.1875,-4.154052734375,-3.072998046875,5.775634765625
0.188,-4.914794921875,-2.232177734375,6.015869140625
