wavelength,x,y,z
0.0,4.2491455078125,-19.053588867188,14.779418945312
0.0005,7.1719970703125,-19.734252929688,12.777465820312
0.001,10.094848632812,-19.694213867188,10.094848632812
0.0015,13.858520507812,-18.733276367188,5.4503173828125
0.002,16.941528320312,-17.331909179688,1.2862548828125
0.0025,18.943481445312,-15.690307617188,-2.4373779296875
0.003,19.784301757812,-13.728393554688,-5.1600341796875
0.0035,19.944458007812,-11.045776367188,-8.2030029296875
0.004,19.784301757812,-7.5623779296875,-11.326049804688
0.0045,19.223754882812,-3.5584716796875,-14.849487304688
0.005,17.622192382812,0.8458251953125,-17.572143554688
0.0055,15.860473632812,3.8487548828125,-18.933471679688
0.006,13.938598632812,6.6915283203125,-19.854370117188
0.0065,10.775512695312,9.6143798828125,-19.734252929688
0.007,6.0909423828125,13.257934570312,-18.853393554688
0.0075,1.6065673828125,16.340942382812,-17.652221679688
0.008,-2.6375732421875,18.503051757812,-15.850463867188
0.0085,-5.4403076171875,19.263793945312,-14.088745117188
0.009,-8.3231201171875,19.504028320312,-11.606323242188
0.0095,-11.526245117188,19.263793945312,-8.4832763671875
0.01,-15.009643554688,18.262817382812,-4.0789794921875
0.0105,-17.812377929688,16.501098632812,0.4854736328125
0.011,-19.253784179688,14.779418945312,3.5684814453125
0.0115,-20.014526367188,12.737426757812,6.2911376953125
0.012,-20.014526367188,9.7344970703125,9.2540283203125
0.0125,-19.494018554688,5.8106689453125,12.737426757812
0.013,-18.733276367188,1.9268798828125,15.940551757812
0.0135,-17.091674804688,-2.1571044921875,18.302856445312
0.014,-15.209838867188,-4.9197998046875,19.223754882812
0.0145,-12.927612304688,-7.7225341796875,19.824340820312
0.015,-9.4842529296875,-10.885620117188,19.704223632812
0.0155,-4.5594482421875,-14.409057617188,18.543090820312
0.016,0.0850830078125,-17.131713867188,16.781372070312
0.0165,3.5284423828125,-18.933471679688,15.339965820312
0.017,6.2911376953125,-19.534057617188,13.418090820312
0.0175,9.1339111328125,-19.574096679688,10.735473632812
0.018,12.657348632812,-19.013549804688,6.9718017578125
0.0185,15.980590820312,-17.932495117188,2.6876220703125
0.019,18.422973632812,-16.010620117188,-1.5965576171875
0.0195,19.343872070312,-14.248901367188,-4.2791748046875
0.02,19.864379882812,-11.966674804688,-7.0418701171875
0.0205,19.864379882812,-8.7635498046875,-10.244995117188
0.021,19.223754882812,-4.6795654296875,-13.688354492188
0.0215,18.062622070312,-0.6756591796875,-16.531127929688
0.022,16.501098632812,3.0079345703125,-18.653198242188
0.0225,14.379028320312,5.7305908203125,-19.373901367188
0.023,11.776489257812,8.4932861328125,-19.614135742188
0.0235,7.6925048828125,11.976684570312,-19.333862304688
0.024,3.0479736328125,15.420043945312,-18.132690429688
0.0245,-1.5565185546875,17.742309570312,-16.170776367188
0.025,-4.4393310546875,19.023559570312,-14.689331054688
0.0255,-7.3621826171875,19.584106445312,-12.687377929688
0.026,-10.365112304688,19.383911132812,-9.6444091796875
0.0265,-13.848510742188,18.663208007812,-5.5604248046875
0.027,-16.971557617188,17.221801757812,-1.1561279296875
0.0275,-19.173706054688,15.420043945312,2.8477783203125
0.028,-19.774291992188,13.418090820312,5.4102783203125
0.0285,-20.214721679688,10.855590820312,8.3331298828125
0.029,-19.934448242188,7.0919189453125,11.856567382812
0.0295,-19.253784179688,3.1280517578125,15.219848632812
0.03,-17.652221679688,-0.9959716796875,17.742309570312
0.0305,-16.050659179688,-4.2391357421875,19.423950195312
0.031,-13.848510742188,-7.0418701171875,20.064575195312
0.0315,-10.525268554688,-10.124877929688,19.904418945312
0.032,-6.2410888671875,-13.568237304688,19.223754882812
0.0325,-1.2762451171875,-16.931518554688,17.782348632812
0.033,3.0079345703125,-18.973510742188,15.900512695312
0.0335,5.7305908203125,-19.774291992188,14.138793945312
0.034,8.7335205078125,-20.214721679688,11.816528320312
0.0345,12.337036132812,-19.654174804688,7.9327392578125
0.035,15.620239257812,-18.653198242188,3.8487548828125
0.0355,18.382934570312,-16.971557617188,-0.6356201171875
0.036,20.184692382812,-15.129760742188,-4.1590576171875
0.0365,20.545043945312,-12.807495117188,-6.8416748046875
0.037,20.745239257812,-9.7645263671875,-10.084838867188
0.0375,20.184692382812,-5.7205810546875,-13.608276367188
0.038,19.223754882812,-1.3963623046875,-16.931518554688
0.0385,17.301879882812,2.6475830078125,-19.093627929688
0.039,15.219848632812,5.4903564453125,-20.254760742188
0.0395,12.857543945312,8.5733642578125,-20.735229492188
0.04,8.6934814453125,12.176879882812,-20.214721679688
0.0405,4.3292236328125,15.299926757812,-19.213745117188
0.041,-0.7156982421875,18.182739257812,-17.371948242188
0.0415,-4.5994873046875,19.984497070312,-15.570190429688
0.042,-7.2821044921875,20.304809570312,-13.408081054688
0.0425,-10.244995117188,20.505004882812,-10.925659179688
0.043,-14.128784179688,19.704223632812,-6.4012451171875
0.0435,-17.331909179688,18.262817382812,-1.8768310546875
0.044,-19.614135742188,16.340942382812,2.3673095703125
0.0445,-20.975463867188,14.338989257812,5.5704345703125
0.045,-21.135620117188,11.736450195312,8.3731689453125
0.0455,-21.015502929688,8.0128173828125,11.976684570312
0.046,-20.214721679688,4.1290283203125,15.139770507812
0.0465,-18.933471679688,-0.3553466796875,18.262817382812
0.047,-16.971557617188,-4.1590576171875,20.184692382812
0.0475,-14.729370117188,-6.8416748046875,20.625122070312
0.048,-12.206909179688,-9.7645263671875,21.105590820312
0.0485,-7.1619873046875,-13.728393554688,20.184692382812
0.049,-2.4774169921875,-16.811401367188,18.823364257812
0.0495,1.9669189453125,-19.093627929688,16.821411132812
0.05,5.4903564453125,-20.535034179688,15.139770507812
0.0505,8.3331298828125,-20.615112304688,12.617309570312
0.051,11.496215820312,-20.454956054688,9.5743408203125
0.0515,15.139770507812,-19.614135742188,5.2100830078125
0.052,18.302856445312,-17.892456054688,0.4454345703125
0.0525,20.184692382812,-15.970581054688,-3.3582763671875
0.053,20.945434570312,-13.808471679688,-6.2010498046875
0.0535,21.185668945312,-11.165893554688,-9.1239013671875
0.054,20.705200195312,-6.7215576171875,-13.087768554688
0.0545,19.864379882812,-2.8778076171875,-16.050659179688
0.055,18.222778320312,1.3262939453125,-18.653198242188
0.0555,16.380981445312,4.9698486328125,-20.494995117188
0.056,13.658325195312,7.6925048828125,-20.535034179688
0.0565,10.815551757812,10.695434570312,-20.815307617188
0.057,5.8106689453125,14.579223632812,-19.894409179688
0.0575,0.6856689453125,17.622192382812,-18.252807617188
0.058,-3.1981201171875,19.504028320312,-16.290893554688
0.0585,-6.3211669921875,20.545043945312,-14.609252929688
0.059,-9.3240966796875,20.745239257812,-12.006713867188
0.0595,-12.967651367188,20.064575195312,-7.8026123046875
0.06,-16.210815429688,19.143676757812,-3.7987060546875
0.0605,-19.213745117188,17.261840820312,1.0059814453125
0.061,-20.815307617188,15.219848632812,4.6094970703125
0.0615,-21.135620117188,12.737426757812,7.3721923828125
0.062,-21.495971679688,9.9747314453125,10.455200195312
0.0625,-20.815307617188,5.2901611328125,14.499145507812
0.063,-19.614135742188,1.0860595703125,17.622192382812
0.0635,-17.812377929688,-2.8377685546875,19.664184570312
0.064,-16.050659179688,-6.1610107421875,21.265747070312
0.0645,-12.967651367188,-9.1239013671875,21.225708007812
0.065,-9.0438232421875,-12.607299804688,20.905395507812
0.0655,-4.3992919921875,-16.210815429688,19.904418945312
0.066,1.0460205078125,-19.093627929688,17.822387695312
0.0665,4.6895751953125,-20.655151367188,15.980590820312
0.067,7.8126220703125,-21.095581054688,13.778442382812
0.0675,10.815551757812,-21.495971679688,11.175903320312
0.068,15.019653320312,-20.374877929688,6.0909423828125
0.0685,18.222778320312,-19.013549804688,1.6065673828125
0.069,20.625122070312,-17.051635742188,-2.6375732421875
0.0695,21.946411132812,-14.969604492188,-6.0408935546875
0.07,21.906372070312,-11.886596679688,-9.0438232421875
0.0705,21.906372070312,-8.4832763671875,-12.527221679688
0.071,21.185668945312,-4.0389404296875,-16.250854492188
0.0715,19.504028320312,0.8858642578125,-19.453979492188
0.072,17.341918945312,4.5694580078125,-21.015502929688
0.0725,15.219848632812,7.6925048828125,-22.096557617188
0.073,11.976684570312,10.815551757812,-22.096557617188
0.0735,6.6514892578125,14.859497070312,-21.095581054688
0.074,2.0469970703125,18.062622070312,-19.814331054688
0.0745,-3.0780029296875,20.625122070312,-17.612182617188
0.075,-6.5614013671875,21.826293945312,-15.530151367188
0.0755,-9.7645263671875,21.826293945312,-12.567260742188
0.076,-12.927612304688,21.786254882812,-9.6444091796875
0.0765,-17.011596679688,20.464965820312,-4.4393310546875
0.077,-20.214721679688,18.382934570312,0.8858642578125
0.0775,-21.896362304688,16.340942382812,4.5294189453125
0.078,-22.857299804688,13.978637695312,7.8126220703125
0.0785,-22.657104492188,10.575317382812,10.935668945312
0.079,-22.056518554688,6.2510986328125,14.739379882812
0.0795,-21.135620117188,2.0469970703125,18.062622070312
0.08,-19.213745117188,-2.7176513671875,20.945434570312
0.0805,-16.811401367188,-6.2811279296875,22.106567382812
0.081,-14.088745117188,-9.3240966796875,22.506958007812
0.0815,-10.845581054688,-12.527221679688,22.506958007812
0.082,-4.9598388671875,-16.611206054688,20.985473632812
0.0825,0.2052001953125,-19.574096679688,19.103637695312
0.083,4.3292236328125,-21.495971679688,17.101684570312
0.0835,7.8126220703125,-22.416870117188,14.859497070312
0.084,11.135864257812,-22.096557617188,11.496215820312
0.0845,14.579223632812,-21.495971679688,7.6925048828125
0.085,18.182739257812,-20.254760742188,3.0079345703125
0.0855,21.105590820312,-17.892456054688,-2.2772216796875
0.086,22.226684570312,-15.690307617188,-5.5203857421875
0.0865,22.747192382812,-13.287963867188,-8.8436279296875
0.087,22.587036132812,-9.8446044921875,-11.806518554688
0.0875,21.706176757812,-4.8797607421875,-15.890502929688
0.088,20.344848632812,-0.5955810546875,-18.853393554688
0.0885,18.463012695312,3.6485595703125,-21.135620117188
0.089,16.060668945312,7.0518798828125,-22.296752929688
0.0895,12.697387695312,10.094848632812,-22.136596679688
0.09,9.0538330078125,13.498168945312,-21.936401367188
0.0905,3.6485595703125,17.341918945312,-20.575073242188
0.091,-1.9168701171875,20.144653320312,-18.132690429688
0.0915,-5.3201904296875,21.425903320312,-16.290893554688
0.092,-8.5233154296875,22.146606445312,-14.088745117188
0.0925,-11.726440429688,21.826293945312,-10.765502929688
0.093,-15.570190429688,20.705200195312,-6.0408935546875
0.0935,-18.853393554688,19.343872070312,-1.4764404296875
0.094,-21.536010742188,17.021606445312,3.3282470703125
0.0945,-22.176635742188,14.779418945312,6.4512939453125
0.095,-22.456909179688,11.736450195312,9.6143798828125
0.0955,-22.296752929688,8.3331298828125,12.817504882812
0.096,-21.335815429688,3.6085205078125,16.701293945312
0.0965,-19.534057617188,-1.1160888671875,19.584106445312
0.097,-17.652221679688,-4.6795654296875,21.265747070312
0.0975,-15.450073242188,-7.8426513671875,22.346801757812
0.098,-11.806518554688,-10.965698242188,21.946411132812
0.0985,-7.2420654296875,-14.689331054688,21.225708007812
0.099,-2.2371826171875,-18.132690429688,19.904418945312
0.0995,3.0479736328125,-20.655151367188,17.542114257812
0.1,6.1710205078125,-21.536010742188,15.500122070312
0.1005,9.3741455078125,-21.976440429688,12.977661132812
0.101,12.737426757812,-21.656127929688,9.5743408203125
0.1015,16.621215820312,-20.374877929688,4.6094970703125
0.102,19.704223632812,-18.613159179688,-0.1951904296875
0.1025,21.626098632812,-16.611206054688,-4.1590576171875
0.103,22.386840820312,-14.128784179688,-7.2420654296875
0.1035,22.346801757812,-10.765502929688,-10.565307617188
0.104,21.826293945312,-6.8016357421875,-14.088745117188
0.1045,21.025512695312,-2.4373779296875,-17.652221679688
0.105,18.943481445312,2.4073486328125,-20.414916992188
0.1055,16.701293945312,5.6905517578125,-21.656127929688
0.106,14.338989257812,8.8936767578125,-22.416870117188
0.1065,10.415161132812,12.296997070312,-22.056518554688
0.107,5.2501220703125,15.980590820312,-20.815307617188
0.1075,0.2852783203125,19.143676757812,-19.173706054688
0.108,-4.4393310546875,21.305786132812,-16.971557617188
0.1085,-7.4822998046875,21.866333007812,-14.729370117188
0.109,-10.805541992188,21.906372070312,-11.846557617188
0.1095,-14.369018554688,21.385864257812,-7.8426513671875
0.11,-18.012573242188,19.944458007812,-2.9178466796875
0.1105,-20.815307617188,17.742309570312,2.0870361328125
0.111,-22.296752929688,15.580200195312,5.6104736328125
0.1115,-22.817260742188,12.937622070312,8.7735595703125
0.112,-22.657104492188,9.2540283203125,12.216918945312
0.1125,-21.816284179688,4.8497314453125,15.860473632812
0.113,-20.655151367188,0.4454345703125,19.183715820312
0.1135,-18.453002929688,-4.1990966796875,21.586059570312
0.114,-16.090698242188,-7.2020263671875,22.266723632812
0.1145,-13.247924804688,-10.325073242188,22.707153320312
0.115,-8.9237060546875,-14.048706054688,22.186645507812
0.1155,-3.4783935546875,-17.652221679688,20.585083007812
0.116,1.6466064453125,-20.254760742188,18.422973632812
0.1165,5.5704345703125,-21.976440429688,16.501098632812
0.117,8.6934814453125,-22.416870117188,13.978637695312
0.1175,12.056762695312,-22.096557617188,10.615356445312
0.118,15.820434570312,-21.215698242188,6.2110595703125
0.1185,19.223754882812,-19.574096679688,1.2862548828125
0.119,21.706176757812,-17.291870117188,-3.4383544921875
0.1195,22.466918945312,-15.009643554688,-6.4813232421875
0.12,22.907348632812,-12.166870117188,-9.7244873046875
0.1205,22.466918945312,-8.0828857421875,-13.448120117188
0.121,21.465942382812,-3.5985107421875,-16.931518554688
0.1215,19.784301757812,0.8858642578125,-19.934448242188
0.122,17.782348632812,5.0499267578125,-21.896362304688
0.1225,15.059692382812,8.0528564453125,-22.296752929688
0.123,11.856567382812,11.175903320312,-22.296752929688
0.1235,7.1719970703125,15.019653320312,-21.576049804688
0.124,1.8468017578125,18.463012695312,-19.934448242188
0.1245,-3.0780029296875,20.665161132812,-17.572143554688
0.125,-6.3612060546875,21.786254882812,-15.690307617188
0.1255,-9.5242919921875,22.146606445312,-13.127807617188
0.126,-13.047729492188,21.586059570312,-9.2440185546875
0.1265,-16.571166992188,20.505004882812,-4.8397216796875
0.127,-19.774291992188,18.623168945312,0.2052001953125
0.1275,-21.896362304688,16.421020507812,4.4493408203125
0.128,-22.336791992188,13.938598632812,7.3321533203125
0.1285,-22.577026367188,10.935668945312,10.535278320312
0.129,-22.056518554688,6.5313720703125,14.379028320312
0.1295,-21.015502929688,2.1671142578125,17.822387695312
0.13,-19.053588867188,-2.2371826171875,20.304809570312
0.1305,-17.131713867188,-5.7606201171875,21.906372070312
0.131,-14.409057617188,-8.7635498046875,22.266723632812
0.1315,-10.525268554688,-12.166870117188,21.906372070312
0.132,-5.8006591796875,-15.730346679688,20.945434570312
0.1325,-0.4354248046875,-19.093627929688,19.143676757812
0.133,4.0889892578125,-21.055541992188,16.941528320312
0.1335,7.0518798828125,-21.696166992188,14.859497070312
0.134,10.295043945312,-22.056518554688,12.216918945312
0.1345,14.218872070312,-21.255737304688,7.7325439453125
0.135,17.582153320312,-20.014526367188,3.3282470703125
0.1355,20.344848632812,-18.012573242188,-1.4364013671875
0.136,22.106567382812,-15.970581054688,-5.2000732421875
0.1365,22.386840820312,-13.287963867188,-8.2030029296875
0.137,22.426879882812,-9.9246826171875,-11.606323242188
0.1375,21.706176757812,-5.4803466796875,-15.410034179688
0.138,20.464965820312,-0.9959716796875,-18.893432617188
0.1385,18.302856445312,3.4884033203125,-20.855346679688
0.139,16.180786132812,6.6915283203125,-21.976440429688
0.1395,13.378051757812,9.8546142578125,-22.456909179688
0.14,8.6134033203125,13.738403320312,-21.736206054688
0.1405,4.0089111328125,16.941528320312,-20.535034179688
0.141,-1.3563232421875,19.864379882812,-18.453002929688
0.1415,-5.4403076171875,21.706176757812,-16.411010742188
0.142,-8.3631591796875,21.826293945312,-13.888549804688
0.1425,-11.566284179688,22.026489257812,-11.165893554688
0.143,-15.690307617188,20.985473632812,-6.1610107421875
0.1435,-19.013549804688,19.343872070312,-1.2762451171875
0.144,-21.295776367188,17.221801757812,3.1280517578125
0.1445,-22.657104492188,14.979614257812,6.5714111328125
0.145,-22.777221679688,12.016723632812,9.6544189453125
0.1455,-22.577026367188,7.8927001953125,13.538208007812
0.146,-21.656127929688,3.8087158203125,16.861450195312
0.1465,-20.134643554688,-1.0360107421875,20.104614257812
0.147,-17.852416992188,-5.1199951171875,21.906372070312
0.1475,-15.289916992188,-7.9627685546875,22.386840820312
0.148,-12.447143554688,-11.125854492188,22.747192382812
0.1485,-6.8817138671875,-15.369995117188,21.546020507812
0.149,-1.9168701171875,-18.453002929688,19.984497070312
0.1495,2.8077392578125,-20.695190429688,17.782348632812
0.15,6.5313720703125,-22.136596679688,15.820434570312
0.1505,9.6143798828125,-22.056518554688,12.857543945312
0.151,12.977661132812,-21.776245117188,9.4141845703125
0.1515,16.781372070312,-20.775268554688,4.8096923828125
0.152,20.024536132812,-18.733276367188,-0.4354248046875
0.1525,21.826293945312,-16.611206054688,-4.2391357421875
0.153,22.426879882812,-14.168823242188,-7.3221435546875
0.1535,22.627075195312,-11.326049804688,-10.365112304688
0.154,21.946411132812,-6.4012451171875,-14.569213867188
0.1545,20.905395507812,-2.3973388671875,-17.652221679688
0.155,19.143676757812,2.0469970703125,-20.214721679688
0.1555,17.021606445312,5.8106689453125,-21.936401367188
0.156,13.978637695312,8.6534423828125,-21.816284179688
0.1565,10.815551757812,11.816528320312,-21.976440429688
0.157,5.4903564453125,15.740356445312,-20.975463867188
0.1575,0.2852783203125,19.103637695312,-18.733276367188
0.158,-3.7987060546875,20.625122070312,-16.891479492188
0.1585,-7.0819091796875,21.666137695312,-14.929565429688
0.159,-10.124877929688,21.666137695312,-12.126831054688
0.1595,-13.928588867188,20.785278320312,-7.6824951171875
0.16,-17.171752929688,19.784301757812,-3.5584716796875
0.1605,-20.094604492188,17.662231445312,1.4063720703125
0.161,-21.576049804688,15.540161132812,4.9698486328125
0.1615,-21.816284179688,12.897583007812,7.7725830078125
0.162,-22.096557617188,10.094848632812,10.935668945312
0.1625,-21.335815429688,5.2501220703125,15.059692382812
0.163,-20.014526367188,0.9259033203125,18.142700195312
0.1635,-18.132690429688,-2.9578857421875,20.064575195312
0.164,-16.330932617188,-6.2811279296875,21.626098632812
0.1645,-13.207885742188,-9.1639404296875,21.505981445312
0.165,-9.0438232421875,-12.767456054688,21.105590820312
0.1655,-4.5194091796875,-16.370971679688,20.144653320312
0.166,0.9259033203125,-19.173706054688,17.982543945312
0.1665,4.5294189453125,-20.615112304688,16.140747070312
0.167,7.4923095703125,-21.135620117188,13.938598632812
0.1675,10.535278320312,-21.415893554688,11.376098632812
0.168,14.739379882812,-20.294799804688,6.2510986328125
0.1685,17.862426757812,-18.973510742188,1.9268798828125
0.169,20.184692382812,-17.131713867188,-2.1571044921875
0.1695,21.465942382812,-15.089721679688,-5.4803466796875
0.17,21.465942382812,-12.166870117188,-8.3231201171875
0.1705,21.465942382812,-8.6834716796875,-11.846557617188
0.171,20.825317382812,-4.4393310546875,-15.530151367188
0.1715,19.263793945312,0.3253173828125,-18.613159179688
0.172,17.261840820312,3.8887939453125,-20.214721679688
0.1725,15.139770507812,6.8917236328125,-21.215698242188
0.173,12.296997070312,9.8946533203125,-21.455932617188
0.1735,7.0518798828125,13.978637695312,-20.374877929688
0.174,2.5675048828125,17.061645507812,-19.293823242188
0.1745,-2.1971435546875,19.544067382812,-17.291870117188
0.175,-5.7205810546875,20.865356445312,-15.369995117188
0.1755,-8.6834716796875,20.865356445312,-12.687377929688
0.176,-11.766479492188,20.945434570312,-9.8846435546875
0.1765,-15.810424804688,19.824340820312,-5.1199951171875
0.177,-18.933471679688,17.902465820312,0.1251220703125
0.1775,-20.655151367188,15.980590820312,3.5684814453125
0.178,-21.656127929688,13.898559570312,6.6915283203125
