wavelength,x,y,z
0.0,-1.671630859375,5.255126953125,-2.712646484375
0.0005,-0.870849609375,5.615478515625,-3.833740234375
0.001,-0.230224609375,5.735595703125,-4.674560546875
0.0015,0.730712890625,5.295166015625,-5.155029296875
0.002,1.851806640625,4.414306640625,-5.475341796875
0.0025,3.133056640625,3.333251953125,-5.915771484375
0.003,4.134033203125,2.252197265625,-6.115966796875
0.0035,4.774658203125,1.411376953125,-6.236083984375
0.004,4.974853515625,0.690673828125,-5.995849609375
0.0045,4.854736328125,-0.230224609375,-5.315185546875
0.005,4.774658203125,-1.271240234375,-4.514404296875
0.0055,4.774658203125,-2.552490234375,-3.473388671875
0.006,4.734619140625,-3.713623046875,-2.512451171875
0.0065,4.614501953125,-4.554443359375,-1.751708984375
0.007,4.013916015625,-4.994873046875,-0.910888671875
0.0075,3.093017578125,-5.195068359375,0.210205078125
0.008,2.132080078125,-5.635498046875,1.531494140625
0.0085,1.131103515625,-5.915771484375,2.852783203125
0.009,0.370361328125,-6.316162109375,3.853759765625
0.0095,-0.430419921875,-6.316162109375,4.574462890625
0.01,-1.351318359375,-5.635498046875,5.014892578125
0.0105,-2.472412109375,-4.754638671875,5.375244140625
0.011,-3.713623046875,-3.713623046875,5.775634765625
0.0115,-4.554443359375,-2.672607421875,5.935791015625
0.012,-5.074951171875,-1.991943359375,6.015869140625
0.0125,-5.155029296875,-1.231201171875,5.615478515625
0.013,-4.994873046875,-0.350341796875,4.854736328125
0.0135,-5.074951171875,0.850830078125,4.093994140625
0.014,-5.074951171875,2.092041015625,3.093017578125
0.0145,-5.034912109375,3.173095703125,2.252197265625
0.015,-4.834716796875,3.853759765625,1.451416015625
0.0155,-4.154052734375,4.254150390625,0.610595703125
0.016,-3.233154296875,4.534423828125,-0.590576171875
0.0165,-2.272216796875,5.054931640625,-1.951904296875
0.017,-1.391357421875,5.295166015625,-3.113037109375
0.0175,-0.710693359375,5.655517578125,-4.114013671875
0.018,0.130126953125,5.535400390625,-4.754638671875
0.0185,1.251220703125,4.774658203125,-5.155029296875
0.019,2.412353515625,3.853759765625,-5.635498046875
0.0195,3.573486328125,2.772705078125,-5.955810546875
0.02,4.414306640625,1.851806640625,-6.115966796875
0.0205,4.774658203125,1.131103515625,-6.115966796875
0.021,4.814697265625,0.370361328125,-5.635498046875
0.0215,4.654541015625,-0.670654296875,-4.834716796875
0.022,4.774658203125,-1.951904296875,-3.913818359375
0.0225,4.774658203125,-3.153076171875,-2.952880859375
0.023,4.694580078125,-4.154052734375,-2.112060546875
0.0235,4.334228515625,-4.754638671875,-1.351318359375
0.024,3.493408203125,-5.074951171875,-0.350341796875
0.0245,2.572509765625,-5.435302734375,0.930908203125
0.025,1.531494140625,-5.795654296875,2.292236328125
0.0255,0.690673828125,-6.196044921875,3.453369140625
0.026,0.010009765625,-6.356201171875,4.334228515625
0.0265,-0.910888671875,-5.915771484375,4.854736328125
0.027,-2.072021484375,-5.034912109375,5.215087890625
0.0275,-3.273193359375,-4.033935546875,5.695556640625
0.028,-4.354248046875,-2.952880859375,5.935791015625
0.0285,-4.994873046875,-2.152099609375,6.055908203125
0.029,-5.155029296875,-1.431396484375,5.775634765625
0.0295,-5.074951171875,-0.590576171875,5.094970703125
0.03,-4.994873046875,0.530517578125,4.334228515625
0.0305,-5.114990234375,1.851806640625,3.333251953125
0.031,-5.074951171875,2.972900390625,2.412353515625
0.0315,-4.914794921875,3.813720703125,1.611572265625
0.032,-4.354248046875,4.214111328125,0.810791015625
0.0325,-3.433349609375,4.454345703125,-0.310302734375
0.033,-2.472412109375,4.854736328125,-1.631591796875
0.0335,-1.511474609375,5.255126953125,-2.952880859375
0.034,-0.790771484375,5.615478515625,-3.993896484375
0.0345,0.010009765625,5.615478515625,-4.754638671875
0.035,1.010986328125,4.974853515625,-5.195068359375
0.0355,2.212158203125,4.013916015625,-5.595458984375
0.036,3.453369140625,2.932861328125,-5.955810546875
0.0365,4.374267578125,1.931884765625,-6.156005859375
0.037,4.854736328125,1.171142578125,-6.236083984375
0.0375,4.934814453125,0.370361328125,-5.755615234375
0.038,4.774658203125,-0.630615234375,-4.994873046875
0.0385,4.774658203125,-1.831787109375,-4.073974609375
0.039,4.774658203125,-3.153076171875,-3.032958984375
0.0395,4.734619140625,-4.194091796875,-2.112060546875
0.04,4.494384765625,-4.914794921875,-1.311279296875
0.0405,3.693603515625,-5.195068359375,-0.390380859375
0.041,2.652587890625,-5.475341796875,0.810791015625
0.0415,1.571533203125,-5.915771484375,2.292236328125
0.042,0.610595703125,-6.156005859375,3.533447265625
0.0425,-0.150146484375,-6.436279296875,4.494384765625
0.043,-0.990966796875,-6.115966796875,5.094970703125
0.0435,-2.072021484375,-5.195068359375,5.415283203125
0.044,-3.313232421875,-4.154052734375,5.815673828125
0.0445,-4.514404296875,-3.032958984375,6.095947265625
0.045,-5.195068359375,-2.031982421875,6.176025390625
0.0455,-5.515380859375,-1.311279296875,6.015869140625
0.046,-5.395263671875,-0.470458984375,5.335205078125
0.0465,-5.155029296875,0.650634765625,4.334228515625
0.047,-5.195068359375,1.971923828125,3.333251953125
0.0475,-5.155029296875,3.213134765625,2.292236328125
0.048,-4.994873046875,4.134033203125,1.411376953125
0.0485,-4.514404296875,4.614501953125,0.610595703125
0.049,-3.553466796875,4.774658203125,-0.510498046875
0.0495,-2.432373046875,5.054931640625,-1.791748046875
0.05,-1.311279296875,5.415283203125,-3.193115234375
0.0505,-0.510498046875,5.695556640625,-4.314208984375
0.051,0.250244140625,5.815673828125,-5.114990234375
0.0515,1.211181640625,5.175048828125,-5.555419921875
0.052,2.412353515625,4.093994140625,-5.835693359375
0.0525,3.733642578125,2.932861328125,-6.276123046875
0.053,4.694580078125,1.771728515625,-6.396240234375
0.0535,5.255126953125,0.930908203125,-6.396240234375
0.054,5.335205078125,0.170166015625,-6.035888671875
0.0545,5.094970703125,-0.910888671875,-5.155029296875
0.055,4.934814453125,-2.072021484375,-4.073974609375
0.0555,4.934814453125,-3.473388671875,-2.912841796875
0.056,4.814697265625,-4.634521484375,-1.911865234375
0.0565,4.614501953125,-5.395263671875,-1.191162109375
0.057,3.813720703125,-5.715576171875,-0.190185546875
0.0575,2.612548828125,-5.795654296875,1.091064453125
0.058,1.411376953125,-6.115966796875,2.572509765625
0.0585,0.330322265625,-6.396240234375,3.933837890625
0.059,-0.510498046875,-6.596435546875,4.934814453125
0.0595,-1.271240234375,-6.396240234375,5.575439453125
0.06,-2.392333984375,-5.475341796875,5.895751953125
0.0605,-3.633544921875,-4.234130859375,6.176025390625
0.061,-4.874755859375,-2.952880859375,6.456298828125
0.0615,-5.715576171875,-1.831787109375,6.496337890625
0.062,-6.035888671875,-1.031005859375,6.376220703125
0.0625,-5.875732421875,-0.190185546875,5.695556640625
0.063,-5.555419921875,1.010986328125,4.494384765625
0.0635,-5.435302734375,2.372314453125,3.333251953125
0.064,-5.315185546875,3.733642578125,2.092041015625
0.0645,-5.114990234375,4.654541015625,1.091064453125
0.065,-4.634521484375,5.215087890625,0.290283203125
0.0655,-3.593505859375,5.335205078125,-0.830810546875
0.066,-2.272216796875,5.455322265625,-2.192138671875
0.0665,-0.990966796875,5.775634765625,-3.793701171875
0.067,0.050048828125,5.935791015625,-4.954833984375
0.0675,0.690673828125,6.055908203125,-5.755615234375
0.068,1.611572265625,5.495361328125,-6.276123046875
0.0685,2.892822265625,4.214111328125,-6.436279296875
0.069,4.214111328125,2.892822265625,-6.756591796875
0.0695,5.295166015625,1.571533203125,-6.876708984375
0.07,5.855712890625,0.570556640625,-6.716552734375
0.0705,5.975830078125,-0.350341796875,-6.396240234375
0.071,5.695556640625,-1.351318359375,-5.435302734375
0.0715,5.255126953125,-2.552490234375,-4.114013671875
0.072,5.135009765625,-3.993896484375,-2.752685546875
0.0725,4.894775390625,-5.275146484375,-1.511474609375
0.073,4.614501953125,-6.075927734375,-0.670654296875
0.0735,3.893798828125,-6.396240234375,0.290283203125
0.074,2.572509765625,-6.356201171875,1.531494140625
0.0745,1.171142578125,-6.476318359375,3.052978515625
0.075,-0.270263671875,-6.636474609375,4.534423828125
0.0755,-1.031005859375,-6.716552734375,5.535400390625
0.076,-1.671630859375,-6.676513671875,6.176025390625
0.0765,-2.712646484375,-5.755615234375,6.456298828125
0.077,-3.993896484375,-4.314208984375,6.616455078125
0.0775,-5.275146484375,-2.952880859375,6.856689453125
0.078,-6.115966796875,-1.671630859375,6.776611328125
0.0785,-6.436279296875,-0.790771484375,6.576416015625
0.079,-6.356201171875,0.170166015625,5.935791015625
0.0795,-5.915771484375,1.251220703125,4.814697265625
0.08,-5.635498046875,2.532470703125,3.493408203125
0.0805,-5.435302734375,3.973876953125,2.172119140625
0.081,-5.195068359375,4.974853515625,1.010986328125
0.0815,-4.794677734375,5.575439453125,0.210205078125
0.082,-3.833740234375,5.735595703125,-0.830810546875
0.0825,-2.432373046875,5.695556640625,-2.112060546875
0.083,-1.111083984375,5.935791015625,-3.713623046875
0.0835,0.170166015625,6.055908203125,-4.994873046875
0.084,0.850830078125,6.135986328125,-5.915771484375
0.0845,1.571533203125,5.855712890625,-6.436279296875
0.085,2.732666015625,4.734619140625,-6.676513671875
0.0855,3.973876953125,3.333251953125,-6.836669921875
0.086,5.175048828125,1.931884765625,-6.996826171875
0.0865,5.895751953125,0.770751953125,-6.876708984375
0.087,6.095947265625,-0.190185546875,-6.596435546875
0.0875,5.895751953125,-0.990966796875,-5.915771484375
0.088,5.495361328125,-2.192138671875,-4.634521484375
0.0885,5.295166015625,-3.633544921875,-3.433349609375
0.089,5.094970703125,-4.874755859375,-2.031982421875
0.0895,4.814697265625,-5.795654296875,-0.990966796875
0.09,4.294189453125,-6.316162109375,-0.190185546875
0.0905,3.173095703125,-6.396240234375,0.970947265625
0.091,1.811767578125,-6.396240234375,2.332275390625
0.0915,0.410400390625,-6.636474609375,3.973876953125
0.092,-0.670654296875,-6.716552734375,5.094970703125
0.0925,-1.351318359375,-6.796630859375,5.895751953125
0.093,-2.192138671875,-6.276123046875,6.376220703125
0.0935,-3.433349609375,-4.954833984375,6.536376953125
0.094,-4.674560546875,-3.673583984375,6.776611328125
0.0945,-5.755615234375,-2.312255859375,6.856689453125
0.095,-6.356201171875,-1.271240234375,6.696533203125
0.0955,-6.396240234375,-0.470458984375,6.336181640625
0.096,-6.115966796875,0.610595703125,5.415283203125
0.0965,-5.795654296875,1.771728515625,4.214111328125
0.097,-5.595458984375,3.213134765625,2.812744140625
0.0975,-5.395263671875,4.454345703125,1.571533203125
0.098,-5.074951171875,5.295166015625,0.650634765625
0.0985,-4.354248046875,5.655517578125,-0.310302734375
0.099,-3.153076171875,5.695556640625,-1.431396484375
0.0995,-1.791748046875,5.815673828125,-2.952880859375
0.1,-0.470458984375,6.015869140625,-4.514404296875
0.1005,0.490478515625,6.135986328125,-5.515380859375
0.101,1.171142578125,6.095947265625,-6.236083984375
0.1015,2.172119140625,5.295166015625,-6.556396484375
0.102,3.453369140625,3.893798828125,-6.716552734375
0.1025,4.774658203125,2.532470703125,-7.036865234375
0.103,5.735595703125,1.251220703125,-7.036865234375
0.1035,6.135986328125,0.290283203125,-6.796630859375
0.104,6.095947265625,-0.670654296875,-6.276123046875
0.1045,5.735595703125,-1.671630859375,-5.114990234375
0.105,5.375244140625,-3.072998046875,-3.833740234375
0.1055,5.215087890625,-4.554443359375,-2.432373046875
0.106,4.974853515625,-5.635498046875,-1.271240234375
0.1065,4.534423828125,-6.276123046875,-0.430419921875
0.107,3.653564453125,-6.476318359375,0.650634765625
0.1075,2.252197265625,-6.436279296875,1.931884765625
0.108,0.770751953125,-6.636474609375,3.533447265625
0.1085,-0.510498046875,-6.716552734375,4.934814453125
0.109,-1.271240234375,-6.796630859375,5.815673828125
0.1095,-1.991943359375,-6.476318359375,6.376220703125
0.11,-3.153076171875,-5.395263671875,6.536376953125
0.1105,-4.394287109375,-3.993896484375,6.696533203125
0.111,-5.595458984375,-2.632568359375,6.896728515625
0.1115,-6.276123046875,-1.431396484375,6.736572265625
0.112,-6.436279296875,-0.630615234375,6.456298828125
0.1125,-6.115966796875,0.330322265625,5.615478515625
0.113,-5.755615234375,1.451416015625,4.494384765625
0.1135,-5.595458984375,2.812744140625,3.173095703125
0.114,-5.395263671875,4.134033203125,1.891845703125
0.1145,-5.074951171875,5.094970703125,0.890869140625
0.115,-4.554443359375,5.535400390625,0.050048828125
0.1155,-3.553466796875,5.615478515625,-0.990966796875
0.116,-2.192138671875,5.615478515625,-2.312255859375
0.1165,-0.910888671875,5.895751953125,-3.873779296875
0.117,0.250244140625,5.935791015625,-4.994873046875
0.1175,0.890869140625,6.055908203125,-5.795654296875
0.118,1.611572265625,5.575439453125,-6.276123046875
0.1185,2.772705078125,4.414306640625,-6.396240234375
0.119,4.053955078125,3.173095703125,-6.676513671875
0.1195,5.094970703125,1.851806640625,-6.796630859375
0.12,5.735595703125,0.770751953125,-6.676513671875
0.1205,5.775634765625,-0.190185546875,-6.436279296875
0.121,5.615478515625,-0.990966796875,-5.635498046875
0.1215,5.215087890625,-2.031982421875,-4.474365234375
0.122,5.094970703125,-3.393310546875,-3.233154296875
0.1225,4.934814453125,-4.634521484375,-2.072021484375
0.123,4.734619140625,-5.555419921875,-1.151123046875
0.1235,4.134033203125,-5.915771484375,-0.310302734375
0.124,3.052978515625,-6.035888671875,0.810791015625
0.1245,1.771728515625,-6.236083984375,2.212158203125
0.125,0.530517578125,-6.396240234375,3.693603515625
0.1255,-0.510498046875,-6.596435546875,4.814697265625
0.126,-1.111083984375,-6.716552734375,5.575439453125
0.1265,-1.991943359375,-6.035888671875,5.975830078125
0.127,-3.193115234375,-4.834716796875,6.176025390625
0.1275,-4.514404296875,-3.633544921875,6.496337890625
0.128,-5.475341796875,-2.352294921875,6.576416015625
0.1285,-6.075927734375,-1.551513671875,6.576416015625
0.129,-6.035888671875,-0.670654296875,6.055908203125
0.1295,-5.715576171875,0.330322265625,5.135009765625
0.13,-5.515380859375,1.531494140625,4.013916015625
0.1305,-5.435302734375,2.932861328125,2.812744140625
0.131,-5.275146484375,4.093994140625,1.731689453125
0.1315,-4.994873046875,4.854736328125,0.890869140625
0.132,-4.234130859375,5.094970703125,0.010009765625
0.1325,-3.072998046875,5.175048828125,-1.231201171875
0.133,-1.871826171875,5.535400390625,-2.672607421875
0.1335,-0.710693359375,5.695556640625,-3.993896484375
0.134,0.130126953125,5.895751953125,-4.994873046875
0.1345,0.810791015625,5.815673828125,-5.635498046875
0.135,1.851806640625,4.974853515625,-5.955810546875
0.1355,3.052978515625,3.813720703125,-6.276123046875
0.136,4.294189453125,2.532470703125,-6.516357421875
0.1365,5.054931640625,1.331298828125,-6.436279296875
0.137,5.495361328125,0.570556640625,-6.436279296875
0.1375,5.415283203125,-0.350341796875,-5.915771484375
0.138,5.094970703125,-1.271240234375,-4.914794921875
0.1385,4.974853515625,-2.512451171875,-3.833740234375
0.139,4.854736328125,-3.793701171875,-2.632568359375
0.1395,4.734619140625,-4.834716796875,-1.631591796875
0.14,4.414306640625,-5.475341796875,-0.910888671875
0.1405,3.533447265625,-5.635498046875,0.130126953125
0.141,2.412353515625,-5.755615234375,1.291259765625
0.1415,1.211181640625,-6.115966796875,2.772705078125
0.142,0.250244140625,-6.276123046875,3.933837890625
0.1425,-0.590576171875,-6.476318359375,4.854736328125
0.143,-1.311279296875,-6.196044921875,5.415283203125
0.1435,-2.352294921875,-5.275146484375,5.655517578125
0.144,-3.553466796875,-4.194091796875,6.015869140625
0.1445,-4.594482421875,-2.952880859375,6.296142578125
0.145,-5.355224609375,-2.031982421875,6.216064453125
0.1455,-5.595458984375,-1.311279296875,6.095947265625
0.146,-5.475341796875,-0.510498046875,5.415283203125
0.1465,-5.235107421875,0.530517578125,4.534423828125
0.147,-5.195068359375,1.851806640625,3.493408203125
0.1475,-5.155029296875,3.052978515625,2.452392578125
0.148,-4.994873046875,3.973876953125,1.571533203125
0.1485,-4.594482421875,4.494384765625,0.810791015625
0.149,-3.713623046875,4.734619140625,-0.230224609375
0.1495,-2.712646484375,4.974853515625,-1.391357421875
0.15,-1.591552734375,5.295166015625,-2.792724609375
0.1505,-0.790771484375,5.615478515625,-3.873779296875
0.151,0.010009765625,5.775634765625,-4.754638671875
0.1515,0.770751953125,5.375244140625,-5.235107421875
0.152,1.931884765625,4.454345703125,-5.555419921875
0.1525,3.213134765625,3.413330078125,-6.035888671875
0.153,4.134033203125,2.252197265625,-6.156005859375
0.1535,4.814697265625,1.411376953125,-6.276123046875
0.154,4.974853515625,0.690673828125,-6.075927734375
0.1545,4.894775390625,-0.190185546875,-5.395263671875
0.155,4.774658203125,-1.191162109375,-4.554443359375
0.1555,4.814697265625,-2.512451171875,-3.593505859375
0.156,4.734619140625,-3.673583984375,-2.552490234375
0.1565,4.614501953125,-4.514404296875,-1.791748046875
0.157,4.053955078125,-4.954833984375,-0.990966796875
0.1575,3.173095703125,-5.155029296875,0.090087890625
0.158,2.212158203125,-5.595458984375,1.411376953125
0.1585,1.211181640625,-5.915771484375,2.692626953125
0.159,0.450439453125,-6.236083984375,3.773681640625
0.1595,-0.310302734375,-6.316162109375,4.534423828125
0.16,-1.271240234375,-5.755615234375,4.974853515625
0.1605,-2.392333984375,-4.954833984375,5.255126953125
0.161,-3.553466796875,-3.873779296875,5.735595703125
0.1615,-4.474365234375,-2.832763671875,5.975830078125
0.162,-4.994873046875,-2.112060546875,6.015869140625
0.1625,-5.114990234375,-1.351318359375,5.655517578125
0.163,-4.994873046875,-0.510498046875,4.974853515625
0.1635,-4.994873046875,0.650634765625,4.174072265625
0.164,-5.074951171875,1.891845703125,3.253173828125
0.1645,-5.074951171875,2.972900390625,2.372314453125
0.165,-4.834716796875,3.773681640625,1.611572265625
0.1655,-4.234130859375,4.134033203125,0.770751953125
0.166,-3.353271484375,4.454345703125,-0.350341796875
0.1665,-2.472412109375,4.934814453125,-1.711669921875
0.167,-1.551513671875,5.295166015625,-2.912841796875
0.1675,-0.910888671875,5.655517578125,-3.913818359375
0.168,0.010009765625,5.535400390625,-4.634521484375
0.1685,0.930908203125,4.814697265625,-4.994873046875
0.169,2.212158203125,3.973876953125,-5.515380859375
0.1695,3.373291015625,2.892822265625,-5.915771484375
0.17,4.214111328125,1.971923828125,-6.115966796875
0.1705,4.694580078125,1.291259765625,-6.115966796875
0.171,4.734619140625,0.530517578125,-5.675537109375
0.1715,4.614501953125,-0.510498046875,-4.954833984375
0.172,4.734619140625,-1.751708984375,-4.073974609375
0.1725,4.774658203125,-2.992919921875,-3.113037109375
0.173,4.694580078125,-3.993896484375,-2.272216796875
0.1735,4.414306640625,-4.634521484375,-1.471435546875
0.174,3.653564453125,-4.994873046875,-0.550537109375
0.1745,2.692626953125,-5.355224609375,0.770751953125
0.175,1.651611328125,-5.755615234375,2.172119140625
0.1755,0.810791015625,-6.115966796875,3.333251953125
0.176,0.130126953125,-6.356201171875,4.214111328125
0.1765,-0.790771484375,-5.955810546875,4.814697265625
0.177,-1.951904296875,-5.155029296875,5.175048828125
0.1775,-3.153076171875,-4.114013671875,5.695556640625
0.178,-4.234130859375,-3.072998046875,5.895751953125
0.1785,-4.914794921875,-2.232177734375,6.015869140625
0.179,-5.155029296875,-1.511474609375,5.815673828125
0.1795,-5.074951171875,-0.670654296875,5.135009765625
0.18,-5.034912109375,0.450439453125,4.374267578125
0.1805,-5.074951171875,1.771728515625,3.373291015625
0.181,-5.074951171875,2.932861328125,2.452392578125
0.1815,-4.954833984375,3.813720703125,1.651611328125
0.182,-4.394287109375,4.214111328125,0.810791015625
0.1825,-3.473388671875,4.494384765625,-0.310302734375
0.183,-2.552490234375,4.934814453125,-1.591552734375
0.1835,-1.551513671875,5.255126953125,-2.912841796875
0.184,-0.790771484375,5.615478515625,-3.953857421875
0.1845,0.010009765625,5.615478515625,-4.794677734375
0.185,0.970947265625,4.974853515625,-5.155029296875
0.1855,2.212158203125,4.013916015625,-5.715576171875
0.186,3.413330078125,2.932861328125,-5.955810546875
0.1865,4.334228515625,1.931884765625,-6.115966796875
0.187,4.854736328125,1.171142578125,-6.156005859375
0.1875,4.934814453125,0.450439453125,-5.795654296875
0.188,4.774658203125,-0.590576171875,-4.994873046875
