wavelength,x,y,z
0.0,11.656372070312,-21.255737304688,10.094848632812
0.0005,15.540161132812,-20.214721679688,5.3702392578125
0.001,18.543090820312,-18.453002929688,0.6456298828125
0.0015,20.304809570312,-16.731323242188,-2.8377685546875
0.002,21.145629882812,-14.689331054688,-5.6405029296875
0.0025,21.065551757812,-11.606323242188,-8.4031982421875
0.003,20.464965820312,-7.0018310546875,-12.647338867188
0.0035,19.383911132812,-3.0780029296875,-15.530151367188
0.004,17.982543945312,1.2061767578125,-18.332885742188
0.0045,16.140747070312,4.6895751953125,-20.054565429688
0.005,13.418090820312,7.4122314453125,-20.174682617188
0.0055,10.415161132812,10.735473632812,-20.414916992188
0.006,4.9298095703125,14.779418945312,-19.253784179688
0.0065,0.1251220703125,17.702270507812,-17.612182617188
0.007,-3.4783935546875,19.544067382812,-16.130737304688
0.0075,-6.3612060546875,20.825317382812,-14.769409179688
0.008,-9.2039794921875,20.745239257812,-12.006713867188
0.0085,-12.607299804688,20.264770507812,-8.3631591796875
0.009,-15.890502929688,19.263793945312,-4.2791748046875
0.0095,-18.733276367188,17.462036132812,0.3253173828125
0.01,-20.134643554688,15.740356445312,3.4483642578125
0.0105,-20.494995117188,13.418090820312,6.0909423828125
0.011,-20.535034179688,10.535278320312,9.0538330078125
0.0115,-19.694213867188,5.4503173828125,13.338012695312
0.012,-18.533081054688,1.5264892578125,16.140747070312
0.0125,-17.091674804688,-2.2371826171875,18.382934570312
0.013,-15.450073242188,-5.3602294921875,19.944458007812
0.0135,-12.447143554688,-8.0828857421875,19.744262695312
0.014,-8.7235107421875,-11.566284179688,19.584106445312
0.0145,-3.8787841796875,-15.169799804688,18.543090820312
0.015,1.0059814453125,-18.012573242188,16.741333007812
0.0155,4.0889892578125,-19.494018554688,15.380004882812
0.016,6.6915283203125,-20.334838867188,13.778442382812
0.0165,9.4542236328125,-20.454956054688,11.376098632812
0.017,13.378051757812,-19.534057617188,6.6915283203125
0.0175,16.220825195312,-18.453002929688,2.8477783203125
0.018,18.583129882812,-16.811401367188,-1.0360107421875
0.0185,19.824340820312,-15.129760742188,-3.8787841796875
0.019,19.744262695312,-12.527221679688,-6.4412841796875
0.0195,19.784301757812,-9.3240966796875,-9.6444091796875
0.02,18.943481445312,-4.7596435546875,-13.448120117188
0.0205,17.622192382812,-0.5955810546875,-16.330932617188
0.021,16.060668945312,2.6876220703125,-18.012573242188
0.0215,14.379028320312,5.5704345703125,-19.253784179688
0.022,11.496215820312,8.3731689453125,-19.213745117188
0.0225,6.6915283203125,12.337036132812,-18.533081054688
0.023,2.5274658203125,15.380004882812,-17.652221679688
0.0235,-1.8367919921875,17.902465820312,-16.010620117188
0.024,-4.5594482421875,19.183715820312,-14.729370117188
0.0245,-7.0819091796875,19.504028320312,-12.767456054688
0.025,-9.8846435546875,19.704223632812,-10.525268554688
0.0255,-13.728393554688,18.663208007812,-5.7205810546875
0.026,-16.531127929688,17.301879882812,-1.5965576171875
0.0265,-18.292846679688,15.860473632812,1.6065673828125
0.027,-19.373901367188,14.138793945312,4.2891845703125
0.0275,-19.213745117188,11.376098632812,6.8917236328125
0.028,-18.933471679688,7.4923095703125,10.535278320312
0.0285,-18.172729492188,3.5284423828125,13.778442382812
0.029,-16.891479492188,-0.5155029296875,16.541137695312
0.0295,-15.369995117188,-3.4783935546875,17.942504882812
0.03,-13.448120117188,-6.0809326171875,18.703247070312
0.0305,-10.605346679688,-9.0037841796875,18.863403320312
0.031,-5.4002685546875,-13.007690429688,17.782348632812
0.0315,-1.1561279296875,-15.850463867188,16.621215820312
0.032,2.4473876953125,-17.932495117188,15.380004882812
0.0325,5.0499267578125,-19.173706054688,14.178833007812
0.033,7.6925048828125,-19.213745117188,11.736450195312
0.0335,10.735473632812,-19.213745117188,8.8536376953125
0.034,14.138793945312,-18.292846679688,4.6895751953125
0.0345,16.941528320312,-16.651245117188,0.4454345703125
0.035,18.302856445312,-15.329956054688,-2.2772216796875
0.0355,19.023559570312,-13.408081054688,-4.8397216796875
0.036,18.903442382812,-10.725463867188,-7.4822998046875
0.0365,18.342895507812,-6.1610107421875,-11.486206054688
0.037,17.502075195312,-2.4373779296875,-14.369018554688
0.0375,16.340942382812,1.2862548828125,-16.851440429688
0.038,14.739379882812,4.1690673828125,-18.212768554688
0.0385,12.176879882812,6.8917236328125,-18.412963867188
0.039,8.9337158203125,10.214965820312,-18.573120117188
0.0395,3.9688720703125,14.018676757812,-17.572143554688
0.04,-0.6356201171875,16.741333007812,-16.010620117188
0.0405,-3.4783935546875,18.302856445312,-14.929565429688
0.041,-6.0809326171875,19.343872070312,-13.568237304688
0.0415,-8.8436279296875,19.343872070312,-11.045776367188
0.042,-12.367065429688,18.743286132812,-7.0418701171875
0.0425,-15.410034179688,17.782348632812,-3.1981201171875
0.043,-17.892456054688,16.180786132812,0.8858642578125
0.0435,-18.933471679688,14.659301757812,3.4083251953125
0.044,-19.213745117188,12.296997070312,6.0509033203125
0.0445,-19.173706054688,9.1339111328125,9.0938720703125
0.045,-18.332885742188,4.4893798828125,12.977661132812
0.0455,-17.171752929688,0.5655517578125,15.780395507812
0.046,-15.850463867188,-2.7176513671875,17.782348632812
0.0465,-14.248901367188,-5.4803466796875,18.943481445312
0.047,-11.245971679688,-8.3231201171875,18.823364257812
0.0475,-7.0819091796875,-12.046752929688,18.463012695312
0.048,-2.4373779296875,-15.369995117188,17.301879882812
0.0485,1.9669189453125,-17.892456054688,15.660278320312
0.049,4.4893798828125,-19.053588867188,14.579223632812
0.0495,7.1319580078125,-19.774291992188,12.737426757812
0.05,9.9747314453125,-19.574096679688,10.014770507812
0.0505,13.658325195312,-18.613159179688,5.5704345703125
0.051,16.501098632812,-17.371948242188,1.5665283203125
0.0515,18.543090820312,-15.810424804688,-2.0369873046875
0.052,19.263793945312,-14.048706054688,-4.4793701171875
0.0525,19.263793945312,-11.245971679688,-7.2020263671875
0.053,18.943481445312,-7.6424560546875,-10.565307617188
0.0535,18.182739257812,-3.3983154296875,-14.008666992188
0.054,16.661254882812,0.7257080078125,-16.611206054688
0.0545,15.179809570312,3.6485595703125,-18.092651367188
0.055,13.177856445312,6.4112548828125,-18.973510742188
0.0555,9.8546142578125,9.4942626953125,-18.733276367188
0.056,5.1300048828125,13.177856445312,-17.932495117188
0.0565,0.7657470703125,16.140747070312,-16.731323242188
0.057,-3.1981201171875,18.342895507812,-15.249877929688
0.0575,-5.4803466796875,19.183715820312,-13.928588867188
0.058,-8.2830810546875,19.504028320312,-11.646362304688
0.0585,-11.286010742188,19.263793945312,-8.6033935546875
0.059,-14.689331054688,18.182739257812,-4.2391357421875
0.0595,-17.331909179688,16.541137695312,0.0050048828125
0.06,-18.853393554688,15.059692382812,2.8878173828125
0.0605,-19.373901367188,13.057739257812,5.4102783203125
0.061,-19.173706054688,10.014770507812,8.2530517578125
0.0615,-18.573120117188,5.7706298828125,11.856567382812
0.062,-17.652221679688,1.8468017578125,14.979614257812
0.0625,-16.170776367188,-2.0770263671875,17.341918945312
0.063,-14.569213867188,-4.6395263671875,18.382934570312
0.0635,-12.327026367188,-7.4022216796875,18.903442382812
0.064,-8.6033935546875,-10.765502929688,18.623168945312
0.0645,-3.7987060546875,-14.248901367188,17.421997070312
0.065,0.5655517578125,-16.931518554688,16.020629882812
0.0655,3.8487548828125,-18.733276367188,14.739379882812
0.066,6.1710205078125,-19.293823242188,13.297973632812
0.0665,8.9737548828125,-19.413940429688,10.815551757812
0.067,12.337036132812,-18.933471679688,7.0919189453125
0.0675,15.380004882812,-17.812377929688,3.0479736328125
0.068,17.782348632812,-16.170776367188,-0.9959716796875
0.0685,18.903442382812,-14.609252929688,-3.5584716796875
0.069,19.263793945312,-12.327026367188,-6.1209716796875
0.0695,19.023559570312,-9.0438232421875,-9.2440185546875
0.07,18.222778320312,-4.7996826171875,-12.687377929688
0.0705,17.141723632812,-0.8758544921875,-15.530151367188
0.071,15.740356445312,2.6876220703125,-17.732299804688
0.0715,13.818481445312,5.2901611328125,-18.453002929688
0.072,11.215942382812,8.1729736328125,-18.773315429688
0.0725,6.9718017578125,11.896606445312,-18.372924804688
0.073,2.2471923828125,15.099731445312,-17.131713867188
0.0735,-1.9569091796875,17.462036132812,-15.610229492188
0.074,-4.5994873046875,18.943481445312,-14.529174804688
0.0745,-7.1219482421875,19.463989257812,-12.687377929688
0.075,-10.044799804688,19.343872070312,-9.8846435546875
0.0755,-13.528198242188,18.583129882812,-5.8006591796875
0.076,-16.491088867188,17.301879882812,-1.6365966796875
0.0765,-18.573120117188,15.620239257812,2.0870361328125
0.077,-19.293823242188,13.858520507812,4.5294189453125
0.0775,-19.534057617188,11.215942382812,7.4122314453125
0.078,-19.173706054688,7.2921142578125,11.015747070312
0.0785,-18.212768554688,3.1280517578125,14.218872070312
0.079,-16.851440429688,-0.8358154296875,16.821411132812
0.0795,-15.530151367188,-4.0389404296875,18.703247070312
0.08,-13.328002929688,-6.6815185546875,19.183715820312
0.0805,-10.124877929688,-9.7645263671875,19.143676757812
0.081,-5.4803466796875,-13.448120117188,18.422973632812
0.0815,-0.7557373046875,-16.651245117188,16.981567382812
0.082,3.1680908203125,-18.613159179688,15.380004882812
0.0825,5.6905517578125,-19.734252929688,14.138793945312
0.083,8.4932861328125,-20.134643554688,11.936645507812
0.0835,11.816528320312,-19.694213867188,8.3331298828125
0.084,15.059692382812,-18.653198242188,4.3292236328125
0.0845,17.862426757812,-17.051635742188,0.0050048828125
0.085,19.664184570312,-15.450073242188,-3.4383544921875
0.0855,19.904418945312,-13.247924804688,-5.9207763671875
0.086,19.984497070312,-10.285034179688,-8.9237060546875
0.0865,19.343872070312,-5.8406982421875,-12.727416992188
0.087,18.222778320312,-1.7166748046875,-15.770385742188
0.0875,16.621215820312,2.2071533203125,-18.012573242188
0.088,15.019653320312,5.1700439453125,-19.413940429688
0.0885,12.337036132812,7.9727783203125,-19.694213867188
0.089,8.1729736328125,11.576293945312,-19.253784179688
0.0895,3.7686767578125,14.859497070312,-18.292846679688
0.09,-1.1561279296875,17.902465820312,-16.651245117188
0.0905,-4.6395263671875,19.664184570312,-15.129760742188
0.091,-7.0418701171875,20.184692382812,-13.448120117188
0.0915,-9.9246826171875,20.464965820312,-11.165893554688
0.092,-13.648315429688,19.624145507812,-6.6414794921875
0.0925,-16.611206054688,18.302856445312,-2.4373779296875
0.093,-18.933471679688,16.581176757812,1.4464111328125
0.0935,-20.414916992188,14.859497070312,4.6094970703125
0.094,-20.374877929688,12.216918945312,7.1719970703125
0.0945,-20.214721679688,8.6934814453125,10.535278320312
0.095,-19.253784179688,4.3292236328125,14.058715820312
0.0955,-17.972534179688,0.0050048828125,17.141723632812
0.096,-16.210815429688,-3.7186279296875,19.063598632812
0.0965,-14.409057617188,-6.3612060546875,19.864379882812
0.097,-11.686401367188,-9.2840576171875,20.184692382812
0.0975,-6.6014404296875,-13.328002929688,19.223754882812
0.098,-2.1971435546875,-16.170776367188,17.942504882812
0.0985,2.2471923828125,-18.693237304688,16.300903320312
0.099,5.4102783203125,-20.254760742188,14.899536132812
0.0995,7.9727783203125,-20.374877929688,12.697387695312
0.1,10.855590820312,-20.494995117188,10.174926757812
0.1005,14.659301757812,-19.574096679688,5.4503173828125
0.101,17.622192382812,-17.932495117188,1.0860595703125
0.1015,19.504028320312,-16.210815429688,-2.5574951171875
0.102,20.464965820312,-14.369018554688,-5.3201904296875
0.1025,20.464965820312,-11.526245117188,-8.0828857421875
0.103,19.984497070312,-7.3221435546875,-11.886596679688
0.1035,18.943481445312,-3.3582763671875,-14.889526367188
0.104,17.542114257812,1.0059814453125,-17.772338867188
0.1045,15.820434570312,4.4893798828125,-19.534057617188
0.105,13.297973632812,7.1319580078125,-19.814331054688
0.1055,10.495239257812,10.174926757812,-20.134643554688
0.106,5.0499267578125,14.379028320312,-19.053588867188
0.1065,0.4053955078125,17.301879882812,-17.452026367188
0.107,-3.4383544921875,19.303833007812,-15.930541992188
0.1075,-6.4012451171875,20.665161132812,-14.609252929688
0.108,-9.2039794921875,20.625122070312,-11.926635742188
0.1085,-12.447143554688,20.344848632812,-8.6434326171875
0.109,-15.890502929688,19.343872070312,-4.2791748046875
0.1095,-18.813354492188,17.462036132812,0.4854736328125
0.11,-20.374877929688,15.700317382812,3.7686767578125
0.1105,-20.895385742188,13.458129882812,6.4512939453125
0.111,-20.935424804688,10.535278320312,9.4542236328125
0.1115,-20.134643554688,5.4503173828125,13.738403320312
0.112,-18.893432617188,1.4063720703125,16.581176757812
0.1125,-17.331909179688,-2.5975341796875,19.023559570312
0.113,-15.650268554688,-5.9207763671875,20.665161132812
0.1135,-12.527221679688,-8.8035888671875,20.464965820312
0.114,-8.9637451171875,-12.166870117188,20.424926757812
0.1145,-3.6785888671875,-16.010620117188,19.183715820312
0.115,1.5264892578125,-18.933471679688,17.261840820312
0.1155,4.8497314453125,-20.454956054688,15.620239257812
0.116,7.6925048828125,-21.455932617188,13.978637695312
0.1165,10.615356445312,-21.335815429688,11.175903320312
0.117,14.459106445312,-20.454956054688,6.6114501953125
0.1175,17.462036132812,-19.213745117188,2.4874267578125
0.118,20.104614257812,-17.291870117188,-1.9969482421875
0.1185,21.305786132812,-15.410034179688,-5.1199951171875
0.119,21.265747070312,-12.527221679688,-7.8826904296875
0.1195,21.185668945312,-9.3240966796875,-11.045776367188
0.12,20.144653320312,-4.2391357421875,-15.129760742188
0.1205,18.583129882812,0.2452392578125,-18.012573242188
0.121,16.781372070312,3.8487548828125,-19.854370117188
0.1215,14.899536132812,7.0518798828125,-21.215698242188
0.122,11.376098632812,10.134887695312,-20.855346679688
0.1225,6.5714111328125,14.058715820312,-20.214721679688
0.123,1.9268798828125,17.301879882812,-18.973510742188
0.1235,-3.1580810546875,20.064575195312,-16.931518554688
0.124,-6.1610107421875,21.225708007812,-15.289916992188
0.1245,-8.9637451171875,21.626098632812,-13.087768554688
0.125,-11.926635742188,21.505981445312,-10.405151367188
0.1255,-15.930541992188,20.184692382812,-5.1199951171875
0.126,-18.853393554688,18.543090820312,-0.6756591796875
0.1265,-20.815307617188,16.661254882812,3.1680908203125
0.127,-21.816284179688,14.699340820312,6.1710205078125
0.1275,-21.495971679688,11.296020507812,9.2139892578125
0.128,-21.135620117188,7.3721923828125,12.777465820312
0.1285,-20.014526367188,2.6876220703125,16.340942382812
0.129,-18.292846679688,-1.9569091796875,19.263793945312
0.1295,-16.330932617188,-5.2801513671875,20.625122070312
0.13,-14.128784179688,-8.2030029296875,21.465942382812
0.1305,-10.645385742188,-11.366088867188,21.225708007812
0.131,-4.9998779296875,-15.530151367188,19.944458007812
0.1315,-0.3153076171875,-18.453002929688,18.422973632812
0.132,4.1290283203125,-20.775268554688,16.581176757812
0.1325,7.0118408203125,-21.736206054688,14.859497070312
0.133,10.094848632812,-21.696166992188,12.016723632812
0.1335,13.097778320312,-21.495971679688,8.9737548828125
0.134,16.941528320312,-20.094604492188,3.8887939453125
0.1345,19.864379882812,-18.052612304688,-1.0360107421875
0.135,21.305786132812,-16.210815429688,-4.2791748046875
0.1355,22.066528320312,-13.968627929688,-7.2020263671875
0.136,21.626098632812,-10.565307617188,-10.204956054688
0.1365,20.865356445312,-5.8406982421875,-14.208862304688
0.137,19.664184570312,-1.6365966796875,-17.291870117188
0.1375,17.902465820312,2.8477783203125,-20.014526367188
0.138,15.660278320312,6.1309814453125,-21.095581054688
0.1385,12.817504882812,9.2139892578125,-21.335815429688
0.139,9.0137939453125,12.657348632812,-21.175659179688
0.1395,3.3282470703125,16.701293945312,-19.654174804688
0.14,-1.6365966796875,19.504028320312,-17.772338867188
0.1405,-5.2801513671875,21.265747070312,-16.170776367188
0.141,-8.1629638671875,22.066528320312,-14.328979492188
0.1415,-11.366088867188,21.786254882812,-11.045776367188
0.142,-14.769409179688,21.105590820312,-7.1219482421875
0.1425,-18.132690429688,19.704223632812,-2.4774169921875
0.143,-20.855346679688,17.502075195312,2.4473876953125
0.1435,-21.936401367188,15.500122070312,5.4102783203125
0.144,-22.336791992188,12.817504882812,8.4932861328125
0.1445,-21.856323242188,9.0938720703125,11.776489257812
0.145,-20.775268554688,3.9688720703125,15.860473632812
0.1455,-19.253784179688,-0.5155029296875,18.703247070312
0.146,-17.532104492188,-4.4793701171875,21.025512695312
0.1465,-15.249877929688,-7.5223388671875,21.866333007812
0.147,-11.766479492188,-10.765502929688,21.706176757812
0.1475,-7.4022216796875,-14.489135742188,21.185668945312
0.148,-1.7967529296875,-18.132690429688,19.504028320312
0.1485,3.2481689453125,-20.735229492188,17.341918945312
0.149,6.4112548828125,-21.976440429688,15.700317382812
0.1495,9.4141845703125,-22.617065429688,13.578247070312
0.15,12.657348632812,-22.176635742188,10.094848632812
0.1505,16.380981445312,-21.015502929688,5.3702392578125
0.151,19.544067382812,-19.373901367188,0.6856689453125
0.1515,21.946411132812,-17.251831054688,-3.8387451171875
0.152,22.546997070312,-15.009643554688,-6.6815185546875
0.1525,22.546997070312,-11.846557617188,-9.9246826171875
0.153,22.026489257812,-7.7225341796875,-13.528198242188
0.1535,20.745239257812,-2.7576904296875,-17.251831054688
0.154,18.823364257812,1.9669189453125,-19.934448242188
0.1545,16.941528320312,5.6104736328125,-21.776245117188
0.155,14.298950195312,8.7735595703125,-22.336791992188
0.1555,10.214965820312,12.216918945312,-21.856323242188
0.156,5.2901611328125,16.100708007812,-20.895385742188
0.1565,0.0050048828125,19.463989257812,-19.253784179688
0.157,-4.8397216796875,21.746215820312,-17.011596679688
0.1575,-7.6424560546875,22.546997070312,-15.249877929688
0.158,-10.845581054688,22.907348632812,-12.687377929688
0.1585,-14.288940429688,22.266723632812,-8.7235107421875
0.159,-17.932495117188,20.785278320312,-3.8387451171875
0.1595,-20.855346679688,18.823364257812,1.0860595703125
0.16,-22.817260742188,16.701293945312,5.0899658203125
0.1605,-23.097534179688,14.098754882812,7.9327392578125
0.161,-22.977416992188,10.415161132812,11.456176757812
0.1615,-22.096557617188,5.6505126953125,15.380004882812
0.162,-20.735229492188,0.9259033203125,18.823364257812
0.1625,-18.573120117188,-3.7186279296875,21.305786132812
0.163,-16.531127929688,-7.0018310546875,22.546997070312
0.1635,-13.688354492188,-10.164916992188,22.987426757812
0.164,-8.9237060546875,-14.008666992188,22.226684570312
0.1645,-3.7186279296875,-17.612182617188,20.745239257812
0.165,1.6466064453125,-20.695190429688,18.863403320312
0.1655,5.9307861328125,-22.697143554688,16.781372070312
0.166,8.6934814453125,-23.057495117188,14.659301757812
0.1665,12.016723632812,-23.217651367188,11.696411132812
0.167,15.900512695312,-22.256713867188,7.0919189453125
0.1675,19.263793945312,-20.615112304688,2.2471923828125
0.168,22.026489257812,-18.332885742188,-2.5975341796875
0.1685,23.347778320312,-16.370971679688,-6.1209716796875
0.169,23.387817382812,-13.408081054688,-9.1239013671875
0.1695,22.987426757812,-9.2840576171875,-12.887573242188
0.17,21.786254882812,-4.4393310546875,-16.531127929688
0.1705,20.264770507812,0.4454345703125,-19.774291992188
0.171,18.022583007812,4.8096923828125,-21.936401367188
0.1715,15.500122070312,7.8927001953125,-22.617065429688
0.172,12.377075195312,11.255981445312,-22.937377929688
0.1725,6.9718017578125,15.460083007812,-21.856323242188
0.173,1.8468017578125,18.703247070312,-20.214721679688
0.1735,-3.1981201171875,21.385864257812,-18.172729492188
0.174,-7.0018310546875,23.067504882812,-16.330932617188
0.1745,-9.8045654296875,23.067504882812,-13.728393554688
0.175,-13.127807617188,22.987426757812,-10.565307617188
0.1755,-17.051635742188,21.746215820312,-5.6405029296875
0.176,-20.254760742188,19.864379882812,-0.5955810546875
0.1765,-22.456909179688,17.582153320312,3.8487548828125
0.177,-23.377807617188,15.299926757812,7.0518798828125
0.1775,-23.377807617188,12.016723632812,10.255004882812
0.178,-22.737182617188,7.3721923828125,14.338989257812
