wavelength,x,y,z
0.0,3.4033203125,-0.4404296875,-2.8828125
0.0005,3.203125,0.16015625,-3.36328125
0.001,2.72265625,0.9609375,-3.7236328125
0.0015,2.2421875,1.521484375,-3.8037109375
0.002,1.5615234375,2.2021484375,-3.7236328125
0.0025,0.7607421875,2.6826171875,-3.4033203125
0.003,0.1201171875,3.3232421875,-3.443359375
0.0035,-0.720703125,3.5234375,-2.8427734375
0.004,-1.2412109375,3.84375,-2.6826171875
0.0045,-1.7216796875,3.7236328125,-2.1220703125
0.005,-2.2021484375,3.763671875,-1.6416015625
0.0055,-2.642578125,3.36328125,-0.8408203125
0.006,-3.1630859375,3.1630859375,-0.16015625
0.0065,-3.36328125,2.482421875,0.6806640625
0.007,-3.5634765625,2.162109375,1.2412109375
0.0075,-3.4833984375,1.4013671875,1.8818359375
0.008,-3.3232421875,0.80078125,2.322265625
0.0085,-3.203125,0.0,2.962890625
0.009,-2.7626953125,-0.720703125,3.3232421875
0.0095,-2.40234375,-1.44140625,3.5634765625
0.01,-1.681640625,-1.9619140625,3.5234375
0.0105,-1.0009765625,-2.6025390625,3.4833984375
0.011,-0.2001953125,-3.04296875,3.1630859375
0.0115,0.3603515625,-3.5634765625,3.123046875
0.012,1.2412109375,-3.763671875,2.482421875
0.0125,1.6416015625,-3.923828125,2.2822265625
0.013,2.1220703125,-3.84375,1.681640625
0.0135,2.5224609375,-3.68359375,1.1611328125
0.014,3.0029296875,-3.36328125,0.400390625
0.0145,3.283203125,-2.8828125,-0.3203125
0.015,3.5234375,-2.3623046875,-1.12109375
0.0155,3.5634765625,-1.921875,-1.6015625
0.016,3.5234375,-1.28125,-2.2021484375
0.0165,3.3232421875,-0.6005859375,-2.642578125
0.017,3.2431640625,0.0,-3.283203125
0.0175,2.6826171875,0.8408203125,-3.5634765625
0.018,2.40234375,1.44140625,-3.8037109375
0.0185,1.6015625,1.9619140625,-3.5634765625
0.019,0.9609375,2.5224609375,-3.5234375
0.0195,0.16015625,3.0029296875,-3.203125
0.02,-0.400390625,3.443359375,-3.04296875
0.0205,-1.1611328125,3.68359375,-2.5625
0.021,-1.521484375,3.7236328125,-2.2822265625
0.0215,-2.0419921875,3.6435546875,-1.76171875
0.022,-2.40234375,3.36328125,-1.1611328125
0.0225,-2.962890625,3.2431640625,-0.48046875
0.023,-3.1630859375,2.6025390625,0.3603515625
0.0235,-3.4833984375,2.322265625,0.9609375
0.024,-3.36328125,1.6416015625,1.4814453125
0.0245,-3.36328125,1.12109375,2.0419921875
0.025,-3.1630859375,0.2802734375,2.5625
0.0255,-3.04296875,-0.3203125,3.0830078125
0.026,-2.482421875,-1.041015625,3.36328125
0.0265,-2.08203125,-1.6015625,3.5234375
0.027,-1.3212890625,-2.2021484375,3.4033203125
0.0275,-0.6806640625,-2.6826171875,3.283203125
0.028,0.0,-3.2431640625,3.1630859375
0.0285,0.720703125,-3.5634765625,2.7626953125
0.029,1.361328125,-3.84375,2.482421875
0.0295,1.7216796875,-3.763671875,2.0419921875
0.03,2.2421875,-3.8037109375,1.5615234375
0.0305,2.6025390625,-3.4033203125,0.80078125
0.031,3.1630859375,-3.2431640625,0.1201171875
0.0315,3.3232421875,-2.5625,-0.6806640625
0.032,3.6435546875,-2.2822265625,-1.2412109375
0.0325,3.4833984375,-1.6015625,-1.8017578125
0.033,3.4833984375,-1.12109375,-2.3623046875
0.0335,3.2431640625,-0.3203125,-2.962890625
0.034,3.04296875,0.4404296875,-3.36328125
0.0345,2.5625,1.201171875,-3.7236328125
0.035,1.9619140625,1.6416015625,-3.68359375
0.0355,1.28125,2.2822265625,-3.5634765625
0.036,0.5205078125,2.7626953125,-3.283203125
0.0365,-0.080078125,3.2431640625,-3.203125
0.037,-0.880859375,3.4833984375,-2.6826171875
0.0375,-1.361328125,3.763671875,-2.4423828125
0.038,-1.76171875,3.5234375,-1.921875
0.0385,-2.2421875,3.5634765625,-1.44140625
0.039,-2.642578125,3.1630859375,-0.640625
0.0395,-3.0830078125,2.8828125,0.0
0.04,-3.283203125,2.2421875,0.8408203125
0.0405,-3.4033203125,1.921875,1.28125
0.041,-3.283203125,1.201171875,1.841796875
0.0415,-3.203125,0.6005859375,2.2822265625
0.042,-3.04296875,-0.0400390625,2.8828125
0.0425,-2.6025390625,-0.80078125,3.203125
0.043,-2.2421875,-1.4013671875,3.5234375
0.0435,-1.521484375,-1.8818359375,3.283203125
0.044,-0.9609375,-2.5224609375,3.3232421875
0.0445,-0.16015625,-2.962890625,3.04296875
0.045,0.3603515625,-3.4033203125,2.9228515625
0.0455,1.1611328125,-3.6435546875,2.4423828125
0.046,1.521484375,-3.8037109375,2.2421875
0.0465,1.921875,-3.6435546875,1.7216796875
0.047,2.3623046875,-3.5634765625,1.201171875
0.0475,2.8427734375,-3.203125,0.4404296875
0.048,3.1630859375,-2.802734375,-0.240234375
0.0485,3.443359375,-2.4423828125,-0.9609375
0.049,3.443359375,-1.9619140625,-1.4013671875
0.0495,3.4833984375,-1.44140625,-2.0419921875
0.05,3.3232421875,-0.640625,-2.5625
0.0505,3.203125,0.0,-3.1630859375
0.051,2.7626953125,0.7607421875,-3.443359375
0.0515,2.40234375,1.28125,-3.6435546875
0.052,1.6416015625,1.841796875,-3.4833984375
0.0525,1.0009765625,2.40234375,-3.4833984375
0.053,0.2802734375,2.9228515625,-3.203125
0.0535,-0.3203125,3.283203125,-3.0029296875
0.054,-1.0009765625,3.5634765625,-2.642578125
0.0545,-1.3212890625,3.5634765625,-2.322265625
0.055,-1.841796875,3.5634765625,-1.8818359375
0.0555,-2.2822265625,3.3232421875,-1.201171875
0.056,-2.802734375,3.1630859375,-0.5205078125
0.0565,-3.04296875,2.5224609375,0.2802734375
0.057,-3.36328125,2.2822265625,0.8408203125
0.0575,-3.203125,1.6015625,1.28125
0.058,-3.3232421875,1.201171875,1.921875
0.0585,-3.0830078125,0.3603515625,2.5224609375
0.059,-2.9228515625,-0.240234375,3.0029296875
0.0595,-2.482421875,-1.0009765625,3.283203125
0.06,-2.001953125,-1.4814453125,3.3232421875
0.0605,-1.3212890625,-2.08203125,3.283203125
0.061,-0.640625,-2.6025390625,3.203125
0.0615,0.0,-3.1630859375,3.04296875
0.062,0.6806640625,-3.4833984375,2.6826171875
0.0625,1.2412109375,-3.763671875,2.482421875
0.063,1.5615234375,-3.603515625,2.001953125
0.0635,2.1220703125,-3.7236328125,1.5615234375
0.064,2.5625,-3.283203125,0.7607421875
0.0645,3.04296875,-3.1630859375,0.1201171875
0.065,3.283203125,-2.5625,-0.6806640625
0.0655,3.4833984375,-2.2822265625,-1.201171875
0.066,3.36328125,-1.5615234375,-1.76171875
0.0665,3.443359375,-1.0009765625,-2.3623046875
0.067,3.203125,-0.2001953125,-2.9228515625
0.0675,2.9228515625,0.48046875,-3.36328125
0.068,2.5224609375,1.201171875,-3.68359375
0.0685,1.8818359375,1.6416015625,-3.5234375
0.069,1.2412109375,2.322265625,-3.5234375
0.0695,0.4404296875,2.8427734375,-3.2431640625
0.07,-0.16015625,3.283203125,-3.123046875
0.0705,-0.9609375,3.5634765625,-2.642578125
0.071,-1.4013671875,3.68359375,-2.40234375
0.0715,-1.8017578125,3.4833984375,-1.8017578125
0.072,-2.322265625,3.5234375,-1.3212890625
0.0725,-2.72265625,3.0830078125,-0.5205078125
0.073,-3.1630859375,2.72265625,0.2001953125
0.0735,-3.4033203125,2.08203125,0.9609375
0.074,-3.36328125,1.7216796875,1.44140625
0.0745,-3.2431640625,1.041015625,2.0419921875
0.075,-3.123046875,0.400390625,2.5625
0.0755,-2.9228515625,-0.3203125,3.04296875
0.076,-2.4423828125,-1.041015625,3.3232421875
0.0765,-2.001953125,-1.6416015625,3.5234375
0.077,-1.28125,-2.1220703125,3.283203125
0.0775,-0.640625,-2.72265625,3.3232421875
0.078,0.080078125,-3.203125,2.962890625
0.0785,0.720703125,-3.5634765625,2.7626953125
0.079,1.4814453125,-3.84375,2.2822265625
0.0795,1.841796875,-3.763671875,1.921875
0.08,2.2421875,-3.603515625,1.361328125
0.0805,2.6826171875,-3.443359375,0.80078125
0.081,3.0830078125,-3.0830078125,0.0
0.0815,3.3232421875,-2.6025390625,-0.720703125
0.082,3.603515625,-2.08203125,-1.44140625
0.0825,3.4033203125,-1.4814453125,-1.8017578125
0.083,3.4833984375,-0.9609375,-2.4423828125
0.0835,3.203125,-0.16015625,-2.962890625
0.084,3.04296875,0.48046875,-3.4033203125
0.0845,2.482421875,1.2412109375,-3.7236328125
0.085,1.9619140625,1.76171875,-3.7236328125
0.0855,1.201171875,2.2822265625,-3.4833984375
0.086,0.5205078125,2.8828125,-3.443359375
0.0865,-0.2001953125,3.2431640625,-3.0830078125
0.087,-0.8408203125,3.5634765625,-2.7626953125
0.0875,-1.5615234375,3.8037109375,-2.322265625
0.088,-1.8818359375,3.603515625,-1.841796875
0.0885,-2.4423828125,3.5634765625,-1.3212890625
0.089,-2.802734375,3.1630859375,-0.6005859375
0.0895,-3.2431640625,2.8427734375,0.1201171875
0.09,-3.4033203125,2.2421875,0.9609375
0.0905,-3.5634765625,1.841796875,1.5615234375
0.091,-3.2431640625,1.0810546875,1.9619140625
0.0915,-3.3232421875,0.6005859375,2.5625
0.092,-2.962890625,-0.2802734375,3.0029296875
0.0925,-2.642578125,-0.9208984375,3.4033203125
0.093,-2.08203125,-1.681640625,3.6435546875
0.0935,-1.44140625,-2.1220703125,3.4833984375
0.094,-0.720703125,-2.72265625,3.3232421875
0.0945,-0.0400390625,-3.203125,3.1630859375
0.095,0.6806640625,-3.5634765625,2.802734375
0.0955,1.361328125,-3.84375,2.40234375
0.096,1.921875,-3.9638671875,1.9619140625
0.0965,2.2021484375,-3.7236328125,1.4013671875
0.097,2.802734375,-3.7236328125,0.9208984375
0.0975,3.04296875,-3.1630859375,0.080078125
0.098,3.443359375,-2.802734375,-0.560546875
0.0985,3.603515625,-2.1220703125,-1.4013671875
0.099,3.6435546875,-1.6416015625,-1.841796875
0.0995,3.4033203125,-0.9609375,-2.40234375
0.1,3.4033203125,-0.3603515625,-2.9228515625
0.1005,3.04296875,0.400390625,-3.36328125
0.101,2.642578125,1.12109375,-3.7236328125
0.1015,2.08203125,1.841796875,-3.8837890625
0.102,1.3212890625,2.2421875,-3.5634765625
0.1025,0.640625,2.8427734375,-3.5634765625
0.103,-0.1201171875,3.2431640625,-3.1630859375
0.1035,-0.7607421875,3.5634765625,-2.8828125
0.104,-1.44140625,3.8037109375,-2.40234375
0.1045,-1.8818359375,3.8037109375,-2.001953125
0.105,-2.2822265625,3.4833984375,-1.3212890625
0.1055,-2.7626953125,3.5634765625,-0.80078125
0.106,-3.0830078125,2.8427734375,0.0400390625
0.1065,-3.4833984375,2.5224609375,0.720703125
0.107,-3.603515625,1.841796875,1.5615234375
0.1075,-3.443359375,1.28125,1.921875
0.108,-3.36328125,0.6005859375,2.5224609375
0.1085,-3.1630859375,-0.0400390625,3.0029296875
0.109,-2.7626953125,-0.80078125,3.36328125
0.1095,-2.2822265625,-1.4814453125,3.6435546875
0.11,-1.681640625,-2.1220703125,3.68359375
0.1105,-0.880859375,-2.5625,3.3232421875
0.111,-0.2802734375,-3.203125,3.4033203125
0.1115,0.6005859375,-3.5634765625,2.8427734375
0.112,1.201171875,-3.84375,2.6025390625
0.1125,1.9619140625,-4.00390625,2.08203125
0.113,2.2822265625,-3.8837890625,1.5615234375
0.1135,2.6025390625,-3.7236328125,1.0810546875
0.114,3.1630859375,-3.4033203125,0.3203125
0.1145,3.4033203125,-2.8427734375,-0.5205078125
0.115,3.68359375,-2.40234375,-1.201171875
0.1155,3.84375,-1.76171875,-1.9619140625
0.116,3.4833984375,-1.041015625,-2.322265625
0.1165,3.5234375,-0.5205078125,-2.962890625
0.117,3.1630859375,0.2802734375,-3.36328125
0.1175,2.8427734375,1.0009765625,-3.763671875
0.118,2.2021484375,1.76171875,-3.923828125
0.1185,1.521484375,2.322265625,-3.84375
0.119,0.6806640625,2.7626953125,-3.4833984375
0.1195,0.0,3.36328125,-3.443359375
0.12,-0.8408203125,3.6435546875,-2.8427734375
0.1205,-1.4814453125,3.8037109375,-2.6025390625
0.121,-2.08203125,3.9638671875,-2.001953125
0.1215,-2.40234375,3.6435546875,-1.4013671875
0.122,-2.9228515625,3.603515625,-0.8408203125
0.1225,-3.283203125,3.0830078125,0.0
0.123,-3.5634765625,2.5224609375,0.7607421875
0.1235,-3.7236328125,1.9619140625,1.521484375
0.124,-3.763671875,1.4013671875,2.162109375
0.1245,-3.3232421875,0.6005859375,2.5224609375
0.125,-3.36328125,0.0,3.1630859375
0.1255,-2.7626953125,-0.9208984375,3.4833984375
0.126,-2.40234375,-1.5615234375,3.8037109375
0.1265,-1.681640625,-2.322265625,3.8837890625
0.127,-0.9208984375,-2.802734375,3.6435546875
0.1275,-0.16015625,-3.3232421875,3.4033203125
0.128,0.640625,-3.84375,3.1630859375
0.1285,1.44140625,-4.2041015625,2.4423828125
0.129,2.0419921875,-4.2041015625,2.162109375
0.1295,2.6826171875,-4.244140625,1.5615234375
0.13,2.962890625,-3.7236328125,0.8408203125
0.1305,3.5234375,-3.68359375,0.240234375
0.131,3.7236328125,-2.8828125,-0.7607421875
0.1315,3.9638671875,-2.40234375,-1.44140625
0.132,4.00390625,-1.681640625,-2.2421875
0.1325,3.8837890625,-1.0009765625,-2.7626953125
0.133,3.5234375,-0.240234375,-3.203125
0.1335,3.443359375,0.4404296875,-3.8037109375
0.134,2.6826171875,1.4013671875,-4.0439453125
0.1345,2.2421875,2.001953125,-4.2041015625
0.135,1.4013671875,2.7626953125,-4.1640625
0.1355,0.560546875,3.1630859375,-3.7236328125
0.136,-0.16015625,3.6435546875,-3.5234375
0.1365,-1.041015625,3.9638671875,-3.0830078125
0.137,-1.921875,4.1240234375,-2.40234375
0.1375,-2.3623046875,4.1240234375,-1.921875
0.138,-2.9228515625,4.083984375,-1.28125
0.1385,-3.203125,3.5234375,-0.5205078125
0.139,-3.7236328125,3.443359375,0.0400390625
0.1395,-3.84375,2.40234375,1.201171875
0.14,-4.0439453125,2.001953125,1.76171875
0.1405,-3.923828125,1.2412109375,2.5224609375
0.141,-3.6435546875,0.48046875,2.962890625
0.1415,-3.283203125,-0.240234375,3.3232421875
0.142,-3.04296875,-1.0009765625,3.84375
0.1425,-2.2822265625,-1.921875,4.0439453125
0.143,-1.76171875,-2.4423828125,4.083984375
0.1435,-0.9208984375,-3.1630859375,3.9638671875
0.144,-0.0400390625,-3.5234375,3.4833984375
0.1445,0.640625,-4.0439453125,3.36328125
0.145,1.6416015625,-4.32421875,2.5625
0.1455,2.2822265625,-4.5244140625,2.162109375
0.146,2.802734375,-4.32421875,1.5615234375
0.1465,3.3232421875,-4.1640625,0.9208984375
0.147,3.5234375,-3.5634765625,0.1201171875
0.1475,4.083984375,-3.36328125,-0.560546875
0.148,4.1240234375,-2.3623046875,-1.6416015625
0.1485,4.244140625,-1.9619140625,-2.2021484375
0.149,4.1240234375,-1.0810546875,-2.9228515625
0.1495,3.763671875,-0.3203125,-3.3232421875
0.15,3.5234375,0.400390625,-3.84375
0.1505,3.0029296875,1.28125,-4.2041015625
0.151,2.3623046875,2.162109375,-4.4443359375
0.1515,1.6015625,2.6826171875,-4.2841796875
0.152,0.7607421875,3.3232421875,-4.1240234375
0.1525,-0.1201171875,3.603515625,-3.5234375
0.153,-0.8408203125,4.1240234375,-3.4033203125
0.1535,-1.8818359375,4.244140625,-2.482421875
0.154,-2.3623046875,4.3642578125,-2.08203125
0.1545,-2.8828125,4.1240234375,-1.4013671875
0.155,-3.2431640625,3.84375,-0.80078125
0.1555,-3.5634765625,3.36328125,0.0
0.156,-3.923828125,2.9228515625,0.7607421875
0.1565,-4.0439453125,2.0419921875,1.76171875
0.157,-4.00390625,1.5615234375,2.2421875
0.1575,-3.84375,0.720703125,2.9228515625
0.158,-3.36328125,0.0,3.203125
0.1585,-3.2431640625,-0.6806640625,3.8037109375
0.159,-2.5224609375,-1.681640625,3.9638671875
0.1595,-1.9619140625,-2.322265625,4.2041015625
0.16,-1.1611328125,-2.8828125,3.923828125
0.1605,-0.400390625,-3.443359375,3.763671875
0.161,0.4404296875,-3.8037109375,3.203125
0.1615,1.0810546875,-4.2841796875,3.0830078125
0.162,2.08203125,-4.32421875,2.2421875
0.1625,2.482421875,-4.3642578125,1.921875
0.163,3.0029296875,-4.1640625,1.2412109375
0.1635,3.3232421875,-3.8037109375,0.5205078125
0.164,3.7236328125,-3.4833984375,-0.16015625
0.1645,3.9638671875,-2.802734375,-1.041015625
0.165,4.1240234375,-2.1220703125,-1.8818359375
0.1655,4.00390625,-1.5615234375,-2.3623046875
0.166,3.923828125,-0.80078125,-3.04296875
0.1665,3.4833984375,0.0,-3.4033203125
0.167,3.4033203125,0.640625,-4.00390625
0.1675,2.6025390625,1.6416015625,-4.2041015625
0.168,2.162109375,2.2421875,-4.3642578125
0.1685,1.2412109375,2.802734375,-4.0439453125
0.169,0.48046875,3.3232421875,-3.84375
0.1695,-0.3603515625,3.7236328125,-3.4033203125
0.17,-1.12109375,4.1240234375,-3.0830078125
0.1705,-2.0419921875,4.32421875,-2.3623046875
0.171,-2.40234375,4.1640625,-1.921875
0.1715,-2.962890625,4.0439453125,-1.2412109375
0.172,-3.2431640625,3.5634765625,-0.5205078125
0.1725,-3.763671875,3.3232421875,0.240234375
0.173,-3.8837890625,2.4423828125,1.2412109375
0.1735,-4.1240234375,1.921875,1.9619140625
0.174,-3.84375,1.1611328125,2.482421875
0.1745,-3.7236328125,0.4404296875,3.04296875
0.175,-3.203125,-0.400390625,3.443359375
0.1755,-3.0029296875,-1.0810546875,3.8837890625
0.176,-2.2021484375,-2.08203125,4.1240234375
0.1765,-1.6015625,-2.6025390625,4.083984375
0.177,-0.720703125,-3.203125,3.8037109375
0.1775,0.0400390625,-3.68359375,3.4833984375
0.178,0.8408203125,-4.0439453125,3.1630859375
0.1785,1.681640625,-4.32421875,2.5625
0.179,2.482421875,-4.5244140625,2.001953125
0.1795,2.72265625,-4.2041015625,1.4013671875
0.18,3.3232421875,-4.0439453125,0.80078125
0.1805,3.5634765625,-3.4833984375,0.0
0.181,4.00390625,-3.203125,-0.6806640625
0.1815,4.1240234375,-2.2421875,-1.76171875
0.182,4.244140625,-1.76171875,-2.3623046875
0.1825,3.8837890625,-0.9208984375,-2.8828125
0.183,3.763671875,-0.240234375,-3.4033203125
0.1835,3.3232421875,0.6005859375,-3.84375
0.184,2.9228515625,1.361328125,-4.2041015625
0.1845,2.2021484375,2.2822265625,-4.4443359375
0.185,1.44140625,2.6826171875,-4.1640625
0.1855,0.6005859375,3.283203125,-4.00390625
0.186,-0.2001953125,3.68359375,-3.5234375
0.1865,-0.9208984375,4.083984375,-3.203125
0.187,-1.8017578125,4.2041015625,-2.482421875
0.1875,-2.4423828125,4.32421875,-2.001953125
0.188,-2.7626953125,3.8837890625,-1.3212890625
0.1885,-3.283203125,3.84375,-0.720703125
0.189,-3.5234375,3.203125,0.080078125
0.1895,-3.8837890625,2.8427734375,0.80078125
0.19,-4.00390625,1.921875,1.76171875
0.1905,-3.923828125,1.44140625,2.2421875
0.191,-3.6435546875,0.6005859375,2.802734375
0.1915,-3.4033203125,0.0,3.203125
0.192,-3.0830078125,-0.80078125,3.6435546875
0.1925,-2.482421875,-1.5615234375,3.8837890625
0.193,-1.921875,-2.3623046875,4.1240234375
0.1935,-1.1611328125,-2.72265625,3.68359375
0.194,-0.4404296875,-3.3232421875,3.68359375
0.1945,0.3603515625,-3.6435546875,3.1630859375
0.195,1.041015625,-4.0439453125,2.962890625
0.1955,1.921875,-4.1640625,2.2421875
0.196,2.322265625,-4.2041015625,1.921875
0.1965,2.6826171875,-3.84375,1.2412109375
0.197,3.123046875,-3.7236328125,0.6806640625
0.1975,3.443359375,-3.203125,-0.1201171875
0.198,3.7236328125,-2.802734375,-0.8408203125
0.1985,3.923828125,-2.08203125,-1.681640625
0.199,3.8037109375,-1.6015625,-2.08203125
0.1995,3.7236328125,-0.880859375,-2.72265625
0.2,3.443359375,-0.16015625,-3.1630859375
0.2005,3.2431640625,0.560546875,-3.7236328125
0.201,2.642578125,1.28125,-3.923828125
0.2015,2.2021484375,1.921875,-4.1240234375
0.202,1.3212890625,2.40234375,-3.7236328125
0.2025,0.640625,3.04296875,-3.7236328125
0.203,-0.16015625,3.443359375,-3.283203125
0.2035,-0.80078125,3.8037109375,-3.0830078125
0.204,-1.6015625,3.9638671875,-2.482421875
0.2045,-1.9619140625,3.923828125,-2.1220703125
0.205,-2.4423828125,3.763671875,-1.44140625
0.2055,-2.8427734375,3.4833984375,-0.80078125
0.206,-3.283203125,3.123046875,0.0
0.2065,-3.5634765625,2.5224609375,0.7607421875
0.207,-3.8037109375,2.0419921875,1.521484375
0.2075,-3.5234375,1.4013671875,1.921875
0.208,-3.5634765625,0.7607421875,2.5224609375
0.2085,-3.1630859375,-0.0400390625,3.0029296875
0.209,-2.962890625,-0.720703125,3.4833984375
0.2095,-2.322265625,-1.5615234375,3.68359375
0.21,-1.841796875,-2.001953125,3.7236328125
0.2105,-1.0009765625,-2.5625,3.4833984375
0.211,-0.3603515625,-3.0830078125,3.36328125
0.2115,0.400390625,-3.5234375,3.04296875
0.212,1.0810546875,-3.84375,2.6826171875
0.2125,1.76171875,-4.0439453125,2.2421875
0.213,2.0419921875,-3.84375,1.76171875
0.2135,2.6025390625,-3.84375,1.2412109375
0.214,2.962890625,-3.36328125,0.48046875
0.2145,3.4033203125,-3.0830078125,-0.2001953125
0.215,3.5234375,-2.4423828125,-1.041015625
0.2155,3.763671875,-2.08203125,-1.6015625
0.216,3.4833984375,-1.3212890625,-2.08203125
0.2165,3.5634765625,-0.80078125,-2.6826171875
0.217,3.2431640625,0.0,-3.203125
0.2175,3.0029296875,0.640625,-3.603515625
0.218,2.482421875,1.4013671875,-3.8837890625
0.2185,1.841796875,1.921875,-3.7236328125
0.219,1.0810546875,2.5224609375,-3.603515625
0.2195,0.3203125,3.0029296875,-3.36328125
0.22,-0.3203125,3.4833984375,-3.1630859375
0.2205,-1.0009765625,3.68359375,-2.72265625
0.221,-1.6015625,3.8837890625,-2.40234375
0.2215,-1.921875,3.6435546875,-1.8017578125
0.222,-2.5224609375,3.7236328125,-1.3212890625
0.2225,-2.8828125,3.1630859375,-0.4404296875
0.223,-3.283203125,2.8828125,0.2001953125
0.2235,-3.5234375,2.2021484375,1.0810546875
0.224,-3.5634765625,1.8818359375,1.521484375
0.2245,-3.36328125,1.0810546875,2.08203125
0.225,-3.3232421875,0.4404296875,2.642578125
0.2255,-3.0029296875,-0.3203125,3.1630859375
0.226,-2.6025390625,-1.041015625,3.443359375
0.2265,-2.1220703125,-1.76171875,3.7236328125
0.227,-1.361328125,-2.162109375,3.4033203125
0.2275,-0.720703125,-2.8427734375,3.4833984375
0.228,0.0400390625,-3.2431640625,3.123046875
0.2285,0.640625,-3.6435546875,2.9228515625
