wavelength,x,y,z
0.0,-24.849243164062,5.7005615234375,18.873413085938
0.0005,-21.806274414062,0.1351318359375,21.435913085938
0.001,-19.884399414062,-4.7496337890625,24.358764648438
0.0015,-15.600219726562,-9.7545166015625,25.079467773438
0.002,-12.637329101562,-14.158813476562,26.520874023438
0.0025,-7.8326416015625,-17.401977539062,24.959350585938
0.003,-2.7476806640625,-20.484985351562,23.037475585938
0.0035,2.3372802734375,-22.406860351562,19.994506835938
0.004,7.7425537109375,-25.209594726562,17.512084960938
0.0045,12.467163085938,-25.609985351562,13.227905273438
0.005,16.631225585938,-25.489868164062,8.9837646484375
0.0055,19.233764648438,-24.849243164062,5.9007568359375
0.006,22.356811523438,-22.246704101562,0.0550537109375
0.0065,24.558959960938,-19.644165039062,-4.8297119140625
0.007,25.640014648438,-15.960571289062,-9.6744384765625
0.0075,26.600952148438,-12.877563476562,-13.798461914062
0.008,25.199584960938,-7.8326416015625,-17.482055664062
0.0085,24.158569335938,-4.2291259765625,-20.044555664062
0.009,20.995483398438,1.1761474609375,-22.486938476562
0.0095,18.753295898438,6.7015380859375,-25.569946289062
0.01,13.948608398438,11.586303710938,-25.609985351562
0.0105,10.865600585938,15.670288085938,-26.610961914062
0.011,6.4212646484375,18.312866210938,-24.849243164062
0.0115,0.8157958984375,21.395874023438,-22.446899414062
0.012,-3.9888916015625,23.197631835938,-19.524047851562
0.0125,-9.8746337890625,25.760131835938,-16.320922851562
0.013,-13.798461914062,25.920288085938,-12.637329101562
0.0135,-18.082641601562,25.279663085938,-7.7125244140625
0.014,-20.204711914062,24.118530273438,-4.5093994140625
0.0145,-23.047485351562,21.435913085938,1.1361083984375
0.015,-25.289672851562,18.633178710938,6.2210693359375
0.0155,-25.730102539062,14.228881835938,11.105834960938
0.016,-26.570922851562,11.426147460938,14.789428710938
0.0165,-24.809204101562,6.4212646484375,18.072631835938
0.017,-23.207641601562,2.3773193359375,20.715209960938
0.0175,-20.324829101562,-2.8677978515625,22.917358398438
0.018,-17.562133789062,-8.6734619140625,25.920288085938
0.0185,-12.997680664062,-12.837524414062,25.559936523438
0.019,-9.2340087890625,-16.801391601562,25.760131835938
0.0195,-5.0299072265625,-18.963500976562,23.758178710938
0.02,0.8958740234375,-22.046508789062,21.115600585938
0.0205,5.5804443359375,-23.848266601562,18.312866210938
0.021,11.386108398438,-25.650024414062,14.389038085938
0.0215,14.669311523438,-25.770141601562,11.265991210938
0.022,18.753295898438,-24.729125976562,6.1810302734375
0.0225,20.835327148438,-23.167602539062,2.5374755859375
0.023,23.397827148438,-20.484985351562,-2.7476806640625
0.0235,25.599975585938,-17.562133789062,-7.9927978515625
0.024,25.359741210938,-13.117797851562,-12.357055664062
0.0245,26.040405273438,-10.194946289062,-16.000610351562
0.025,23.958374023438,-5.7105712890625,-18.643188476562
0.0255,22.116577148438,-0.9058837890625,-21.405883789062
0.026,19.313842773438,3.9788818359375,-23.407836914062
0.0265,15.950561523438,9.9447021484375,-26.010375976562
0.027,11.986694335938,13.468139648438,-25.529907226562
0.0275,7.7425537109375,17.391967773438,-25.249633789062
0.028,3.8187255859375,19.153686523438,-23.087524414062
0.0285,-1.9468994140625,22.196655273438,-20.565063476562
0.029,-6.9117431640625,24.078491210938,-17.522094726562
0.0295,-12.357055664062,25.239624023438,-13.358032226562
0.03,-15.520141601562,25.319702148438,-10.315063476562
0.0305,-18.963500976562,23.958374023438,-5.5504150390625
0.031,-21.085571289062,22.116577148438,-1.6265869140625
0.0315,-23.367797851562,19.554077148438,3.3382568359375
0.032,-25.489868164062,16.230834960938,8.8636474609375
0.0325,-24.969360351562,11.946655273438,12.627319335938
0.033,-25.329711914062,8.8636474609375,16.350952148438
0.0335,-23.207641601562,4.3392333984375,18.593139648438
0.034,-21.285766601562,-0.5855712890625,21.636108398438
0.0345,-18.402954101562,-5.3502197265625,23.437866210938
0.035,-14.839477539062,-11.155883789062,25.680053710938
0.0355,-11.155883789062,-14.238891601562,25.119506835938
0.036,-6.5513916015625,-17.922485351562,24.198608398438
0.0365,-2.0670166015625,-19.804321289062,21.676147460938
0.037,3.1380615234375,-22.647094726562,19.473999023438
0.0375,8.4632568359375,-24.448852539062,15.990600585938
0.038,13.107788085938,-25.049438476562,12.066772460938
0.0385,16.511108398438,-25.169555664062,8.8236083984375
0.039,19.674194335938,-23.287719726562,3.8587646484375
0.0395,21.916381835938,-21.325805664062,-0.5054931640625
0.04,23.838256835938,-18.723266601562,-5.0699462890625
0.0405,25.720092773438,-15.199829101562,-10.555297851562
0.041,24.719116210938,-11.075805664062,-14.038696289062
0.0415,24.919311523438,-7.5523681640625,-17.522094726562
0.042,22.396850585938,-2.8277587890625,-19.684204101562
0.0425,20.515014648438,2.1370849609375,-22.767211914062
0.043,16.911499023438,7.1820068359375,-24.248657226562
0.0435,13.428100585938,12.467163085938,-25.970336914062
0.044,9.5042724609375,15.590209960938,-25.209594726562
0.0445,4.7396240234375,18.873413085938,-23.688110351562
0.045,0.1351318359375,20.715209960938,-21.085571289062
0.0455,-4.8297119140625,23.397827148438,-18.923461914062
0.046,-10.395141601562,24.879272460938,-14.919555664062
0.0465,-14.439086914062,24.839233398438,-10.915649414062
0.047,-17.682250976562,24.959350585938,-7.7926025390625
0.0475,-20.525024414062,22.476928710938,-2.5074462890625
0.048,-22.807250976562,20.354858398438,1.9769287109375
0.0485,-24.208618164062,17.271850585938,6.5413818359375
0.049,-25.970336914062,13.748413085938,11.826538085938
0.0495,-24.769165039062,9.3040771484375,15.149780273438
0.05,-24.368774414062,5.7806396484375,18.312866210938
0.0505,-21.606079101562,1.0159912109375,20.354858398438
0.051,-19.804321289062,-3.9488525390625,23.477905273438
0.0515,-15.720336914062,-9.0738525390625,24.478881835938
0.052,-12.276977539062,-13.598266601562,25.599975585938
0.0525,-8.3531494140625,-16.641235351562,24.759155273438
0.053,-2.9879150390625,-19.724243164062,22.476928710938
0.0535,1.7366943359375,-21.606079101562,19.834350585938
0.054,6.7015380859375,-24.008422851562,17.311889648438
0.0545,11.826538085938,-25.209594726562,13.508178710938
0.055,15.670288085938,-24.528930664062,8.9837646484375
0.0555,18.513061523438,-24.408813476562,6.1009521484375
0.056,21.115600585938,-21.726196289062,0.7357177734375
0.0565,23.598022460938,-19.564086914062,-3.9888916015625
0.057,24.318725585938,-15.920532226562,-8.4732666015625
0.0575,25.599975585938,-12.717407226562,-12.957641601562
0.058,24.358764648438,-8.3131103515625,-16.080688476562
0.0585,23.277709960938,-4.3092041015625,-19.083618164062
0.059,20.555053710938,0.2952880859375,-20.965454101562
0.0595,18.432983398438,5.4603271484375,-23.968383789062
0.06,14.228881835938,10.385131835938,-24.729125976562
0.0605,10.545288085938,14.429077148438,-25.049438476562
0.061,7.2220458984375,16.951538085938,-24.288696289062
0.0615,1.5765380859375,19.754272460938,-21.485961914062
0.062,-2.8277587890625,21.756225585938,-19.243774414062
0.0625,-7.9527587890625,23.557983398438,-16.000610351562
0.063,-12.357055664062,24.839233398438,-12.957641601562
0.0635,-16.040649414062,23.678100585938,-8.1929931640625
0.064,-18.523071289062,23.117553710938,-5.1099853515625
0.0645,-20.685180664062,20.474975585938,-0.3453369140625
0.065,-23.327758789062,18.392944335938,4.4593505859375
0.0655,-23.567993164062,14.348999023438,8.8636474609375
0.066,-24.649047851562,11.346069335938,13.027709960938
0.0665,-23.567993164062,7.6624755859375,15.630249023438
0.067,-21.926391601562,3.1380615234375,18.553100585938
0.0675,-19.684204101562,-1.1060791015625,20.474975585938
0.068,-17.201782226562,-6.2711181640625,23.197631835938
0.0685,-13.758422851562,-10.595336914062,24.038452148438
0.069,-9.4742431640625,-14.439086914062,23.638061523438
0.0695,-6.4312744140625,-16.641235351562,22.797241210938
0.07,-0.9058837890625,-19.283813476562,19.994506835938
0.0705,3.5384521484375,-21.726196289062,18.152709960938
0.071,8.5833740234375,-22.807250976562,14.268920898438
0.0715,12.307006835938,-24.208618164062,11.946655273438
0.072,15.830444335938,-23.087524414062,7.3822021484375
0.0725,18.473022460938,-22.046508789062,3.6585693359375
0.073,20.555053710938,-19.724243164062,-0.7857666015625
0.0735,23.197631835938,-17.482055664062,-5.6304931640625
0.074,23.197631835938,-13.518188476562,-9.6744384765625
0.0745,23.918334960938,-10.234985351562,-13.798461914062
0.075,22.957397460938,-7.1119384765625,-15.960571289062
0.0755,20.955444335938,-2.1470947265625,-18.963500976562
0.076,18.833374023438,2.2171630859375,-21.125610351562
0.0765,15.510131835938,7.5823974609375,-23.207641601562
0.077,12.787475585938,11.346069335938,-24.288696289062
0.0775,8.1429443359375,15.069702148438,-23.327758789062
0.078,4.9798583984375,17.111694335938,-22.166625976562
0.0785,-0.3052978515625,19.674194335938,-19.604125976562
0.079,-5.2301025390625,22.356811523438,-17.482055664062
0.0795,-9.9947509765625,22.877319335938,-13.277954101562
0.08,-13.678344726562,23.838256835938,-10.715454101562
0.0805,-16.521118164062,22.677124023438,-6.7115478515625
0.081,-19.203735351562,21.115600585938,-2.5074462890625
0.0815,-21.165649414062,18.793334960938,1.9368896484375
0.082,-23.527954101562,15.990600585938,7.1820068359375
0.0825,-23.447875976562,12.387084960938,10.745483398438
0.083,-23.648071289062,8.5433349609375,14.869506835938
0.0835,-22.446899414062,5.4603271484375,16.671264648438
0.084,-20.324829101562,0.3753662109375,19.714233398438
0.0845,-17.962524414062,-4.3492431640625,22.076538085938
0.085,-14.238891601562,-9.5142822265625,23.437866210938
0.0855,-11.676391601562,-12.877563476562,24.318725585938
0.086,-6.7515869140625,-16.280883789062,22.717163085938
0.0865,-2.7476806640625,-18.402954101562,20.875366210938
0.087,2.0169677734375,-20.685180664062,18.593139648438
0.0875,7.5023193359375,-23.327758789062,15.870483398438
0.088,11.466186523438,-23.247680664062,11.826538085938
0.0885,15.390014648438,-23.848266601562,8.6234130859375
0.089,17.672241210938,-22.286743164062,4.6995849609375
0.0895,20.474975585938,-20.444946289062,0.0950927734375
0.09,22.156616210938,-17.962524414062,-4.2291259765625
0.0905,23.958374023438,-14.519165039062,-9.3941650390625
0.091,23.758178710938,-11.316040039062,-12.517211914062
0.0915,23.237670898438,-7.1920166015625,-16.120727539062
0.092,21.556030273438,-3.8287353515625,-17.882446289062
0.0925,19.514038085938,1.1361083984375,-20.725219726562
0.093,16.591186523438,6.3411865234375,-23.007446289062
0.0935,12.667358398438,10.865600585938,-23.648071289062
0.094,9.9447021484375,14.108764648438,-24.168579101562
0.0945,5.3802490234375,16.751342773438,-22.246704101562
0.095,1.0159912109375,18.993530273438,-20.204711914062
0.0955,-3.3482666015625,21.035522460938,-18.002563476562
0.096,-8.9937744140625,23.277709960938,-14.759399414062
0.0965,-12.236938476562,22.877319335938,-11.155883789062
0.097,-16.000610351562,23.197631835938,-7.7125244140625
0.0975,-17.882446289062,21.315795898438,-3.9888916015625
0.098,-20.444946289062,19.473999023438,0.5755615234375
0.0985,-21.966430664062,16.711303710938,4.8597412109375
0.099,-23.127563476562,13.107788085938,9.6644287109375
0.0995,-23.287719726562,10.184936523438,12.787475585938
0.1,-22.206665039062,6.1409912109375,15.750366210938
0.1005,-20.484985351562,2.6575927734375,17.632202148438
0.101,-18.683227539062,-1.8668212890625,20.234741210938
0.1015,-15.720336914062,-7.1920166015625,22.637084960938
0.102,-12.076782226562,-10.835571289062,22.597045898438
0.1025,-9.1138916015625,-14.238891601562,23.077514648438
0.103,-4.6695556640625,-16.360961914062,20.795288085938
0.1035,-0.2652587890625,-18.923461914062,19.033569335938
0.104,3.9788818359375,-20.765258789062,16.671264648438
0.1045,9.2640380859375,-22.727172851562,13.468139648438
0.105,12.307006835938,-22.366821289062,10.104858398438
0.1055,15.710327148438,-22.286743164062,6.7015380859375
0.106,17.592163085938,-20.484985351562,3.0980224609375
0.1065,20.154663085938,-18.723266601562,-1.3463134765625
0.107,21.676147460938,-15.840454101562,-5.8306884765625
0.1075,22.356811523438,-12.477172851562,-9.9146728515625
0.108,22.757202148438,-9.6343994140625,-13.157836914062
0.1085,21.195678710938,-5.5904541015625,-15.760375976562
0.109,19.714233398438,-1.7867431640625,-18.002563476562
0.1095,17.632202148438,2.6575927734375,-20.364868164062
0.11,14.589233398438,7.9827880859375,-22.687133789062
0.1105,11.025756835938,11.265991210938,-22.406860351562
0.111,7.9027099609375,14.589233398438,-22.567016601562
0.1115,3.6185302734375,16.511108398438,-20.244750976562
0.112,-0.7857666015625,19.193725585938,-18.683227539062
0.1125,-5.3902587890625,20.795288085938,-15.760375976562
0.113,-10.034790039062,22.436889648438,-12.877563476562
0.1135,-13.277954101562,22.196655273438,-9.4342041015625
0.114,-16.280883789062,21.475952148438,-5.7506103515625
0.1145,-18.122680664062,19.674194335938,-2.0670166015625
0.115,-20.565063476562,17.792358398438,2.3372802734375
0.1155,-22.006469726562,14.589233398438,7.0618896484375
0.116,-22.166625976562,11.145874023438,10.745483398438
0.1165,-22.486938476562,8.4632568359375,13.788452148438
0.117,-20.525024414062,4.0989990234375,16.230834960938
0.1175,-19.123657226562,0.0150146484375,18.873413085938
0.118,-16.521118164062,-4.5894775390625,20.795288085938
0.1185,-13.718383789062,-9.4742431640625,22.917358398438
0.119,-9.7945556640625,-12.637329101562,22.156616210938
0.1195,-6.2711181640625,-15.680297851562,21.636108398438
0.12,-1.7867431640625,-17.642211914062,19.193725585938
0.1205,2.6976318359375,-20.444946289062,17.672241210938
0.121,7.4622802734375,-21.606079101562,14.108764648438
0.1215,11.506225585938,-22.607055664062,11.185913085938
0.122,14.589233398438,-22.446899414062,7.9427490234375
0.1225,17.472045898438,-20.885375976562,3.5384521484375
0.123,19.473999023438,-18.963500976562,-0.4654541015625
0.1235,21.435913085938,-16.721313476562,-4.6295166015625
0.124,22.637084960938,-13.558227539062,-9.1138916015625
0.1245,22.276733398438,-9.6343994140625,-12.677368164062
0.125,22.156616210938,-7.0318603515625,-15.279907226562
0.1255,19.834350585938,-2.4273681640625,-17.522094726562
0.126,18.352905273438,1.9368896484375,-20.364868164062
0.1265,14.869506835938,6.5814208984375,-21.566040039062
0.127,12.387084960938,10.825561523438,-23.247680664062
0.1275,8.4232177734375,13.868530273438,-22.406860351562
0.128,4.4993896484375,16.511108398438,-21.165649414062
0.1285,0.1351318359375,18.312866210938,-18.723266601562
0.129,-4.5093994140625,20.995483398438,-16.881469726562
0.1295,-9.1138916015625,21.956420898438,-13.317993164062
0.13,-12.877563476562,22.276733398438,-9.8345947265625
0.1305,-15.400024414062,22.116577148438,-7.2320556640625
0.131,-17.962524414062,20.114624023438,-2.7076416015625
0.1315,-20.044555664062,18.232788085938,1.4163818359375
0.132,-21.405883789062,15.309936523438,5.7005615234375
0.1325,-22.687133789062,12.627319335938,9.6644287109375
0.133,-21.926391601562,8.5433349609375,13.107788085938
0.1335,-21.485961914062,5.6204833984375,15.630249023438
0.134,-19.163696289062,1.2562255859375,17.632202148438
0.1345,-17.642211914062,-3.2681884765625,20.675170898438
0.135,-14.038696289062,-7.7525634765625,21.515991210938
0.1355,-11.356079101562,-11.556274414062,22.597045898438
0.136,-7.8726806640625,-14.278930664062,21.796264648438
0.1365,-3.1480712890625,-16.961547851562,19.834350585938
0.137,0.8558349609375,-18.803344726562,17.832397460938
0.1375,5.6204833984375,-21.045532226562,15.390014648438
0.138,9.5443115234375,-22.046508789062,12.547241210938
0.1385,13.428100585938,-21.766235351562,8.4632568359375
0.139,15.710327148438,-21.526000976562,5.9407958984375
0.1395,18.112670898438,-19.403930664062,1.4564208984375
0.14,20.555053710938,-17.642211914062,-2.8677978515625
0.1405,21.275756835938,-14.238891601562,-7.0718994140625
0.141,22.557006835938,-11.876586914062,-10.755493164062
0.1415,21.596069335938,-7.9927978515625,-13.678344726562
0.142,20.635131835938,-4.4293212890625,-16.360961914062
0.1425,18.593139648438,-0.3853759765625,-18.322875976562
0.143,16.511108398438,4.6195068359375,-21.205688476562
0.1435,13.107788085938,8.7034912109375,-21.926391601562
0.144,9.7845458984375,12.507202148438,-22.366821289062
0.1445,6.9017333984375,14.589233398438,-21.646118164062
0.145,1.8968505859375,17.311889648438,-19.363891601562
0.1455,-2.1470947265625,19.433959960938,-17.562133789062
0.146,-7.1519775390625,21.155639648438,-14.399047851562
0.1465,-10.595336914062,22.276733398438,-12.156860351562
0.147,-14.318969726562,21.636108398438,-7.8326416015625
0.1475,-16.601196289062,20.835327148438,-4.7896728515625
0.148,-18.723266601562,18.753295898438,-0.5855712890625
0.1485,-21.285766601562,16.711303710938,4.1390380859375
0.149,-21.526000976562,12.987670898438,8.1829833984375
0.1495,-22.567016601562,10.345092773438,11.906616210938
0.15,-21.566040039062,6.9417724609375,14.348999023438
0.1505,-20.084594726562,2.6976318359375,17.151733398438
0.151,-18.122680664062,-1.3463134765625,19.193725585938
0.1515,-15.400024414062,-6.5914306640625,21.756225585938
0.152,-12.517211914062,-10.114868164062,22.276733398438
0.1525,-8.3931884765625,-13.998657226562,22.076538085938
0.153,-5.1500244140625,-15.880493164062,20.795288085938
0.1535,-0.1851806640625,-18.563110351562,18.553100585938
0.154,4.2991943359375,-20.805297851562,16.471069335938
0.1545,9.0238037109375,-21.806274414062,12.827514648438
0.155,12.347045898438,-22.727172851562,10.465209960938
0.1555,15.630249023438,-21.726196289062,6.2611083984375
0.156,18.032592773438,-20.404907226562,2.5374755859375
0.1565,19.994506835938,-18.282836914062,-1.6265869140625
0.157,22.276733398438,-15.680297851562,-6.5914306640625
0.1575,22.156616210938,-12.116821289062,-10.034790039062
0.158,22.757202148438,-8.9537353515625,-13.958618164062
0.1585,21.315795898438,-5.4703369140625,-15.960571289062
0.159,19.554077148438,-0.9058837890625,-18.843383789062
0.1595,17.231811523438,3.5384521484375,-20.845336914062
0.16,13.948608398438,8.8236083984375,-22.767211914062
0.1605,11.225952148438,11.826538085938,-23.207641601562
0.161,6.7816162109375,15.390014648438,-22.326782226562
0.1615,3.0980224609375,17.271850585938,-20.484985351562
0.162,-1.5865478515625,19.674194335938,-18.402954101562
0.1625,-6.5513916015625,21.956420898438,-15.720336914062
0.163,-10.755493164062,22.356811523438,-12.036743164062
0.1635,-14.238891601562,22.917358398438,-9.2340087890625
0.164,-16.841430664062,21.435913085938,-5.1099853515625
0.1645,-19.203735351562,19.874389648438,-1.1461181640625
0.165,-21.005493164062,17.512084960938,3.0579833984375
0.1655,-22.927368164062,14.348999023438,8.2230224609375
0.166,-22.607055664062,11.025756835938,11.346069335938
0.1665,-22.727172851562,7.4622802734375,14.989624023438
0.167,-20.965454101562,3.8988037109375,16.791381835938
0.1675,-19.203735351562,-0.7857666015625,19.714233398438
0.168,-16.521118164062,-5.5904541015625,21.596069335938
0.1685,-12.997680664062,-10.234985351562,22.917358398438
0.169,-10.194946289062,-13.317993164062,23.197631835938
0.1695,-5.5103759765625,-16.360961914062,21.596069335938
0.17,-1.3062744140625,-18.402954101562,19.514038085938
0.1705,3.0579833984375,-20.645141601562,17.552124023438
0.171,8.3431396484375,-22.727172851562,14.389038085938
0.1715,11.826538085938,-22.567016601562,10.825561523438
0.172,15.510131835938,-23.047485351562,7.7025146484375
0.1725,17.952514648438,-21.085571289062,3.2581787109375
0.173,20.434936523438,-19.323852539062,-0.9859619140625
0.1735,21.796264648438,-16.761352539062,-4.9898681640625
0.174,23.357788085938,-13.438110351562,-9.9146728515625
0.1745,22.917358398438,-10.114868164062,-12.957641601562
0.175,22.476928710938,-6.3511962890625,-16.280883789062
0.1755,20.394897460938,-2.3873291015625,-18.122680664062
0.176,18.673217773438,2.2572021484375,-20.885375976562
0.1765,15.269897460938,7.2220458984375,-22.687133789062
0.177,11.866577148438,11.346069335938,-23.367797851562
0.1775,8.8236083984375,14.589233398438,-23.527954101562
0.178,3.9788818359375,17.311889648438,-21.445922851562
