wavelength,x,y,z
0.0,19.984497070312,-11.165893554688,-8.0828857421875
0.0005,19.664184570312,-7.4022216796875,-11.486206054688
0.001,18.703247070312,-3.1580810546875,-14.769409179688
0.0015,16.981567382812,1.2061767578125,-17.452026367188
0.002,15.500122070312,4.1690673828125,-18.933471679688
0.0025,13.498168945312,7.0118408203125,-19.774291992188
0.003,9.9747314453125,10.094848632812,-19.494018554688
0.0035,5.1300048828125,13.778442382812,-18.533081054688
0.004,0.5255126953125,16.781372070312,-17.131713867188
0.0045,-3.7186279296875,19.063598632812,-15.410034179688
0.005,-6.2811279296875,19.944458007812,-13.968627929688
0.0055,-9.2039794921875,20.304809570312,-11.566284179688
0.006,-12.367065429688,19.904418945312,-8.2030029296875
0.0065,-15.730346679688,18.623168945312,-3.6785888671875
0.007,-18.453002929688,16.781372070312,0.8458251953125
0.0075,-20.134643554688,15.219848632812,4.0089111328125
0.008,-20.695190429688,13.017700195312,6.7315673828125
0.0085,-20.535034179688,9.7745361328125,9.8546142578125
0.009,-19.854370117188,5.4102783203125,13.418090820312
0.0095,-18.693237304688,1.1661376953125,16.541137695312
0.01,-16.931518554688,-3.0780029296875,18.983520507812
0.0105,-15.129760742188,-5.8006591796875,19.984497070312
0.011,-12.687377929688,-8.6834716796875,20.505004882812
0.0115,-8.4832763671875,-12.206909179688,20.024536132812
0.012,-3.3983154296875,-15.610229492188,18.543090820312
0.0125,1.3262939453125,-18.372924804688,16.861450195312
0.013,5.0899658203125,-20.334838867188,15.339965820312
0.0135,7.7325439453125,-20.855346679688,13.418090820312
0.014,10.775512695312,-20.935424804688,10.615356445312
0.0145,14.379028320312,-20.174682617188,6.4112548828125
0.015,17.542114257812,-18.653198242188,1.9268798828125
0.0155,19.904418945312,-16.691284179688,-2.4774169921875
0.016,21.105590820312,-14.889526367188,-5.3201904296875
0.0165,21.345825195312,-12.327026367188,-8.2030029296875
0.017,20.985473632812,-8.4031982421875,-11.686401367188
0.0175,19.824340820312,-4.0389404296875,-15.089721679688
0.018,18.382934570312,0.4053955078125,-17.892456054688
0.0185,16.621215820312,4.0889892578125,-20.254760742188
0.019,14.298950195312,7.0518798828125,-20.575073242188
0.0195,11.496215820312,10.014770507812,-20.815307617188
0.02,6.5313720703125,13.938598632812,-20.054565429688
0.0205,1.5264892578125,17.141723632812,-18.332885742188
0.021,-3.0780029296875,19.463989257812,-16.411010742188
0.0215,-6.2811279296875,21.025512695312,-15.009643554688
0.022,-9.0838623046875,21.305786132812,-12.687377929688
0.0225,-12.206909179688,20.985473632812,-9.4442138671875
0.023,-15.690307617188,19.904418945312,-4.9998779296875
0.0235,-18.733276367188,18.142700195312,-0.2752685546875
0.024,-20.815307617188,16.180786132812,3.7286376953125
0.0245,-21.455932617188,14.058715820312,6.4512939453125
0.025,-21.656127929688,11.175903320312,9.4542236328125
0.0255,-21.135620117188,6.6915283203125,13.297973632812
0.026,-19.734252929688,2.3673095703125,16.421020507812
0.0265,-17.972534179688,-1.9569091796875,18.943481445312
0.027,-16.370971679688,-5.4803466796875,20.865356445312
0.0275,-13.728393554688,-8.2030029296875,21.065551757812
0.028,-10.365112304688,-11.366088867188,20.985473632812
0.0285,-5.2801513671875,-15.169799804688,19.904418945312
0.029,0.0450439453125,-18.332885742188,18.062622070312
0.0295,4.2491455078125,-20.374877929688,16.140747070312
0.03,7.0919189453125,-21.536010742188,14.579223632812
0.0305,10.214965820312,-21.776245117188,11.936645507812
0.031,13.778442382812,-21.015502929688,7.8927001953125
0.0315,16.941528320312,-19.814331054688,3.5284423828125
0.032,19.864379882812,-17.852416992188,-1.2762451171875
0.0325,21.626098632812,-16.010620117188,-4.8397216796875
0.033,21.786254882812,-13.448120117188,-7.5623779296875
0.0335,21.866333007812,-10.405151367188,-10.765502929688
0.034,20.985473632812,-5.4002685546875,-14.729370117188
0.0345,19.504028320312,-0.9959716796875,-17.772338867188
0.035,17.542114257812,3.2081298828125,-19.894409179688
0.0355,15.740356445312,6.4512939453125,-21.255737304688
0.036,12.737426757812,9.4542236328125,-21.495971679688
0.0365,8.3731689453125,13.137817382812,-20.975463867188
0.037,3.5284423828125,16.501098632812,-19.734252929688
0.0375,-1.9168701171875,19.544067382812,-17.612182617188
0.038,-5.7606201171875,21.185668945312,-15.890502929688
0.0385,-8.5233154296875,21.866333007812,-13.768432617188
0.039,-11.566284179688,22.066528320312,-11.165893554688
0.0395,-15.530151367188,20.865356445312,-6.1209716796875
0.04,-18.573120117188,19.263793945312,-1.5965576171875
0.0405,-20.975463867188,17.261840820312,2.8077392578125
0.041,-22.456909179688,15.339965820312,6.0909423828125
0.0415,-22.336791992188,12.256958007812,8.9737548828125
0.042,-22.136596679688,8.6534423828125,12.497192382812
0.0425,-21.015502929688,3.8487548828125,16.100708007812
0.043,-19.293823242188,-0.9959716796875,19.223754882812
0.0435,-17.171752929688,-4.7596435546875,21.065551757812
0.044,-15.169799804688,-7.7225341796875,21.986450195312
0.0445,-12.086791992188,-10.765502929688,22.066528320312
0.045,-6.6014404296875,-15.009643554688,20.945434570312
0.0455,-1.7967529296875,-17.932495117188,19.263793945312
0.046,3.2481689453125,-20.535034179688,17.301879882812
0.0465,6.7716064453125,-22.096557617188,15.540161132812
0.047,9.7344970703125,-22.136596679688,12.817504882812
0.0475,12.737426757812,-22.176635742188,10.054809570312
0.048,16.701293945312,-20.815307617188,4.8096923828125
0.0485,19.784301757812,-18.853393554688,-0.1951904296875
0.049,21.586059570312,-16.891479492188,-3.8787841796875
0.0495,22.546997070312,-14.809448242188,-6.9617919921875
0.05,22.346801757812,-11.566284179688,-9.8846435546875
0.0505,21.786254882812,-7.0018310546875,-13.848510742188
0.051,20.464965820312,-2.7176513671875,-16.851440429688
0.0515,18.703247070312,2.0469970703125,-19.774291992188
0.052,16.621215820312,5.6505126953125,-21.415893554688
0.0525,13.938598632812,8.4932861328125,-21.656127929688
0.053,10.855590820312,11.616333007812,-21.856323242188
0.0535,4.8096923828125,15.940551757812,-20.374877929688
0.054,-0.2752685546875,18.823364257812,-18.453002929688
0.0545,-4.4393310546875,20.865356445312,-16.611206054688
0.055,-7.6424560546875,22.266723632812,-14.969604492188
0.0555,-10.725463867188,21.986450195312,-11.806518554688
0.056,-13.888549804688,21.505981445312,-8.3231201171875
0.0565,-17.371948242188,20.184692382812,-3.6385498046875
0.057,-20.374877929688,17.942504882812,1.5665283203125
0.0575,-21.816284179688,15.980590820312,4.8497314453125
0.058,-22.376831054688,13.578247070312,7.7725830078125
0.0585,-22.256713867188,10.535278320312,10.695434570312
0.059,-21.295776367188,5.2501220703125,15.019653320312
0.0595,-19.734252929688,0.9659423828125,17.782348632812
0.06,-18.012573242188,-3.2381591796875,20.224731445312
0.0605,-16.050659179688,-6.6014404296875,21.746215820312
0.061,-12.887573242188,-9.4842529296875,21.465942382812
0.0615,-9.2840576171875,-12.807495117188,21.425903320312
0.062,-3.6385498046875,-16.691284179688,19.864379882812
0.0625,1.7667236328125,-19.614135742188,17.662231445312
0.063,5.2100830078125,-21.135620117188,16.020629882812
0.0635,8.3331298828125,-22.216674804688,14.138793945312
0.064,11.416137695312,-22.016479492188,11.095825195312
0.0645,15.179809570312,-21.015502929688,6.4512939453125
0.065,18.262817382812,-19.614135742188,2.0870361328125
0.0655,20.865356445312,-17.612182617188,-2.5975341796875
0.066,22.026489257812,-15.570190429688,-5.6405029296875
0.0665,22.106567382812,-12.687377929688,-8.6033935546875
0.067,22.026489257812,-9.4442138671875,-11.686401367188
0.0675,20.865356445312,-4.2391357421875,-15.730346679688
0.068,19.063598632812,0.4454345703125,-18.573120117188
0.0685,17.301879882812,4.0889892578125,-20.494995117188
0.069,15.339965820312,7.2921142578125,-21.816284179688
0.0695,11.776489257812,10.335083007812,-21.415893554688
0.07,7.0518798828125,14.218872070312,-20.775268554688
0.0705,2.0469970703125,17.582153320312,-19.293823242188
0.071,-3.2781982421875,20.304809570312,-17.131713867188
0.0715,-6.4012451171875,21.586059570312,-15.410034179688
0.072,-9.4442138671875,22.106567382812,-13.127807617188
0.0725,-12.447143554688,21.946411132812,-10.164916992188
0.073,-16.411010742188,20.545043945312,-4.9598388671875
0.0735,-19.614135742188,18.743286132812,-0.2752685546875
0.074,-21.495971679688,16.821411132812,3.7686767578125
0.0745,-22.456909179688,14.739379882812,6.7716064453125
0.075,-22.296752929688,11.376098632812,9.9346923828125
0.0755,-21.896362304688,7.4923095703125,13.418090820312
0.076,-20.695190429688,2.6876220703125,17.021606445312
0.0765,-18.693237304688,-2.2772216796875,19.944458007812
0.077,-16.731323242188,-5.5604248046875,21.305786132812
0.0775,-14.529174804688,-8.5633544921875,22.266723632812
0.078,-10.765502929688,-11.806518554688,21.826293945312
0.0785,-5.1600341796875,-15.890502929688,20.464965820312
0.079,-0.2352294921875,-18.893432617188,18.823364257812
0.0795,4.5294189453125,-21.295776367188,16.781372070312
0.08,7.5323486328125,-22.296752929688,15.019653320312
0.0805,10.855590820312,-22.416870117188,12.016723632812
0.081,14.018676757812,-22.056518554688,8.6134033203125
0.0815,17.742309570312,-20.494995117188,3.5284423828125
0.082,20.665161132812,-18.292846679688,-1.5965576171875
0.0825,22.266723632812,-16.411010742188,-4.9998779296875
0.083,22.947387695312,-14.048706054688,-8.0428466796875
0.0835,22.587036132812,-10.405151367188,-11.245971679688
0.084,21.706176757812,-5.6405029296875,-15.129760742188
0.0845,20.344848632812,-1.2362060546875,-18.252807617188
0.085,18.342895507812,3.5284423828125,-20.975463867188
0.0855,16.060668945312,6.6915283203125,-21.936401367188
0.086,13.257934570312,9.8145751953125,-22.336791992188
0.0865,9.0137939453125,13.498168945312,-21.936401367188
0.087,3.2481689453125,17.301879882812,-20.214721679688
0.0875,-1.9569091796875,20.144653320312,-18.172729492188
0.088,-5.8807373046875,22.066528320312,-16.370971679688
0.0885,-8.9237060546875,22.747192382812,-14.328979492188
0.089,-12.206909179688,22.546997070312,-10.965698242188
0.0895,-15.730346679688,21.706176757812,-6.7615966796875
0.09,-19.093627929688,20.024536132812,-1.8768310546875
0.0905,-21.736206054688,17.662231445312,3.1280517578125
0.091,-22.857299804688,15.660278320312,6.2110595703125
0.0915,-23.217651367188,12.857543945312,9.3341064453125
0.092,-22.737182617188,8.8135986328125,12.857543945312
0.0925,-21.455932617188,3.8087158203125,16.621215820312
0.093,-19.453979492188,-0.7957763671875,19.383911132812
0.0935,-17.812377929688,-4.9998779296875,21.786254882812
0.094,-15.410034179688,-7.9227294921875,22.386840820312
0.0945,-12.086791992188,-11.005737304688,22.306762695312
0.095,-7.4022216796875,-14.809448242188,21.586059570312
0.0955,-1.7567138671875,-18.252807617188,19.584106445312
0.096,3.3282470703125,-20.775268554688,17.341918945312
0.0965,6.6514892578125,-22.176635742188,15.740356445312
0.097,9.7344970703125,-22.737182617188,13.338012695312
0.0975,12.977661132812,-22.256713867188,9.7344970703125
0.098,16.501098632812,-21.015502929688,5.1700439453125
0.0985,19.584106445312,-19.213745117188,0.4454345703125
0.099,21.826293945312,-17.051635742188,-3.9588623046875
0.0995,22.466918945312,-14.849487304688,-6.7215576171875
0.1,22.587036132812,-11.766479492188,-9.9647216796875
0.1005,22.026489257812,-7.5623779296875,-13.568237304688
0.101,20.665161132812,-2.7977294921875,-16.851440429688
0.1015,18.703247070312,1.7667236328125,-19.534057617188
0.102,16.941528320312,5.3702392578125,-21.375854492188
0.1025,14.338989257812,8.3331298828125,-21.856323242188
0.103,10.615356445312,11.536254882812,-21.536010742188
0.1035,5.7305908203125,15.339965820312,-20.575073242188
0.104,0.4053955078125,18.543090820312,-18.733276367188
0.1045,-4.2391357421875,20.785278320312,-16.611206054688
0.105,-7.1619873046875,21.786254882812,-14.969604492188
0.1055,-10.285034179688,22.106567382812,-12.487182617188
0.106,-13.728393554688,21.505981445312,-8.5633544921875
0.1065,-17.011596679688,20.264770507812,-3.7186279296875
0.107,-19.894409179688,18.182739257812,0.8458251953125
0.1075,-21.816284179688,16.260864257812,4.6495361328125
0.108,-22.216674804688,13.818481445312,7.4122314453125
0.1085,-22.176635742188,10.535278320312,10.655395507812
0.109,-21.415893554688,5.8907470703125,14.419067382812
0.1095,-20.014526367188,1.3262939453125,17.662231445312
0.11,-17.972534179688,-3.0780029296875,19.984497070312
0.1105,-16.170776367188,-6.1610107421875,21.345825195312
0.111,-13.528198242188,-9.1239013671875,21.786254882812
0.1115,-9.1639404296875,-12.687377929688,21.105590820312
0.112,-4.1990966796875,-16.010620117188,19.784301757812
0.1125,0.9659423828125,-19.093627929688,17.902465820312
0.113,5.0899658203125,-21.135620117188,16.060668945312
0.1135,7.7325439453125,-21.736206054688,14.138793945312
0.114,10.815551757812,-21.896362304688,11.536254882812
0.1145,14.619262695312,-21.095581054688,7.0118408203125
0.115,17.782348632812,-19.534057617188,2.4874267578125
0.1155,20.264770507812,-17.572143554688,-1.9569091796875
0.116,21.826293945312,-15.770385742188,-5.2401123046875
0.1165,21.986450195312,-13.127807617188,-8.0028076171875
0.117,21.746215820312,-9.4442138671875,-11.486206054688
0.1175,20.665161132812,-4.8797607421875,-14.929565429688
0.118,19.263793945312,-0.3153076171875,-18.092651367188
0.1185,17.301879882812,3.8087158203125,-20.214721679688
0.119,15.179809570312,6.6514892578125,-21.015502929688
0.1195,12.497192382812,9.6544189453125,-21.455932617188
0.12,7.3721923828125,13.738403320312,-20.535034179688
0.1205,2.5274658203125,16.781372070312,-18.973510742188
0.121,-2.2772216796875,19.343872070312,-17.091674804688
0.1215,-5.8406982421875,21.145629882812,-15.570190429688
0.122,-8.5233154296875,21.425903320312,-13.328002929688
0.1225,-11.566284179688,21.425903320312,-10.445190429688
0.123,-15.410034179688,20.344848632812,-5.7606201171875
0.1235,-18.453002929688,18.583129882812,-1.0360107421875
0.124,-20.535034179688,16.621215820312,3.0079345703125
0.1245,-21.616088867188,14.779418945312,5.8907470703125
0.125,-21.736206054688,11.936645507812,8.8536376953125
0.1255,-21.215698242188,7.5723876953125,12.697387695312
0.126,-20.014526367188,3.3282470703125,15.660278320312
0.1265,-18.453002929688,-1.1561279296875,18.543090820312
0.127,-16.651245117188,-4.8397216796875,20.505004882812
0.1275,-14.208862304688,-7.4422607421875,20.785278320312
0.128,-11.366088867188,-10.405151367188,20.985473632812
0.1285,-6.0408935546875,-14.569213867188,19.904418945312
0.129,-0.9559326171875,-17.532104492188,18.102661132812
0.1295,3.2081298828125,-19.694213867188,16.300903320312
0.13,6.3712158203125,-21.135620117188,14.939575195312
0.1305,9.2139892578125,-21.215698242188,12.417114257812
0.131,12.497192382812,-20.815307617188,8.8135986328125
0.1315,15.820434570312,-19.774291992188,4.6495361328125
0.132,18.703247070312,-17.932495117188,0.0050048828125
0.1325,20.545043945312,-16.130737304688,-3.6785888671875
0.133,21.065551757812,-13.968627929688,-6.2811279296875
0.1335,21.265747070312,-11.165893554688,-9.2039794921875
0.134,20.384887695312,-6.2811279296875,-13.207885742188
0.1345,19.183715820312,-2.1571044921875,-16.170776367188
0.135,17.502075195312,1.8067626953125,-18.453002929688
0.1355,15.940551757812,5.1300048828125,-20.254760742188
0.136,13.097778320312,7.8927001953125,-20.254760742188
0.1365,9.5343017578125,11.215942382812,-20.254760742188
0.137,4.6895751953125,14.779418945312,-19.093627929688
0.1375,-0.5555419921875,17.822387695312,-17.251831054688
0.138,-4.1190185546875,19.664184570312,-15.610229492188
0.1385,-6.8016357421875,20.665161132812,-14.128784179688
0.139,-9.6444091796875,20.865356445312,-11.766479492188
0.1395,-13.448120117188,19.984497070312,-7.2020263671875
0.14,-16.370971679688,18.783325195312,-3.2381591796875
0.1405,-18.933471679688,17.021606445312,1.0860595703125
0.141,-20.575073242188,15.380004882812,4.3292236328125
0.1415,-20.655151367188,12.777465820312,6.9718017578125
0.142,-20.815307617188,9.7344970703125,10.094848632812
0.1425,-19.854370117188,5.0098876953125,13.898559570312
0.143,-18.453002929688,0.6055908203125,16.861450195312
0.1435,-16.691284179688,-2.9578857421875,18.703247070312
0.144,-15.129760742188,-5.8406982421875,20.104614257812
0.1445,-12.367065429688,-8.6834716796875,20.184692382812
0.145,-7.7625732421875,-12.367065429688,19.504028320312
0.1455,-3.3582763671875,-15.450073242188,18.262817382812
0.146,1.5665283203125,-18.172729492188,16.501098632812
0.1465,4.8897705078125,-19.854370117188,15.019653320312
0.147,7.5323486328125,-20.294799804688,13.057739257812
0.1475,10.214965820312,-20.535034179688,10.815551757812
0.148,14.298950195312,-19.453979492188,5.8507080078125
0.1485,17.021606445312,-17.932495117188,1.5665283203125
0.149,19.063598632812,-16.370971679688,-1.9969482421875
0.1495,20.384887695312,-14.689331054688,-4.8797607421875
0.15,20.304809570312,-11.886596679688,-7.5623779296875
0.1505,20.104614257812,-8.2030029296875,-11.085815429688
0.151,19.183715820312,-4.0389404296875,-14.288940429688
0.1515,17.702270507812,0.3653564453125,-17.211791992188
0.152,15.980590820312,3.7286376953125,-18.893432617188
0.1525,13.978637695312,6.2911376953125,-19.574096679688
0.153,11.376098632812,9.1739501953125,-19.934448242188
0.1535,5.8907470703125,13.297973632812,-18.853393554688
0.154,1.5665283203125,16.140747070312,-17.371948242188
0.1545,-2.5975341796875,18.422973632812,-15.810424804688
0.155,-5.6405029296875,19.944458007812,-14.569213867188
0.1555,-8.3231201171875,19.984497070312,-12.086791992188
0.156,-11.165893554688,19.904418945312,-9.4842529296875
0.1565,-14.769409179688,18.863403320312,-4.8397216796875
0.157,-17.572143554688,17.021606445312,-0.2752685546875
0.1575,-19.173706054688,15.460083007812,2.8878173828125
0.158,-20.054565429688,13.618286132812,5.5704345703125
0.1585,-20.134643554688,11.015747070312,8.1729736328125
0.159,-19.494018554688,6.3712158203125,12.176879882812
0.1595,-18.412963867188,2.5274658203125,14.939575195312
0.16,-17.011596679688,-1.4364013671875,17.542114257812
0.1605,-15.410034179688,-4.5594482421875,19.143676757812
0.161,-12.967651367188,-7.0819091796875,19.263793945312
0.1615,-10.164916992188,-10.124877929688,19.463989257812
0.162,-4.8397216796875,-13.928588867188,18.222778320312
0.1625,0.0050048828125,-16.651245117188,16.501098632812
0.163,3.2481689453125,-18.453002929688,15.179809570312
0.1635,6.0509033203125,-19.774291992188,13.898559570312
0.164,8.6934814453125,-19.734252929688,11.416137695312
0.1645,12.136840820312,-19.173706054688,7.5723876953125
0.165,15.099731445312,-18.212768554688,3.7286376953125
0.1655,17.702270507812,-16.491088867188,-0.5955810546875
0.166,19.023559570312,-15.009643554688,-3.2781982421875
0.1665,19.343872070312,-12.807495117188,-5.8006591796875
0.167,19.504028320312,-10.204956054688,-8.5233154296875
0.1675,18.703247070312,-5.4403076171875,-12.527221679688
0.168,17.421997070312,-1.4764404296875,-15.209838867188
0.1685,16.140747070312,1.8468017578125,-17.211791992188
0.169,14.699340820312,4.7696533203125,-18.733276367188
0.1695,11.896606445312,7.3721923828125,-18.693237304688
0.17,8.1329345703125,10.855590820312,-18.453002929688
0.1705,3.6485595703125,14.178833007812,-17.452026367188
0.171,-1.1561279296875,16.901489257812,-15.690307617188
0.1715,-3.9989013671875,18.382934570312,-14.489135742188
0.172,-6.5614013671875,19.183715820312,-12.927612304688
0.1725,-9.1239013671875,19.343872070312,-10.765502929688
0.173,-12.887573242188,18.422973632812,-6.1209716796875
0.1735,-15.650268554688,17.141723632812,-2.2772216796875
0.174,-17.772338867188,15.700317382812,1.3262939453125
0.1745,-18.973510742188,14.178833007812,3.9688720703125
0.175,-19.013549804688,11.616333007812,6.5313720703125
0.1755,-19.013549804688,8.4932861328125,9.6143798828125
0.176,-18.252807617188,4.2091064453125,13.137817382812
0.1765,-16.811401367188,0.0050048828125,15.940551757812
0.177,-15.450073242188,-2.9178466796875,17.462036132812
0.1775,-14.088745117188,-5.6405029296875,18.703247070312
0.178,-11.245971679688,-8.2030029296875,18.703247070312
