wavelength,x,y,z
0.0,-5.875732421875,-1.631591796875,6.536376953125
0.0005,-6.115966796875,-0.910888671875,6.336181640625
0.001,-6.035888671875,0.130126953125,5.615478515625
0.0015,-5.755615234375,1.291259765625,4.454345703125
0.002,-5.635498046875,2.692626953125,3.213134765625
0.0025,-5.435302734375,3.973876953125,1.931884765625
0.003,-5.155029296875,4.854736328125,1.010986328125
0.0035,-4.554443359375,5.295166015625,0.170166015625
0.004,-3.553466796875,5.455322265625,-0.990966796875
0.0045,-2.192138671875,5.615478515625,-2.432373046875
0.005,-0.910888671875,5.855712890625,-3.993896484375
0.0055,0.210205078125,5.895751953125,-5.114990234375
0.006,0.890869140625,5.935791015625,-5.875732421875
0.0065,1.851806640625,5.415283203125,-6.396240234375
0.007,3.173095703125,4.093994140625,-6.676513671875
0.0075,4.494384765625,2.772705078125,-6.916748046875
0.008,5.495361328125,1.411376953125,-6.916748046875
0.0085,6.015869140625,0.330322265625,-6.756591796875
0.009,6.055908203125,-0.590576171875,-6.276123046875
0.0095,5.735595703125,-1.591552734375,-5.395263671875
0.01,5.415283203125,-2.832763671875,-4.033935546875
0.0105,5.255126953125,-4.234130859375,-2.672607421875
0.011,4.974853515625,-5.315185546875,-1.471435546875
0.0115,4.614501953125,-6.075927734375,-0.630615234375
0.012,3.853759765625,-6.316162109375,0.370361328125
0.0125,2.572509765625,-6.396240234375,1.571533203125
0.013,1.171142578125,-6.556396484375,3.173095703125
0.0135,-0.270263671875,-6.596435546875,4.614501953125
0.014,-1.111083984375,-6.636474609375,5.535400390625
0.0145,-1.751708984375,-6.476318359375,6.135986328125
0.015,-2.832763671875,-5.675537109375,6.536376953125
0.0155,-4.154052734375,-4.274169921875,6.736572265625
0.016,-5.395263671875,-2.912841796875,6.936767578125
0.0165,-6.156005859375,-1.631591796875,6.776611328125
0.017,-6.476318359375,-0.750732421875,6.536376953125
0.0175,-6.396240234375,0.170166015625,5.895751953125
0.018,-6.035888671875,1.291259765625,4.814697265625
0.0185,-5.755615234375,2.572509765625,3.533447265625
0.019,-5.555419921875,3.973876953125,2.172119140625
0.0195,-5.235107421875,4.974853515625,1.091064453125
0.02,-4.794677734375,5.495361328125,0.250244140625
0.0205,-3.873779296875,5.695556640625,-0.790771484375
0.021,-2.512451171875,5.735595703125,-2.112060546875
0.0215,-1.151123046875,5.975830078125,-3.713623046875
0.022,0.130126953125,5.975830078125,-4.954833984375
0.0225,0.810791015625,6.095947265625,-5.835693359375
0.023,1.611572265625,5.735595703125,-6.396240234375
0.0235,2.812744140625,4.654541015625,-6.716552734375
0.024,4.134033203125,3.253173828125,-6.956787109375
0.0245,5.295166015625,1.851806640625,-7.076904296875
0.025,5.935791015625,0.650634765625,-6.876708984375
0.0255,6.135986328125,-0.270263671875,-6.596435546875
0.026,5.935791015625,-1.111083984375,-5.835693359375
0.0265,5.575439453125,-2.272216796875,-4.594482421875
0.027,5.415283203125,-3.713623046875,-3.273193359375
0.0275,5.135009765625,-4.954833984375,-1.991943359375
0.028,4.854736328125,-5.835693359375,-0.990966796875
0.0285,4.254150390625,-6.276123046875,0.010009765625
0.029,3.173095703125,-6.396240234375,1.010986328125
0.0295,1.771728515625,-6.476318359375,2.492431640625
0.03,0.370361328125,-6.676513671875,4.093994140625
0.0305,-0.790771484375,-6.676513671875,5.175048828125
0.031,-1.431396484375,-6.716552734375,5.975830078125
0.0315,-2.312255859375,-6.115966796875,6.456298828125
0.032,-3.633544921875,-4.834716796875,6.696533203125
0.0325,-4.914794921875,-3.553466796875,6.896728515625
0.033,-5.915771484375,-2.152099609375,6.896728515625
0.0335,-6.476318359375,-1.111083984375,6.696533203125
0.034,-6.436279296875,-0.230224609375,6.296142578125
0.0345,-6.196044921875,0.810791015625,5.335205078125
0.035,-5.875732421875,2.052001953125,4.093994140625
0.0355,-5.715576171875,3.533447265625,2.692626953125
0.036,-5.435302734375,4.654541015625,1.451416015625
0.0365,-5.034912109375,5.415283203125,0.530517578125
0.037,-4.274169921875,5.695556640625,-0.470458984375
0.0375,-3.072998046875,5.735595703125,-1.631591796875
0.038,-1.631591796875,5.935791015625,-3.193115234375
0.0385,-0.310302734375,6.055908203125,-4.674560546875
0.039,0.650634765625,6.095947265625,-5.675537109375
0.0395,1.331298828125,5.975830078125,-6.356201171875
0.04,2.412353515625,5.094970703125,-6.716552734375
0.0405,3.853759765625,3.693603515625,-6.996826171875
0.041,5.094970703125,2.292236328125,-7.197021484375
0.0415,5.895751953125,0.970947265625,-7.036865234375
0.042,6.216064453125,0.050048828125,-6.796630859375
0.0425,6.135986328125,-0.910888671875,-6.156005859375
0.043,5.775634765625,-1.991943359375,-5.034912109375
0.0435,5.495361328125,-3.353271484375,-3.673583984375
0.044,5.255126953125,-4.754638671875,-2.272216796875
0.0445,4.934814453125,-5.755615234375,-1.151123046875
0.045,4.494384765625,-6.276123046875,-0.310302734375
0.0455,3.493408203125,-6.436279296875,0.770751953125
0.046,2.132080078125,-6.476318359375,2.132080078125
0.0465,0.690673828125,-6.676513671875,3.733642578125
0.047,-0.630615234375,-6.676513671875,4.974853515625
0.0475,-1.311279296875,-6.716552734375,5.815673828125
0.048,-2.072021484375,-6.356201171875,6.376220703125
0.0485,-3.233154296875,-5.315185546875,6.616455078125
0.049,-4.514404296875,-3.913818359375,6.816650390625
0.0495,-5.715576171875,-2.552490234375,6.896728515625
0.05,-6.276123046875,-1.311279296875,6.696533203125
0.0505,-6.436279296875,-0.510498046875,6.416259765625
0.051,-6.236083984375,0.450439453125,5.615478515625
0.0515,-5.835693359375,1.531494140625,4.494384765625
0.052,-5.635498046875,2.852783203125,3.173095703125
0.0525,-5.435302734375,4.134033203125,1.931884765625
0.053,-5.114990234375,4.974853515625,0.930908203125
0.0535,-4.554443359375,5.415283203125,0.130126953125
0.054,-3.553466796875,5.495361328125,-0.950927734375
0.0545,-2.272216796875,5.615478515625,-2.312255859375
0.055,-0.990966796875,5.815673828125,-3.833740234375
0.0555,0.170166015625,5.895751953125,-4.954833984375
0.056,0.810791015625,5.935791015625,-5.755615234375
0.0565,1.651611328125,5.455322265625,-6.236083984375
0.057,2.852783203125,4.334228515625,-6.476318359375
0.0575,4.134033203125,3.052978515625,-6.796630859375
0.058,5.135009765625,1.771728515625,-6.796630859375
0.0585,5.735595703125,0.770751953125,-6.716552734375
0.059,5.815673828125,0.010009765625,-6.396240234375
0.0595,5.655517578125,-0.990966796875,-5.595458984375
0.06,5.375244140625,-2.152099609375,-4.474365234375
0.0605,5.255126953125,-3.553466796875,-3.193115234375
0.061,4.974853515625,-4.674560546875,-2.031982421875
0.0615,4.774658203125,-5.515380859375,-1.151123046875
0.062,4.134033203125,-5.915771484375,-0.310302734375
0.0625,3.052978515625,-6.035888671875,0.930908203125
0.063,1.811767578125,-6.276123046875,2.332275390625
0.0635,0.490478515625,-6.396240234375,3.853759765625
0.064,-0.510498046875,-6.556396484375,4.854736328125
0.0645,-1.151123046875,-6.596435546875,5.615478515625
0.065,-2.112060546875,-5.915771484375,6.055908203125
0.0655,-3.473388671875,-4.754638671875,6.336181640625
0.066,-4.634521484375,-3.473388671875,6.576416015625
0.0665,-5.555419921875,-2.192138671875,6.536376953125
0.067,-6.035888671875,-1.311279296875,6.456298828125
0.0675,-6.035888671875,-0.510498046875,5.975830078125
0.068,-5.755615234375,0.610595703125,5.054931640625
0.0685,-5.635498046875,1.771728515625,3.933837890625
0.069,-5.435302734375,3.173095703125,2.692626953125
0.0695,-5.235107421875,4.174072265625,1.611572265625
0.07,-4.874755859375,4.854736328125,0.810791015625
0.0705,-4.154052734375,5.135009765625,-0.190185546875
0.071,-2.952880859375,5.255126953125,-1.391357421875
0.0715,-1.751708984375,5.575439453125,-2.872802734375
0.072,-0.590576171875,5.655517578125,-4.154052734375
0.0725,0.250244140625,5.815673828125,-5.074951171875
0.073,0.970947265625,5.655517578125,-5.715576171875
0.0735,2.052001953125,4.814697265625,-6.115966796875
0.074,3.333251953125,3.653564453125,-6.396240234375
0.0745,4.494384765625,2.332275390625,-6.556396484375
0.075,5.175048828125,1.251220703125,-6.476318359375
0.0755,5.495361328125,0.490478515625,-6.356201171875
0.076,5.415283203125,-0.390380859375,-5.795654296875
0.0765,5.175048828125,-1.431396484375,-4.834716796875
0.077,5.094970703125,-2.712646484375,-3.713623046875
0.0775,4.894775390625,-3.913818359375,-2.552490234375
0.078,4.694580078125,-4.834716796875,-1.591552734375
0.0785,4.334228515625,-5.435302734375,-0.790771484375
0.079,3.493408203125,-5.635498046875,0.210205078125
0.0795,2.372314453125,-5.795654296875,1.411376953125
0.08,1.131103515625,-6.075927734375,2.892822265625
0.0805,0.170166015625,-6.276123046875,3.973876953125
0.081,-0.590576171875,-6.436279296875,4.854736328125
0.0815,-1.391357421875,-6.156005859375,5.415283203125
0.082,-2.512451171875,-5.155029296875,5.775634765625
0.0825,-3.713623046875,-4.114013671875,6.135986328125
0.083,-4.754638671875,-2.872802734375,6.256103515625
0.0835,-5.395263671875,-1.951904296875,6.256103515625
0.084,-5.635498046875,-1.231201171875,6.055908203125
0.0845,-5.515380859375,-0.390380859375,5.415283203125
0.085,-5.355224609375,0.690673828125,4.534423828125
0.0855,-5.315185546875,1.971923828125,3.493408203125
0.086,-5.195068359375,3.133056640625,2.412353515625
0.0865,-4.994873046875,3.973876953125,1.611572265625
0.087,-4.554443359375,4.494384765625,0.810791015625
0.0875,-3.713623046875,4.734619140625,-0.270263671875
0.088,-2.672607421875,5.094970703125,-1.551513671875
0.0885,-1.551513671875,5.295166015625,-2.912841796875
0.089,-0.710693359375,5.575439453125,-3.993896484375
0.0895,0.010009765625,5.695556640625,-4.834716796875
0.09,0.970947265625,5.295166015625,-5.395263671875
0.0905,2.132080078125,4.334228515625,-5.755615234375
0.091,3.373291015625,3.213134765625,-6.156005859375
0.0915,4.334228515625,2.092041015625,-6.236083984375
0.092,4.854736328125,1.291259765625,-6.276123046875
0.0925,5.094970703125,0.570556640625,-6.035888671875
0.093,4.974853515625,-0.390380859375,-5.355224609375
0.0935,4.934814453125,-1.471435546875,-4.474365234375
0.094,4.854736328125,-2.752685546875,-3.393310546875
0.0945,4.774658203125,-3.833740234375,-2.432373046875
0.095,4.614501953125,-4.634521484375,-1.671630859375
0.0955,4.013916015625,-5.074951171875,-0.830810546875
0.096,3.133056640625,-5.315185546875,0.330322265625
0.0965,2.092041015625,-5.755615234375,1.691650390625
0.097,1.051025390625,-5.955810546875,2.892822265625
0.0975,0.290283203125,-6.276123046875,3.893798828125
0.098,-0.470458984375,-6.276123046875,4.734619140625
0.0985,-1.471435546875,-5.635498046875,5.135009765625
0.099,-2.672607421875,-4.714599609375,5.615478515625
0.0995,-3.873779296875,-3.593505859375,5.895751953125
0.1,-4.714599609375,-2.552490234375,6.015869140625
0.1005,-5.155029296875,-1.871826171875,6.015869140625
0.101,-5.275146484375,-1.111083984375,5.615478515625
0.1015,-5.155029296875,-0.190185546875,4.894775390625
0.102,-5.155029296875,1.051025390625,4.053955078125
0.1025,-5.114990234375,2.252197265625,3.052978515625
0.103,-5.074951171875,3.253173828125,2.212158203125
0.1035,-4.834716796875,3.933837890625,1.411376953125
0.104,-4.154052734375,4.334228515625,0.570556640625
0.1045,-3.233154296875,4.654541015625,-0.710693359375
0.105,-2.232177734375,5.054931640625,-2.072021484375
0.1055,-1.351318359375,5.295166015625,-3.233154296875
0.106,-0.630615234375,5.655517578125,-4.194091796875
0.1065,0.290283203125,5.455322265625,-4.874755859375
0.107,1.411376953125,4.694580078125,-5.395263671875
0.1075,2.652587890625,3.773681640625,-5.835693359375
0.108,3.773681640625,2.612548828125,-6.075927734375
0.1085,4.494384765625,1.731689453125,-6.156005859375
0.109,4.854736328125,1.010986328125,-6.115966796875
0.1095,4.854736328125,0.210205078125,-5.595458984375
0.11,4.814697265625,-0.950927734375,-4.834716796875
0.1105,4.854736328125,-2.192138671875,-3.833740234375
0.111,4.774658203125,-3.353271484375,-2.832763671875
0.1115,4.694580078125,-4.274169921875,-1.991943359375
0.112,4.294189453125,-4.834716796875,-1.231201171875
0.1125,3.453369140625,-5.155029296875,-0.190185546875
0.113,2.492431640625,-5.635498046875,1.171142578125
0.1135,1.411376953125,-5.915771484375,2.532470703125
0.114,0.610595703125,-6.156005859375,3.573486328125
0.1145,-0.190185546875,-6.276123046875,4.494384765625
0.115,-1.151123046875,-5.875732421875,5.054931640625
0.1155,-2.312255859375,-4.994873046875,5.495361328125
0.116,-3.553466796875,-3.873779296875,5.895751953125
0.1165,-4.514404296875,-2.752685546875,5.975830078125
0.117,-5.114990234375,-1.991943359375,6.055908203125
0.1175,-5.275146484375,-1.271240234375,5.775634765625
0.118,-5.195068359375,-0.350341796875,5.094970703125
0.1185,-5.195068359375,0.810791015625,4.294189453125
0.119,-5.155029296875,2.092041015625,3.173095703125
0.1195,-5.114990234375,3.173095703125,2.252197265625
0.12,-4.914794921875,3.933837890625,1.531494140625
0.1205,-4.354248046875,4.334228515625,0.650634765625
0.121,-3.353271484375,4.614501953125,-0.590576171875
0.1215,-2.432373046875,5.054931640625,-1.951904296875
0.122,-1.351318359375,5.295166015625,-3.193115234375
0.1225,-0.630615234375,5.615478515625,-4.154052734375
0.123,0.250244140625,5.575439453125,-4.954833984375
0.1235,1.291259765625,4.854736328125,-5.395263671875
0.124,2.572509765625,3.893798828125,-5.835693359375
0.1245,3.773681640625,2.692626953125,-6.115966796875
0.125,4.534423828125,1.691650390625,-6.236083984375
0.1255,4.974853515625,0.970947265625,-6.156005859375
0.126,5.014892578125,0.170166015625,-5.755615234375
0.1265,4.894775390625,-0.910888671875,-4.914794921875
0.127,4.894775390625,-2.112060546875,-3.913818359375
0.1275,4.814697265625,-3.353271484375,-2.872802734375
0.128,4.734619140625,-4.354248046875,-1.951904296875
0.1285,4.414306640625,-4.994873046875,-1.231201171875
0.129,3.573486328125,-5.315185546875,-0.310302734375
0.1295,2.532470703125,-5.635498046875,1.051025390625
0.13,1.451416015625,-5.915771484375,2.532470703125
0.1305,0.530517578125,-6.115966796875,3.653564453125
0.131,-0.270263671875,-6.356201171875,4.534423828125
0.1315,-1.111083984375,-6.075927734375,5.175048828125
0.132,-2.312255859375,-5.114990234375,5.575439453125
0.1325,-3.553466796875,-4.033935546875,6.015869140625
0.133,-4.634521484375,-2.832763671875,6.135986328125
0.1335,-5.315185546875,-1.911865234375,6.216064453125
0.134,-5.515380859375,-1.191162109375,6.015869140625
0.1345,-5.475341796875,-0.310302734375,5.335205078125
0.135,-5.315185546875,0.890869140625,4.374267578125
0.1355,-5.315185546875,2.212158203125,3.293212890625
0.136,-5.195068359375,3.373291015625,2.212158203125
0.1365,-4.994873046875,4.174072265625,1.411376953125
0.137,-4.474365234375,4.614501953125,0.570556640625
0.1375,-3.513427734375,4.814697265625,-0.630615234375
0.138,-2.392333984375,5.215087890625,-1.991943359375
0.1385,-1.231201171875,5.455322265625,-3.393310546875
0.139,-0.430419921875,5.735595703125,-4.474365234375
0.1395,0.410400390625,5.735595703125,-5.235107421875
0.14,1.411376953125,5.094970703125,-5.755615234375
0.1405,2.732666015625,3.973876953125,-6.115966796875
0.141,3.973876953125,2.772705078125,-6.436279296875
0.1415,4.854736328125,1.571533203125,-6.436279296875
0.142,5.335205078125,0.770751953125,-6.396240234375
0.1425,5.415283203125,0.010009765625,-5.955810546875
0.143,5.215087890625,-1.151123046875,-5.074951171875
0.1435,5.094970703125,-2.432373046875,-3.953857421875
0.144,5.014892578125,-3.793701171875,-2.752685546875
0.1445,4.814697265625,-4.834716796875,-1.711669921875
0.145,4.494384765625,-5.475341796875,-0.950927734375
0.1455,3.693603515625,-5.755615234375,0.050048828125
0.146,2.492431640625,-5.915771484375,1.371337890625
0.1465,1.251220703125,-6.236083984375,2.892822265625
0.147,0.170166015625,-6.356201171875,4.134033203125
0.1475,-0.630615234375,-6.516357421875,5.094970703125
0.148,-1.471435546875,-6.276123046875,5.735595703125
0.1485,-2.632568359375,-5.275146484375,6.095947265625
0.149,-3.993896484375,-4.033935546875,6.416259765625
0.1495,-5.114990234375,-2.712646484375,6.576416015625
0.15,-5.835693359375,-1.591552734375,6.456298828125
0.1505,-6.075927734375,-0.830810546875,6.256103515625
0.151,-5.915771484375,0.130126953125,5.575439453125
0.1515,-5.675537109375,1.291259765625,4.414306640625
0.152,-5.555419921875,2.692626953125,3.173095703125
0.1525,-5.355224609375,3.893798828125,1.931884765625
0.153,-5.114990234375,4.774658203125,1.010986328125
0.1535,-4.514404296875,5.215087890625,0.170166015625
0.154,-3.553466796875,5.375244140625,-0.990966796875
0.1545,-2.152099609375,5.575439453125,-2.432373046875
0.155,-0.910888671875,5.815673828125,-3.953857421875
0.1555,0.170166015625,5.895751953125,-4.994873046875
0.156,0.810791015625,5.935791015625,-5.795654296875
0.1565,1.811767578125,5.335205078125,-6.356201171875
0.157,3.173095703125,4.013916015625,-6.596435546875
0.1575,4.494384765625,2.732666015625,-6.876708984375
0.158,5.415283203125,1.411376953125,-6.836669921875
0.1585,5.895751953125,0.450439453125,-6.716552734375
0.159,5.935791015625,-0.510498046875,-6.276123046875
0.1595,5.655517578125,-1.471435546875,-5.315185546875
0.16,5.415283203125,-2.792724609375,-3.993896484375
0.1605,5.215087890625,-4.234130859375,-2.672607421875
0.161,4.934814453125,-5.315185546875,-1.471435546875
0.1615,4.534423828125,-6.035888671875,-0.630615234375
0.162,3.813720703125,-6.236083984375,0.370361328125
0.1625,2.532470703125,-6.276123046875,1.571533203125
0.163,1.131103515625,-6.476318359375,3.173095703125
0.1635,-0.270263671875,-6.556396484375,4.534423828125
0.164,-1.031005859375,-6.636474609375,5.455322265625
0.1645,-1.711669921875,-6.476318359375,6.095947265625
0.165,-2.832763671875,-5.595458984375,6.456298828125
0.1655,-4.194091796875,-4.194091796875,6.696533203125
0.166,-5.435302734375,-2.832763671875,6.896728515625
0.1665,-6.156005859375,-1.511474609375,6.696533203125
0.167,-6.436279296875,-0.670654296875,6.496337890625
0.1675,-6.316162109375,0.250244140625,5.855712890625
0.168,-5.955810546875,1.371337890625,4.694580078125
0.1685,-5.755615234375,2.652587890625,3.373291015625
0.169,-5.515380859375,3.973876953125,2.052001953125
0.1695,-5.195068359375,4.974853515625,0.970947265625
0.17,-4.714599609375,5.495361328125,0.170166015625
0.1705,-3.793701171875,5.695556640625,-0.910888671875
0.171,-2.392333984375,5.735595703125,-2.272216796875
0.1715,-1.031005859375,5.935791015625,-3.873779296875
0.172,0.210205078125,5.975830078125,-5.074951171875
0.1725,0.930908203125,6.055908203125,-5.915771484375
0.173,1.731689453125,5.695556640625,-6.436279296875
0.1735,2.932861328125,4.494384765625,-6.716552734375
0.174,4.294189453125,3.133056640625,-6.996826171875
0.1745,5.415283203125,1.731689453125,-7.076904296875
0.175,6.015869140625,0.570556640625,-6.796630859375
0.1755,6.095947265625,-0.350341796875,-6.516357421875
0.176,5.895751953125,-1.231201171875,-5.755615234375
0.1765,5.535400390625,-2.512451171875,-4.434326171875
0.177,5.335205078125,-3.873779296875,-3.072998046875
0.1775,5.054931640625,-5.114990234375,-1.831787109375
0.178,4.734619140625,-5.875732421875,-0.830810546875
0.1785,4.134033203125,-6.276123046875,0.090087890625
0.179,3.012939453125,-6.356201171875,1.131103515625
0.1795,1.611572265625,-6.436279296875,2.612548828125
0.18,0.210205078125,-6.596435546875,4.174072265625
0.1805,-0.830810546875,-6.596435546875,5.215087890625
0.181,-1.471435546875,-6.636474609375,5.935791015625
0.1815,-2.392333984375,-6.035888671875,6.416259765625
0.182,-3.713623046875,-4.714599609375,6.656494140625
0.1825,-4.994873046875,-3.393310546875,6.896728515625
0.183,-5.915771484375,-2.031982421875,6.776611328125
0.1835,-6.396240234375,-1.031005859375,6.656494140625
0.184,-6.396240234375,-0.230224609375,6.176025390625
0.1845,-6.115966796875,0.770751953125,5.215087890625
0.185,-5.835693359375,2.052001953125,3.973876953125
0.1855,-5.675537109375,3.493408203125,2.572509765625
0.186,-5.355224609375,4.614501953125,1.451416015625
0.1865,-4.994873046875,5.335205078125,0.570556640625
0.187,-4.234130859375,5.615478515625,-0.390380859375
0.1875,-2.992919921875,5.655517578125,-1.631591796875
0.188,-1.631591796875,5.895751953125,-3.193115234375
