wavelength,x,y,z
0.0,-11.486206054688,-13.167846679688,23.948364257812
0.0005,-6.3612060546875,-16.691284179688,21.906372070312
0.001,-2.6375732421875,-18.573120117188,19.984497070312
0.0015,2.7677001953125,-21.095581054688,17.301879882812
0.002,7.9327392578125,-23.497924804688,14.579223632812
0.0025,11.215942382812,-23.898315429688,11.536254882812
0.003,15.420043945312,-23.578002929688,7.4923095703125
0.0035,17.542114257812,-22.336791992188,4.1690673828125
0.004,20.464965820312,-20.294799804688,-0.8758544921875
0.0045,22.426879882812,-17.812377929688,-5.2801513671875
0.005,23.748168945312,-14.088745117188,-10.285034179688
0.0055,24.268676757812,-11.886596679688,-13.328002929688
0.006,23.027465820312,-6.7615966796875,-16.571166992188
0.0065,21.626098632812,-3.8787841796875,-17.892456054688
0.007,19.223754882812,1.4063720703125,-20.655151367188
0.0075,16.340942382812,6.5714111328125,-22.937377929688
0.008,13.137817382812,10.575317382812,-23.457885742188
0.0085,9.6143798828125,14.058715820312,-23.818237304688
0.009,5.1300048828125,16.340942382812,-21.455932617188
0.0095,0.4854736328125,18.623168945312,-19.494018554688
0.01,-3.9989013671875,21.105590820312,-16.731323242188
0.0105,-10.124877929688,23.107543945312,-12.967651367188
0.011,-12.727416992188,23.307739257812,-10.605346679688
0.0115,-17.171752929688,22.827270507812,-5.8406982421875
0.012,-18.573120117188,20.945434570312,-2.8778076171875
0.0125,-21.495971679688,18.543090820312,2.2471923828125
0.013,-23.377807617188,15.940551757812,6.8917236328125
0.0135,-24.178588867188,12.657348632812,11.095825195312
0.014,-24.498901367188,9.7344970703125,14.258911132812
0.0145,-22.737182617188,5.4102783203125,16.781372070312
0.015,-20.975463867188,1.3262939453125,19.103637695312
0.0155,-18.733276367188,-3.3582763671875,21.505981445312
0.016,-15.209838867188,-9.1239013671875,23.547973632812
0.0165,-12.206909179688,-12.206909179688,23.387817382812
0.017,-8.0028076171875,-16.010620117188,22.787231445312
0.0175,-4.0389404296875,-17.652221679688,20.464965820312
0.018,1.2862548828125,-20.454956054688,18.142700195312
0.0185,5.7305908203125,-21.976440429688,15.500122070312
0.019,10.975708007812,-23.978393554688,12.457153320312
0.0195,14.138793945312,-24.018432617188,8.9337158203125
0.02,16.941528320312,-22.937377929688,5.0098876953125
0.0205,19.183715820312,-20.695190429688,0.9659423828125
0.021,21.666137695312,-18.653198242188,-3.7186279296875
0.0215,23.187622070312,-15.410034179688,-8.5633544921875
0.022,23.748168945312,-11.926635742188,-11.686401367188
0.0225,23.547973632812,-9.0438232421875,-15.450073242188
0.023,22.066528320312,-5.1600341796875,-17.452026367188
0.0235,19.744262695312,-0.3553466796875,-19.614135742188
0.024,17.381958007812,4.1290283203125,-21.576049804688
0.0245,14.258911132812,9.4141845703125,-23.658081054688
0.025,10.775512695312,12.657348632812,-23.337768554688
0.0255,6.4512939453125,15.700317382812,-22.136596679688
0.026,2.4073486328125,17.301879882812,-19.373901367188
0.0265,-2.5574951171875,20.224731445312,-17.572143554688
0.027,-7.5223388671875,21.666137695312,-14.088745117188
0.0275,-11.526245117188,23.107543945312,-11.686401367188
0.028,-14.769409179688,22.546997070312,-7.7225341796875
0.0285,-17.572143554688,21.265747070312,-3.8787841796875
0.029,-19.974487304688,19.103637695312,1.0860595703125
0.0295,-22.056518554688,17.421997070312,4.8897705078125
0.03,-23.738159179688,13.578247070312,9.6143798828125
0.0305,-23.698120117188,10.815551757812,12.497192382812
0.031,-23.097534179688,7.0518798828125,15.580200195312
0.0315,-21.015502929688,3.0079345703125,17.141723632812
0.032,-19.333862304688,-1.7567138671875,20.184692382812
0.0325,-16.250854492188,-6.2410888671875,21.586059570312
0.033,-13.808471679688,-10.565307617188,23.668090820312
0.0335,-9.4842529296875,-14.409057617188,22.627075195312
0.034,-5.6004638671875,-16.811401367188,21.305786132812
0.0345,-0.7156982421875,-18.853393554688,18.463012695312
0.035,3.7286376953125,-21.455932617188,17.021606445312
0.0355,8.9737548828125,-22.737182617188,12.817504882812
0.036,12.296997070312,-23.497924804688,10.094848632812
0.0365,15.660278320312,-22.977416992188,6.4913330078125
0.037,17.982543945312,-21.215698242188,2.6075439453125
0.0375,20.424926757812,-18.893432617188,-1.9569091796875
0.038,22.146606445312,-16.411010742188,-6.4012451171875
0.0385,23.588012695312,-13.608276367188,-10.565307617188
0.039,23.147583007812,-9.6444091796875,-13.808471679688
0.0395,22.306762695312,-6.8817138671875,-16.170776367188
0.04,19.864379882812,-1.9969482421875,-18.252807617188
0.0405,18.503051757812,2.5675048828125,-21.055541992188
0.041,14.579223632812,7.1719970703125,-22.096557617188
0.0415,12.337036132812,11.255981445312,-23.417846679688
0.042,7.7325439453125,14.619262695312,-22.296752929688
0.0425,3.8087158203125,16.941528320312,-20.014526367188
0.043,-1.2762451171875,19.223754882812,-17.572143554688
0.0435,-5.8006591796875,21.265747070312,-15.410034179688
0.044,-10.405151367188,22.747192382812,-12.447143554688
0.0445,-13.968627929688,22.907348632812,-8.5233154296875
0.045,-16.571166992188,22.066528320312,-5.7205810546875
0.0455,-19.173706054688,19.864379882812,-0.8358154296875
0.046,-21.616088867188,17.782348632812,3.2081298828125
0.0465,-22.416870117188,14.379028320312,7.6925048828125
0.047,-24.098510742188,12.337036132812,11.336059570312
0.0475,-23.097534179688,7.6524658203125,14.899536132812
0.048,-21.976440429688,4.4893798828125,17.301879882812
0.0485,-19.413940429688,-0.4754638671875,19.063598632812
0.049,-17.452026367188,-5.1199951171875,21.666137695312
0.0495,-13.448120117188,-9.7645263671875,22.426879882812
0.05,-10.765502929688,-13.287963867188,23.067504882812
0.0505,-6.8817138671875,-15.690307617188,21.666137695312
0.051,-2.2772216796875,-18.252807617188,19.263793945312
0.0515,2.4073486328125,-20.414916992188,16.981567382812
0.052,7.4923095703125,-22.016479492188,13.538208007812
0.0525,11.055786132812,-24.138549804688,11.656372070312
0.053,15.380004882812,-22.536987304688,6.6915283203125
0.0535,16.941528320312,-21.936401367188,4.3292236328125
0.054,19.263793945312,-19.534057617188,-0.5955810546875
0.0545,21.946411132812,-17.572143554688,-5.0799560546875
0.055,22.346801757812,-13.608276367188,-9.1239013671875
0.0555,23.588012695312,-11.406127929688,-13.007690429688
0.056,22.146606445312,-7.0819091796875,-14.889526367188
0.0565,20.785278320312,-3.7186279296875,-17.492065429688
0.057,18.543090820312,0.9659423828125,-19.534057617188
0.0575,15.620239257812,5.7305908203125,-21.776245117188
0.058,13.297973632812,9.8546142578125,-23.097534179688
0.0585,8.6134033203125,13.818481445312,-22.296752929688
0.059,5.6505126953125,15.420043945312,-21.095581054688
0.0595,0.8057861328125,18.062622070312,-18.332885742188
0.06,-4.0789794921875,20.384887695312,-16.370971679688
0.0605,-9.3240966796875,21.345825195312,-12.206909179688
0.061,-12.126831054688,23.027465820312,-10.405151367188
0.0615,-15.530151367188,21.385864257812,-6.2811279296875
0.062,-17.692260742188,20.304809570312,-2.8377685546875
0.0625,-20.014526367188,18.022583007812,1.5665283203125
0.063,-22.456909179688,15.299926757812,6.4512939453125
0.0635,-22.697143554688,12.537231445312,9.6544189453125
0.064,-23.337768554688,9.0938720703125,13.738403320312
0.0645,-21.856323242188,6.0108642578125,15.259887695312
0.065,-19.894409179688,1.3663330078125,17.862426757812
0.0655,-17.972534179688,-2.9979248046875,20.144653320312
0.066,-14.248901367188,-7.7625732421875,21.465942382812
0.0665,-12.687377929688,-11.085815429688,22.747192382812
0.067,-7.4422607421875,-14.809448242188,21.265747070312
0.0675,-4.5994873046875,-16.370971679688,19.864379882812
0.068,0.6055908203125,-18.853393554688,17.301879882812
0.0685,5.2501220703125,-21.255737304688,15.059692382812
0.069,9.4141845703125,-21.936401367188,12.096801757812
0.0695,13.297973632812,-22.617065429688,8.8536376953125
0.07,15.339965820312,-21.616088867188,5.6104736328125
0.0705,17.982543945312,-19.453979492188,1.4464111328125
0.071,19.944458007812,-17.812377929688,-2.8778076171875
0.0715,21.666137695312,-14.569213867188,-7.6824951171875
0.072,22.426879882812,-12.607299804688,-10.365112304688
0.0725,22.146606445312,-8.0028076171875,-14.489135742188
0.073,20.705200195312,-5.9207763671875,-15.410034179688
0.0735,18.623168945312,-0.9959716796875,-18.012573242188
0.074,16.661254882812,3.5284423828125,-20.054565429688
0.0745,13.257934570312,8.2130126953125,-21.455932617188
0.075,11.015747070312,11.496215820312,-22.416870117188
0.0755,6.5714111328125,14.178833007812,-20.454956054688
0.076,2.8878173828125,16.140747070312,-19.373901367188
0.0765,-1.7967529296875,18.503051757812,-16.651245117188
0.077,-6.9217529296875,20.745239257812,-13.728393554688
0.0775,-10.084838867188,21.546020507812,-11.926635742188
0.078,-14.208862304688,21.465942382812,-7.4022216796875
0.0785,-15.770385742188,20.424926757812,-4.9197998046875
0.079,-18.693237304688,18.543090820312,-0.1551513671875
0.0795,-20.494995117188,16.421020507812,4.0889892578125
0.08,-21.896362304688,12.937622070312,8.6134033203125
0.0805,-22.937377929688,11.095825195312,11.376098632812
0.081,-21.656127929688,6.7315673828125,14.258911132812
0.0815,-20.294799804688,3.6885986328125,15.980590820312
0.082,-18.453002929688,-1.0360107421875,18.703247070312
0.0825,-15.570190429688,-5.8006591796875,21.065551757812
0.083,-12.967651367188,-9.7645263671875,21.666137695312
0.0835,-9.0838623046875,-13.328002929688,21.906372070312
0.084,-5.8006591796875,-15.450073242188,20.024536132812
0.0845,-1.1561279296875,-17.892456054688,17.942504882812
0.085,3.1280517578125,-19.894409179688,15.820434570312
0.0855,8.6534423828125,-21.656127929688,12.176879882812
0.086,11.576293945312,-22.176635742188,10.094848632812
0.0865,14.979614257812,-21.656127929688,6.1309814453125
0.087,16.340942382812,-20.014526367188,3.2081298828125
0.0875,19.223754882812,-18.332885742188,-1.4364013671875
0.088,20.985473632812,-15.570190429688,-6.0408935546875
0.0885,21.786254882812,-12.767456054688,-9.6444091796875
0.089,22.426879882812,-9.8045654296875,-12.727416992188
0.0895,20.785278320312,-6.4012451171875,-14.929565429688
0.09,19.063598632812,-2.5174560546875,-17.051635742188
0.0905,17.301879882812,1.9268798828125,-19.293823242188
0.091,13.978637695312,7.3721923828125,-21.335815429688
0.0915,11.696411132812,10.094848632812,-21.736206054688
0.092,7.4522705078125,13.778442382812,-21.095581054688
0.0925,4.3292236328125,15.500122070312,-18.973510742188
0.093,-0.5155029296875,17.902465820312,-17.171752929688
0.0935,-5.0399169921875,19.584106445312,-14.649291992188
0.094,-9.5643310546875,21.265747070312,-11.606323242188
0.0945,-12.767456054688,21.425903320312,-8.8436279296875
0.095,-15.410034179688,20.505004882812,-5.4403076171875
0.0955,-17.572143554688,18.703247070312,-1.3162841796875
0.096,-20.014526367188,16.981567382812,2.8477783203125
0.0965,-21.616088867188,13.858520507812,7.3721923828125
0.097,-22.056518554688,11.496215820312,10.094848632812
0.0975,-22.096557617188,7.9327392578125,13.618286132812
0.098,-20.454956054688,4.6495361328125,15.179809570312
0.0985,-18.773315429688,0.3653564453125,17.782348632812
0.099,-16.370971679688,-4.0389404296875,19.463989257812
0.0995,-13.488159179688,-8.8436279296875,21.425903320312
0.1,-10.725463867188,-11.846557617188,21.465942382812
0.1005,-6.7215576171875,-14.689331054688,20.304809570312
0.101,-3.0780029296875,-16.290893554688,18.182739257812
0.1015,1.4464111328125,-18.933471679688,16.541137695312
0.102,6.4512939453125,-20.655151367188,13.257934570312
0.1025,10.295043945312,-21.736206054688,10.975708007812
0.103,13.578247070312,-21.736206054688,7.4923095703125
0.1035,15.500122070312,-20.334838867188,4.6895751953125
0.104,17.942504882812,-18.733276367188,0.1251220703125
0.1045,19.864379882812,-16.691284179688,-3.8387451171875
0.105,21.546020507812,-13.648315429688,-8.4832763671875
0.1055,21.746215820312,-10.885620117188,-10.925659179688
0.106,21.065551757812,-7.8426513671875,-14.008666992188
0.1065,19.103637695312,-4.1190185546875,-15.410034179688
0.107,18.062622070312,0.2052001953125,-18.092651367188
0.1075,14.939575195312,4.9698486328125,-19.894409179688
0.108,12.737426757812,8.9337158203125,-21.616088867188
0.1085,9.0137939453125,12.296997070312,-21.175659179688
0.109,5.4102783203125,14.499145507812,-19.253784179688
0.1095,1.1260986328125,16.421020507812,-17.452026367188
0.11,-3.1580810546875,18.703247070312,-15.850463867188
0.1105,-8.1629638671875,20.625122070312,-12.527221679688
0.111,-11.205932617188,21.065551757812,-9.9647216796875
0.1115,-14.409057617188,20.865356445312,-6.7215576171875
0.112,-16.571166992188,19.183715820312,-2.9178466796875
0.1125,-19.253784179688,17.622192382812,1.4063720703125
0.113,-20.494995117188,14.859497070312,5.3702392578125
0.1135,-22.176635742188,12.497192382812,9.2540283203125
0.114,-21.976440429688,8.8936767578125,12.657348632812
0.1145,-21.135620117188,5.7706298828125,14.779418945312
0.115,-18.933471679688,1.6065673828125,16.701293945312
0.1155,-17.492065429688,-2.7176513671875,19.263793945312
0.116,-13.968627929688,-7.7225341796875,20.545043945312
0.1165,-11.646362304688,-10.565307617188,21.586059570312
0.117,-7.9227294921875,-14.048706054688,20.865356445312
0.1175,-4.0389404296875,-15.970581054688,18.903442382812
0.118,0.5255126953125,-18.212768554688,16.741333007812
0.1185,4.8497314453125,-20.134643554688,14.338989257812
0.119,9.0938720703125,-21.576049804688,12.337036132812
0.1195,12.937622070312,-21.495971679688,8.0128173828125
0.12,14.979614257812,-20.895385742188,5.8907470703125
0.1205,17.301879882812,-19.213745117188,1.2462158203125
0.121,19.864379882812,-17.452026367188,-3.0780029296875
0.1215,20.745239257812,-14.048706054688,-7.3621826171875
0.122,22.186645507812,-12.046752929688,-10.805541992188
0.1225,21.626098632812,-8.2830810546875,-13.768432617188
0.123,20.464965820312,-4.9197998046875,-15.690307617188
0.1235,18.182739257812,-0.6356201171875,-17.852416992188
0.124,16.140747070312,3.8887939453125,-20.094604492188
0.1245,13.378051757812,8.2130126953125,-21.576049804688
0.125,9.7344970703125,11.816528320312,-21.495971679688
0.1255,6.6514892578125,14.138793945312,-20.134643554688
0.126,2.2471923828125,16.421020507812,-18.132690429688
0.1265,-2.3973388671875,18.703247070312,-16.411010742188
0.127,-7.2020263671875,19.984497070312,-12.767456054688
0.1275,-10.525268554688,21.866333007812,-11.446166992188
0.128,-14.248901367188,20.785278320312,-6.7215576171875
0.1285,-16.330932617188,20.104614257812,-4.1190185546875
0.129,-18.653198242188,17.942504882812,0.2052001953125
0.1295,-20.494995117188,15.860473632812,4.6895751953125
0.13,-21.736206054688,12.697387695312,8.6134033203125
0.1305,-22.577026367188,10.014770507812,12.176879882812
0.131,-21.576049804688,6.7315673828125,14.338989257812
0.1315,-19.814331054688,2.5274658203125,16.701293945312
0.132,-17.932495117188,-1.7967529296875,18.943481445312
0.1325,-14.769409179688,-6.6414794921875,20.545043945312
0.133,-13.167846679688,-9.6844482421875,22.306762695312
0.1335,-8.2430419921875,-13.888549804688,21.065551757812
0.134,-5.6004638671875,-15.650268554688,20.064575195312
0.1345,-0.4754638671875,-17.972534179688,17.301879882812
0.135,3.9688720703125,-20.494995117188,15.580200195312
0.1355,8.6534423828125,-21.015502929688,11.816528320312
0.136,11.816528320312,-22.577026367188,9.9346923828125
0.1365,14.859497070312,-21.536010742188,5.9307861328125
0.137,17.221801757812,-20.214721679688,2.3272705078125
0.1375,19.343872070312,-17.972534179688,-2.0770263671875
0.138,21.265747070312,-15.209838867188,-6.6815185546875
0.1385,22.066528320312,-12.887573242188,-9.5643310546875
0.139,22.266723632812,-9.0838623046875,-14.048706054688
0.1395,21.105590820312,-6.4412841796875,-14.769409179688
0.14,18.863403320312,-1.5565185546875,-17.652221679688
0.1405,17.101684570312,2.8477783203125,-20.014526367188
0.141,13.217895507812,7.8526611328125,-21.095581054688
0.1415,11.816528320312,10.855590820312,-22.496948242188
0.142,6.7716064453125,14.138793945312,-20.975463867188
0.1425,3.4083251953125,16.060668945312,-19.293823242188
0.143,-1.3563232421875,18.222778320312,-16.891479492188
0.1435,-6.1610107421875,20.665161132812,-14.489135742188
0.144,-9.8446044921875,21.385864257812,-11.606323242188
0.1445,-13.808471679688,21.626098632812,-8.0428466796875
0.145,-15.770385742188,20.785278320312,-5.2801513671875
0.1455,-18.933471679688,18.903442382812,-0.5155029296875
0.146,-20.695190429688,16.821411132812,3.5684814453125
0.1465,-22.016479492188,13.297973632812,8.2930908203125
0.147,-23.017456054688,11.656372070312,10.855590820312
0.1475,-21.976440429688,6.9718017578125,14.539184570312
0.148,-20.975463867188,4.3292236328125,16.060668945312
0.1485,-18.653198242188,-0.6756591796875,18.583129882812
0.149,-16.090698242188,-5.7606201171875,20.865356445312
0.1495,-12.967651367188,-9.6043701171875,21.385864257812
0.15,-10.285034179688,-13.207885742188,22.426879882812
0.1505,-6.1610107421875,-15.570190429688,20.585083007812
0.151,-1.7967529296875,-17.892456054688,18.543090820312
0.1515,2.6876220703125,-19.894409179688,16.260864257812
0.152,8.1729736328125,-22.096557617188,13.217895507812
0.1525,11.215942382812,-23.017456054688,10.855590820312
0.153,15.179809570312,-22.176635742188,6.4512939453125
0.1535,16.701293945312,-21.095581054688,3.7686767578125
0.154,19.383911132812,-18.933471679688,-1.1561279296875
0.1545,21.265747070312,-16.370971679688,-5.5203857421875
0.155,22.186645507812,-12.887573242188,-9.8446044921875
0.1555,23.427856445312,-10.885620117188,-13.007690429688
0.156,21.626098632812,-6.7615966796875,-15.650268554688
0.1565,20.024536132812,-2.9578857421875,-17.331909179688
0.157,17.862426757812,1.5665283203125,-19.574096679688
0.1575,14.899536132812,6.9718017578125,-21.816284179688
0.158,12.216918945312,10.174926757812,-22.256713867188
0.1585,8.1329345703125,14.218872070312,-21.936401367188
0.159,4.6895751953125,16.060668945312,-20.094604492188
0.1595,-0.4754638671875,18.422973632812,-17.892456054688
0.16,-4.6795654296875,20.344848632812,-15.410034179688
0.1605,-9.9647216796875,21.906372070312,-12.046752929688
0.161,-12.767456054688,22.306762695312,-9.7244873046875
0.1615,-16.370971679688,21.385864257812,-5.2401123046875
0.162,-18.292846679688,19.824340820312,-1.6766357421875
0.1625,-20.695190429688,17.502075195312,2.6075439453125
0.163,-22.456909179688,14.739379882812,7.3721923828125
0.1635,-22.977416992188,11.816528320312,10.735473632812
0.164,-23.417846679688,8.4932861328125,14.459106445312
0.1645,-21.536010742188,4.6495361328125,16.340942382812
0.165,-19.734252929688,0.2852783203125,18.783325195312
0.1655,-17.171752929688,-3.8387451171875,20.625122070312
0.166,-14.008666992188,-9.6043701171875,22.386840820312
0.1665,-11.245971679688,-12.327026367188,22.466918945312
0.167,-6.7215576171875,-15.970581054688,21.505981445312
0.1675,-3.1180419921875,-17.452026367188,19.383911132812
0.168,1.9268798828125,-20.294799804688,17.141723632812
0.1685,6.6514892578125,-21.696166992188,14.098754882812
0.169,11.255981445312,-22.817260742188,11.376098632812
0.1695,14.379028320312,-22.937377929688,7.8126220703125
0.17,16.981567382812,-21.696166992188,4.0089111328125
0.1705,19.223754882812,-19.734252929688,-0.1951904296875
0.171,21.225708007812,-17.532104492188,-4.3192138671875
0.1715,22.747192382812,-14.088745117188,-9.1639404296875
0.172,22.867309570312,-11.486206054688,-12.367065429688
0.1725,22.627075195312,-7.7225341796875,-15.410034179688
0.173,20.625122070312,-3.9989013671875,-17.051635742188
0.1735,18.863403320312,0.6856689453125,-19.694213867188
0.174,15.860473632812,5.1700439453125,-21.015502929688
0.1745,13.137817382812,9.8546142578125,-22.937377929688
0.175,9.5343017578125,13.057739257812,-22.456909179688
0.1755,5.4102783203125,15.780395507812,-21.095581054688
0.176,0.9659423828125,17.742309570312,-18.453002929688
0.1765,-3.5184326171875,20.184692382812,-16.691284179688
0.177,-8.6834716796875,21.546020507812,-12.967651367188
0.1775,-11.926635742188,22.466918945312,-10.645385742188
0.178,-15.730346679688,22.066528320312,-6.6014404296875
