wavelength,x,y,z
0.0,-3.8037109375,1.921875,1.4013671875
0.0005,-3.84375,1.1611328125,2.2021484375
0.001,-3.7236328125,0.6005859375,2.6826171875
0.0015,-3.36328125,-0.16015625,3.04296875
0.002,-3.2431640625,-0.640625,3.443359375
0.0025,-2.5224609375,-1.6015625,3.68359375
0.003,-2.001953125,-2.2421875,3.8037109375
0.0035,-1.28125,-3.0029296875,3.84375
0.004,-0.5205078125,-3.36328125,3.4833984375
0.0045,0.1201171875,-3.84375,3.4033203125
0.005,0.9609375,-4.0439453125,2.7626953125
0.0055,1.681640625,-4.2841796875,2.2822265625
0.006,2.2822265625,-4.3642578125,1.76171875
0.0065,2.8427734375,-4.3642578125,1.201171875
0.007,3.04296875,-3.8837890625,0.5205078125
0.0075,3.5234375,-3.763671875,0.0
0.008,3.5634765625,-2.7626953125,-1.1611328125
0.0085,3.8037109375,-2.4423828125,-1.8017578125
0.009,3.8037109375,-1.6416015625,-2.6025390625
0.0095,3.5634765625,-1.041015625,-3.04296875
0.01,3.3232421875,-0.3203125,-3.4833984375
0.0105,2.9228515625,0.4404296875,-3.763671875
0.011,2.2421875,1.4013671875,-4.00390625
0.0115,1.5615234375,2.0419921875,-4.00390625
0.012,0.880859375,2.802734375,-4.0439453125
0.0125,0.0400390625,3.0830078125,-3.5634765625
0.013,-0.560546875,3.5234375,-3.4833984375
0.0135,-1.6015625,3.68359375,-2.5625
0.014,-2.2421875,3.84375,-2.1220703125
0.0145,-2.8427734375,3.763671875,-1.44140625
0.015,-3.283203125,3.6435546875,-0.880859375
0.0155,-3.4833984375,3.1630859375,-0.2001953125
0.016,-3.8037109375,2.8427734375,0.5205078125
0.0165,-3.8837890625,1.841796875,1.5615234375
0.017,-3.9638671875,1.4013671875,2.1220703125
0.0175,-3.923828125,0.6005859375,2.8427734375
0.018,-3.5634765625,0.0,3.1630859375
0.0185,-3.4033203125,-0.640625,3.603515625
0.019,-2.72265625,-1.5615234375,3.84375
0.0195,-2.08203125,-2.3623046875,4.0439453125
0.02,-1.28125,-2.962890625,3.84375
0.0205,-0.640625,-3.6435546875,3.84375
0.021,0.240234375,-3.84375,3.283203125
0.0215,0.80078125,-4.244140625,3.1630859375
0.022,1.8818359375,-4.3642578125,2.2421875
0.0225,2.40234375,-4.484375,1.8017578125
0.023,3.0029296875,-4.404296875,1.12109375
0.0235,3.3232421875,-4.1240234375,0.5205078125
0.024,3.5634765625,-3.7236328125,-0.2001953125
0.0245,3.763671875,-3.123046875,-1.0810546875
0.025,3.8837890625,-2.3623046875,-2.001953125
0.0255,3.84375,-1.76171875,-2.5625
0.026,3.84375,-1.0009765625,-3.203125
0.0265,3.3232421875,-0.2802734375,-3.4833984375
0.027,3.1630859375,0.3603515625,-3.8837890625
0.0275,2.2822265625,1.361328125,-4.0439453125
0.028,1.76171875,2.08203125,-4.244140625
0.0285,0.880859375,2.6826171875,-4.00390625
0.029,0.2001953125,3.2431640625,-3.8837890625
0.0295,-0.6005859375,3.4833984375,-3.36328125
0.03,-1.2412109375,3.8037109375,-3.04296875
0.0305,-2.2822265625,3.8837890625,-2.1220703125
0.031,-2.72265625,3.8837890625,-1.6416015625
0.0315,-3.36328125,3.84375,-1.0009765625
0.032,-3.5634765625,3.36328125,-0.3203125
0.0325,-3.8837890625,3.04296875,0.3203125
0.033,-4.00390625,2.162109375,1.3212890625
0.0335,-4.1640625,1.521484375,2.162109375
0.034,-3.9638671875,0.8408203125,2.6826171875
0.0345,-3.923828125,0.240234375,3.3232421875
0.035,-3.36328125,-0.6005859375,3.5234375
0.0355,-3.203125,-1.2412109375,3.9638671875
0.036,-2.2421875,-2.322265625,4.1240234375
0.0365,-1.6015625,-2.962890625,4.1240234375
0.037,-0.720703125,-3.5634765625,3.8837890625
0.0375,0.0,-4.0439453125,3.6435546875
0.038,0.7607421875,-4.244140625,3.1630859375
0.0385,1.5615234375,-4.5244140625,2.6025390625
0.039,2.5224609375,-4.6845703125,1.8818359375
0.0395,2.8828125,-4.4443359375,1.2412109375
0.04,3.4833984375,-4.4443359375,0.640625
0.0405,3.5634765625,-3.84375,-0.16015625
0.041,3.8837890625,-3.5234375,-0.80078125
0.0415,3.9638671875,-2.5224609375,-1.921875
0.042,4.083984375,-1.8818359375,-2.6025390625
0.0425,3.7236328125,-1.041015625,-3.123046875
0.043,3.6435546875,-0.5205078125,-3.5634765625
0.0435,3.0830078125,0.3203125,-3.8037109375
0.044,2.6826171875,0.9609375,-4.1240234375
0.0445,1.841796875,2.0419921875,-4.32421875
0.045,1.12109375,2.5625,-4.1240234375
0.0455,0.3603515625,3.1630859375,-3.923828125
0.046,-0.400390625,3.4833984375,-3.5234375
0.0465,-1.0810546875,3.763671875,-3.1630859375
0.047,-1.9619140625,3.84375,-2.40234375
0.0475,-2.7626953125,4.083984375,-1.8017578125
0.048,-3.0830078125,3.68359375,-1.1611328125
0.0485,-3.603515625,3.68359375,-0.640625
0.049,-3.68359375,3.0029296875,0.16015625
0.0495,-4.00390625,2.642578125,0.80078125
0.05,-4.0439453125,1.681640625,1.921875
0.0505,-4.1640625,1.2412109375,2.5224609375
0.051,-3.84375,0.3603515625,3.04296875
0.0515,-3.7236328125,-0.2001953125,3.443359375
0.052,-3.203125,-1.0009765625,3.763671875
0.0525,-2.642578125,-1.7216796875,4.00390625
0.053,-1.9619140625,-2.72265625,4.2841796875
0.0535,-1.12109375,-3.203125,3.8837890625
0.054,-0.400390625,-3.8837890625,3.8837890625
0.0545,0.4404296875,-4.083984375,3.3232421875
0.055,1.041015625,-4.4443359375,3.04296875
0.0555,2.0419921875,-4.564453125,2.2021484375
0.056,2.7626953125,-4.6845703125,1.6416015625
0.0565,3.1630859375,-4.3642578125,0.880859375
0.057,3.5634765625,-4.32421875,0.3603515625
0.0575,3.68359375,-3.5634765625,-0.5205078125
0.058,3.9638671875,-3.0830078125,-1.28125
0.0585,4.083984375,-2.08203125,-2.40234375
0.059,3.923828125,-1.44140625,-2.8828125
0.0595,3.7236328125,-0.6806640625,-3.443359375
0.06,3.36328125,0.0,-3.7236328125
0.0605,2.9228515625,0.6806640625,-4.0439453125
0.061,2.2021484375,1.5615234375,-4.1640625
0.0615,1.521484375,2.482421875,-4.3642578125
0.062,0.6005859375,2.8427734375,-3.8837890625
0.0625,0.0,3.4833984375,-3.8837890625
0.063,-0.9208984375,3.5634765625,-3.203125
0.0635,-1.5615234375,3.84375,-2.8427734375
0.064,-2.5224609375,3.9638671875,-1.9619140625
0.0645,-3.04296875,3.8837890625,-1.4013671875
0.065,-3.4033203125,3.5634765625,-0.6806640625
0.0655,-3.7236328125,3.3232421875,-0.240234375
0.066,-3.8037109375,2.6826171875,0.6806640625
0.0665,-3.9638671875,2.1220703125,1.4013671875
0.067,-4.1640625,1.3212890625,2.40234375
0.0675,-3.84375,0.640625,2.7626953125
0.068,-3.8037109375,0.0400390625,3.36328125
0.0685,-3.283203125,-0.6806640625,3.5234375
0.069,-2.962890625,-1.361328125,3.8837890625
0.0695,-2.162109375,-2.2822265625,4.00390625
0.07,-1.5615234375,-3.04296875,4.1240234375
0.0705,-0.640625,-3.4833984375,3.68359375
0.071,0.0,-4.00390625,3.68359375
0.0715,0.80078125,-4.1640625,3.0029296875
0.072,1.4814453125,-4.4443359375,2.6025390625
0.0725,2.482421875,-4.64453125,1.8818359375
0.073,2.8427734375,-4.4443359375,1.2412109375
0.0735,3.3232421875,-4.3642578125,0.640625
0.074,3.5234375,-3.84375,0.0
0.0745,3.763671875,-3.2431640625,-0.8408203125
0.075,3.8837890625,-2.5224609375,-1.7216796875
0.0755,4.083984375,-1.841796875,-2.6025390625
0.076,3.6435546875,-1.041015625,-2.962890625
0.0765,3.68359375,-0.5205078125,-3.5634765625
0.077,3.04296875,0.3203125,-3.7236328125
0.0775,2.642578125,1.0009765625,-4.083984375
0.078,1.841796875,1.9619140625,-4.2041015625
0.0785,1.12109375,2.6025390625,-4.1240234375
0.079,0.2802734375,3.04296875,-3.8037109375
0.0795,-0.3603515625,3.4833984375,-3.603515625
0.08,-1.2412109375,3.6435546875,-2.9228515625
0.0805,-1.921875,3.84375,-2.4423828125
0.081,-2.8427734375,4.00390625,-1.76171875
0.0815,-3.0830078125,3.5634765625,-1.041015625
0.082,-3.603515625,3.603515625,-0.6005859375
0.0825,-3.7236328125,2.9228515625,0.2802734375
0.083,-3.923828125,2.4423828125,1.0009765625
0.0835,-4.00390625,1.6015625,1.921875
0.084,-4.1240234375,1.0009765625,2.6826171875
0.0845,-3.6435546875,0.240234375,3.0029296875
0.085,-3.68359375,-0.2802734375,3.5234375
0.0855,-3.0029296875,-1.1611328125,3.68359375
0.086,-2.5224609375,-1.8818359375,3.9638671875
0.0865,-1.7216796875,-2.8427734375,4.1240234375
0.087,-0.9208984375,-3.283203125,3.8037109375
0.0875,-0.240234375,-3.84375,3.6435546875
0.088,0.5205078125,-4.083984375,3.203125
0.0885,1.28125,-4.3642578125,2.6826171875
0.089,2.0419921875,-4.5244140625,2.08203125
0.0895,2.802734375,-4.64453125,1.4814453125
0.09,3.04296875,-4.083984375,0.7607421875
0.0905,3.5234375,-4.1640625,0.3203125
0.091,3.5234375,-3.2431640625,-0.640625
0.0915,3.84375,-2.8828125,-1.3212890625
0.092,3.84375,-1.9619140625,-2.2822265625
0.0925,3.8037109375,-1.361328125,-2.8427734375
0.093,3.4833984375,-0.640625,-3.203125
0.0935,3.3232421875,-0.16015625,-3.603515625
0.094,2.6826171875,0.7607421875,-3.84375
0.0945,2.162109375,1.521484375,-4.00390625
0.095,1.44140625,2.3623046875,-4.2041015625
0.0955,0.6005859375,2.6826171875,-3.7236328125
0.096,0.0400390625,3.3232421875,-3.763671875
0.0965,-0.80078125,3.36328125,-3.1630859375
0.097,-1.5615234375,3.68359375,-2.72265625
0.0975,-2.2822265625,3.763671875,-2.0419921875
0.098,-2.8828125,3.84375,-1.4814453125
0.0985,-3.123046875,3.4033203125,-0.80078125
0.099,-3.5234375,3.36328125,-0.3603515625
0.0995,-3.5634765625,2.5224609375,0.640625
0.1,-3.84375,2.1220703125,1.28125
0.1005,-3.9638671875,1.3212890625,2.2421875
0.101,-3.763671875,0.720703125,2.6025390625
0.1015,-3.6435546875,0.1201171875,3.1630859375
0.102,-3.283203125,-0.6005859375,3.443359375
0.1025,-2.7626953125,-1.44140625,3.763671875
0.103,-2.1220703125,-2.2021484375,3.84375
0.1035,-1.4814453125,-2.9228515625,3.9638671875
0.104,-0.640625,-3.283203125,3.5234375
0.1045,0.0,-3.8837890625,3.5634765625
0.105,0.8408203125,-4.0439453125,2.802734375
0.1055,1.521484375,-4.3642578125,2.5224609375
0.106,2.2822265625,-4.4443359375,1.841796875
0.1065,2.72265625,-4.244140625,1.28125
0.107,3.04296875,-4.00390625,0.640625
0.1075,3.36328125,-3.7236328125,0.0400390625
0.108,3.5234375,-2.9228515625,-1.0009765625
0.1085,3.7236328125,-2.4423828125,-1.6416015625
0.109,3.84375,-1.7216796875,-2.5224609375
0.1095,3.443359375,-1.041015625,-2.802734375
0.11,3.443359375,-0.5205078125,-3.3232421875
0.1105,2.8427734375,0.2802734375,-3.5634765625
0.111,2.4423828125,1.0810546875,-3.8837890625
0.1115,1.681640625,1.841796875,-3.923828125
0.112,1.041015625,2.4423828125,-3.8837890625
0.1125,0.2802734375,2.7626953125,-3.5634765625
0.113,-0.3203125,3.2431640625,-3.4833984375
0.1135,-1.2412109375,3.3232421875,-2.72265625
0.114,-1.8017578125,3.6435546875,-2.3623046875
0.1145,-2.5224609375,3.68359375,-1.681640625
0.115,-2.802734375,3.443359375,-1.1611328125
0.1155,-3.203125,3.3232421875,-0.640625
0.116,-3.36328125,2.7626953125,0.16015625
0.1165,-3.603515625,2.2421875,0.9208984375
0.117,-3.7236328125,1.6015625,1.6416015625
0.1175,-3.84375,1.0810546875,2.2822265625
0.118,-3.443359375,0.4404296875,2.642578125
0.1185,-3.5634765625,0.0,3.1630859375
0.119,-2.8828125,-1.0009765625,3.4033203125
0.1195,-2.4423828125,-1.6416015625,3.68359375
0.12,-1.7216796875,-2.4423828125,3.8037109375
0.1205,-1.041015625,-3.0029296875,3.6435546875
0.121,-0.3603515625,-3.4833984375,3.4033203125
0.1215,0.2802734375,-3.84375,3.1630859375
0.122,1.12109375,-4.00390625,2.5625
0.1225,1.76171875,-4.2041015625,2.2021484375
0.123,2.40234375,-4.3642578125,1.6015625
0.1235,2.642578125,-3.9638671875,1.0009765625
0.124,3.1630859375,-4.00390625,0.5205078125
0.1245,3.283203125,-3.1630859375,-0.48046875
0.125,3.5634765625,-2.7626953125,-1.1611328125
0.1255,3.6435546875,-2.08203125,-1.9619140625
0.126,3.6435546875,-1.521484375,-2.5224609375
0.1265,3.283203125,-0.80078125,-2.8828125
0.127,3.2431640625,-0.3203125,-3.3232421875
0.1275,2.5625,0.6806640625,-3.603515625
0.128,2.1220703125,1.3212890625,-3.84375
0.1285,1.361328125,2.0419921875,-3.8837890625
0.129,0.640625,2.482421875,-3.603515625
0.1295,0.080078125,2.962890625,-3.5634765625
0.13,-0.720703125,3.203125,-2.962890625
0.1305,-1.4814453125,3.4833984375,-2.5224609375
0.131,-2.08203125,3.5234375,-2.001953125
0.1315,-2.6025390625,3.603515625,-1.4814453125
0.132,-2.8427734375,3.203125,-0.880859375
0.1325,-3.283203125,3.1630859375,-0.3603515625
0.133,-3.36328125,2.2822265625,0.640625
0.1335,-3.68359375,1.9619140625,1.2412109375
0.134,-3.7236328125,1.28125,2.0419921875
0.1345,-3.5634765625,0.7607421875,2.40234375
0.135,-3.4033203125,0.1201171875,2.8828125
0.1355,-3.1630859375,-0.5205078125,3.203125
0.136,-2.5625,-1.4013671875,3.5234375
0.1365,-2.001953125,-2.1220703125,3.6435546875
0.137,-1.361328125,-2.8427734375,3.68359375
0.1375,-0.640625,-3.203125,3.3232421875
0.138,0.0,-3.68359375,3.36328125
0.1385,0.8408203125,-3.84375,2.642578125
0.139,1.44140625,-4.1640625,2.40234375
0.1395,2.0419921875,-4.1640625,1.8017578125
0.14,2.5224609375,-4.1240234375,1.28125
0.1405,2.802734375,-3.8037109375,0.6806640625
0.141,3.1630859375,-3.5634765625,0.0400390625
0.1415,3.3232421875,-2.7626953125,-0.9609375
0.142,3.5234375,-2.3623046875,-1.5615234375
0.1425,3.5634765625,-1.681640625,-2.2822265625
0.143,3.3232421875,-1.1611328125,-2.6025390625
0.1435,3.2431640625,-0.5205078125,-3.1630859375
0.144,2.72265625,0.2802734375,-3.4033203125
0.1445,2.2822265625,1.0009765625,-3.763671875
0.145,1.6015625,1.681640625,-3.8037109375
0.1455,1.0009765625,2.2822265625,-3.8037109375
0.146,0.2802734375,2.6826171875,-3.36328125
0.1465,-0.2802734375,3.1630859375,-3.3232421875
0.147,-1.2412109375,3.283203125,-2.5625
0.1475,-1.8017578125,3.5234375,-2.2822265625
0.148,-2.40234375,3.5234375,-1.6416015625
0.1485,-2.72265625,3.36328125,-1.1611328125
0.149,-3.0830078125,3.1630859375,-0.560546875
0.1495,-3.283203125,2.6025390625,0.240234375
0.15,-3.5634765625,2.0419921875,1.041015625
0.1505,-3.6435546875,1.5615234375,1.6416015625
0.151,-3.7236328125,0.9609375,2.2822265625
0.1515,-3.36328125,0.3203125,2.642578125
0.152,-3.36328125,-0.2802734375,3.1630859375
0.1525,-2.6826171875,-1.201171875,3.36328125
0.153,-2.2421875,-1.921875,3.68359375
0.1535,-1.521484375,-2.5625,3.5634765625
0.154,-0.9208984375,-3.0830078125,3.5634765625
0.1545,-0.2001953125,-3.4833984375,3.2431640625
0.155,0.48046875,-3.8037109375,3.0029296875
0.1555,1.4013671875,-4.0439453125,2.3623046875
0.156,1.921875,-4.2041015625,1.9619140625
0.1565,2.5224609375,-4.244140625,1.4013671875
0.157,2.7626953125,-3.8837890625,0.80078125
0.1575,3.203125,-3.763671875,0.240234375
0.158,3.36328125,-2.9228515625,-0.80078125
0.1585,3.6435546875,-2.482421875,-1.5615234375
0.159,3.5634765625,-1.8017578125,-2.2021484375
0.1595,3.5634765625,-1.2412109375,-2.72265625
0.16,3.1630859375,-0.560546875,-3.0830078125
0.1605,3.04296875,0.0400390625,-3.5634765625
0.161,2.2822265625,1.041015625,-3.8037109375
0.1615,1.76171875,1.76171875,-3.923828125
0.162,1.0009765625,2.40234375,-3.84375
0.1625,0.3203125,2.8427734375,-3.5634765625
0.163,-0.3603515625,3.203125,-3.3232421875
0.1635,-1.1611328125,3.443359375,-2.7626953125
0.164,-2.001953125,3.68359375,-2.162109375
0.1645,-2.4423828125,3.5634765625,-1.6416015625
0.165,-2.962890625,3.603515625,-1.1611328125
0.1655,-3.1630859375,3.123046875,-0.48046875
0.166,-3.5634765625,2.8828125,0.16015625
0.1665,-3.603515625,1.9619140625,1.201171875
0.167,-3.8037109375,1.5615234375,1.8017578125
0.1675,-3.6435546875,0.8408203125,2.40234375
0.168,-3.5634765625,0.3603515625,2.8427734375
0.1685,-3.203125,-0.400390625,3.1630859375
0.169,-2.8828125,-1.12109375,3.4833984375
0.1695,-2.2021484375,-1.9619140625,3.763671875
0.17,-1.6015625,-2.5625,3.68359375
0.1705,-0.9208984375,-3.203125,3.68359375
0.171,-0.2001953125,-3.5234375,3.283203125
0.1715,0.4404296875,-3.8837890625,3.123046875
0.172,1.3212890625,-4.0439453125,2.4423828125
0.1725,2.0419921875,-4.32421875,1.9619140625
0.173,2.482421875,-4.1640625,1.4013671875
0.1735,2.9228515625,-4.1640625,0.9208984375
0.174,3.123046875,-3.6435546875,0.240234375
0.1745,3.4833984375,-3.3232421875,-0.5205078125
0.175,3.6435546875,-2.4423828125,-1.5615234375
0.1755,3.763671875,-2.001953125,-2.1220703125
0.176,3.603515625,-1.2412109375,-2.7626953125
0.1765,3.4033203125,-0.720703125,-3.0830078125
0.177,3.123046875,0.0,-3.5634765625
0.1775,2.5625,0.8408203125,-3.763671875
0.178,1.9619140625,1.7216796875,-4.083984375
0.1785,1.201171875,2.2421875,-3.84375
0.179,0.560546875,2.9228515625,-3.8837890625
0.1795,-0.3203125,3.1630859375,-3.3232421875
0.18,-0.880859375,3.5234375,-3.1630859375
0.1805,-1.8818359375,3.68359375,-2.2822265625
0.181,-2.5224609375,3.84375,-1.841796875
0.1815,-2.962890625,3.5634765625,-1.1611328125
0.182,-3.36328125,3.4833984375,-0.640625
0.1825,-3.5234375,2.8828125,0.1201171875
0.183,-3.7236328125,2.40234375,0.880859375
0.1835,-3.923828125,1.5615234375,1.921875
0.184,-3.84375,1.041015625,2.40234375
0.1845,-3.763671875,0.3203125,3.0029296875
0.185,-3.36328125,-0.3603515625,3.2431640625
0.1855,-3.0830078125,-1.0009765625,3.68359375
0.186,-2.3623046875,-1.921875,3.84375
0.1865,-1.76171875,-2.6826171875,4.00390625
0.187,-0.9208984375,-3.203125,3.68359375
0.1875,-0.3203125,-3.7236328125,3.68359375
0.188,0.5205078125,-3.923828125,3.0830078125
0.1885,1.1611328125,-4.244140625,2.7626953125
0.189,2.2021484375,-4.4443359375,1.9619140625
0.1895,2.642578125,-4.3642578125,1.4013671875
0.19,3.123046875,-4.2041015625,0.80078125
0.1905,3.36328125,-3.8837890625,0.240234375
0.191,3.603515625,-3.4033203125,-0.560546875
0.1915,3.763671875,-2.6826171875,-1.44140625
0.192,3.9638671875,-1.9619140625,-2.40234375
0.1925,3.603515625,-1.28125,-2.8427734375
0.193,3.6435546875,-0.720703125,-3.36328125
0.1935,3.123046875,0.080078125,-3.5634765625
0.194,2.802734375,0.720703125,-3.923828125
0.1945,1.9619140625,1.7216796875,-4.1240234375
0.195,1.3212890625,2.40234375,-4.1240234375
0.1955,0.48046875,2.8828125,-3.8037109375
0.196,-0.16015625,3.3232421875,-3.68359375
0.1965,-0.9208984375,3.5234375,-3.0830078125
0.197,-1.6416015625,3.763671875,-2.6025390625
0.1975,-2.6025390625,3.9638671875,-1.8818359375
0.198,-2.962890625,3.68359375,-1.2412109375
0.1985,-3.4833984375,3.68359375,-0.720703125
0.199,-3.5634765625,3.123046875,0.0
0.1995,-3.8837890625,2.6826171875,0.7607421875
0.2,-4.00390625,1.7216796875,1.6416015625
0.2005,-4.1640625,1.1611328125,2.482421875
0.201,-3.763671875,0.3603515625,2.8427734375
0.2015,-3.8037109375,0.0,3.4033203125
0.202,-3.203125,-0.9208984375,3.6435546875
0.2025,-2.7626953125,-1.6015625,3.9638671875
0.203,-1.9619140625,-2.6025390625,4.1240234375
0.2035,-1.201171875,-3.203125,3.9638671875
0.204,-0.400390625,-3.7236328125,3.763671875
0.2045,0.3203125,-4.083984375,3.443359375
0.205,1.0810546875,-4.32421875,2.8828125
0.2055,1.921875,-4.484375,2.2421875
0.206,2.802734375,-4.724609375,1.6015625
0.2065,3.0830078125,-4.244140625,0.880859375
0.207,3.5634765625,-4.244140625,0.4404296875
0.2075,3.6435546875,-3.5234375,-0.5205078125
0.208,4.00390625,-3.0830078125,-1.361328125
0.2085,3.9638671875,-2.1220703125,-2.2822265625
0.209,3.9638671875,-1.4814453125,-2.9228515625
0.2095,3.5634765625,-0.640625,-3.283203125
0.21,3.4833984375,-0.16015625,-3.7236328125
0.2105,2.8427734375,0.6806640625,-3.923828125
0.211,2.2822265625,1.4013671875,-4.1240234375
0.2115,1.521484375,2.40234375,-4.3642578125
0.212,0.640625,2.8427734375,-3.8837890625
0.2125,0.0,3.4033203125,-3.84375
0.213,-0.8408203125,3.5634765625,-3.2431640625
0.2135,-1.5615234375,3.84375,-2.7626953125
0.214,-2.40234375,3.8837890625,-2.0419921875
0.2145,-3.0830078125,3.9638671875,-1.44140625
0.215,-3.283203125,3.5234375,-0.720703125
0.2155,-3.7236328125,3.5234375,-0.2802734375
0.216,-3.8037109375,2.6826171875,0.720703125
0.2165,-4.00390625,2.2021484375,1.3212890625
0.217,-4.1640625,1.361328125,2.40234375
0.2175,-3.923828125,0.6806640625,2.802734375
0.218,-3.7236328125,0.0,3.3232421875
0.2185,-3.4833984375,-0.6005859375,3.6435546875
0.219,-2.8828125,-1.44140625,3.8837890625
0.2195,-2.2822265625,-2.2421875,4.00390625
0.22,-1.5615234375,-3.0830078125,4.2041015625
0.2205,-0.640625,-3.4833984375,3.68359375
0.221,0.0,-4.083984375,3.763671875
0.2215,0.880859375,-4.2041015625,3.04296875
0.222,1.5615234375,-4.5244140625,2.642578125
0.2225,2.482421875,-4.64453125,1.8818359375
0.223,3.04296875,-4.564453125,1.2412109375
0.2235,3.3232421875,-4.1640625,0.560546875
0.224,3.68359375,-4.0439453125,0.0400390625
0.2245,3.84375,-3.1630859375,-1.0810546875
0.225,4.0439453125,-2.5625,-1.76171875
0.2255,4.1240234375,-1.7216796875,-2.802734375
0.226,3.763671875,-1.0009765625,-3.1630859375
0.2265,3.603515625,-0.3603515625,-3.68359375
0.227,3.123046875,0.400390625,-3.923828125
0.2275,2.5224609375,1.28125,-4.1640625
0.228,1.76171875,2.08203125,-4.244140625
0.2285,1.041015625,2.8427734375,-4.2841796875
