wavelength,x,y,z
0.0,2.962890625,-3.4833984375,0.0
0.0005,3.2431640625,-3.36328125,-0.6005859375
0.001,3.5234375,-2.72265625,-1.44140625
0.0015,3.4833984375,-2.2021484375,-1.8017578125
0.002,3.2431640625,-1.3212890625,-2.4423828125
0.0025,2.8828125,-0.560546875,-2.8427734375
0.003,2.5625,0.2802734375,-3.283203125
0.0035,2.162109375,1.0009765625,-3.5634765625
0.004,1.6416015625,1.76171875,-3.84375
0.0045,0.9208984375,2.162109375,-3.5234375
0.005,0.3603515625,2.8427734375,-3.5634765625
0.0055,-0.5205078125,3.123046875,-2.962890625
0.006,-1.1611328125,3.5234375,-2.7626953125
0.0065,-2.2021484375,3.8037109375,-2.001953125
0.007,-2.72265625,3.8037109375,-1.5615234375
0.0075,-3.1630859375,3.4833984375,-0.80078125
0.008,-3.36328125,3.36328125,-0.3203125
0.0085,-3.68359375,2.72265625,0.4404296875
0.009,-3.8837890625,2.3623046875,1.041015625
0.0095,-4.1640625,1.76171875,1.8818359375
0.01,-3.8037109375,1.041015625,2.2421875
0.0105,-3.68359375,0.2802734375,2.8828125
0.011,-3.0830078125,-0.6005859375,3.0830078125
0.0115,-2.802734375,-1.28125,3.4833984375
0.012,-2.162109375,-2.08203125,3.6435546875
0.0125,-1.6015625,-2.7626953125,3.763671875
0.013,-0.8408203125,-3.1630859375,3.3232421875
0.0135,-0.3203125,-3.6435546875,3.3232421875
0.014,0.640625,-3.8837890625,2.6025390625
0.0145,1.3212890625,-4.244140625,2.322265625
0.015,2.2822265625,-4.484375,1.5615234375
0.0155,2.642578125,-4.2041015625,0.9609375
0.016,2.9228515625,-4.1640625,0.3603515625
0.0165,3.2431640625,-3.6435546875,-0.240234375
0.017,3.4833984375,-3.203125,-0.9208984375
0.0175,3.603515625,-2.6025390625,-1.5615234375
0.018,3.84375,-2.0419921875,-2.322265625
0.0185,3.1630859375,-1.0810546875,-2.642578125
0.019,3.1630859375,-0.400390625,-3.2431640625
0.0195,2.40234375,0.560546875,-3.4033203125
0.02,2.2021484375,1.201171875,-3.84375
0.0205,1.4013671875,2.162109375,-3.9638671875
0.021,0.7607421875,2.6826171875,-3.84375
0.0215,0.0,3.0830078125,-3.4833984375
0.022,-0.6806640625,3.5634765625,-3.283203125
0.0225,-1.7216796875,3.8037109375,-2.5224609375
0.023,-2.3623046875,4.0439453125,-2.08203125
0.0235,-3.3232421875,4.2041015625,-1.3212890625
0.024,-3.5634765625,3.763671875,-0.5205078125
0.0245,-4.00390625,3.5234375,0.0
0.025,-4.1640625,2.8427734375,0.8408203125
0.0255,-4.3642578125,2.40234375,1.521484375
0.026,-4.3642578125,1.6416015625,2.2421875
0.0265,-4.484375,0.9609375,3.0029296875
0.027,-3.6435546875,-0.16015625,3.2431640625
0.0275,-3.5634765625,-0.80078125,3.8037109375
0.028,-2.5625,-1.921875,3.84375
0.0285,-2.2021484375,-2.5224609375,4.1240234375
0.029,-1.3212890625,-3.4833984375,4.1240234375
0.0295,-0.5205078125,-3.8837890625,3.763671875
0.03,0.240234375,-4.244140625,3.36328125
0.0305,1.201171875,-4.64453125,2.8427734375
0.031,2.2021484375,-4.8046875,1.9619140625
0.0315,2.802734375,-4.8447265625,1.44140625
0.032,3.603515625,-5.0048828125,0.640625
0.0325,3.68359375,-4.2041015625,-0.16015625
0.033,3.9638671875,-4.1640625,-0.6806640625
0.0335,4.1240234375,-3.04296875,-1.681640625
0.034,4.2041015625,-2.5224609375,-2.2421875
0.0345,4.1240234375,-1.6416015625,-2.962890625
0.035,3.9638671875,-0.9208984375,-3.5634765625
0.0355,3.04296875,0.240234375,-3.8037109375
0.036,2.8427734375,0.9609375,-4.244140625
0.0365,1.76171875,2.2021484375,-4.32421875
0.037,1.3212890625,2.6826171875,-4.404296875
0.0375,0.3603515625,3.603515625,-4.32421875
0.038,-0.5205078125,3.9638671875,-3.8037109375
0.0385,-1.28125,4.244140625,-3.36328125
0.039,-2.3623046875,4.6044921875,-2.642578125
0.0395,-3.36328125,4.6845703125,-1.8017578125
0.04,-3.923828125,4.484375,-1.041015625
0.0405,-4.64453125,4.4443359375,-0.3203125
0.041,-4.7646484375,3.603515625,0.6806640625
0.0415,-5.0048828125,3.3232421875,1.201171875
0.042,-5.044921875,2.162109375,2.40234375
0.0425,-5.0849609375,1.6015625,2.9228515625
0.043,-4.8046875,0.6005859375,3.68359375
0.0435,-4.484375,-0.3203125,4.2041015625
0.044,-3.5234375,-1.44140625,4.3642578125
0.0445,-3.1630859375,-2.2421875,4.7646484375
0.045,-1.8818359375,-3.5634765625,4.8046875
0.0455,-1.28125,-4.00390625,4.6044921875
0.046,-0.240234375,-4.8447265625,4.404296875
0.0465,0.720703125,-5.125,3.7236328125
0.047,1.521484375,-5.3251953125,3.1630859375
0.0475,2.72265625,-5.60546875,2.2421875
0.048,3.84375,-5.685546875,1.2412109375
0.0485,4.1640625,-5.205078125,0.3603515625
0.049,4.96484375,-5.125,-0.48046875
0.0495,4.7646484375,-4.00390625,-1.28125
0.05,4.96484375,-3.6435546875,-1.8818359375
0.0505,4.96484375,-2.3623046875,-3.203125
0.051,4.8046875,-1.6416015625,-3.6435546875
0.0515,4.32421875,-0.560546875,-4.2841796875
0.052,3.84375,0.4404296875,-4.724609375
0.0525,2.802734375,1.521484375,-4.724609375
0.053,2.2822265625,2.322265625,-5.0048828125
0.0535,1.0810546875,3.6435546875,-5.0849609375
0.054,0.2802734375,4.00390625,-4.64453125
0.0545,-0.720703125,4.724609375,-4.3642578125
0.055,-1.6416015625,4.8447265625,-3.5634765625
0.0555,-2.4423828125,5.0849609375,-3.0830078125
0.056,-3.68359375,5.205078125,-2.001953125
0.0565,-4.64453125,5.2451171875,-1.041015625
0.057,-4.96484375,4.5244140625,-0.1201171875
0.0575,-5.60546875,4.4443359375,0.6806640625
0.058,-5.4052734375,3.3232421875,1.6015625
0.0585,-5.525390625,2.8427734375,2.2021484375
0.059,-5.60546875,1.5615234375,3.5234375
0.0595,-5.28515625,0.8408203125,3.923828125
0.06,-4.7646484375,-0.3603515625,4.5244140625
0.0605,-4.1640625,-1.361328125,4.96484375
0.061,-3.203125,-2.40234375,4.9248046875
0.0615,-2.5625,-3.203125,5.0849609375
0.062,-1.3212890625,-4.5244140625,5.1650390625
0.0625,-0.400390625,-4.8447265625,4.5244140625
0.063,0.5205078125,-5.525390625,4.32421875
0.0635,1.521484375,-5.60546875,3.4033203125
0.064,2.2822265625,-5.845703125,2.8427734375
0.0645,3.603515625,-5.92578125,1.6416015625
0.065,4.564453125,-5.9658203125,0.720703125
0.0655,4.7646484375,-5.0849609375,-0.3203125
0.066,5.2451171875,-4.884765625,-1.0009765625
0.0665,5.0849609375,-3.7236328125,-1.9619140625
0.067,5.1650390625,-3.203125,-2.5625
0.0675,5.2451171875,-1.9619140625,-3.84375
0.068,4.7646484375,-1.041015625,-4.2041015625
0.0685,4.1240234375,0.16015625,-4.7646484375
0.069,3.443359375,1.12109375,-5.0048828125
0.0695,2.5224609375,2.1220703125,-5.0048828125
0.07,1.76171875,3.0029296875,-5.0849609375
0.0705,0.6806640625,4.2041015625,-5.205078125
0.071,-0.400390625,4.4443359375,-4.3642578125
0.0715,-1.1611328125,5.044921875,-4.2041015625
0.072,-2.2421875,5.0048828125,-3.203125
0.0725,-2.962890625,5.125,-2.642578125
0.073,-4.2041015625,5.2451171875,-1.4814453125
0.0735,-4.96484375,5.0849609375,-0.6005859375
0.074,-5.1650390625,4.244140625,0.4404296875
0.0745,-5.525390625,4.00390625,1.0810546875
0.075,-5.4453125,2.8828125,2.001953125
0.0755,-5.4052734375,2.322265625,2.5625
0.076,-5.525390625,1.201171875,3.84375
0.0765,-4.9248046875,0.2802734375,4.083984375
0.077,-4.404296875,-0.80078125,4.64453125
0.0775,-3.6435546875,-1.76171875,4.8046875
0.078,-2.8828125,-2.642578125,4.884765625
0.0785,-2.0419921875,-3.5634765625,4.9248046875
0.079,-1.041015625,-4.6044921875,4.96484375
0.0795,0.0400390625,-4.8447265625,4.083984375
0.08,0.6806640625,-5.4453125,4.00390625
0.0805,1.8818359375,-5.4853515625,2.8828125
0.081,2.5224609375,-5.6455078125,2.40234375
0.0815,3.763671875,-5.7255859375,1.3212890625
0.082,4.32421875,-5.4052734375,0.48046875
0.0825,4.564453125,-4.6845703125,-0.48046875
0.083,4.8447265625,-4.3642578125,-1.041015625
0.0835,4.8046875,-3.36328125,-2.001953125
0.084,4.7646484375,-2.72265625,-2.5625
0.0845,4.9248046875,-1.7216796875,-3.7236328125
0.085,4.083984375,-0.640625,-3.923828125
0.0855,3.763671875,0.2802734375,-4.5244140625
0.086,2.8427734375,1.28125,-4.5244140625
0.0865,2.2421875,2.0419921875,-4.724609375
0.087,1.4013671875,3.0029296875,-4.724609375
0.0875,0.48046875,3.84375,-4.6845703125
0.088,-0.5205078125,4.00390625,-3.8837890625
0.0885,-1.1611328125,4.484375,-3.8037109375
0.089,-2.2822265625,4.5244140625,-2.72265625
0.0895,-2.8828125,4.724609375,-2.322265625
0.09,-4.00390625,4.8447265625,-1.28125
0.0905,-4.32421875,4.32421875,-0.48046875
0.091,-4.6845703125,3.8837890625,0.3603515625
0.0915,-4.8447265625,3.36328125,0.9609375
0.092,-4.884765625,2.642578125,1.76171875
0.0925,-4.8447265625,1.921875,2.40234375
0.093,-5.0048828125,1.1611328125,3.3232421875
0.0935,-4.1640625,0.0400390625,3.5234375
0.094,-4.0439453125,-0.6806640625,4.1240234375
0.0945,-3.04296875,-1.681640625,4.1240234375
0.095,-2.6826171875,-2.3623046875,4.404296875
0.0955,-1.7216796875,-3.283203125,4.404296875
0.096,-1.0009765625,-3.9638671875,4.2041015625
0.0965,0.0,-4.2841796875,3.603515625
0.097,0.6005859375,-4.7646484375,3.4033203125
0.0975,1.6416015625,-4.8447265625,2.5224609375
0.098,2.2421875,-5.0048828125,2.162109375
0.0985,3.2431640625,-5.125,1.28125
0.099,3.4833984375,-4.5244140625,0.48046875
0.0995,3.923828125,-4.3642578125,-0.16015625
0.1,3.9638671875,-3.6435546875,-0.9208984375
0.1005,4.1640625,-3.203125,-1.5615234375
0.101,4.1240234375,-2.4423828125,-2.2822265625
0.1015,4.244140625,-1.76171875,-3.0029296875
0.102,3.36328125,-0.640625,-3.2431640625
0.1025,3.3232421875,0.0400390625,-3.84375
0.103,2.40234375,1.0810546875,-3.8837890625
0.1035,2.162109375,1.6416015625,-4.244140625
0.104,1.28125,2.5625,-4.244140625
0.1045,0.5205078125,3.04296875,-3.923828125
0.105,-0.2802734375,3.443359375,-3.603515625
0.1055,-1.041015625,3.84375,-3.203125
0.106,-1.921875,4.00390625,-2.5625
0.1065,-2.6025390625,4.1640625,-2.001953125
0.107,-3.4033203125,4.32421875,-1.3212890625
0.1075,-3.603515625,3.6435546875,-0.5205078125
0.108,-4.083984375,3.6435546875,0.0
0.1085,-4.083984375,2.802734375,0.80078125
0.109,-4.3642578125,2.5224609375,1.3212890625
0.1095,-4.3642578125,1.681640625,2.162109375
0.11,-4.32421875,1.12109375,2.6826171875
0.1105,-3.68359375,0.0400390625,3.0830078125
0.111,-3.5634765625,-0.560546875,3.5234375
0.1115,-2.72265625,-1.4814453125,3.6435546875
0.112,-2.4423828125,-2.162109375,3.923828125
0.1125,-1.6416015625,-3.04296875,3.9638671875
0.113,-0.9208984375,-3.36328125,3.5234375
0.1135,-0.3203125,-3.84375,3.4833984375
0.114,0.6005859375,-4.1240234375,2.8427734375
0.1145,1.3212890625,-4.4443359375,2.4423828125
0.115,2.08203125,-4.5244140625,1.8017578125
0.1155,2.6826171875,-4.5244140625,1.28125
0.116,2.8828125,-4.00390625,0.5205078125
0.1165,3.3232421875,-4.00390625,0.1201171875
0.117,3.4033203125,-3.2431640625,-0.720703125
0.1175,3.68359375,-3.0029296875,-1.2412109375
0.118,3.763671875,-2.2421875,-2.0419921875
0.1185,3.4833984375,-1.6015625,-2.40234375
0.119,3.0830078125,-0.640625,-2.962890625
0.1195,2.7626953125,0.0400390625,-3.283203125
0.12,2.2822265625,0.80078125,-3.603515625
0.1205,1.921875,1.4814453125,-3.84375
0.121,1.2412109375,2.2021484375,-3.923828125
0.1215,0.48046875,2.5625,-3.443359375
0.122,-0.1201171875,3.1630859375,-3.4833984375
0.1225,-1.041015625,3.36328125,-2.72265625
0.123,-1.681640625,3.8037109375,-2.5224609375
0.1235,-2.5224609375,3.84375,-1.8017578125
0.124,-2.8828125,3.763671875,-1.28125
0.1245,-3.2431640625,3.3232421875,-0.560546875
0.125,-3.5634765625,3.203125,-0.1201171875
0.1255,-3.763671875,2.6025390625,0.720703125
0.126,-4.00390625,2.2421875,1.2412109375
0.1265,-4.1240234375,1.6015625,2.0419921875
0.127,-3.68359375,0.80078125,2.322265625
0.1275,-3.5634765625,0.0400390625,2.962890625
0.128,-2.962890625,-0.80078125,3.1630859375
0.1285,-2.6826171875,-1.4814453125,3.5634765625
0.129,-2.0419921875,-2.2421875,3.5634765625
0.1295,-1.521484375,-2.7626953125,3.68359375
0.13,-0.7607421875,-3.123046875,3.203125
0.1305,-0.16015625,-3.7236328125,3.203125
0.131,0.8408203125,-3.8837890625,2.4423828125
0.1315,1.4013671875,-4.244140625,2.2421875
0.132,2.162109375,-4.32421875,1.5615234375
0.1325,2.4423828125,-4.0439453125,1.0009765625
0.133,2.8427734375,-3.84375,0.400390625
0.1335,3.04296875,-3.4833984375,-0.16015625
0.134,3.3232421875,-3.0830078125,-0.8408203125
0.1345,3.443359375,-2.5625,-1.44140625
0.135,3.5634765625,-2.001953125,-2.08203125
0.1355,2.9228515625,-1.041015625,-2.40234375
0.136,2.962890625,-0.5205078125,-3.0830078125
0.1365,2.2421875,0.4404296875,-3.203125
0.137,2.162109375,1.041015625,-3.7236328125
0.1375,1.4013671875,1.841796875,-3.6435546875
0.138,0.880859375,2.2822265625,-3.5634765625
0.1385,0.16015625,2.6826171875,-3.2431640625
0.139,-0.560546875,3.1630859375,-3.0830078125
0.1395,-1.44140625,3.443359375,-2.4423828125
0.14,-2.0419921875,3.68359375,-2.08203125
0.1405,-2.72265625,3.763671875,-1.4814453125
0.141,-3.0029296875,3.3232421875,-0.80078125
0.1415,-3.4833984375,3.3232421875,-0.3203125
0.142,-3.5634765625,2.642578125,0.4404296875
0.1425,-3.923828125,2.40234375,1.041015625
0.143,-3.923828125,1.7216796875,1.7216796875
0.1435,-3.9638671875,1.201171875,2.2822265625
0.144,-3.36328125,0.1201171875,2.6826171875
0.1445,-3.36328125,-0.48046875,3.203125
0.145,-2.5625,-1.4814453125,3.36328125
0.1455,-2.322265625,-2.001953125,3.763671875
0.146,-1.5615234375,-2.7626953125,3.68359375
0.1465,-0.8408203125,-3.203125,3.443359375
0.147,-0.16015625,-3.68359375,3.1630859375
0.1475,0.7607421875,-4.00390625,2.6826171875
0.148,1.6015625,-4.32421875,2.1220703125
0.1485,2.162109375,-4.32421875,1.5615234375
0.149,2.7626953125,-4.3642578125,1.0009765625
0.1495,2.9228515625,-3.8037109375,0.2802734375
0.15,3.3232421875,-3.7236328125,-0.16015625
0.1505,3.443359375,-2.8828125,-1.12109375
0.151,3.68359375,-2.6025390625,-1.6015625
0.1515,3.5234375,-1.8017578125,-2.2822265625
0.152,3.3232421875,-1.12109375,-2.7626953125
0.1525,2.6826171875,-0.16015625,-3.0830078125
0.153,2.482421875,0.48046875,-3.5234375
0.1535,1.76171875,1.521484375,-3.7236328125
0.154,1.4013671875,2.001953125,-3.8037109375
0.1545,0.6005859375,2.6826171875,-3.7236328125
0.155,-0.16015625,2.962890625,-3.2431640625
0.1555,-0.7607421875,3.443359375,-3.123046875
0.156,-1.8017578125,3.68359375,-2.322265625
0.1565,-2.5224609375,3.9638671875,-1.921875
0.157,-3.04296875,3.763671875,-1.201171875
0.1575,-3.5634765625,3.7236328125,-0.640625
0.158,-3.68359375,3.0830078125,0.1201171875
0.1585,-4.00390625,2.9228515625,0.6005859375
0.159,-4.1640625,2.08203125,1.5615234375
0.1595,-4.244140625,1.7216796875,2.001953125
0.16,-4.1640625,0.80078125,2.7626953125
0.1605,-3.68359375,-0.080078125,3.123046875
0.161,-3.203125,-0.9208984375,3.5234375
0.1615,-2.72265625,-1.681640625,3.8037109375
0.162,-2.0419921875,-2.642578125,4.083984375
0.1625,-1.361328125,-3.1630859375,3.84375
0.163,-0.640625,-3.84375,3.84375
0.1635,0.240234375,-4.0439453125,3.1630859375
0.164,0.9208984375,-4.5244140625,2.962890625
0.1645,2.162109375,-4.7646484375,1.9619140625
0.165,2.8427734375,-4.8447265625,1.4013671875
0.1655,3.3232421875,-4.5244140625,0.6005859375
0.166,3.8037109375,-4.32421875,0.0
0.1665,3.84375,-3.603515625,-0.80078125
0.167,4.0439453125,-3.203125,-1.44140625
0.1675,4.244140625,-2.2822265625,-2.5224609375
0.168,3.923828125,-1.6015625,-2.8828125
0.1685,3.763671875,-0.720703125,-3.5634765625
0.169,3.0029296875,0.2802734375,-3.84375
0.1695,2.5224609375,1.12109375,-4.083984375
0.17,1.76171875,2.08203125,-4.2041015625
0.1705,1.041015625,3.0029296875,-4.404296875
0.171,0.16015625,3.3232421875,-3.8837890625
0.1715,-0.5205078125,3.9638671875,-3.84375
0.172,-1.44140625,4.00390625,-2.962890625
0.1725,-2.1220703125,4.3642578125,-2.642578125
0.173,-3.4033203125,4.5244140625,-1.5615234375
0.1735,-3.923828125,4.404296875,-0.9208984375
0.174,-4.3642578125,3.9638671875,0.0
0.1745,-4.64453125,3.5634765625,0.6005859375
0.175,-4.6845703125,2.8427734375,1.3212890625
0.1755,-4.8046875,2.2421875,2.0419921875
0.176,-5.0048828125,1.3212890625,3.123046875
0.1765,-4.4443359375,0.48046875,3.4033203125
0.177,-4.244140625,-0.5205078125,4.083984375
0.1775,-3.4033203125,-1.44140625,4.2041015625
0.178,-2.9228515625,-2.162109375,4.484375
0.1785,-1.9619140625,-3.283203125,4.6044921875
0.179,-1.1611328125,-4.1640625,4.64453125
0.1795,-0.16015625,-4.5244140625,3.9638671875
0.18,0.560546875,-5.0849609375,3.8837890625
0.1805,1.681640625,-5.205078125,2.8427734375
0.181,2.40234375,-5.4052734375,2.3623046875
0.1815,3.8037109375,-5.60546875,1.2412109375
0.182,4.2041015625,-5.205078125,0.4404296875
0.1825,4.6044921875,-4.724609375,-0.48046875
0.183,4.8046875,-4.2041015625,-1.2412109375
0.1835,4.8046875,-3.2431640625,-2.08203125
0.184,4.8046875,-2.5224609375,-2.8828125
0.1845,4.96484375,-1.5615234375,-4.00390625
0.185,4.083984375,-0.4404296875,-4.244140625
0.1855,3.8037109375,0.560546875,-4.7646484375
0.186,2.72265625,1.681640625,-4.8046875
0.1865,2.0419921875,2.482421875,-4.96484375
0.187,1.0009765625,3.5634765625,-4.96484375
0.1875,0.080078125,4.404296875,-4.8046875
0.188,-0.9609375,4.5244140625,-3.923828125
0.1885,-1.681640625,5.044921875,-3.7236328125
0.189,-3.0029296875,5.0849609375,-2.482421875
0.1895,-3.5634765625,5.0849609375,-1.9619140625
0.19,-4.8447265625,5.1650390625,-0.80078125
0.1905,-5.0849609375,4.5244140625,0.1201171875
0.191,-5.3251953125,4.00390625,0.9208984375
0.1915,-5.4853515625,3.3232421875,1.76171875
0.192,-5.4453125,2.2822265625,2.5625
0.1925,-5.28515625,1.521484375,3.2431640625
0.193,-5.4453125,0.5205078125,4.2841796875
0.1935,-4.3642578125,-0.640625,4.4443359375
0.194,-4.1640625,-1.44140625,4.96484375
0.1945,-2.9228515625,-2.642578125,4.9248046875
0.195,-2.322265625,-3.36328125,5.044921875
0.1955,-1.2412109375,-4.4443359375,4.96484375
0.196,-0.2802734375,-5.125,4.6845703125
0.1965,0.7607421875,-5.28515625,3.84375
0.197,1.5615234375,-5.765625,3.5234375
0.1975,2.9228515625,-5.8056640625,2.2421875
0.198,3.4833984375,-5.765625,1.681640625
0.1985,4.64453125,-5.845703125,0.6005859375
0.199,4.8046875,-5.0849609375,-0.3603515625
0.1995,5.0849609375,-4.564453125,-1.12109375
0.2,5.2451171875,-3.8037109375,-2.1220703125
0.2005,5.205078125,-2.8427734375,-3.04296875
0.201,5.0048828125,-1.9619140625,-3.68359375
0.2015,5.044921875,-0.9208984375,-4.6044921875
0.202,3.8037109375,0.4404296875,-4.6845703125
0.2025,3.5634765625,1.2412109375,-5.1650390625
0.203,2.2021484375,2.5625,-5.1650390625
0.2035,1.5615234375,3.2431640625,-5.205078125
0.204,0.48046875,4.2041015625,-5.0048828125
0.2045,-0.6005859375,4.8046875,-4.564453125
0.205,-1.5615234375,4.9248046875,-3.7236328125
0.2055,-2.4423828125,5.365234375,-3.283203125
0.206,-3.8037109375,5.365234375,-1.9619140625
0.2065,-4.2041015625,5.1650390625,-1.361328125
0.207,-5.205078125,5.0849609375,-0.3203125
0.2075,-5.28515625,4.2041015625,0.640625
0.208,-5.4853515625,3.68359375,1.3212890625
0.2085,-5.5654296875,2.72265625,2.3623046875
0.209,-5.4853515625,1.841796875,3.123046875
0.2095,-5.205078125,1.0009765625,3.68359375
0.21,-5.125,0.080078125,4.5244140625
0.2105,-3.923828125,-1.2412109375,4.5244140625
0.211,-3.763671875,-1.921875,5.0048828125
0.2115,-2.322265625,-3.2431640625,4.96484375
0.212,-1.841796875,-3.84375,4.96484375
0.2125,-0.720703125,-4.724609375,4.724609375
0.213,0.2802734375,-5.1650390625,4.244140625
0.2135,1.1611328125,-5.365234375,3.5234375
0.214,2.1220703125,-5.765625,2.962890625
0.2145,3.3232421875,-5.765625,1.8017578125
0.215,3.763671875,-5.5654296875,1.201171875
0.2155,4.6044921875,-5.4853515625,0.2802734375
0.216,4.724609375,-4.6044921875,-0.720703125
0.2165,4.96484375,-4.2841796875,-1.3212890625
0.217,4.96484375,-3.203125,-2.4423828125
0.2175,4.96484375,-2.4423828125,-3.0830078125
0.218,4.64453125,-1.44140625,-3.7236328125
0.2185,4.4443359375,-0.5205078125,-4.4443359375
0.219,3.283203125,0.7607421875,-4.484375
0.2195,3.04296875,1.44140625,-4.9248046875
0.22,1.7216796875,2.802734375,-4.884765625
0.2205,1.28125,3.2431640625,-4.884765625
0.221,0.16015625,4.083984375,-4.564453125
0.2215,-0.80078125,4.484375,-4.00390625
0.222,-1.6416015625,4.6845703125,-3.4033203125
0.2225,-2.642578125,4.96484375,-2.642578125
0.223,-3.7236328125,5.0048828125,-1.76171875
0.2235,-4.083984375,4.6845703125,-1.041015625
0.224,-4.8447265625,4.5244140625,-0.2802734375
0.2245,-4.8046875,3.5234375,0.720703125
0.225,-5.0849609375,3.3232421875,1.201171875
0.2255,-5.044921875,2.2021484375,2.3623046875
0.226,-5.0849609375,1.76171875,2.8427734375
0.2265,-4.724609375,0.6806640625,3.5234375
0.227,-4.3642578125,-0.16015625,3.9638671875
0.2275,-3.4833984375,-1.28125,4.1640625
0.228,-3.203125,-1.921875,4.484375
0.2285,-2.08203125,-3.0830078125,4.5244140625
