wavelength,x,y,z
0.0,-19.889404296875,-0.390380859375,19.909423828125
0.0005,-17.887451171875,-4.154052734375,21.631103515625
0.001,-14.444091796875,-9.359130859375,23.392822265625
0.0015,-10.480224609375,-12.762451171875,22.792236328125
0.002,-6.556396484375,-16.365966796875,22.552001953125
0.0025,-2.432373046875,-18.447998046875,20.630126953125
0.003,2.132080078125,-21.090576171875,18.868408203125
0.0035,6.456298828125,-22.371826171875,15.905517578125
0.004,10.980712890625,-22.732177734375,11.821533203125
0.0045,14.103759765625,-22.932373046875,8.938720703125
0.005,17.507080078125,-21.611083984375,4.294189453125
0.0055,19.869384765625,-20.169677734375,0.490478515625
0.006,21.430908203125,-18.087646484375,-3.273193359375
0.0065,22.872314453125,-14.764404296875,-8.157958984375
0.007,22.031494140625,-10.400146484375,-11.681396484375
0.0075,22.351806640625,-7.317138671875,-15.124755859375
0.008,20.590087890625,-3.193115234375,-17.567138671875
0.0085,19.308837890625,1.171142578125,-20.650146484375
0.009,16.546142578125,5.295166015625,-22.011474609375
0.0095,12.902587890625,10.260009765625,-23.372802734375
0.01,9.379150390625,13.503173828125,-23.012451171875
0.0105,4.974853515625,17.026611328125,-22.171630859375
0.011,0.810791015625,19.148681640625,-20.129638671875
0.0115,-3.193115234375,21.430908203125,-18.568115234375
0.012,-8.037841796875,22.752197265625,-15.124755859375
0.0125,-12.041748046875,22.431884765625,-10.880615234375
0.013,-15.244873046875,22.792236328125,-8.157958984375
0.0135,-18.287841796875,21.030517578125,-3.313232421875
0.014,-20.650146484375,19.428955078125,0.690673828125
0.0145,-21.611083984375,16.826416015625,4.294189453125
0.015,-22.812255859375,13.262939453125,9.138916015625
0.0155,-21.931396484375,9.098876953125,12.502197265625
0.016,-21.891357421875,5.495361328125,16.065673828125
0.0165,-19.969482421875,1.331298828125,18.307861328125
0.017,-18.768310546875,-2.832763671875,21.270751953125
0.0175,-15.405029296875,-7.277099609375,22.271728515625
0.018,-11.601318359375,-11.721435546875,22.992431640625
0.0185,-8.358154296875,-14.804443359375,22.872314453125
0.019,-3.233154296875,-18.087646484375,21.070556640625
0.0195,0.970947265625,-20.169677734375,19.068603515625
0.02,4.814697265625,-21.931396484375,17.066650390625
0.0205,9.779541015625,-23.132568359375,13.423095703125
0.021,13.383056640625,-22.291748046875,9.018798828125
0.0215,16.626220703125,-22.612060546875,6.135986328125
0.022,19.348876953125,-20.489990234375,1.331298828125
0.0225,21.631103515625,-18.848388671875,-2.712646484375
0.023,22.111572265625,-15.565185546875,-6.556396484375
0.0235,23.072509765625,-11.881591796875,-11.200927734375
0.024,22.151611328125,-8.157958984375,-14.123779296875
0.0245,21.470947265625,-3.993896484375,-17.647216796875
0.025,19.468994140625,0.210205078125,-19.809326171875
0.0255,17.907470703125,4.414306640625,-22.451904296875
0.026,13.943603515625,9.218994140625,-23.212646484375
0.0265,9.739501953125,13.383056640625,-23.212646484375
0.027,6.856689453125,16.265869140625,-23.212646484375
0.0275,1.331298828125,19.308837890625,-20.810302734375
0.028,-2.752685546875,21.390869140625,-18.968505859375
0.0285,-6.916748046875,22.592041015625,-16.085693359375
0.029,-11.561279296875,23.673095703125,-12.562255859375
0.0295,-14.884521484375,22.471923828125,-8.157958984375
0.03,-18.207763671875,22.311767578125,-4.674560546875
0.0305,-20.489990234375,19.989501953125,0.010009765625
0.031,-22.572021484375,18.027587890625,4.093994140625
0.0315,-22.572021484375,14.063720703125,8.097900390625
0.032,-23.132568359375,10.260009765625,12.542236328125
0.0325,-22.371826171875,6.696533203125,15.304931640625
0.033,-21.010498046875,1.931884765625,18.708251953125
0.0335,-19.088623046875,-2.112060546875,20.790283203125
0.034,-16.766357421875,-6.516357421875,22.912353515625
0.0345,-13.002685546875,-10.960693359375,23.633056640625
0.035,-8.478271484375,-14.804443359375,22.952392578125
0.0355,-5.315185546875,-17.527099609375,22.552001953125
0.036,0.370361328125,-20.329833984375,19.829345703125
0.0365,4.334228515625,-22.371826171875,18.027587890625
0.037,8.818603515625,-22.932373046875,14.103759765625
0.0375,12.942626953125,-23.773193359375,10.900634765625
0.038,16.225830078125,-22.572021484375,6.536376953125
0.0385,19.428955078125,-21.771240234375,2.532470703125
0.039,21.430908203125,-19.408935546875,-1.911865234375
0.0395,23.272705078125,-17.086669921875,-6.156005859375
0.04,22.872314453125,-12.842529296875,-10.079833984375
0.0405,23.072509765625,-9.118896484375,-14.123779296875
0.041,22.271728515625,-5.715576171875,-16.806396484375
0.0415,20.429931640625,-0.590576171875,-20.049560546875
0.042,18.508056640625,3.453369140625,-22.051513671875
0.0425,15.104736328125,8.298095703125,-23.452880859375
0.043,11.621337890625,12.382080078125,-24.093505859375
0.0435,7.016845703125,16.025634765625,-23.132568359375
0.044,3.373291015625,18.628173828125,-22.131591796875
0.0445,-1.871826171875,21.150634765625,-19.609130859375
0.045,-5.995849609375,23.192626953125,-17.567138671875
0.0455,-10.440185546875,23.112548828125,-13.122802734375
0.046,-14.243896484375,23.673095703125,-9.959716796875
0.0465,-17.366943359375,22.431884765625,-5.715576171875
0.047,-20.329833984375,21.110595703125,-1.311279296875
0.0475,-21.851318359375,18.668212890625,2.732666015625
0.048,-23.412841796875,15.665283203125,7.297119140625
0.0485,-22.892333984375,11.421142578125,11.060791015625
0.049,-22.692138671875,7.417236328125,14.904541015625
0.0495,-21.771240234375,4.013916015625,17.386962890625
0.05,-19.809326171875,-1.071044921875,20.550048828125
0.0505,-17.807373046875,-4.994873046875,22.471923828125
0.051,-13.883544921875,-9.719482421875,23.272705078125
0.0515,-10.680419921875,-13.443115234375,23.753173828125
0.052,-5.955810546875,-16.846435546875,22.471923828125
0.0525,-1.671630859375,-19.368896484375,20.830322265625
0.053,2.732666015625,-21.450927734375,18.588134765625
0.0535,7.417236328125,-23.372802734375,15.945556640625
0.054,11.421142578125,-22.812255859375,11.501220703125
0.0545,15.184814453125,-23.252685546875,8.218017578125
0.055,17.987548828125,-21.931396484375,4.134033203125
0.0555,20.910400390625,-20.329833984375,-0.510498046875
0.056,22.071533203125,-17.887451171875,-4.154052734375
0.0565,23.192626953125,-14.404052734375,-8.878662109375
0.057,22.912353515625,-10.680419921875,-12.362060546875
0.0575,22.271728515625,-6.476318359375,-16.005615234375
0.058,21.070556640625,-2.832763671875,-18.327880859375
0.0585,19.228759765625,1.851806640625,-21.130615234375
0.059,16.586181640625,6.416259765625,-23.052490234375
0.0595,12.302001953125,10.860595703125,-23.252685546875
0.06,9.259033203125,14.384033203125,-23.733154296875
0.0605,4.534423828125,17.547119140625,-22.211669921875
0.061,0.050048828125,20.149658203125,-20.409912109375
0.0615,-3.713623046875,21.711181640625,-18.327880859375
0.062,-8.958740234375,23.552978515625,-15.044677734375
0.0625,-12.522216796875,22.752197265625,-10.760498046875
0.063,-16.325927734375,22.992431640625,-7.237060546875
0.0635,-18.768310546875,21.390869140625,-3.193115234375
0.064,-21.450927734375,19.589111328125,1.331298828125
0.0645,-22.371826171875,16.706298828125,5.175048828125
0.065,-22.892333984375,12.742431640625,9.739501953125
0.0655,-22.892333984375,9.339111328125,13.102783203125
0.066,-21.851318359375,4.854736328125,16.706298828125
0.0665,-20.409912109375,0.970947265625,19.188720703125
0.067,-18.728271484375,-3.193115234375,21.591064453125
0.0675,-15.605224609375,-8.197998046875,23.432861328125
0.068,-11.160888671875,-12.161865234375,22.992431640625
0.0685,-8.077880859375,-15.685302734375,23.432861328125
0.069,-3.072998046875,-18.528076171875,21.270751953125
0.0695,1.611572265625,-21.210693359375,19.468994140625
0.07,5.255126953125,-22.291748046875,16.946533203125
0.0705,10.540283203125,-23.773193359375,13.302978515625
0.071,13.783447265625,-22.892333984375,9.259033203125
0.0715,17.707275390625,-22.772216796875,5.255126953125
0.072,19.989501953125,-20.930419921875,1.131103515625
0.0725,22.351806640625,-19.088623046875,-3.193115234375
0.073,23.112548828125,-15.685302734375,-7.437255859375
0.0735,23.072509765625,-11.441162109375,-11.801513671875
0.074,23.072509765625,-8.358154296875,-14.884521484375
0.0745,21.510986328125,-3.313232421875,-18.327880859375
0.075,19.909423828125,0.850830078125,-20.890380859375
0.0755,17.747314453125,4.854736328125,-22.692138671875
0.076,14.103759765625,10.099853515625,-24.333740234375
0.0765,9.499267578125,13.783447265625,-23.332763671875
0.077,6.135986328125,17.346923828125,-23.572998046875
0.0775,0.970947265625,19.869384765625,-21.010498046875
0.078,-3.473388671875,22.431884765625,-19.288818359375
0.0785,-7.397216796875,22.992431640625,-16.005615234375
0.079,-12.322021484375,23.993408203125,-12.201904296875
0.0795,-15.324951171875,23.152587890625,-8.438232421875
0.08,-19.088623046875,22.271728515625,-3.713623046875
0.0805,-21.090576171875,20.149658203125,0.370361328125
0.081,-22.812255859375,17.947509765625,4.334228515625
0.0815,-23.372802734375,14.103759765625,8.778564453125
0.082,-22.812255859375,9.659423828125,12.822509765625
0.0825,-22.932373046875,6.656494140625,15.945556640625
0.083,-20.770263671875,1.491455078125,18.948486328125
0.0835,-19.328857421875,-2.592529296875,21.591064453125
0.084,-16.526123046875,-6.516357421875,22.672119140625
0.0845,-13.082763671875,-11.401123046875,24.153564453125
0.085,-8.518310546875,-14.684326171875,22.912353515625
0.0855,-4.554443359375,-18.207763671875,22.471923828125
0.086,0.410400390625,-20.249755859375,19.709228515625
0.0865,4.374267578125,-22.572021484375,18.187744140625
0.087,8.698486328125,-22.892333984375,14.223876953125
0.0875,13.022705078125,-23.252685546875,10.340087890625
0.088,15.985595703125,-22.932373046875,7.096923828125
0.0885,19.388916015625,-21.490966796875,2.172119140625
0.089,21.310791015625,-19.448974609375,-1.831787109375
0.0895,22.511962890625,-16.966552734375,-5.595458984375
0.09,23.192626953125,-13.162841796875,-10.039794921875
0.0905,22.311767578125,-8.798583984375,-13.603271484375
0.091,22.271728515625,-5.675537109375,-16.766357421875
0.0915,19.989501953125,-0.750732421875,-19.368896484375
0.092,18.788330078125,3.213134765625,-22.091552734375
0.0925,15.024658203125,7.537353515625,-22.612060546875
0.093,11.581298828125,12.141845703125,-23.773193359375
0.0935,7.617431640625,15.224853515625,-22.972412109375
0.094,3.133056640625,18.588134765625,-21.811279296875
0.0945,-1.391357421875,20.550048828125,-19.408935546875
0.095,-5.395263671875,22.592041015625,-17.647216796875
0.0955,-9.879638671875,22.992431640625,-13.603271484375
0.096,-13.803466796875,22.792236328125,-9.559326171875
0.0965,-16.766357421875,22.632080078125,-6.516357421875
0.097,-19.809326171875,20.710205078125,-1.471435546875
0.0975,-21.691162109375,18.708251953125,2.412353515625
0.098,-22.411865234375,15.585205078125,6.376220703125
0.0985,-23.092529296875,11.901611328125,10.820556640625
0.099,-22.091552734375,7.577392578125,14.143798828125
0.0995,-21.771240234375,4.013916015625,17.467041015625
0.1,-19.529052734375,-0.790771484375,19.989501953125
0.1005,-18.127685546875,-4.834716796875,22.672119140625
0.101,-13.963623046875,-9.158935546875,22.792236328125
0.1015,-10.360107421875,-13.443115234375,23.472900390625
0.102,-6.596435546875,-16.446044921875,22.712158203125
0.1025,-1.351318359375,-19.689208984375,20.830322265625
0.103,2.852783203125,-21.490966796875,18.548095703125
0.1035,7.377197265625,-23.212646484375,15.825439453125
0.104,11.501220703125,-23.412841796875,12.021728515625
0.1045,15.385009765625,-22.972412109375,7.697509765625
0.105,18.307861328125,-22.491943359375,4.254150390625
0.1055,21.150634765625,-20.369873046875,-0.790771484375
0.106,22.912353515625,-18.087646484375,-4.794677734375
0.1065,23.032470703125,-14.083740234375,-8.958740234375
0.107,23.633056640625,-10.680419921875,-13.002685546875
0.1075,22.431884765625,-6.276123046875,-16.285888671875
0.108,21.430908203125,-2.112060546875,-19.448974609375
0.1085,19.188720703125,2.492431640625,-21.731201171875
0.109,16.786376953125,7.297119140625,-24.133544921875
0.1095,12.302001953125,11.461181640625,-23.853271484375
0.11,8.458251953125,15.505126953125,-24.053466796875
0.1105,4.534423828125,18.307861328125,-22.932373046875
0.111,-1.031005859375,21.470947265625,-20.690185546875
0.1115,-4.954833984375,22.992431640625,-18.407958984375
0.112,-10.039794921875,24.273681640625,-14.684326171875
0.1125,-13.683349609375,24.113525390625,-11.040771484375
0.113,-17.527099609375,23.232666015625,-6.356201171875
0.1135,-20.289794921875,22.111572265625,-2.472412109375
0.114,-22.612060546875,19.789306640625,2.332275390625
0.1145,-24.213623046875,16.986572265625,6.736572265625
0.115,-23.653076171875,12.302001953125,10.900634765625
0.1155,-24.053466796875,8.978759765625,14.744384765625
0.116,-22.531982421875,4.334228515625,17.947509765625
0.1165,-21.090576171875,-0.390380859375,21.110595703125
0.117,-18.768310546875,-4.514404296875,22.912353515625
0.1175,-15.645263671875,-9.759521484375,24.994384765625
0.118,-11.160888671875,-13.443115234375,24.273681640625
0.1185,-7.036865234375,-17.366943359375,24.073486328125
0.119,-2.512451171875,-19.889404296875,22.111572265625
0.1195,2.852783203125,-22.772216796875,19.869384765625
0.12,6.976806640625,-24.053466796875,17.066650390625
0.1205,12.061767578125,-24.654052734375,12.662353515625
0.121,15.385009765625,-24.493896484375,9.259033203125
0.1215,19.268798828125,-23.332763671875,4.134033203125
0.122,21.791259765625,-21.651123046875,0.010009765625
0.1225,23.552978515625,-19.168701171875,-4.234130859375
0.123,24.994384765625,-15.885498046875,-9.118896484375
0.1235,23.913330078125,-11.000732421875,-12.962646484375
0.124,24.153564453125,-7.717529296875,-16.566162109375
0.1245,22.231689453125,-2.872802734375,-19.489013671875
0.125,20.550048828125,1.931884765625,-22.612060546875
0.1255,17.827392578125,6.015869140625,-23.893310546875
0.126,13.943603515625,11.501220703125,-25.494873046875
0.1265,9.659423828125,14.864501953125,-24.614013671875
0.127,5.094970703125,18.868408203125,-24.053466796875
0.1275,0.530517578125,21.030517578125,-21.731201171875
0.128,-4.194091796875,23.552978515625,-19.689208984375
0.1285,-8.798583984375,24.634033203125,-16.285888671875
0.129,-13.443115234375,24.593994140625,-11.641357421875
0.1295,-16.646240234375,24.473876953125,-8.518310546875
0.13,-20.329833984375,22.792236328125,-3.072998046875
0.1305,-22.692138671875,20.990478515625,1.171142578125
0.131,-23.773193359375,18.267822265625,5.054931640625
0.1315,-25.054443359375,14.464111328125,10.219970703125
0.132,-23.773193359375,9.619384765625,13.823486328125
0.1325,-23.853271484375,6.015869140625,17.507080078125
0.133,-21.651123046875,1.251220703125,20.149658203125
0.1335,-20.129638671875,-3.393310546875,23.192626953125
0.134,-16.806396484375,-7.637451171875,24.153564453125
0.1345,-12.762451171875,-12.802490234375,25.234619140625
0.135,-8.838623046875,-15.965576171875,24.433837890625
0.1355,-3.673583984375,-19.809326171875,23.192626953125
0.136,1.131103515625,-21.851318359375,20.590087890625
0.1365,5.255126953125,-24.013427734375,18.668212890625
0.137,10.340087890625,-25.014404296875,14.704345703125
0.1375,14.544189453125,-24.373779296875,9.899658203125
0.138,17.867431640625,-24.453857421875,6.776611328125
0.1385,21.190673828125,-22.291748046875,1.251220703125
0.139,23.552978515625,-20.329833984375,-3.113037109375
0.1395,24.153564453125,-17.246826171875,-6.836669921875
0.14,25.234619140625,-13.322998046875,-11.961669921875
0.1405,23.913330078125,-8.718505859375,-15.324951171875
0.141,23.552978515625,-4.594482421875,-19.088623046875
0.1415,21.070556640625,0.290283203125,-21.450927734375
0.142,19.549072265625,4.734619140625,-24.373779296875
0.1425,15.385009765625,9.419189453125,-24.854248046875
0.143,11.100830078125,14.263916015625,-25.414794921875
0.1435,7.377197265625,17.386962890625,-24.894287109375
0.144,1.691650390625,21.030517578125,-22.892333984375
0.1445,-3.072998046875,23.032470703125,-20.329833984375
0.145,-7.116943359375,24.674072265625,-18.007568359375
0.1455,-12.201904296875,25.554931640625,-13.883544921875
0.146,-16.045654296875,24.353759765625,-8.918701171875
0.1465,-19.489013671875,24.353759765625,-5.475341796875
0.147,-22.411865234375,21.751220703125,0.130126953125
0.1475,-24.573974609375,19.629150390625,4.454345703125
0.148,-24.614013671875,15.665283203125,8.498291015625
0.1485,-25.374755859375,11.661376953125,13.343017578125
0.149,-24.013427734375,7.096923828125,16.546142578125
0.1495,-23.132568359375,2.532470703125,20.349853515625
0.15,-20.489990234375,-2.432373046875,22.552001953125
0.1505,-18.728271484375,-6.796630859375,25.234619140625
0.151,-14.163818359375,-11.481201171875,25.314697265625
0.1515,-9.639404296875,-15.885498046875,25.114501953125
0.152,-6.035888671875,-18.808349609375,24.513916015625
0.1525,0.250244140625,-22.251708984375,21.791259765625
0.153,4.694580078125,-24.133544921875,19.348876953125
0.1535,9.259033203125,-25.254638671875,15.905517578125
0.154,13.823486328125,-25.775146484375,12.141845703125
0.1545,17.507080078125,-24.333740234375,7.016845703125
0.155,20.870361328125,-23.853271484375,3.173095703125
0.1555,23.432861328125,-21.130615234375,-2.192138671875
0.156,25.354736328125,-18.768310546875,-6.556396484375
0.1565,24.874267578125,-14.163818359375,-10.720458984375
0.157,25.434814453125,-10.320068359375,-15.164794921875
0.1575,23.953369140625,-6.035888671875,-18.087646484375
0.158,22.471923828125,-0.990966796875,-21.691162109375
0.1585,19.909423828125,3.733642578125,-23.693115234375
0.159,17.146728515625,8.618408203125,-25.815185546875
0.1595,12.662353515625,13.062744140625,-25.815185546875
0.16,7.857666015625,17.186767578125,-25.134521484375
0.1605,4.214111328125,19.869384765625,-24.333740234375
0.161,-1.951904296875,23.032470703125,-21.490966796875
0.1615,-6.196044921875,24.834228515625,-19.088623046875
0.162,-11.080810546875,25.314697265625,-14.684326171875
0.1625,-15.124755859375,25.795166015625,-11.240966796875
0.163,-18.688232421875,24.233642578125,-6.196044921875
0.1635,-21.811279296875,23.112548828125,-1.951904296875
0.164,-23.933349609375,20.349853515625,3.093017578125
0.1645,-25.695068359375,17.587158203125,7.697509765625
0.165,-24.734130859375,12.622314453125,11.781494140625
0.1655,-25.014404296875,8.698486328125,15.985595703125
0.166,-23.693115234375,4.574462890625,18.788330078125
0.1665,-21.811279296875,-0.830810546875,22.311767578125
0.167,-19.368896484375,-5.155029296875,24.193603515625
0.1675,-15.765380859375,-10.320068359375,25.715087890625
0.168,-11.681396484375,-14.243896484375,25.635009765625
0.1685,-6.716552734375,-18.247802734375,24.593994140625
0.169,-2.592529296875,-20.770263671875,23.032470703125
0.1695,3.133056640625,-23.572998046875,20.309814453125
0.17,7.657470703125,-25.334716796875,17.667236328125
0.1705,12.502197265625,-25.134521484375,12.782470703125
0.171,16.145751953125,-25.454833984375,9.539306640625
0.1715,19.589111328125,-23.853271484375,4.494384765625
0.172,22.632080078125,-22.371826171875,-0.150146484375
0.1725,24.233642578125,-19.569091796875,-4.594482421875
0.173,25.915283203125,-16.325927734375,-9.599365234375
0.1735,24.754150390625,-11.481201171875,-13.363037109375
0.174,24.634033203125,-7.477294921875,-17.326904296875
0.1745,23.072509765625,-3.353271484375,-19.849365234375
0.175,21.110595703125,2.052001953125,-23.292724609375
0.1755,18.307861328125,6.536376953125,-24.934326171875
0.176,13.983642578125,11.821533203125,-25.895263671875
0.1765,10.300048828125,15.385009765625,-25.775146484375
0.177,5.094970703125,19.228759765625,-24.453857421875
0.1775,0.610595703125,21.631103515625,-22.491943359375
0.178,-4.354248046875,24.033447265625,-20.049560546875
0.1785,-9.399169921875,25.755126953125,-16.846435546875
0.179,-13.803466796875,24.994384765625,-11.761474609375
0.1795,-17.326904296875,25.274658203125,-8.558349609375
0.18,-20.610107421875,23.352783203125,-3.353271484375
0.1805,-23.452880859375,21.551025390625,1.411376953125
