wavelength,x,y,z
0.0,-7.237060546875,3.853759765625,3.573486328125
0.0005,-7.397216796875,2.972900390625,4.614501953125
0.001,-6.716552734375,1.571533203125,5.335205078125
0.0015,-6.236083984375,0.290283203125,6.055908203125
0.002,-4.874755859375,-1.351318359375,6.336181640625
0.0025,-4.314208984375,-2.512451171875,6.856689453125
0.003,-2.712646484375,-4.434326171875,7.096923828125
0.0035,-1.871826171875,-5.034912109375,6.776611328125
0.004,-0.510498046875,-6.035888671875,6.456298828125
0.0045,0.770751953125,-6.436279296875,5.575439453125
0.005,2.092041015625,-7.036865234375,4.814697265625
0.0055,3.893798828125,-7.397216796875,3.373291015625
0.006,5.535400390625,-7.797607421875,2.132080078125
0.0065,5.895751953125,-7.036865234375,0.930908203125
0.007,6.736572265625,-6.916748046875,0.010009765625
0.0075,6.696533203125,-5.675537109375,-1.311279296875
0.008,7.056884765625,-4.994873046875,-2.392333984375
0.0085,7.217041015625,-3.393310546875,-4.154052734375
0.009,7.056884765625,-2.432373046875,-5.114990234375
0.0095,6.256103515625,-0.830810546875,-5.835693359375
0.01,5.575439453125,0.610595703125,-6.396240234375
0.0105,4.334228515625,2.092041015625,-6.636474609375
0.011,3.453369140625,3.453369140625,-7.036865234375
0.0115,1.971923828125,5.335205078125,-7.397216796875
0.012,0.770751953125,5.775634765625,-6.636474609375
0.0125,-0.510498046875,6.736572265625,-6.396240234375
0.013,-1.791748046875,6.976806640625,-5.155029296875
0.0135,-3.193115234375,7.537353515625,-4.354248046875
0.014,-5.034912109375,7.737548828125,-2.712646484375
0.0145,-6.356201171875,7.937744140625,-1.551513671875
0.015,-6.596435546875,6.896728515625,-0.270263671875
0.0155,-7.237060546875,6.736572265625,0.650634765625
0.016,-7.076904296875,5.375244140625,1.931884765625
0.0165,-7.357177734375,4.494384765625,3.012939453125
0.017,-7.557373046875,2.932861328125,4.814697265625
0.0175,-7.036865234375,1.811767578125,5.335205078125
0.018,-6.276123046875,0.330322265625,6.095947265625
0.0185,-5.435302734375,-0.990966796875,6.456298828125
0.019,-4.314208984375,-2.432373046875,6.776611328125
0.0195,-3.193115234375,-3.833740234375,7.056884765625
0.02,-1.871826171875,-5.435302734375,7.297119140625
0.0205,-0.590576171875,-5.755615234375,6.256103515625
0.021,0.490478515625,-6.756591796875,6.216064453125
0.0215,2.052001953125,-6.876708984375,4.774658203125
0.022,3.373291015625,-7.437255859375,3.933837890625
0.0225,5.215087890625,-7.677490234375,2.292236328125
0.023,6.216064453125,-7.597412109375,1.251220703125
0.0235,6.536376953125,-6.716552734375,0.010009765625
0.024,7.016845703125,-6.396240234375,-0.990966796875
0.0245,7.056884765625,-5.074951171875,-2.352294921875
0.025,7.177001953125,-4.114013671875,-3.473388671875
0.0255,7.457275390625,-2.632568359375,-5.195068359375
0.026,6.536376953125,-1.271240234375,-5.635498046875
0.0265,5.935791015625,0.290283203125,-6.396240234375
0.027,4.814697265625,1.651611328125,-6.636474609375
0.0275,3.773681640625,3.173095703125,-7.076904296875
0.028,2.532470703125,4.614501953125,-7.237060546875
0.0285,1.251220703125,6.055908203125,-7.357177734375
0.029,-0.270263671875,6.376220703125,-6.156005859375
0.0295,-1.271240234375,7.297119140625,-6.115966796875
0.03,-3.113037109375,7.417236328125,-4.354248046875
0.0305,-4.354248046875,7.857666015625,-3.513427734375
0.031,-6.115966796875,7.977783203125,-1.911865234375
0.0315,-6.716552734375,7.617431640625,-0.790771484375
0.032,-7.076904296875,6.736572265625,0.450439453125
0.0325,-7.357177734375,6.135986328125,1.411376953125
0.033,-7.397216796875,4.614501953125,2.972900390625
0.0335,-7.437255859375,3.573486328125,4.013916015625
0.034,-7.677490234375,2.292236328125,5.615478515625
0.0345,-6.436279296875,0.770751953125,5.855712890625
0.035,-6.035888671875,-0.590576171875,6.696533203125
0.0355,-4.554443359375,-2.112060546875,6.736572265625
0.036,-3.593505859375,-3.553466796875,7.136962890625
0.0365,-2.272216796875,-4.914794921875,7.096923828125
0.037,-1.031005859375,-6.075927734375,7.016845703125
0.0375,0.410400390625,-6.356201171875,5.895751953125
0.038,1.451416015625,-7.197021484375,5.615478515625
0.0385,3.493408203125,-7.317138671875,3.733642578125
0.039,4.614501953125,-7.637451171875,2.892822265625
0.0395,6.095947265625,-7.717529296875,1.491455078125
0.04,6.456298828125,-7.076904296875,0.370361328125
0.0405,6.856689453125,-6.476318359375,-0.710693359375
0.041,7.056884765625,-5.555419921875,-1.871826171875
0.0415,7.177001953125,-4.234130859375,-3.353271484375
0.042,7.056884765625,-3.072998046875,-4.354248046875
0.0425,7.177001953125,-1.831787109375,-5.755615234375
0.043,5.735595703125,-0.190185546875,-5.875732421875
0.0435,5.495361328125,1.010986328125,-6.716552734375
0.044,3.853759765625,2.852783203125,-6.796630859375
0.0445,3.052978515625,4.134033203125,-7.237060546875
0.045,1.611572265625,5.415283203125,-7.116943359375
0.0455,0.410400390625,6.336181640625,-6.756591796875
0.046,-0.990966796875,6.656494140625,-5.755615234375
0.0465,-2.192138671875,7.417236328125,-5.275146484375
0.047,-4.154052734375,7.617431640625,-3.473388671875
0.0475,-5.155029296875,7.817626953125,-2.632568359375
0.048,-6.476318359375,7.817626953125,-1.271240234375
0.0485,-6.716552734375,6.896728515625,-0.150146484375
0.049,-7.116943359375,6.416259765625,0.930908203125
0.0495,-7.237060546875,5.135009765625,2.252197265625
0.05,-7.477294921875,4.013916015625,3.693603515625
0.0505,-7.237060546875,2.812744140625,4.614501953125
0.051,-7.197021484375,1.611572265625,5.735595703125
0.0515,-5.755615234375,0.010009765625,5.935791015625
0.052,-5.515380859375,-1.231201171875,6.776611328125
0.0525,-3.633544921875,-3.153076171875,6.856689453125
0.053,-2.912841796875,-4.274169921875,7.177001953125
0.0535,-1.471435546875,-5.435302734375,6.896728515625
0.054,-0.270263671875,-6.196044921875,6.376220703125
0.0545,1.051025390625,-6.596435546875,5.495361328125
0.055,2.532470703125,-7.237060546875,4.654541015625
0.0555,4.454345703125,-7.557373046875,3.012939453125
0.056,5.255126953125,-7.517333984375,2.052001953125
0.0565,6.416259765625,-7.477294921875,0.850830078125
0.057,6.496337890625,-6.436279296875,-0.350341796875
0.0575,7.016845703125,-6.075927734375,-1.311279296875
0.058,7.056884765625,-4.474365234375,-2.912841796875
0.0585,7.297119140625,-3.473388671875,-4.154052734375
0.059,6.856689453125,-2.072021484375,-5.114990234375
0.0595,6.576416015625,-0.910888671875,-6.035888671875
0.06,5.094970703125,0.890869140625,-6.196044921875
0.0605,4.774658203125,1.971923828125,-6.916748046875
0.061,2.892822265625,4.013916015625,-7.036865234375
0.0615,2.172119140625,4.974853515625,-7.197021484375
0.062,0.730712890625,6.055908203125,-6.836669921875
0.0625,-0.630615234375,6.656494140625,-6.075927734375
0.063,-1.871826171875,7.056884765625,-5.275146484375
0.0635,-3.513427734375,7.537353515625,-4.073974609375
0.064,-5.235107421875,7.857666015625,-2.632568359375
0.0645,-5.915771484375,7.497314453125,-1.591552734375
0.065,-6.876708984375,7.377197265625,-0.430419921875
0.0655,-6.796630859375,6.176025390625,0.770751953125
0.066,-7.237060546875,5.775634765625,1.651611328125
0.0665,-7.277099609375,4.093994140625,3.373291015625
0.067,-7.397216796875,3.213134765625,4.414306640625
0.0675,-6.876708984375,1.851806640625,5.295166015625
0.068,-6.396240234375,0.610595703125,5.975830078125
0.0685,-5.114990234375,-1.031005859375,6.256103515625
0.069,-4.554443359375,-2.192138671875,6.776611328125
0.0695,-2.872802734375,-4.114013671875,7.016845703125
0.07,-2.072021484375,-4.834716796875,6.856689453125
0.0705,-0.710693359375,-5.915771484375,6.536376953125
0.071,0.610595703125,-6.276123046875,5.655517578125
0.0715,1.771728515625,-6.916748046875,5.054931640625
0.072,3.573486328125,-7.237060546875,3.533447265625
0.0725,5.094970703125,-7.717529296875,2.372314453125
0.073,5.615478515625,-7.197021484375,1.291259765625
0.0735,6.496337890625,-7.076904296875,0.290283203125
0.074,6.456298828125,-5.835693359375,-0.990966796875
0.0745,6.896728515625,-5.395263671875,-1.871826171875
0.075,7.056884765625,-3.713623046875,-3.673583984375
0.0755,7.016845703125,-2.872802734375,-4.514404296875
0.076,6.456298828125,-1.351318359375,-5.435302734375
0.0765,5.695556640625,0.010009765625,-5.915771484375
0.077,4.614501953125,1.531494140625,-6.396240234375
0.0775,3.813720703125,2.852783203125,-6.796630859375
0.078,2.412353515625,4.654541015625,-7.197021484375
0.0785,1.411376953125,5.255126953125,-6.756591796875
0.079,0.130126953125,6.376220703125,-6.556396484375
0.0795,-1.231201171875,6.616455078125,-5.435302734375
0.08,-2.432373046875,7.337158203125,-4.874755859375
0.0805,-4.434326171875,7.617431640625,-3.193115234375
0.081,-5.755615234375,7.857666015625,-2.192138671875
0.0815,-6.276123046875,7.136962890625,-0.910888671875
0.082,-6.996826171875,7.016845703125,0.170166015625
0.0825,-6.996826171875,5.735595703125,1.411376953125
0.083,-7.277099609375,5.054931640625,2.452392578125
0.0835,-7.557373046875,3.413330078125,4.334228515625
0.084,-7.197021484375,2.412353515625,4.974853515625
0.0845,-6.636474609375,0.930908203125,5.895751953125
0.085,-5.675537109375,-0.550537109375,6.296142578125
0.0855,-4.714599609375,-1.951904296875,6.696533203125
0.086,-3.553466796875,-3.473388671875,6.976806640625
0.0865,-2.192138671875,-5.155029296875,7.297119140625
0.087,-0.990966796875,-5.635498046875,6.496337890625
0.0875,0.250244140625,-6.676513671875,6.416259765625
0.088,1.651611328125,-6.756591796875,5.054931640625
0.0885,2.932861328125,-7.437255859375,4.334228515625
0.089,5.054931640625,-7.717529296875,2.532470703125
0.0895,6.095947265625,-7.757568359375,1.411376953125
0.09,6.536376953125,-6.916748046875,0.130126953125
0.0905,7.056884765625,-6.556396484375,-0.830810546875
0.091,7.056884765625,-5.235107421875,-2.072021484375
0.0915,7.177001953125,-4.274169921875,-3.233154296875
0.092,7.537353515625,-2.752685546875,-5.114990234375
0.0925,6.696533203125,-1.471435546875,-5.595458984375
0.093,6.135986328125,0.090087890625,-6.436279296875
0.0935,4.934814453125,1.491455078125,-6.556396484375
0.094,4.053955078125,2.812744140625,-7.036865234375
0.0945,2.652587890625,4.414306640625,-7.197021484375
0.095,1.411376953125,5.935791015625,-7.397216796875
0.0955,0.010009765625,6.336181640625,-6.316162109375
0.096,-1.071044921875,7.217041015625,-6.236083984375
0.0965,-2.672607421875,7.257080078125,-4.674560546875
0.097,-3.913818359375,7.777587890625,-3.873779296875
0.0975,-5.955810546875,8.017822265625,-2.112060546875
0.098,-6.676513671875,7.697509765625,-1.031005859375
0.0985,-7.116943359375,6.976806640625,0.290283203125
0.099,-7.397216796875,6.416259765625,1.211181640625
0.0995,-7.397216796875,5.094970703125,2.532470703125
0.1,-7.517333984375,3.973876953125,3.733642578125
0.1005,-7.837646484375,2.572509765625,5.455322265625
0.101,-6.756591796875,1.211181640625,5.775634765625
0.1015,-6.356201171875,-0.270263671875,6.696533203125
0.102,-4.954833984375,-1.711669921875,6.696533203125
0.1025,-4.114013671875,-3.072998046875,7.177001953125
0.103,-2.592529296875,-4.714599609375,7.297119140625
0.1035,-1.311279296875,-6.035888671875,7.257080078125
0.104,0.130126953125,-6.356201171875,6.216064453125
0.1045,1.171142578125,-7.317138671875,6.015869140625
0.105,3.052978515625,-7.437255859375,4.294189453125
0.1055,4.254150390625,-7.877685546875,3.373291015625
0.106,6.176025390625,-8.077880859375,1.771728515625
0.1065,6.656494140625,-7.437255859375,0.610595703125
0.107,7.136962890625,-6.836669921875,-0.630615234375
0.1075,7.377197265625,-5.995849609375,-1.711669921875
0.108,7.497314453125,-4.634521484375,-3.193115234375
0.1085,7.417236328125,-3.353271484375,-4.434326171875
0.109,7.697509765625,-1.991943359375,-6.035888671875
0.1095,6.256103515625,-0.310302734375,-6.276123046875
0.11,5.895751953125,1.010986328125,-7.076904296875
0.1105,4.174072265625,2.852783203125,-7.197021484375
0.111,3.293212890625,4.174072265625,-7.597412109375
0.1115,1.771728515625,5.735595703125,-7.597412109375
0.112,0.410400390625,6.896728515625,-7.317138671875
0.1125,-1.151123046875,7.177001953125,-6.156005859375
0.113,-2.312255859375,7.977783203125,-5.715576171875
0.1135,-4.474365234375,8.097900390625,-3.713623046875
0.114,-5.515380859375,8.298095703125,-2.712646484375
0.1145,-7.156982421875,8.418212890625,-1.151123046875
0.115,-7.397216796875,7.497314453125,0.130126953125
0.1155,-7.797607421875,6.776611328125,1.251220703125
0.116,-7.957763671875,5.575439453125,2.612548828125
0.1165,-7.997802734375,4.134033203125,4.134033203125
0.117,-7.757568359375,2.812744140625,5.175048828125
0.1175,-7.757568359375,1.451416015625,6.536376953125
0.118,-6.156005859375,-0.350341796875,6.616455078125
0.1185,-5.795654296875,-1.511474609375,7.417236328125
0.119,-3.833740234375,-3.553466796875,7.377197265625
0.1195,-2.912841796875,-4.714599609375,7.617431640625
0.12,-1.351318359375,-6.075927734375,7.377197265625
0.1205,0.050048828125,-6.916748046875,6.816650390625
0.121,1.371337890625,-7.237060546875,5.735595703125
0.1215,2.692626953125,-7.877685546875,4.974853515625
0.122,4.774658203125,-7.997802734375,3.093017578125
0.1225,5.655517578125,-7.957763671875,2.132080078125
0.123,7.016845703125,-7.957763671875,0.770751953125
0.1235,7.056884765625,-6.876708984375,-0.510498046875
0.124,7.457275390625,-6.316162109375,-1.471435546875
0.1245,7.497314453125,-4.834716796875,-2.992919921875
0.125,7.617431640625,-3.673583984375,-4.314208984375
0.1255,7.257080078125,-2.312255859375,-5.315185546875
0.126,7.096923828125,-1.031005859375,-6.356201171875
0.1265,5.455322265625,0.770751953125,-6.436279296875
0.127,5.175048828125,1.851806640625,-7.197021484375
0.1275,3.213134765625,3.893798828125,-7.277099609375
0.128,2.492431640625,4.934814453125,-7.557373046875
0.1285,0.970947265625,6.216064453125,-7.237060546875
0.129,-0.390380859375,6.816650390625,-6.516357421875
0.1295,-1.711669921875,7.297119140625,-5.715576171875
0.13,-3.193115234375,7.857666015625,-4.674560546875
0.1305,-5.114990234375,8.137939453125,-3.072998046875
0.131,-5.915771484375,7.977783203125,-2.072021484375
0.1315,-7.076904296875,7.937744140625,-0.790771484375
0.132,-7.116943359375,6.776611328125,0.570556640625
0.1325,-7.637451171875,6.376220703125,1.451416015625
0.133,-7.677490234375,4.654541015625,3.213134765625
0.1335,-7.837646484375,3.693603515625,4.414306640625
0.134,-7.437255859375,2.252197265625,5.415283203125
0.1345,-7.076904296875,0.970947265625,6.376220703125
0.135,-5.635498046875,-0.910888671875,6.576416015625
0.1355,-5.195068359375,-2.031982421875,7.297119140625
0.136,-3.193115234375,-4.194091796875,7.417236328125
0.1365,-2.392333984375,-5.114990234375,7.457275390625
0.137,-0.870849609375,-6.356201171875,7.136962890625
0.1375,0.570556640625,-6.916748046875,6.256103515625
0.138,1.931884765625,-7.397216796875,5.415283203125
0.1385,3.693603515625,-7.877685546875,4.093994140625
0.139,5.575439453125,-8.197998046875,2.532470703125
0.1395,6.216064453125,-7.717529296875,1.331298828125
0.14,7.297119140625,-7.637451171875,0.130126953125
0.1405,7.217041015625,-6.276123046875,-1.271240234375
0.141,7.657470703125,-5.755615234375,-2.192138671875
0.1415,7.657470703125,-3.873779296875,-4.154052734375
0.142,7.697509765625,-2.832763671875,-5.195068359375
0.1425,7.016845703125,-1.231201171875,-6.115966796875
0.143,6.376220703125,0.290283203125,-6.876708984375
0.1435,4.814697265625,2.011962890625,-7.036865234375
0.144,4.134033203125,3.173095703125,-7.517333984375
0.1445,2.252197265625,5.335205078125,-7.717529296875
0.145,1.291259765625,6.015869140625,-7.357177734375
0.1455,-0.310302734375,7.056884765625,-6.916748046875
0.146,-1.671630859375,7.497314453125,-5.835693359375
0.1465,-2.912841796875,7.937744140625,-4.994873046875
0.147,-4.834716796875,8.218017578125,-3.353271484375
0.1475,-6.556396484375,8.498291015625,-1.951904296875
0.148,-6.916748046875,7.697509765625,-0.630615234375
0.1485,-7.837646484375,7.417236328125,0.570556640625
0.149,-7.597412109375,6.015869140625,1.851806640625
0.1495,-7.877685546875,5.375244140625,2.772705078125
0.15,-7.957763671875,3.493408203125,4.734619140625
0.1505,-7.717529296875,2.492431640625,5.495361328125
0.151,-6.996826171875,0.890869140625,6.336181640625
0.1515,-6.196044921875,-0.590576171875,6.896728515625
0.152,-4.834716796875,-2.152099609375,7.056884765625
0.1525,-3.913818359375,-3.473388671875,7.377197265625
0.153,-2.272216796875,-5.475341796875,7.617431640625
0.1535,-1.271240234375,-5.915771484375,6.976806640625
0.154,0.250244140625,-6.956787109375,6.696533203125
0.1545,1.571533203125,-7.156982421875,5.455322265625
0.155,2.852783203125,-7.717529296875,4.774658203125
0.1555,4.814697265625,-7.957763671875,2.972900390625
0.156,6.256103515625,-8.197998046875,1.771728515625
0.1565,6.656494140625,-7.317138671875,0.450439453125
0.157,7.417236328125,-7.076904296875,-0.630615234375
0.1575,7.297119140625,-5.715576171875,-1.951904296875
0.158,7.537353515625,-4.954833984375,-2.952880859375
0.1585,7.737548828125,-3.193115234375,-4.954833984375
0.159,7.297119140625,-2.072021484375,-5.635498046875
0.1595,6.576416015625,-0.390380859375,-6.476318359375
0.16,5.575439453125,1.131103515625,-6.916748046875
0.1605,4.454345703125,2.572509765625,-7.197021484375
0.161,3.293212890625,4.053955078125,-7.517333984375
0.1615,1.771728515625,5.895751953125,-7.837646484375
0.162,0.490478515625,6.376220703125,-6.876708984375
0.1625,-0.830810546875,7.457275390625,-6.676513671875
0.163,-2.312255859375,7.577392578125,-5.275146484375
0.1635,-3.713623046875,8.137939453125,-4.474365234375
0.164,-5.755615234375,8.298095703125,-2.552490234375
0.1645,-6.956787109375,8.338134765625,-1.351318359375
0.165,-7.277099609375,7.297119140625,0.130126953125
0.1655,-7.837646484375,7.016845703125,1.091064453125
0.166,-7.717529296875,5.495361328125,2.452392578125
0.1665,-7.837646484375,4.494384765625,3.573486328125
0.167,-8.077880859375,2.812744140625,5.535400390625
0.1675,-7.317138671875,1.531494140625,6.015869140625
0.168,-6.556396484375,-0.190185546875,6.856689453125
0.1685,-5.435302734375,-1.591552734375,7.056884765625
0.169,-4.354248046875,-3.072998046875,7.377197265625
0.1695,-2.952880859375,-4.594482421875,7.457275390625
0.17,-1.551513671875,-6.156005859375,7.657470703125
0.1705,0.010009765625,-6.476318359375,6.456298828125
0.171,1.010986328125,-7.437255859375,6.376220703125
0.1715,2.732666015625,-7.517333984375,4.654541015625
0.172,4.013916015625,-7.957763671875,3.813720703125
0.1725,6.015869140625,-8.157958984375,2.011962890625
0.173,6.856689453125,-7.837646484375,0.810791015625
0.1735,7.177001953125,-6.916748046875,-0.510498046875
0.174,7.537353515625,-6.396240234375,-1.431396484375
0.1745,7.537353515625,-4.954833984375,-2.912841796875
0.175,7.537353515625,-3.873779296875,-3.993896484375
0.1755,7.817626953125,-2.312255859375,-5.795654296875
0.176,6.656494140625,-0.830810546875,-6.156005859375
0.1765,6.095947265625,0.650634765625,-6.996826171875
0.177,4.734619140625,2.132080078125,-7.076904296875
0.1775,3.733642578125,3.573486328125,-7.517333984375
0.178,2.292236328125,5.175048828125,-7.557373046875
0.1785,0.970947265625,6.576416015625,-7.557373046875
0.179,-0.630615234375,6.856689453125,-6.356201171875
0.1795,-1.591552734375,7.737548828125,-6.156005859375
0.18,-3.553466796875,7.857666015625,-4.314208984375
0.1805,-4.714599609375,8.177978515625,-3.473388671875
0.181,-6.516357421875,8.338134765625,-1.791748046875
0.1815,-7.076904296875,7.737548828125,-0.630615234375
0.182,-7.477294921875,7.016845703125,0.650634765625
0.1825,-7.717529296875,6.216064453125,1.731689453125
0.183,-7.757568359375,4.734619140625,3.253173828125
0.1835,-7.717529296875,3.613525390625,4.334228515625
0.184,-7.877685546875,2.172119140625,5.935791015625
0.1845,-6.556396484375,0.570556640625,6.135986328125
0.185,-6.196044921875,-0.790771484375,7.056884765625
0.1855,-4.594482421875,-2.472412109375,7.056884765625
0.186,-3.633544921875,-3.793701171875,7.457275390625
0.1865,-2.152099609375,-5.235107421875,7.377197265625
0.187,-0.870849609375,-6.356201171875,7.177001953125
0.1875,0.610595703125,-6.716552734375,6.055908203125
0.188,1.771728515625,-7.517333984375,5.695556640625
