wavelength,x,y,z
0.0,5.9307861328125,-10.124877929688,4.1290283203125
0.0005,7.0919189453125,-9.6844482421875,2.5675048828125
0.001,7.9327392578125,-8.9237060546875,0.9659423828125
0.0015,8.6134033203125,-7.8426513671875,-0.8358154296875
0.002,9.2139892578125,-6.4412841796875,-2.7176513671875
0.0025,9.8145751953125,-5.2000732421875,-4.5994873046875
0.003,9.5743408203125,-3.7186279296875,-5.8006591796875
0.0035,9.1339111328125,-1.9969482421875,-7.1219482421875
0.004,8.1329345703125,-0.3153076171875,-7.8426513671875
0.0045,7.1319580078125,1.5665283203125,-8.6834716796875
0.005,5.6104736328125,3.7686767578125,-9.2840576171875
0.0055,4.0889892578125,5.4503173828125,-9.5643310546875
0.006,2.2471923828125,6.6915283203125,-8.9637451171875
0.0065,0.7257080078125,7.6925048828125,-8.4832763671875
0.007,-0.9959716796875,8.3731689453125,-7.6424560546875
0.0075,-2.7176513671875,9.0137939453125,-6.4813232421875
0.008,-4.5594482421875,9.6143798828125,-5.2801513671875
0.0085,-5.7606201171875,9.2540283203125,-3.7987060546875
0.009,-6.8817138671875,8.8135986328125,-2.3172607421875
0.0095,-7.5623779296875,7.9727783203125,-0.7557373046875
0.01,-8.2030029296875,6.9317626953125,1.0059814453125
0.0105,-8.8035888671875,5.6905517578125,2.8477783203125
0.011,-9.2840576171875,4.5694580078125,4.4493408203125
0.0115,-9.0037841796875,3.1680908203125,5.5704345703125
0.012,-8.4832763671875,1.4063720703125,6.7315673828125
0.0125,-7.7225341796875,-0.1951904296875,7.6124267578125
0.013,-6.6014404296875,-2.0369873046875,8.2930908203125
0.0135,-5.2801513671875,-4.0389404296875,9.0137939453125
0.014,-3.7186279296875,-5.4803466796875,8.8936767578125
0.0145,-2.1170654296875,-6.7215576171875,8.5733642578125
0.015,-0.6756591796875,-7.6424560546875,8.0928955078125
0.0155,0.9659423828125,-8.4432373046875,7.3721923828125
0.016,2.6876220703125,-9.1239013671875,6.2911376953125
0.0165,4.3292236328125,-9.6444091796875,5.2501220703125
0.017,5.3702392578125,-9.3240966796875,3.8887939453125
0.0175,6.5313720703125,-8.9637451171875,2.3673095703125
0.018,7.2921142578125,-8.1229248046875,0.9259033203125
0.0185,8.0528564453125,-7.2020263671875,-0.8758544921875
0.019,8.7735595703125,-6.1610107421875,-2.5975341796875
0.0195,9.0538330078125,-5.1199951171875,-3.9989013671875
0.02,8.9337158203125,-3.7186279296875,-5.2801513671875
0.0205,8.2930908203125,-1.9569091796875,-6.2811279296875
0.021,7.6524658203125,-0.3553466796875,-7.2821044921875
0.0215,6.5313720703125,1.5264892578125,-8.0028076171875
0.022,5.4503173828125,3.3682861328125,-8.8035888671875
0.0225,3.8887939453125,4.6495361328125,-8.5233154296875
0.023,2.4073486328125,5.9708251953125,-8.3231201171875
0.0235,0.9659423828125,6.8516845703125,-7.8426513671875
0.024,-0.6756591796875,7.6925048828125,-7.1619873046875
0.0245,-2.3572998046875,8.3731689453125,-6.2811279296875
0.025,-3.7987060546875,8.6934814453125,-5.2401123046875
0.0255,-4.8797607421875,8.4932861328125,-3.9989013671875
0.026,-5.9608154296875,8.1729736328125,-2.4373779296875
0.0265,-6.8016357421875,7.4122314453125,-0.9158935546875
0.027,-7.5623779296875,6.5313720703125,0.8057861328125
0.0275,-8.4031982421875,5.7305908203125,2.4073486328125
0.028,-8.5633544921875,4.6495361328125,3.6485595703125
0.0285,-8.4432373046875,3.1280517578125,5.0899658203125
0.029,-7.9227294921875,1.5665283203125,6.0909423828125
0.0295,-7.2420654296875,-0.1951904296875,7.1719970703125
0.03,-6.2010498046875,-2.0369873046875,7.9727783203125
0.0305,-5.0799560546875,-3.7586669921875,8.4932861328125
0.031,-3.5584716796875,-4.9998779296875,8.2930908203125
0.0315,-2.1170654296875,-6.3612060546875,8.1729736328125
0.032,-0.6356201171875,-7.2821044921875,7.7325439453125
0.0325,1.0059814453125,-8.2030029296875,7.0118408203125
0.033,2.7276611328125,-9.0838623046875,6.2110595703125
0.0335,4.0489501953125,-9.1239013671875,4.9698486328125
0.034,5.2901611328125,-8.9637451171875,3.6485595703125
0.0345,6.3311767578125,-8.4031982421875,2.0469970703125
0.035,7.2921142578125,-7.7225341796875,0.4854736328125
0.0355,8.0928955078125,-6.8016357421875,-1.3563232421875
0.036,8.8936767578125,-5.9608154296875,-2.9578857421875
0.0365,8.8536376953125,-4.6395263671875,-4.2391357421875
0.037,8.5733642578125,-2.9578857421875,-5.6405029296875
0.0375,7.9727783203125,-1.3563232421875,-6.6014404296875
0.038,7.1319580078125,0.5255126953125,-7.6424560546875
0.0385,6.0509033203125,2.5274658203125,-8.5233154296875
0.039,4.6094970703125,4.1290283203125,-8.7235107421875
0.0395,3.0079345703125,5.4903564453125,-8.4832763671875
0.04,1.5264892578125,6.6514892578125,-8.1629638671875
0.0405,-0.1551513671875,7.5323486328125,-7.5623779296875
0.041,-1.9569091796875,8.2930908203125,-6.6014404296875
0.0415,-3.6785888671875,9.0137939453125,-5.7205810546875
0.042,-4.8397216796875,8.7735595703125,-4.1590576171875
0.0425,-6.1610107421875,8.5733642578125,-2.7176513671875
0.043,-6.9217529296875,7.6925048828125,-1.0760498046875
0.0435,-7.8026123046875,6.8917236328125,0.6856689453125
0.044,-8.6434326171875,5.7706298828125,2.5675048828125
0.0445,-9.0037841796875,4.6495361328125,4.1290283203125
0.045,-8.8436279296875,3.1280517578125,5.4102783203125
0.0455,-8.3231201171875,1.3663330078125,6.6915283203125
0.046,-7.5623779296875,-0.3553466796875,7.5323486328125
0.0465,-6.4012451171875,-2.3172607421875,8.3731689453125
0.047,-5.0399169921875,-4.4793701171875,9.1339111328125
0.0475,-3.2381591796875,-5.8406982421875,8.8135986328125
0.048,-1.7166748046875,-7.1619873046875,8.6534423828125
0.0485,0.0050048828125,-8.1229248046875,7.9727783203125
0.049,1.6466064453125,-8.9637451171875,7.1319580078125
0.0495,3.6485595703125,-9.7244873046875,5.9307861328125
0.05,5.2901611328125,-9.9647216796875,4.6495361328125
0.0505,6.4112548828125,-9.4442138671875,3.0079345703125
0.051,7.5323486328125,-8.9637451171875,1.4464111328125
0.0515,8.2130126953125,-7.8426513671875,-0.3953857421875
0.052,8.9737548828125,-6.7615966796875,-2.1971435546875
0.0525,9.7344970703125,-5.5203857421875,-4.2391357421875
0.053,9.5343017578125,-3.9188232421875,-5.6004638671875
0.0535,9.1339111328125,-2.2772216796875,-6.9217529296875
0.054,8.2530517578125,-0.4754638671875,-7.7225341796875
0.0545,7.2120361328125,1.4063720703125,-8.5633544921875
0.055,5.7305908203125,3.5284423828125,-9.2840576171875
0.0555,4.2091064453125,5.4903564453125,-9.7244873046875
0.056,2.2471923828125,6.6915283203125,-8.9237060546875
0.0565,0.7257080078125,7.8526611328125,-8.6834716796875
0.057,-1.0760498046875,8.4932861328125,-7.6424560546875
0.0575,-2.8377685546875,9.0938720703125,-6.5614013671875
0.058,-4.8397216796875,9.8546142578125,-5.2801513671875
0.0585,-6.1209716796875,9.5743408203125,-3.6785888671875
0.059,-7.2020263671875,8.9337158203125,-2.0369873046875
0.0595,-8.0028076171875,8.0928955078125,-0.4354248046875
0.06,-8.5233154296875,6.8516845703125,1.3663330078125
0.0605,-9.0838623046875,5.6505126953125,3.1680908203125
0.061,-9.6844482421875,4.3292236328125,5.0499267578125
0.0615,-9.1239013671875,2.6876220703125,6.1309814453125
0.062,-8.6834716796875,1.0059814453125,7.3721923828125
0.0625,-7.6424560546875,-0.7557373046875,8.0128173828125
0.063,-6.5213623046875,-2.5574951171875,8.7335205078125
0.0635,-5.0399169921875,-4.6395263671875,9.3341064453125
0.064,-3.3582763671875,-6.2410888671875,9.2540283203125
0.0645,-1.5965576171875,-7.3221435546875,8.6534423828125
0.065,-0.1551513671875,-8.3231201171875,8.2530517578125
0.0655,1.5665283203125,-8.9637451171875,7.1719970703125
0.066,3.2081298828125,-9.4842529296875,6.1710205078125
0.0665,5.0899658203125,-10.124877929688,4.9698486328125
0.067,6.1309814453125,-9.4842529296875,3.3682861328125
0.0675,7.2520751953125,-9.0838623046875,1.9268798828125
0.068,7.8126220703125,-8.0828857421875,0.2852783203125
0.0685,8.5333251953125,-7.0819091796875,-1.4364013671875
0.069,9.1339111328125,-5.9608154296875,-3.1981201171875
0.0695,9.4542236328125,-4.6795654296875,-4.7996826171875
0.07,8.9737548828125,-3.1180419921875,-5.8406982421875
0.0705,8.4532470703125,-1.4764404296875,-7.0018310546875
0.071,7.4522705078125,0.2452392578125,-7.6424560546875
0.0715,6.4913330078125,1.9268798828125,-8.4031982421875
0.072,5.1700439453125,3.9688720703125,-9.0838623046875
0.0725,3.4884033203125,5.2100830078125,-8.7635498046875
0.073,1.9268798828125,6.4112548828125,-8.4031982421875
0.0735,0.5255126953125,7.2120361328125,-7.8826904296875
0.074,-1.1561279296875,8.0128173828125,-7.0819091796875
0.0745,-2.7176513671875,8.6534423828125,-6.1610107421875
0.075,-4.2391357421875,9.0538330078125,-5.0399169921875
0.0755,-5.2000732421875,8.5333251953125,-3.5985107421875
0.076,-6.4012451171875,8.2530517578125,-2.1170654296875
0.0765,-7.0018310546875,7.2921142578125,-0.6356201171875
0.077,-7.8026123046875,6.5313720703125,1.0059814453125
0.0775,-8.4832763671875,5.5303955078125,2.6876220703125
0.078,-8.6834716796875,4.4093017578125,3.9688720703125
0.0785,-8.3631591796875,2.8878173828125,5.2100830078125
0.079,-7.9227294921875,1.3262939453125,6.3311767578125
0.0795,-7.1219482421875,-0.3553466796875,7.1319580078125
0.08,-6.2811279296875,-2.0369873046875,8.0128173828125
0.0805,-4.9998779296875,-3.8787841796875,8.4932861328125
0.081,-3.5184326171875,-5.0799560546875,8.2130126953125
0.0815,-2.0770263671875,-6.4412841796875,8.1729736328125
0.082,-0.6356201171875,-7.2020263671875,7.6524658203125
0.0825,0.9659423828125,-8.0828857421875,7.0518798828125
0.083,2.5675048828125,-8.8836669921875,6.2510986328125
0.0835,3.9688720703125,-9.0438232421875,5.0899658203125
0.084,5.0899658203125,-8.7635498046875,3.6885986328125
0.0845,6.1710205078125,-8.3631591796875,2.2071533203125
0.085,7.0118408203125,-7.6424560546875,0.6856689453125
0.0855,7.8927001953125,-6.9617919921875,-0.9959716796875
0.086,8.6534423828125,-6.0408935546875,-2.6375732421875
0.0865,8.6534423828125,-4.8397216796875,-3.8387451171875
0.087,8.4532470703125,-3.1981201171875,-5.2000732421875
0.0875,7.8126220703125,-1.6766357421875,-6.2010498046875
0.088,7.1719970703125,0.0450439453125,-7.2020263671875
0.0885,6.2510986328125,1.8468017578125,-8.0828857421875
0.089,4.9698486328125,3.4884033203125,-8.4031982421875
0.0895,3.4083251953125,4.7296142578125,-8.2030029296875
0.09,1.9669189453125,6.0909423828125,-8.0428466796875
0.0905,0.4854736328125,6.8917236328125,-7.4422607421875
0.091,-1.1160888671875,7.7725830078125,-6.8817138671875
0.0915,-2.7576904296875,8.5733642578125,-6.0008544921875
0.092,-3.9588623046875,8.4132080078125,-4.7196044921875
0.0925,-5.2000732421875,8.2530517578125,-3.2781982421875
0.093,-6.1209716796875,7.6524658203125,-1.8367919921875
0.0935,-7.0418701171875,6.8917236328125,-0.1951904296875
0.094,-7.8826904296875,6.2110595703125,1.4063720703125
0.0945,-8.4832763671875,5.1300048828125,3.0479736328125
0.095,-8.3231201171875,3.8887939453125,4.2091064453125
0.0955,-8.1229248046875,2.2471923828125,5.6505126953125
0.096,-7.4022216796875,0.6456298828125,6.5313720703125
0.0965,-6.7215576171875,-1.1561279296875,7.5323486328125
0.097,-5.5604248046875,-3.0780029296875,8.2930908203125
0.0975,-4.1190185546875,-4.5194091796875,8.2930908203125
0.098,-2.6375732421875,-5.7606201171875,8.1729736328125
0.0985,-1.2362060546875,-6.8817138671875,7.8927001953125
0.099,0.4053955078125,-7.7625732421875,7.2120361328125
0.0995,2.0069580078125,-8.6834716796875,6.5313720703125
0.1,3.6885986328125,-9.2039794921875,5.4102783203125
0.1005,4.8096923828125,-8.8836669921875,4.0889892578125
0.101,6.0909423828125,-8.6834716796875,2.5274658203125
0.1015,6.8917236328125,-7.8426513671875,0.9659423828125
0.102,7.8126220703125,-7.0819091796875,-0.7156982421875
0.1025,8.6534423828125,-6.2410888671875,-2.4774169921875
0.103,8.8536376953125,-4.9598388671875,-3.9588623046875
0.1035,8.6134033203125,-3.4383544921875,-5.2000732421875
0.104,8.0928955078125,-1.7967529296875,-6.3612060546875
0.1045,7.2921142578125,-0.1551513671875,-7.2420654296875
0.105,6.4112548828125,1.7266845703125,-8.1629638671875
0.1055,5.0899658203125,3.6885986328125,-8.8035888671875
0.106,3.4083251953125,5.0098876953125,-8.4031982421875
0.1065,1.9268798828125,6.3311767578125,-8.2830810546875
0.107,0.3653564453125,7.1719970703125,-7.6424560546875
0.1075,-1.3162841796875,8.0128173828125,-6.8817138671875
0.108,-3.0379638671875,8.8135986328125,-6.0008544921875
0.1085,-4.5194091796875,8.9337158203125,-4.6395263671875
0.109,-5.6004638671875,8.4932861328125,-3.1981201171875
0.1095,-6.7215576171875,7.9727783203125,-1.5965576171875
0.11,-7.3621826171875,7.0118408203125,0.0850830078125
0.1105,-8.2030029296875,6.2110595703125,1.7266845703125
0.111,-8.9237060546875,5.0899658203125,3.5284423828125
0.1115,-8.6834716796875,3.6485595703125,4.8096923828125
0.112,-8.4031982421875,2.0069580078125,6.1309814453125
0.1125,-7.6824951171875,0.3253173828125,7.0518798828125
0.113,-6.7215576171875,-1.5565185546875,7.8526611328125
0.1135,-5.6405029296875,-3.3983154296875,8.6534423828125
0.114,-3.9989013671875,-5.1600341796875,8.8536376953125
0.1145,-2.3973388671875,-6.2811279296875,8.3731689453125
0.115,-0.8758544921875,-7.5623779296875,8.2130126953125
0.1155,0.8458251953125,-8.2830810546875,7.2921142578125
0.116,2.4874267578125,-9.0037841796875,6.4512939453125
0.1165,4.3292236328125,-9.7244873046875,5.4102783203125
0.117,5.5303955078125,-9.3641357421875,3.8087158203125
0.1175,6.6915283203125,-8.9637451171875,2.2872314453125
0.118,7.5323486328125,-8.1629638671875,0.6456298828125
0.1185,8.2530517578125,-7.1219482421875,-1.1561279296875
0.119,8.9737548828125,-6.1610107421875,-2.8377685546875
0.1195,9.4542236328125,-4.8397216796875,-4.6395263671875
0.12,8.9737548828125,-3.1981201171875,-5.7606201171875
0.1205,8.4932861328125,-1.5565185546875,-7.0418701171875
0.121,7.4122314453125,0.2852783203125,-7.7225341796875
0.1215,6.4112548828125,2.0870361328125,-8.5233154296875
0.122,5.0899658203125,4.1290283203125,-9.2440185546875
0.1225,3.3282470703125,5.6104736328125,-8.9637451171875
0.123,1.7266845703125,6.6915283203125,-8.4832763671875
0.1235,0.1651611328125,7.7325439453125,-8.0028076171875
0.124,-1.6766357421875,8.4132080078125,-6.8817138671875
0.1245,-3.2781982421875,9.0538330078125,-6.0008544921875
0.125,-4.9998779296875,9.4542236328125,-4.7196044921875
0.1255,-6.0408935546875,8.7735595703125,-3.0780029296875
0.126,-7.1619873046875,8.3731689453125,-1.5565185546875
0.1265,-7.7225341796875,7.2120361328125,0.2452392578125
0.127,-8.4432373046875,6.2110595703125,1.9268798828125
0.1275,-9.0838623046875,5.2100830078125,3.6085205078125
0.128,-9.1239013671875,3.6885986328125,5.1700439453125
0.1285,-8.5633544921875,2.0069580078125,6.2510986328125
0.129,-8.0828857421875,0.3253173828125,7.4122314453125
0.1295,-6.8016357421875,-1.5965576171875,7.9727783203125
0.13,-5.8006591796875,-3.2381591796875,8.7335205078125
0.1305,-4.3192138671875,-5.1600341796875,9.1739501953125
0.131,-2.5574951171875,-6.4012451171875,8.6534423828125
0.1315,-1.0360107421875,-7.5623779296875,8.3731689453125
0.132,0.6456298828125,-8.3231201171875,7.5723876953125
0.1325,2.3673095703125,-9.0037841796875,6.5714111328125
0.133,4.0089111328125,-9.6444091796875,5.6104736328125
0.1335,5.5303955078125,-9.7244873046875,4.1690673828125
0.134,6.4512939453125,-9.0838623046875,2.6075439453125
0.1345,7.5723876953125,-8.5633544921875,1.0460205078125
0.135,8.0928955078125,-7.3621826171875,-0.7557373046875
0.1355,8.8135986328125,-6.4412841796875,-2.3973388671875
0.136,9.4141845703125,-5.3201904296875,-4.1590576171875
0.1365,9.1739501953125,-3.7586669921875,-5.4403076171875
0.137,8.6134033203125,-2.1170654296875,-6.5614013671875
0.1375,7.8126220703125,-0.3953857421875,-7.5223388671875
0.138,6.6915283203125,1.5665283203125,-8.2030029296875
0.1385,5.6505126953125,3.3282470703125,-8.9237060546875
0.139,4.0889892578125,5.0499267578125,-9.1239013671875
0.1395,2.2872314453125,6.1710205078125,-8.4832763671875
0.14,0.8458251953125,7.3721923828125,-8.2830810546875
0.1405,-0.9559326171875,8.0128173828125,-7.2420654296875
0.141,-2.5174560546875,8.6934814453125,-6.4012451171875
0.1415,-4.1590576171875,9.2540283203125,-5.3602294921875
0.142,-5.4002685546875,8.9337158203125,-3.8387451171875
0.1425,-6.4412841796875,8.4132080078125,-2.2772216796875
0.143,-7.3221435546875,7.6925048828125,-0.6756591796875
0.1435,-7.9227294921875,6.5313720703125,1.1260986328125
0.144,-8.6834716796875,5.7706298828125,2.6075439453125
0.1445,-9.1239013671875,4.4893798828125,4.3292236328125
0.145,-8.6834716796875,2.8477783203125,5.4903564453125
0.1455,-8.2830810546875,1.2462158203125,6.6915283203125
0.146,-7.2821044921875,-0.5155029296875,7.4522705078125
0.1465,-6.3211669921875,-2.2772216796875,8.2930908203125
0.147,-5.1199951171875,-4.0389404296875,8.8536376953125
0.1475,-3.4383544921875,-5.6004638671875,8.7735595703125
0.148,-1.8768310546875,-6.7215576171875,8.3331298828125
0.1485,-0.3553466796875,-7.8426513671875,7.9727783203125
0.149,1.4063720703125,-8.4832763671875,6.9718017578125
0.1495,2.9278564453125,-9.2039794921875,6.1710205078125
0.15,4.6094970703125,-9.6444091796875,5.0098876953125
0.1505,5.7305908203125,-9.1239013671875,3.4083251953125
0.151,6.8516845703125,-8.7635498046875,1.9268798828125
0.1515,7.6124267578125,-7.8026123046875,0.2452392578125
0.152,8.3331298828125,-6.8817138671875,-1.4764404296875
0.1525,9.0538330078125,-6.0408935546875,-3.0780029296875
0.153,9.2540283203125,-4.6395263671875,-4.6395263671875
0.1535,8.6934814453125,-2.9578857421875,-5.8006591796875
0.154,8.2530517578125,-1.2762451171875,-7.0018310546875
0.1545,7.0518798828125,0.6456298828125,-7.7225341796875
0.155,6.1710205078125,2.4073486328125,-8.5633544921875
0.1555,4.8096923828125,4.2091064453125,-9.0037841796875
0.156,3.0880126953125,5.5303955078125,-8.6434326171875
0.1565,1.5665283203125,6.6915283203125,-8.3231201171875
0.157,0.0050048828125,7.6124267578125,-7.6824951171875
0.1575,-1.8367919921875,8.2930908203125,-6.6815185546875
0.158,-3.3582763671875,8.9737548828125,-5.8406982421875
0.1585,-4.8797607421875,9.1339111328125,-4.5194091796875
0.159,-5.8807373046875,8.4932861328125,-2.9178466796875
0.1595,-7.0018310546875,8.0528564453125,-1.3563232421875
0.16,-7.5623779296875,6.8917236328125,0.4053955078125
0.1605,-8.3231201171875,6.0509033203125,2.0469970703125
0.161,-8.9637451171875,5.0499267578125,3.6485595703125
0.1615,-8.8436279296875,3.4884033203125,5.0499267578125
0.162,-8.3631591796875,1.9268798828125,6.2110595703125
0.1625,-7.7225341796875,0.1651611328125,7.2921142578125
0.163,-6.5614013671875,-1.7567138671875,7.9727783203125
0.1635,-5.6004638671875,-3.4383544921875,8.6934814453125
0.164,-3.9989013671875,-5.1600341796875,8.8936767578125
0.1645,-2.3973388671875,-6.3612060546875,8.4132080078125
0.165,-0.8358154296875,-7.5623779296875,8.2130126953125
0.1655,0.9259033203125,-8.3231201171875,7.2921142578125
0.166,2.5675048828125,-9.0438232421875,6.3712158203125
0.1665,4.1690673828125,-9.6043701171875,5.3702392578125
0.167,5.4903564453125,-9.4442138671875,3.8887939453125
0.1675,6.5313720703125,-8.8836669921875,2.3673095703125
0.168,7.5323486328125,-8.2030029296875,0.6856689453125
0.1685,8.1729736328125,-7.0819091796875,-1.1561279296875
0.169,8.9337158203125,-6.2811279296875,-2.7176513671875
0.1695,9.3341064453125,-5.0799560546875,-4.4393310546875
0.17,8.9737548828125,-3.3182373046875,-5.6405029296875
0.1705,8.4532470703125,-1.6365966796875,-6.8016357421875
0.171,7.4923095703125,0.2052001953125,-7.6424560546875
0.1715,6.3712158203125,2.1270751953125,-8.4031982421875
0.172,5.1700439453125,3.8487548828125,-9.0037841796875
0.1725,3.5284423828125,5.4102783203125,-8.9637451171875
0.173,1.8868408203125,6.5313720703125,-8.4031982421875
0.1735,0.2852783203125,7.6124267578125,-8.0028076171875
0.174,-1.5965576171875,8.2930908203125,-6.8416748046875
0.1745,-3.1580810546875,8.9337158203125,-6.0408935546875
0.175,-4.6795654296875,9.2540283203125,-4.8397216796875
0.1755,-5.7606201171875,8.8135986328125,-3.2781982421875
0.176,-6.8416748046875,8.2530517578125,-1.7166748046875
0.1765,-7.6024169921875,7.2120361328125,0.0450439453125
0.177,-8.2830810546875,6.1309814453125,1.8468017578125
0.1775,-8.9237060546875,5.2901611328125,3.2882080078125
0.178,-9.0838623046875,3.9288330078125,4.8897705078125
