wavelength,x,y,z
0.0,-4.083984375,4.0439453125,-0.640625
0.0005,-4.1640625,3.4833984375,0.16015625
0.001,-4.3642578125,2.9228515625,0.9208984375
0.0015,-4.3642578125,1.9619140625,1.921875
0.002,-4.244140625,1.521484375,2.4423828125
0.0025,-4.083984375,0.6005859375,3.203125
0.003,-3.5634765625,-0.240234375,3.4833984375
0.0035,-3.203125,-0.9609375,3.8837890625
0.004,-2.4423828125,-1.921875,4.0439453125
0.0045,-1.76171875,-2.802734375,4.2841796875
0.005,-0.880859375,-3.5234375,4.0439453125
0.0055,0.0400390625,-4.2041015625,3.8837890625
0.006,0.9208984375,-4.484375,3.2431640625
0.0065,1.521484375,-4.8447265625,2.962890625
0.007,2.5625,-5.044921875,1.9619140625
0.0075,3.0830078125,-5.125,1.44140625
0.008,3.6435546875,-4.884765625,0.6005859375
0.0085,3.923828125,-4.564453125,-0.240234375
0.009,4.00390625,-3.923828125,-1.041015625
0.0095,4.2041015625,-3.283203125,-1.9619140625
0.01,4.2041015625,-2.2021484375,-3.04296875
0.0105,3.923828125,-1.4814453125,-3.5234375
0.011,3.68359375,-0.6005859375,-4.2841796875
0.0115,3.04296875,0.400390625,-4.5244140625
0.012,2.5224609375,1.1611328125,-4.8447265625
0.0125,1.5615234375,2.2822265625,-5.0048828125
0.013,0.7607421875,3.283203125,-5.125
0.0135,-0.3603515625,3.84375,-4.64453125
0.014,-1.201171875,4.484375,-4.404296875
0.0145,-2.001953125,4.6044921875,-3.6435546875
0.015,-2.72265625,4.9248046875,-3.1630859375
0.0155,-3.84375,5.044921875,-2.08203125
0.016,-4.2041015625,4.8046875,-1.3212890625
0.0165,-4.6044921875,4.404296875,-0.5205078125
0.017,-4.7646484375,3.8837890625,0.2802734375
0.0175,-4.7646484375,3.123046875,1.12109375
0.018,-4.7646484375,2.2822265625,2.1220703125
0.0185,-4.724609375,1.28125,3.1630859375
0.019,-4.1640625,0.48046875,3.4833984375
0.0195,-3.8837890625,-0.4404296875,4.1240234375
0.02,-3.123046875,-1.28125,4.1240234375
0.0205,-2.642578125,-1.9619140625,4.404296875
0.021,-1.5615234375,-3.1630859375,4.484375
0.0215,-0.80078125,-3.8837890625,4.4443359375
0.022,0.2802734375,-4.3642578125,3.84375
0.0225,1.0009765625,-4.884765625,3.603515625
0.023,1.76171875,-4.96484375,2.8427734375
0.0235,2.40234375,-5.1650390625,2.2822265625
0.024,3.443359375,-5.3251953125,1.3212890625
0.0245,3.68359375,-5.0048828125,0.6005859375
0.025,4.1240234375,-4.7646484375,-0.240234375
0.0255,4.2041015625,-4.1640625,-1.0009765625
0.026,4.2841796875,-3.4833984375,-1.8017578125
0.0265,4.244140625,-2.5224609375,-2.7626953125
0.027,4.2841796875,-1.7216796875,-3.68359375
0.0275,3.6435546875,-0.80078125,-4.00390625
0.028,3.4833984375,0.0400390625,-4.6845703125
0.0285,2.6025390625,0.9609375,-4.7646484375
0.029,2.2421875,1.7216796875,-5.125
0.0295,1.0810546875,3.0029296875,-5.205078125
0.03,0.240234375,3.763671875,-5.125
0.0305,-0.9208984375,4.32421875,-4.5244140625
0.031,-1.6015625,4.8046875,-4.2841796875
0.0315,-2.5224609375,4.9248046875,-3.443359375
0.032,-3.2431640625,5.0849609375,-2.802734375
0.0325,-4.32421875,5.3251953125,-1.8017578125
0.033,-4.564453125,4.724609375,-0.9208984375
0.0335,-5.0048828125,4.4443359375,-0.16015625
0.034,-5.0048828125,3.7236328125,0.8408203125
0.0345,-5.0849609375,2.8828125,1.76171875
0.035,-4.96484375,1.841796875,2.8427734375
0.0355,-4.884765625,0.9208984375,3.8037109375
0.036,-4.00390625,-0.2802734375,4.0439453125
0.0365,-3.84375,-1.0009765625,4.6044921875
0.037,-2.8427734375,-1.9619140625,4.5244140625
0.0375,-2.2021484375,-2.7626953125,4.7646484375
0.038,-1.0009765625,-4.00390625,4.7646484375
0.0385,0.0400390625,-4.6044921875,4.32421875
0.039,1.0009765625,-5.0048828125,3.7236328125
0.0395,1.6416015625,-5.3251953125,3.3232421875
0.04,2.6025390625,-5.4052734375,2.322265625
0.0405,3.203125,-5.4453125,1.6416015625
0.041,4.1640625,-5.525390625,0.6806640625
0.0415,4.2041015625,-4.7646484375,-0.3203125
0.042,4.484375,-4.5244140625,-0.9208984375
0.0425,4.32421875,-3.4833984375,-1.841796875
0.043,4.3642578125,-2.8427734375,-2.6025390625
0.0435,4.1640625,-1.8017578125,-3.5634765625
0.044,3.9638671875,-0.9609375,-4.244140625
0.0445,3.203125,0.1201171875,-4.5244140625
0.045,3.0029296875,0.720703125,-4.9248046875
0.0455,2.0419921875,1.6416015625,-4.884765625
0.046,1.521484375,2.40234375,-5.0849609375
0.0465,0.48046875,3.5634765625,-5.125
0.047,-0.6005859375,4.00390625,-4.6044921875
0.0475,-1.4013671875,4.484375,-4.244140625
0.048,-2.08203125,4.7646484375,-3.7236328125
0.0485,-2.8828125,4.8447265625,-3.0029296875
0.049,-3.5634765625,4.9248046875,-2.3623046875
0.0495,-4.3642578125,5.0048828125,-1.521484375
0.05,-4.484375,4.32421875,-0.6005859375
0.0505,-4.9248046875,4.2841796875,0.1201171875
0.051,-4.8447265625,3.1630859375,1.2412109375
0.0515,-4.96484375,2.5625,1.9619140625
0.052,-4.8447265625,1.521484375,3.04296875
0.0525,-4.5244140625,0.6806640625,3.6435546875
0.053,-3.8837890625,-0.400390625,4.00390625
0.0535,-3.603515625,-1.12109375,4.484375
0.054,-2.5625,-2.2421875,4.5244140625
0.0545,-1.921875,-3.04296875,4.6845703125
0.055,-0.7607421875,-4.1640625,4.64453125
0.0555,0.3203125,-4.64453125,4.00390625
0.056,1.12109375,-5.125,3.68359375
0.0565,2.0419921875,-5.4052734375,2.8828125
0.057,2.9228515625,-5.4853515625,2.0419921875
0.0575,3.5234375,-5.4453125,1.28125
0.058,4.2041015625,-5.28515625,0.3603515625
0.0585,4.2041015625,-4.4443359375,-0.640625
0.059,4.484375,-4.1640625,-1.28125
0.0595,4.3642578125,-2.8828125,-2.5224609375
0.06,4.2841796875,-2.2822265625,-3.0830078125
0.0605,4.00390625,-1.2412109375,-3.9638671875
0.061,3.5634765625,-0.3203125,-4.404296875
0.0615,2.8828125,0.560546875,-4.64453125
0.062,2.40234375,1.3212890625,-4.884765625
0.0625,1.4013671875,2.40234375,-4.96484375
0.063,0.7607421875,3.04296875,-4.9248046875
0.0635,-0.3203125,3.8837890625,-4.8046875
0.064,-1.2412109375,4.1240234375,-4.0439453125
0.0645,-1.8017578125,4.484375,-3.8037109375
0.065,-2.72265625,4.6044921875,-2.9228515625
0.0655,-3.2431640625,4.64453125,-2.4423828125
0.066,-3.8037109375,4.6044921875,-1.681640625
0.0665,-4.2041015625,4.404296875,-1.0009765625
0.067,-4.2841796875,3.8037109375,-0.2001953125
0.0675,-4.5244140625,3.5234375,0.48046875
0.068,-4.4443359375,2.482421875,1.5615234375
0.0685,-4.484375,2.0419921875,2.08203125
0.069,-4.32421875,1.12109375,2.9228515625
0.0695,-3.84375,0.3603515625,3.283203125
0.07,-3.5634765625,-0.48046875,3.763671875
0.0705,-2.9228515625,-1.28125,3.9638671875
0.071,-2.2822265625,-2.2021484375,4.2041015625
0.0715,-1.4814453125,-2.962890625,4.1640625
0.072,-0.640625,-3.763671875,4.083984375
0.0725,0.3203125,-4.1640625,3.5234375
0.073,0.9208984375,-4.6845703125,3.4033203125
0.0735,1.921875,-4.884765625,2.482421875
0.074,2.482421875,-5.0849609375,2.08203125
0.0745,3.1630859375,-5.0048828125,1.28125
0.075,3.5234375,-4.6845703125,0.48046875
0.0755,3.7236328125,-4.2041015625,-0.3603515625
0.076,3.9638671875,-3.763671875,-1.12109375
0.0765,4.00390625,-2.72265625,-2.2021484375
0.077,3.9638671875,-2.2421875,-2.7626953125
0.0775,3.763671875,-1.28125,-3.603515625
0.078,3.203125,-0.4404296875,-3.8837890625
0.0785,2.8828125,0.3603515625,-4.3642578125
0.079,2.08203125,1.3212890625,-4.5244140625
0.0795,1.4013671875,2.2421875,-4.7646484375
0.08,0.560546875,2.9228515625,-4.564453125
0.0805,-0.3603515625,3.5634765625,-4.3642578125
0.081,-1.2412109375,3.84375,-3.763671875
0.0815,-1.8017578125,4.2041015625,-3.5234375
0.082,-2.7626953125,4.404296875,-2.5625
0.0825,-3.1630859375,4.4443359375,-2.162109375
0.083,-3.68359375,4.2841796875,-1.361328125
0.0835,-3.8837890625,3.84375,-0.6806640625
0.084,-4.0439453125,3.443359375,0.0400390625
0.0845,-4.1240234375,2.7626953125,0.9208984375
0.085,-4.2041015625,2.0419921875,1.76171875
0.0855,-4.00390625,1.4013671875,2.2421875
0.086,-3.84375,0.6806640625,2.8828125
0.0865,-3.283203125,0.0,3.0830078125
0.087,-3.123046875,-0.720703125,3.5234375
0.0875,-2.2822265625,-1.681640625,3.6435546875
0.088,-1.841796875,-2.322265625,3.8837890625
0.0885,-0.9208984375,-3.0830078125,3.6435546875
0.089,-0.2802734375,-3.603515625,3.443359375
0.0895,0.5205078125,-3.923828125,3.04296875
0.09,1.12109375,-4.2041015625,2.72265625
0.0905,1.921875,-4.4443359375,2.0419921875
0.091,2.2822265625,-4.5244140625,1.7216796875
0.0915,2.8828125,-4.484375,1.0009765625
0.092,3.04296875,-4.00390625,0.3203125
0.0925,3.36328125,-3.84375,-0.3603515625
0.093,3.4833984375,-3.0830078125,-1.28125
0.0935,3.68359375,-2.642578125,-1.9619140625
0.094,3.4833984375,-1.921875,-2.5625
0.0945,3.4033203125,-1.28125,-3.203125
0.095,2.8828125,-0.5205078125,-3.5634765625
0.0955,2.6826171875,0.2802734375,-4.0439453125
0.096,1.8818359375,1.3212890625,-4.2841796875
0.0965,1.4013671875,2.001953125,-4.5244140625
0.097,0.4404296875,2.72265625,-4.244140625
0.0975,-0.3603515625,3.2431640625,-4.0439453125
0.098,-1.12109375,3.68359375,-3.6435546875
0.0985,-1.841796875,4.0439453125,-3.203125
0.099,-2.642578125,4.32421875,-2.5625
0.0995,-3.0029296875,4.2041015625,-2.001953125
0.1,-3.5634765625,4.1240234375,-1.3212890625
0.1005,-3.7236328125,3.5634765625,-0.6005859375
0.101,-4.0439453125,3.2431640625,0.240234375
0.1015,-4.0439453125,2.322265625,1.2412109375
0.102,-4.1640625,1.921875,1.921875
0.1025,-3.84375,1.041015625,2.40234375
0.103,-3.6435546875,0.400390625,2.9228515625
0.1035,-3.0830078125,-0.4404296875,3.203125
0.104,-2.72265625,-1.1611328125,3.5234375
0.1045,-1.8818359375,-2.2822265625,3.7236328125
0.105,-1.2412109375,-2.8427734375,3.6435546875
0.1055,-0.400390625,-3.443359375,3.36328125
0.106,0.3203125,-3.7236328125,3.04296875
0.1065,0.9609375,-4.00390625,2.6826171875
0.107,1.6416015625,-4.2041015625,2.08203125
0.1075,2.2822265625,-4.4443359375,1.6015625
0.108,2.5625,-4.1640625,1.0009765625
0.1085,2.962890625,-4.0439453125,0.48046875
0.109,3.04296875,-3.5234375,-0.3203125
0.1095,3.283203125,-3.203125,-1.0009765625
0.11,3.3232421875,-2.40234375,-1.8818359375
0.1105,3.36328125,-2.0419921875,-2.2822265625
0.111,3.123046875,-1.28125,-2.8828125
0.1115,2.8828125,-0.7607421875,-3.2431640625
0.112,2.5224609375,0.080078125,-3.68359375
0.1125,2.0419921875,0.7607421875,-3.923828125
0.113,1.44140625,1.681640625,-4.2041015625
0.1135,0.7607421875,2.2021484375,-4.083984375
0.114,0.0400390625,2.9228515625,-4.00390625
0.1145,-0.6806640625,3.2431640625,-3.603515625
0.115,-1.3212890625,3.68359375,-3.4033203125
0.1155,-2.1220703125,3.923828125,-2.7626953125
0.116,-2.642578125,4.1240234375,-2.40234375
0.1165,-3.0830078125,3.923828125,-1.7216796875
0.117,-3.4833984375,3.84375,-1.1611328125
0.1175,-3.68359375,3.3232421875,-0.3203125
0.118,-3.923828125,2.8828125,0.5205078125
0.1185,-4.1240234375,2.162109375,1.4814453125
0.119,-4.00390625,1.6416015625,1.9619140625
0.1195,-3.84375,0.880859375,2.642578125
0.12,-3.443359375,0.1201171875,3.0029296875
0.1205,-3.0830078125,-0.7607421875,3.443359375
0.121,-2.3623046875,-1.681640625,3.68359375
0.1215,-1.681640625,-2.6025390625,3.84375
0.122,-0.80078125,-3.0830078125,3.4833984375
0.1225,-0.1201171875,-3.7236328125,3.443359375
0.123,0.6806640625,-3.9638671875,2.8828125
0.1235,1.3212890625,-4.32421875,2.5625
0.124,2.2822265625,-4.564453125,1.76171875
0.1245,2.72265625,-4.484375,1.1611328125
0.125,3.04296875,-4.1640625,0.4404296875
0.1255,3.2431640625,-3.8837890625,-0.2001953125
0.126,3.36328125,-3.203125,-1.0009765625
0.1265,3.4833984375,-2.6025390625,-1.8017578125
0.127,3.5234375,-1.8818359375,-2.6826171875
0.1275,3.123046875,-1.201171875,-3.0029296875
0.128,3.0029296875,-0.5205078125,-3.603515625
0.1285,2.40234375,0.16015625,-3.7236328125
0.129,2.0419921875,0.880859375,-4.083984375
0.1295,1.2412109375,1.841796875,-4.244140625
0.13,0.6005859375,2.5625,-4.244140625
0.1305,-0.3603515625,3.0029296875,-3.763671875
0.131,-0.880859375,3.5234375,-3.68359375
0.1315,-1.5615234375,3.6435546875,-3.123046875
0.132,-2.1220703125,3.923828125,-2.7626953125
0.1325,-2.8828125,4.1640625,-2.1220703125
0.133,-3.1630859375,3.84375,-1.5615234375
0.1335,-3.5634765625,3.8037109375,-1.0009765625
0.134,-3.6435546875,3.3232421875,-0.3203125
0.1345,-3.8837890625,2.8427734375,0.5205078125
0.135,-3.9638671875,2.162109375,1.361328125
0.1355,-4.0439453125,1.6416015625,2.0419921875
0.136,-3.68359375,0.9609375,2.4423828125
0.1365,-3.6435546875,0.2802734375,3.04296875
0.137,-3.04296875,-0.640625,3.2431640625
0.1375,-2.6826171875,-1.361328125,3.68359375
0.138,-1.8017578125,-2.40234375,3.84375
0.1385,-1.12109375,-3.0029296875,3.763671875
0.139,-0.2802734375,-3.603515625,3.4833984375
0.1395,0.4404296875,-4.083984375,3.283203125
0.14,1.201171875,-4.32421875,2.72265625
0.1405,1.921875,-4.6044921875,2.2021484375
0.141,2.8427734375,-4.8447265625,1.521484375
0.1415,3.0830078125,-4.4443359375,0.720703125
0.142,3.5234375,-4.3642578125,0.080078125
0.1425,3.5634765625,-3.603515625,-0.8408203125
0.143,3.8037109375,-3.0830078125,-1.681640625
0.1435,3.8037109375,-2.2021484375,-2.642578125
0.144,3.7236328125,-1.44140625,-3.36328125
0.1445,3.1630859375,-0.6005859375,-3.763671875
0.145,3.0029296875,0.1201171875,-4.2041015625
0.1455,2.162109375,1.0009765625,-4.3642578125
0.146,1.6015625,1.921875,-4.564453125
0.1465,0.640625,3.0029296875,-4.724609375
0.147,-0.3203125,3.4833984375,-4.244140625
0.1475,-1.12109375,3.9638671875,-3.8837890625
0.148,-1.8818359375,4.2041015625,-3.36328125
0.1485,-2.6025390625,4.404296875,-2.6826171875
0.149,-3.2431640625,4.484375,-2.08203125
0.1495,-3.923828125,4.5244140625,-1.3212890625
0.15,-4.00390625,3.84375,-0.5205078125
0.1505,-4.3642578125,3.7236328125,0.080078125
0.151,-4.2841796875,2.72265625,1.12109375
0.1515,-4.32421875,2.2021484375,1.76171875
0.152,-4.244140625,1.28125,2.6826171875
0.1525,-3.923828125,0.48046875,3.1630859375
0.153,-3.4833984375,-0.400390625,3.4833984375
0.1535,-3.123046875,-1.0009765625,3.8037109375
0.154,-2.322265625,-1.8818359375,3.923828125
0.1545,-1.7216796875,-2.642578125,4.0439453125
0.155,-0.80078125,-3.603515625,4.1240234375
0.1555,0.16015625,-3.923828125,3.5234375
0.156,0.80078125,-4.484375,3.36328125
0.1565,1.5615234375,-4.64453125,2.6826171875
0.157,2.2822265625,-4.8447265625,2.1220703125
0.1575,2.962890625,-4.9248046875,1.4013671875
0.158,3.5234375,-4.8447265625,0.6806640625
0.1585,3.68359375,-4.244140625,-0.16015625
0.159,3.9638671875,-4.083984375,-0.80078125
0.1595,3.9638671875,-3.04296875,-1.8818359375
0.16,4.083984375,-2.5224609375,-2.5625
0.1605,3.9638671875,-1.6015625,-3.5234375
0.161,3.5634765625,-0.720703125,-4.00390625
0.1615,3.123046875,0.1201171875,-4.4443359375
0.162,2.5625,0.9609375,-4.6845703125
0.1625,1.76171875,2.0419921875,-4.884765625
0.163,0.9609375,2.8427734375,-4.9248046875
0.1635,0.0,3.8037109375,-4.884765625
0.164,-1.041015625,4.1640625,-4.1640625
0.1645,-1.7216796875,4.6044921875,-3.923828125
0.165,-2.7626953125,4.8447265625,-3.04296875
0.1655,-3.4833984375,4.9248046875,-2.322265625
0.166,-4.083984375,4.8447265625,-1.5615234375
0.1665,-4.564453125,4.6044921875,-0.720703125
0.167,-4.6044921875,3.84375,0.2001953125
0.1675,-4.8447265625,3.443359375,0.9609375
0.168,-4.7646484375,2.2021484375,2.2421875
0.1685,-4.64453125,1.521484375,2.7626953125
0.169,-4.3642578125,0.5205078125,3.5634765625
0.1695,-3.84375,-0.48046875,3.8837890625
0.17,-3.283203125,-1.1611328125,4.2041015625
0.1705,-2.5224609375,-2.1220703125,4.404296875
0.171,-1.6015625,-3.203125,4.5244140625
0.1715,-0.720703125,-3.8037109375,4.2841796875
0.172,0.2802734375,-4.564453125,4.083984375
0.1725,1.12109375,-4.8046875,3.3232421875
0.173,1.76171875,-5.125,3.0029296875
0.1735,2.7626953125,-5.205078125,1.9619140625
0.174,3.3232421875,-5.205078125,1.3212890625
0.1745,3.8037109375,-5.0048828125,0.5205078125
0.175,4.1240234375,-4.6044921875,-0.3203125
0.1755,4.1240234375,-3.923828125,-1.12109375
0.176,4.2841796875,-3.4033203125,-1.841796875
0.1765,4.1640625,-2.322265625,-2.962890625
0.177,3.9638671875,-1.76171875,-3.4033203125
0.1775,3.763671875,-0.80078125,-4.2041015625
0.178,3.1630859375,0.16015625,-4.484375
0.1785,2.6826171875,0.9609375,-4.8046875
0.179,1.8818359375,1.921875,-5.0048828125
0.1795,1.12109375,2.9228515625,-5.1650390625
0.18,0.16015625,3.5234375,-4.8447265625
0.1805,-0.80078125,4.32421875,-4.64453125
0.181,-1.681640625,4.5244140625,-3.923828125
0.1815,-2.322265625,4.9248046875,-3.5634765625
0.182,-3.4033203125,5.0849609375,-2.5625
0.1825,-3.923828125,5.0849609375,-1.9619140625
0.183,-4.4443359375,4.8046875,-1.0810546875
0.1835,-4.8046875,4.404296875,-0.240234375
0.184,-4.8447265625,3.68359375,0.6806640625
0.1845,-5.044921875,2.9228515625,1.6416015625
0.185,-5.0048828125,1.841796875,2.802734375
0.1855,-4.64453125,0.9609375,3.1630859375
0.186,-4.3642578125,0.1201171875,4.0439453125
0.1865,-3.603515625,-0.9208984375,4.2841796875
0.187,-3.0830078125,-1.7216796875,4.564453125
0.1875,-2.08203125,-2.8828125,4.724609375
0.188,-1.201171875,-3.8837890625,4.8046875
0.1885,0.0,-4.404296875,4.2041015625
0.189,0.8408203125,-5.0849609375,3.9638671875
0.1895,1.6416015625,-5.1650390625,3.1630859375
0.19,2.40234375,-5.4453125,2.6025390625
0.1905,3.5234375,-5.525390625,1.521484375
0.191,3.9638671875,-5.3251953125,0.7607421875
0.1915,4.32421875,-4.8447265625,-0.2802734375
0.192,4.484375,-4.404296875,-1.0009765625
0.1925,4.404296875,-3.5634765625,-1.841796875
0.193,4.404296875,-2.7626953125,-2.7626953125
0.1935,4.2841796875,-1.8017578125,-3.8837890625
0.194,3.8037109375,-0.8408203125,-4.1640625
0.1945,3.4833984375,0.16015625,-4.8447265625
0.195,2.642578125,1.0009765625,-4.884765625
0.1955,2.162109375,1.76171875,-5.125
0.196,1.0810546875,2.8828125,-5.125
0.1965,0.3203125,3.7236328125,-5.1650390625
0.197,-0.8408203125,4.1240234375,-4.484375
0.1975,-1.5615234375,4.724609375,-4.244140625
0.198,-2.322265625,4.7646484375,-3.443359375
0.1985,-2.962890625,4.96484375,-2.9228515625
0.199,-4.00390625,5.0849609375,-1.9619140625
0.1995,-4.244140625,4.724609375,-1.28125
0.2,-4.64453125,4.4443359375,-0.4404296875
0.2005,-4.7646484375,3.8837890625,0.48046875
0.201,-4.8447265625,3.123046875,1.2412109375
0.2015,-4.7646484375,2.2421875,2.162109375
0.202,-4.8046875,1.44140625,3.0830078125
0.2025,-4.2041015625,0.6005859375,3.443359375
0.203,-4.0439453125,-0.3203125,4.1240234375
0.2035,-3.203125,-1.28125,4.2041015625
0.204,-2.7626953125,-2.001953125,4.5244140625
0.2045,-1.6416015625,-3.203125,4.6044921875
0.205,-0.8408203125,-3.9638671875,4.5244140625
0.2055,0.2802734375,-4.5244140625,3.9638671875
0.206,1.0009765625,-5.0849609375,3.763671875
0.2065,1.8818359375,-5.1650390625,2.9228515625
0.207,2.5625,-5.4052734375,2.322265625
0.2075,3.68359375,-5.60546875,1.361328125
0.208,3.9638671875,-5.0849609375,0.48046875
0.2085,4.404296875,-4.7646484375,-0.3603515625
0.209,4.404296875,-4.1640625,-1.28125
0.2095,4.484375,-3.36328125,-2.2021484375
0.21,4.404296875,-2.2822265625,-3.1630859375
0.2105,4.32421875,-1.4013671875,-4.1240234375
0.211,3.5634765625,-0.3603515625,-4.3642578125
0.2115,3.3232421875,0.48046875,-4.96484375
0.212,2.40234375,1.4013671875,-4.96484375
0.2125,1.8017578125,2.2021484375,-5.1650390625
0.213,0.640625,3.443359375,-5.205078125
0.2135,-0.3603515625,4.0439453125,-4.8447265625
0.214,-1.3212890625,4.484375,-4.244140625
0.2145,-1.9619140625,4.8046875,-3.8837890625
0.215,-2.8427734375,4.8447265625,-2.962890625
0.2155,-3.4833984375,4.9248046875,-2.322265625
0.216,-4.3642578125,5.0048828125,-1.44140625
0.2165,-4.404296875,4.244140625,-0.6005859375
0.217,-4.7646484375,4.0439453125,0.1201171875
0.2175,-4.564453125,3.123046875,0.9609375
0.218,-4.64453125,2.5625,1.76171875
0.2185,-4.5244140625,1.5615234375,2.642578125
0.219,-4.3642578125,0.8408203125,3.2431640625
0.2195,-3.7236328125,0.0,3.5234375
0.22,-3.5234375,-0.720703125,3.9638671875
0.2205,-2.642578125,-1.6015625,4.00390625
0.221,-2.2021484375,-2.322265625,4.2041015625
0.2215,-1.201171875,-3.36328125,4.32421875
0.222,-0.3603515625,-3.8037109375,3.84375
0.2225,0.48046875,-4.3642578125,3.5634765625
0.223,1.12109375,-4.6044921875,3.123046875
0.2235,1.8818359375,-4.8046875,2.5625
0.224,2.5625,-4.96484375,1.921875
0.2245,3.283203125,-5.044921875,1.201171875
0.225,3.443359375,-4.5244140625,0.400390625
0.2255,3.8837890625,-4.484375,-0.3203125
0.226,3.84375,-3.5634765625,-1.2412109375
0.2265,4.00390625,-3.04296875,-1.9619140625
0.227,4.00390625,-2.1220703125,-2.9228515625
0.2275,3.8037109375,-1.44140625,-3.4833984375
0.228,3.3232421875,-0.5205078125,-3.9638671875
