wavelength,x,y,z
0.0,12.4521484375,10.490234375,-22.181640625
0.0005,8.0078125,14.2138671875,-21.7412109375
0.001,3.443359375,17.4970703125,-20.8603515625
0.0015,-1.76171875,20.2998046875,-18.4580078125
0.002,-5.3251953125,21.5810546875,-16.416015625
0.0025,-8.6083984375,21.9013671875,-13.7333984375
0.003,-12.091796875,21.8212890625,-10.41015625
0.0035,-16.2958984375,20.66015625,-5.205078125
0.004,-19.4189453125,19.1787109375,-0.5205078125
0.0045,-21.4609375,17.13671875,3.203125
0.005,-22.7421875,14.974609375,6.646484375
0.0055,-22.4619140625,11.291015625,10.08984375
0.006,-22.3818359375,7.4873046875,13.853515625
0.0065,-21.7412109375,3.1630859375,17.537109375
0.007,-19.8994140625,-1.4013671875,20.2998046875
0.0075,-17.5771484375,-4.8046875,21.701171875
0.008,-15.4150390625,-8.1279296875,22.58203125
0.0085,-11.8515625,-11.4111328125,22.501953125
0.009,-6.40625,-15.6552734375,21.30078125
0.0095,-1.9619140625,-18.5380859375,20.099609375
0.01,2.6826171875,-20.7802734375,17.9775390625
0.0105,6.24609375,-21.9814453125,15.8955078125
0.011,9.6494140625,-21.7412109375,12.4921875
0.0115,13.212890625,-21.4208984375,9.048828125
0.012,17.216796875,-20.580078125,4.1240234375
0.0125,20.0595703125,-18.5380859375,-0.6806640625
0.013,21.62109375,-16.6162109375,-4.1240234375
0.0135,22.58203125,-14.1337890625,-7.52734375
0.014,22.341796875,-10.5703125,-10.8505859375
0.0145,21.8212890625,-6.1259765625,-14.9345703125
0.015,21.140625,-2.2021484375,-18.09765625
0.0155,19.1787109375,2.162109375,-20.5
0.016,17.13671875,5.6455078125,-21.9013671875
0.0165,13.9736328125,8.9287109375,-22.1416015625
0.017,10.5302734375,12.2119140625,-22.26171875
0.0175,4.9248046875,16.49609375,-21.0205078125
0.018,0.2001953125,19.21875,-19.1787109375
0.0185,-3.7236328125,20.9404296875,-17.296875
0.019,-7.2470703125,21.9814453125,-15.0947265625
0.0195,-10.650390625,21.4609375,-11.37109375
0.02,-14.4541015625,20.98046875,-7.2470703125
0.0205,-18.017578125,19.939453125,-2.8828125
0.021,-20.66015625,17.7373046875,1.9619140625
0.0215,-21.9013671875,15.6953125,5.205078125
0.022,-22.4619140625,12.7724609375,8.6884765625
0.0225,-22.3017578125,9.2890625,12.0517578125
0.023,-21.5810546875,4.484375,16.255859375
0.0235,-20.3798828125,0.3203125,19.05859375
0.024,-18.578125,-3.5634765625,21.1806640625
0.0245,-16.3759765625,-6.88671875,22.341796875
0.025,-12.65234375,-10.330078125,22.021484375
0.0255,-8.9287109375,-13.693359375,21.9013671875
0.026,-3.5634765625,-17.5771484375,20.66015625
0.0265,1.521484375,-19.939453125,18.2578125
0.027,4.8447265625,-21.220703125,16.49609375
0.0275,8.2880859375,-21.9013671875,13.8935546875
0.028,11.771484375,-21.5009765625,10.169921875
0.0285,15.7353515625,-20.5,5.525390625
0.029,18.818359375,-19.2587890625,1.2412109375
0.0295,21.140625,-17.13671875,-3.203125
0.03,21.9814453125,-14.89453125,-6.24609375
0.0305,22.0615234375,-11.4912109375,-9.76953125
0.031,21.94140625,-7.84765625,-13.1728515625
0.0315,21.2607421875,-3.5234375,-17.0966796875
0.032,19.4990234375,0.880859375,-19.5390625
0.0325,17.6171875,4.32421875,-21.140625
0.033,15.21484375,7.5673828125,-22.1015625
0.0335,11.4111328125,10.9306640625,-21.6611328125
0.034,6.8466796875,14.654296875,-20.98046875
0.0345,2.162109375,17.8974609375,-19.779296875
0.035,-2.642578125,20.099609375,-17.376953125
0.0355,-5.7255859375,20.98046875,-15.5751953125
0.036,-9.048828125,21.2607421875,-12.65234375
0.0365,-12.5322265625,20.8203125,-8.9287109375
0.037,-16.3759765625,19.8193359375,-4.3642578125
0.0375,-19.0986328125,18.1376953125,0.080078125
0.038,-20.9404296875,16.17578125,3.763671875
0.0385,-21.62109375,13.8134765625,6.8466796875
0.039,-21.5009765625,10.330078125,10.2099609375
0.0395,-21.220703125,6.326171875,13.853515625
0.04,-20.5,2.2421875,17.296875
0.0405,-18.658203125,-1.921875,19.6591796875
0.041,-16.8564453125,-4.96484375,20.8203125
0.0415,-14.2138671875,-8.0478515625,21.4609375
0.042,-10.5302734375,-11.4111328125,21.1005859375
0.0425,-5.6455078125,-15.0947265625,20.0595703125
0.043,-1.1611328125,-17.8173828125,18.73828125
0.0435,3.0029296875,-19.7392578125,16.6962890625
0.044,6.005859375,-20.4599609375,14.654296875
0.0445,9.2890625,-20.3798828125,11.53125
0.045,12.8525390625,-20.01953125,7.6875
0.0455,16.3759765625,-19.05859375,3.4033203125
0.046,18.818359375,-17.1767578125,-0.880859375
0.0465,20.2998046875,-15.4951171875,-3.923828125
0.047,20.9404296875,-12.8125,-7.046875
0.0475,20.8203125,-9.4892578125,-10.5302734375
0.048,20.3798828125,-5.4453125,-14.1337890625
0.0485,19.4990234375,-1.681640625,-17.0966796875
0.049,17.857421875,2.162109375,-19.37890625
0.0495,15.85546875,5.125,-20.259765625
0.05,12.892578125,8.3681640625,-20.66015625
0.0505,9.0888671875,11.931640625,-20.419921875
0.051,4.404296875,15.6953125,-19.2587890625
0.0515,-0.2001953125,17.9375,-17.5771484375
0.052,-3.5634765625,19.5390625,-16.0556640625
0.0525,-6.6865234375,20.1396484375,-13.8134765625
0.053,-10.0498046875,19.859375,-10.4501953125
0.0535,-13.6533203125,19.37890625,-6.40625
0.054,-17.0166015625,18.2578125,-2.2021484375
0.0545,-19.21875,16.3759765625,1.921875
0.055,-20.1396484375,14.6142578125,4.8046875
0.0555,-20.8203125,11.69140625,8.16796875
0.056,-20.66015625,7.9677734375,11.8115234375
0.0565,-20.2197265625,3.9638671875,15.375
0.057,-18.9384765625,0.0400390625,17.8974609375
0.0575,-17.3369140625,-3.5234375,20.01953125
0.058,-15.0146484375,-6.4462890625,20.6201171875
0.0585,-11.931640625,-9.689453125,20.7001953125
0.059,-7.447265625,-13.4130859375,20.1796875
0.0595,-2.72265625,-16.6962890625,19.05859375
0.06,1.6416015625,-18.7783203125,16.9365234375
0.0605,4.7646484375,-20.0595703125,15.4150390625
0.061,7.9677734375,-20.4599609375,12.732421875
0.0615,11.4912109375,-19.939453125,8.96875
0.062,15.0947265625,-19.37890625,4.96484375
0.0625,17.9775390625,-17.8173828125,0.6806640625
0.063,19.9794921875,-16.095703125,-3.2431640625
0.0635,20.7001953125,-13.8134765625,-6.1259765625
0.064,21.0205078125,-10.7705078125,-9.529296875
0.0645,20.6201171875,-6.56640625,-13.29296875
0.065,20.01953125,-2.7626953125,-16.65625
0.0655,18.2578125,1.2412109375,-18.73828125
0.066,16.736328125,4.6044921875,-20.5
0.0665,13.7333984375,7.6875,-20.8603515625
0.067,10.169921875,11.05078125,-20.7001953125
0.0675,5.765625,14.6943359375,-20.01953125
0.068,1.0009765625,17.7373046875,-18.498046875
0.0685,-3.1630859375,19.5390625,-16.49609375
0.069,-6.0859375,20.2998046875,-14.5341796875
0.0695,-9.3291015625,20.4599609375,-11.611328125
0.07,-13.2529296875,19.7392578125,-7.287109375
0.0705,-16.2158203125,18.8583984375,-3.5634765625
0.071,-18.7783203125,17.1767578125,0.80078125
0.0715,-20.66015625,15.3349609375,4.404296875
0.072,-20.98046875,12.5322265625,7.4072265625
0.0725,-21.1005859375,9.208984375,10.890625
0.073,-20.7001953125,5.044921875,14.57421875
0.0735,-19.6591796875,1.0009765625,17.7373046875
0.074,-17.7373046875,-2.72265625,19.6591796875
0.0745,-15.9755859375,-5.765625,20.7802734375
0.075,-12.9326171875,-8.8486328125,21.060546875
0.0755,-8.6484375,-12.5322265625,20.4599609375
0.076,-4.32421875,-15.7353515625,19.5390625
0.0765,0.3203125,-18.2578125,17.7373046875
0.077,4.083984375,-20.01953125,15.935546875
0.0775,6.9267578125,-20.259765625,13.4931640625
0.078,10.169921875,-20.259765625,10.5703125
0.0785,14.2138671875,-19.5390625,5.9658203125
0.079,17.0966796875,-18.2578125,2.0419921875
0.0795,19.21875,-16.5361328125,-1.841796875
0.08,20.6201171875,-14.814453125,-5.044921875
0.0805,20.7802734375,-11.771484375,-8.16796875
0.081,20.6201171875,-8.0078125,-11.8916015625
0.0815,20.1796875,-4.2841796875,-15.134765625
0.082,18.978515625,-0.3203125,-17.857421875
0.0825,16.9765625,3.3232421875,-19.8193359375
0.083,14.7744140625,6.2060546875,-20.259765625
0.0835,12.091796875,9.3291015625,-20.740234375
0.084,7.1669921875,13.29296875,-19.939453125
0.0845,2.8828125,16.2958984375,-18.7783203125
0.085,-1.3212890625,18.337890625,-16.9765625
0.0855,-4.7646484375,19.9794921875,-15.375
0.086,-7.767578125,19.859375,-12.5322265625
0.0865,-10.890625,19.779296875,-9.208984375
0.087,-14.814453125,19.138671875,-5.1650390625
0.0875,-17.5771484375,17.5771484375,-0.880859375
0.088,-19.4990234375,15.7353515625,2.72265625
0.0885,-20.33984375,13.693359375,5.7255859375
0.089,-20.66015625,10.7705078125,8.8486328125
0.0895,-20.33984375,6.40625,12.9326171875
0.09,-19.7392578125,2.8427734375,15.935546875
0.0905,-18.09765625,-0.8408203125,18.2177734375
0.091,-16.65625,-4.3642578125,20.1396484375
0.0915,-13.8134765625,-7.126953125,20.1796875
0.092,-10.8505859375,-10.2099609375,20.33984375
0.0925,-6.0859375,-14.1337890625,19.5791015625
0.093,-1.44140625,-16.9765625,18.017578125
0.0935,2.2822265625,-18.6982421875,16.2958984375
0.094,5.365234375,-19.9794921875,14.57421875
0.0945,8.408203125,-19.8994140625,11.6513671875
0.095,12.2119140625,-19.2587890625,7.52734375
0.0955,15.4150390625,-18.658203125,3.9638671875
0.096,17.9775390625,-17.0166015625,-0.2001953125
0.0965,19.779296875,-15.375,-3.603515625
0.097,20.099609375,-12.8125,-6.56640625
0.0975,20.419921875,-9.9296875,-9.7294921875
0.098,20.1396484375,-5.4853515625,-13.8134765625
0.0985,19.0986328125,-1.681640625,-16.5361328125
0.099,17.4169921875,1.76171875,-18.4580078125
0.0995,15.935546875,4.9248046875,-20.099609375
0.1,12.732421875,8.0078125,-20.01953125
0.1005,8.9287109375,11.451171875,-19.8193359375
0.101,4.8046875,14.8544921875,-19.21875
0.1015,0.1201171875,17.537109375,-17.376953125
0.102,-3.2431640625,19.05859375,-15.6953125
0.1025,-6.2861328125,19.6591796875,-13.61328125
0.103,-9.369140625,19.7392578125,-10.8505859375
0.1035,-13.453125,18.8984375,-6.166015625
0.104,-16.3759765625,17.8974609375,-2.40234375
0.1045,-18.578125,16.2958984375,1.4013671875
0.105,-20.2197265625,14.5341796875,4.6044921875
0.1055,-20.01953125,11.5712890625,7.6875
0.106,-20.1396484375,8.2080078125,10.970703125
0.1065,-19.8994140625,4.32421875,14.7744140625
0.107,-18.6181640625,0.240234375,17.537109375
0.1075,-16.9365234375,-3.1630859375,19.0986328125
0.108,-15.0546875,-5.92578125,20.1796875
0.1085,-12.01171875,-9.0087890625,20.259765625
0.109,-7.2470703125,-12.892578125,19.4990234375
0.1095,-3.283203125,-15.7353515625,18.658203125
0.11,1.2412109375,-18.0576171875,16.7763671875
0.1105,4.32421875,-19.5791015625,15.2548828125
0.111,7.3271484375,-19.5390625,12.5322265625
0.1115,10.4501953125,-19.69921875,9.6494140625
0.112,14.4541015625,-19.0986328125,5.125
0.1125,17.296875,-17.4970703125,0.9208984375
0.113,19.0986328125,-15.8955078125,-2.4423828125
0.1135,20.099609375,-13.8935546875,-5.4453125
0.114,20.2197265625,-10.6904296875,-8.3681640625
0.1145,19.9794921875,-6.7666015625,-12.3720703125
0.115,19.5791015625,-3.283203125,-15.53515625
0.1155,18.177734375,0.6806640625,-18.09765625
0.116,16.49609375,3.9638671875,-19.6591796875
0.1165,13.7734375,6.8466796875,-20.0595703125
0.117,10.9306640625,9.9697265625,-20.259765625
0.1175,5.8857421875,14.2138671875,-19.37890625
0.118,1.44140625,16.81640625,-17.8974609375
0.1185,-2.2822265625,18.6181640625,-16.3759765625
0.119,-5.4853515625,19.939453125,-14.6943359375
0.1195,-8.6884765625,19.619140625,-11.4912109375
0.12,-12.2119140625,19.3388671875,-7.767578125
0.1205,-15.6953125,18.73828125,-3.84375
0.121,-18.41796875,16.896484375,0.5205078125
0.1215,-19.939453125,15.134765625,3.6435546875
0.122,-20.5,12.7724609375,6.7666015625
0.1225,-20.5,9.6494140625,9.9296875
0.123,-20.1396484375,5.125,14.0537109375
0.1235,-19.21875,1.521484375,16.896484375
0.124,-17.7373046875,-2.2021484375,19.0185546875
0.1245,-16.015625,-5.3251953125,20.4599609375
0.125,-12.572265625,-8.3681640625,20.2197265625
0.1255,-9.3291015625,-11.69140625,20.2197265625
0.126,-4.5244140625,-15.7353515625,19.37890625
0.1265,0.2802734375,-18.017578125,17.4169921875
0.127,3.5234375,-19.3388671875,15.8955078125
0.1275,6.7666015625,-20.259765625,13.7734375
0.128,9.849609375,-20.01953125,10.5302734375
0.1285,13.7333984375,-19.3388671875,6.166015625
0.129,16.81640625,-18.4580078125,2.2421875
0.1295,19.2587890625,-16.255859375,-1.8818359375
0.13,20.2998046875,-14.89453125,-4.9248046875
0.1305,20.6201171875,-11.5712890625,-8.087890625
0.131,20.6201171875,-8.408203125,-11.37109375
0.1315,20.099609375,-4.2041015625,-15.1748046875
0.132,18.7783203125,-0.2001953125,-17.857421875
0.1325,17.1767578125,3.123046875,-19.5791015625
0.133,15.0546875,6.326171875,-20.66015625
0.1335,11.53125,9.44921875,-20.66015625
0.134,7.52734375,13.1728515625,-19.9794921875
0.1345,2.9228515625,16.416015625,-19.0986328125
0.135,-1.76171875,18.73828125,-16.9765625
0.1355,-4.6845703125,19.859375,-15.3349609375
0.136,-8.0078125,20.2197265625,-12.65234375
0.1365,-11.2509765625,19.9794921875,-9.2890625
0.137,-15.1748046875,19.0185546875,-4.8447265625
0.1375,-17.9375,17.6171875,-0.80078125
0.138,-19.8193359375,15.9755859375,3.1630859375
0.1385,-20.8203125,13.7333984375,6.0859375
0.139,-20.8203125,10.2900390625,9.4892578125
0.1395,-20.5,6.6865234375,12.892578125
0.14,-20.01953125,2.6826171875,16.416015625
0.1405,-18.2177734375,-1.361328125,18.7783203125
0.141,-16.4560546875,-4.5244140625,20.01953125
0.1415,-14.1337890625,-7.447265625,20.8603515625
0.142,-10.650390625,-10.5703125,20.6201171875
0.1425,-5.685546875,-14.494140625,19.5791015625
0.143,-1.4013671875,-17.296875,18.3779296875
0.1435,2.72265625,-19.3388671875,16.49609375
0.144,5.8056640625,-20.1796875,14.494140625
0.1445,9.0087890625,-20.2197265625,11.37109375
0.145,12.3720703125,-19.939453125,7.8076171875
0.1455,16.015625,-18.818359375,3.68359375
0.146,18.41796875,-17.13671875,-0.80078125
0.1465,20.0595703125,-15.3349609375,-3.8837890625
0.147,20.66015625,-12.8525390625,-7.0068359375
0.1475,20.66015625,-9.4892578125,-10.3701171875
0.148,20.1796875,-5.28515625,-13.8935546875
0.1485,19.37890625,-1.6015625,-16.896484375
0.149,17.7373046875,2.162109375,-19.298828125
0.1495,15.6953125,5.0849609375,-20.2197265625
0.15,12.7724609375,8.248046875,-20.66015625
0.1505,9.1689453125,11.771484375,-20.419921875
0.151,4.2841796875,15.4150390625,-19.298828125
0.1515,-0.240234375,17.8974609375,-17.537109375
0.152,-3.68359375,19.4990234375,-15.9755859375
0.1525,-6.6064453125,20.2197265625,-13.693359375
0.153,-9.8896484375,19.9794921875,-10.41015625
0.1535,-13.7333984375,19.298828125,-6.486328125
0.154,-16.9765625,18.2177734375,-2.2822265625
0.1545,-19.21875,16.3359375,1.921875
0.155,-20.3798828125,14.5341796875,4.8447265625
0.1555,-20.7802734375,11.6513671875,8.0478515625
0.156,-20.7001953125,8.1279296875,11.5712890625
0.1565,-20.259765625,4.083984375,15.294921875
0.157,-18.8583984375,0.0400390625,17.77734375
0.1575,-17.216796875,-3.36328125,19.8994140625
0.158,-14.974609375,-6.2861328125,20.6201171875
0.1585,-11.8515625,-9.529296875,20.6201171875
0.159,-7.767578125,-13.1328125,20.259765625
0.1595,-2.9228515625,-16.6162109375,19.05859375
0.16,1.6015625,-18.658203125,16.9765625
0.1605,4.484375,-20.1396484375,15.4951171875
0.161,7.7275390625,-20.5,12.9326171875
0.1615,11.291015625,-19.8994140625,9.0888671875
0.162,14.814453125,-19.4189453125,5.0849609375
0.1625,17.857421875,-17.9375,0.880859375
0.163,19.859375,-15.9755859375,-3.04296875
0.1635,20.5400390625,-13.93359375,-5.92578125
0.164,20.7802734375,-10.8505859375,-9.2890625
0.1645,20.4599609375,-6.88671875,-12.8125
0.165,20.01953125,-3.04296875,-16.5361328125
0.1655,18.2177734375,0.9208984375,-18.578125
0.166,16.6162109375,4.2841796875,-20.33984375
0.1665,14.1337890625,7.4072265625,-20.8203125
0.167,10.4501953125,10.73046875,-20.580078125
0.1675,6.0859375,14.3740234375,-19.939453125
0.168,1.4013671875,17.4970703125,-18.578125
0.1685,-2.72265625,19.4189453125,-16.6162109375
0.169,-5.845703125,20.1796875,-15.0546875
0.1695,-9.2890625,20.4599609375,-11.7314453125
0.17,-12.7724609375,19.859375,-7.7275390625
0.1705,-16.255859375,18.978515625,-3.68359375
0.171,-18.818359375,17.296875,0.6005859375
0.1715,-20.7802734375,15.4150390625,4.32421875
0.172,-20.98046875,12.8125,7.3271484375
0.1725,-21.1806640625,9.3291015625,10.6904296875
0.173,-20.7001953125,5.28515625,14.4541015625
0.1735,-19.69921875,1.2412109375,17.6572265625
0.174,-17.8974609375,-2.72265625,19.69921875
0.1745,-16.1357421875,-5.6455078125,20.98046875
0.175,-13.2529296875,-8.8486328125,21.380859375
0.1755,-8.96875,-12.5322265625,20.8203125
0.176,-4.484375,-15.8955078125,19.8994140625
0.1765,0.240234375,-18.73828125,18.0576171875
0.177,4.1240234375,-20.4599609375,16.17578125
0.1775,7.3271484375,-20.5,13.8134765625
0.178,10.490234375,-20.7802734375,10.8505859375
0.1785,14.3740234375,-20.01953125,6.24609375
0.179,17.6171875,-18.7783203125,2.0419921875
0.1795,19.8994140625,-16.8564453125,-2.0419921875
0.18,21.2607421875,-15.0947265625,-5.4453125
0.1805,21.4609375,-12.01171875,-8.6884765625
0.181,21.4208984375,-8.2080078125,-12.3720703125
0.1815,20.8603515625,-4.2841796875,-15.8955078125
0.182,19.619140625,0.0,-18.7783203125
0.1825,17.6171875,3.84375,-20.580078125
0.183,15.21484375,6.8466796875,-21.220703125
0.1835,12.2919921875,10.08984375,-21.6611328125
0.184,7.3671875,14.1337890625,-20.740234375
0.1845,2.802734375,17.13671875,-19.859375
0.185,-1.841796875,19.37890625,-17.697265625
0.1855,-5.525390625,21.1005859375,-15.6953125
0.186,-8.48828125,20.9404296875,-12.8125
0.1865,-12.01171875,20.7802734375,-9.4892578125
0.187,-15.935546875,19.9794921875,-4.96484375
0.1875,-19.0185546875,18.3779296875,-0.3603515625
0.188,-20.7802734375,16.4560546875,3.5634765625
0.1885,-21.8212890625,14.1337890625,6.6865234375
0.189,-21.9814453125,10.8505859375,10.08984375
0.1895,-21.6611328125,6.3662109375,14.2138671875
0.19,-20.8203125,2.5625,17.296875
0.1905,-19.3388671875,-1.6015625,19.859375
0.191,-17.3369140625,-5.28515625,21.701171875
0.1915,-14.2939453125,-8.16796875,21.7412109375
0.192,-11.451171875,-11.5712890625,21.94140625
0.1925,-5.845703125,-15.6552734375,20.8603515625
0.193,-1.041015625,-18.578125,19.21875
0.1935,3.0029296875,-20.3798828125,17.1767578125
0.194,6.4462890625,-21.5810546875,15.294921875
0.1945,9.9296875,-21.30078125,11.8515625
0.195,13.4931640625,-20.7001953125,7.7275390625
0.1955,17.13671875,-20.01953125,3.603515625
0.196,19.9794921875,-17.697265625,-1.0009765625
0.1965,21.5810546875,-15.9755859375,-4.6845703125
0.197,21.94140625,-13.212890625,-7.84765625
0.1975,22.3017578125,-9.9296875,-11.2109375
0.198,21.4609375,-5.3251953125,-15.53515625
0.1985,20.5400390625,-1.2412109375,-18.41796875
0.199,18.578125,2.5625,-20.3798828125
0.1995,16.9365234375,6.0859375,-22.2216796875
0.2,13.0927734375,9.0888671875,-21.9814453125
0.2005,9.369140625,12.7724609375,-21.6611328125
0.201,4.484375,16.576171875,-20.7001953125
0.2015,-0.6005859375,19.3388671875,-18.658203125
0.202,-4.3642578125,20.7802734375,-16.65625
0.2025,-7.52734375,21.541015625,-14.4140625
0.203,-10.8505859375,21.4208984375,-11.130859375
0.2035,-15.0546875,20.33984375,-6.24609375
0.204,-18.2978515625,19.3388671875,-1.9619140625
0.2045,-20.580078125,17.4169921875,2.2421875
0.205,-22.1015625,15.3349609375,5.8056640625
0.2055,-21.94140625,12.091796875,9.0087890625
0.206,-22.26171875,8.6083984375,12.6123046875
0.2065,-21.5009765625,3.923828125,16.49609375
0.207,-20.01953125,-0.3603515625,19.458984375
0.2075,-17.9775390625,-3.8037109375,21.1005859375
0.208,-16.015625,-7.0068359375,22.3818359375
0.2085,-12.3720703125,-10.4501953125,22.0615234375
0.209,-7.6474609375,-14.4541015625,21.220703125
0.2095,-3.04296875,-17.4970703125,20.259765625
0.21,1.841796875,-20.0595703125,18.0576171875
0.2105,5.4453125,-21.30078125,16.095703125
0.211,8.6884765625,-21.30078125,13.1728515625
0.2115,11.771484375,-21.5009765625,10.08984375
0.212,16.1357421875,-20.33984375,5.0849609375
0.2125,19.138671875,-18.6982421875,0.4404296875
0.213,21.060546875,-16.65625,-3.0830078125
0.2135,22.1416015625,-14.6142578125,-6.6865234375
0.214,21.9013671875,-11.130859375,-10.1298828125
0.2145,21.78125,-7.046875,-13.853515625
0.215,21.140625,-3.123046875,-17.45703125
0.2155,19.3388671875,1.3212890625,-20.0595703125
0.216,17.376953125,4.8046875,-21.6611328125
0.2165,14.734375,8.1279296875,-22.1015625
0.217,11.3310546875,11.53125,-22.1416015625
0.2175,5.7255859375,15.6552734375,-21.0205078125
0.218,1.2412109375,18.498046875,-19.6591796875
