wavelength,x,y,z
0.0,-17.772338867188,-4.3192138671875,21.826293945312
0.0005,-14.689331054688,-9.7645263671875,24.188598632812
0.001,-11.846557617188,-12.447143554688,23.988403320312
0.0015,-6.6414794921875,-15.890502929688,22.266723632812
0.002,-2.7576904296875,-17.131713867188,19.744262695312
0.0025,2.8077392578125,-20.454956054688,17.702270507812
0.003,7.3321533203125,-22.737182617188,15.500122070312
0.0035,11.736450195312,-23.818237304688,12.256958007812
0.004,14.699340820312,-23.658081054688,9.1739501953125
0.0045,17.061645507812,-21.455932617188,4.5294189453125
0.005,19.544067382812,-19.494018554688,0.0850830078125
0.0055,22.306762695312,-18.132690429688,-4.0789794921875
0.006,24.268676757812,-15.049682617188,-9.1239013671875
0.0065,24.028442382812,-12.006713867188,-11.966674804688
0.007,23.387817382812,-8.0428466796875,-15.329956054688
0.0075,20.625122070312,-3.9188232421875,-16.691284179688
0.008,18.943481445312,1.1661376953125,-20.094604492188
0.0085,16.821411132812,5.4903564453125,-22.256713867188
0.009,13.738403320312,10.455200195312,-24.178588867188
0.0095,10.375122070312,13.297973632812,-23.738159179688
0.01,5.2901611328125,16.140747070312,-21.455932617188
0.0105,0.8458251953125,16.661254882812,-18.853393554688
0.011,-5.1199951171875,21.145629882812,-17.572143554688
0.0115,-8.8836669921875,22.987426757812,-14.449096679688
0.012,-12.327026367188,23.628051757812,-11.646362304688
0.0125,-16.651245117188,22.867309570312,-7.8826904296875
0.013,-17.371948242188,20.625122070312,-3.5985107421875
0.0135,-20.294799804688,18.783325195312,1.2462158203125
0.014,-22.376831054688,17.061645507812,4.9698486328125
0.0145,-24.138549804688,14.018676757812,9.8946533203125
0.015,-23.537963867188,10.615356445312,12.697387695312
0.0155,-22.256713867188,6.5714111328125,15.460083007812
0.016,-19.494018554688,2.2471923828125,17.061645507812
0.0165,-18.453002929688,-2.5174560546875,20.785278320312
0.017,-15.530151367188,-7.0819091796875,22.346801757812
0.0175,-12.927612304688,-11.165893554688,23.788208007812
0.018,-8.9237060546875,-14.048706054688,22.747192382812
0.0185,-3.9989013671875,-16.330932617188,20.184692382812
0.019,0.9259033203125,-18.613159179688,17.782348632812
0.0195,5.0899658203125,-21.696166992188,15.380004882812
0.02,10.174926757812,-23.337768554688,13.338012695312
0.0205,13.297973632812,-23.297729492188,10.134887695312
0.021,15.900512695312,-22.256713867188,6.5714111328125
0.0215,18.222778320312,-19.854370117188,1.8067626953125
0.022,21.546020507812,-18.533081054688,-2.8778076171875
0.0225,22.787231445312,-15.970581054688,-6.8016357421875
0.023,24.588989257812,-13.528198242188,-11.005737304688
0.0235,23.387817382812,-9.2440185546875,-14.048706054688
0.024,20.505004882812,-5.3602294921875,-16.411010742188
0.0245,19.063598632812,-0.5955810546875,-18.533081054688
0.025,18.142700195312,4.0889892578125,-22.256713867188
0.0255,14.379028320312,8.8536376953125,-23.337768554688
0.026,11.696411132812,12.537231445312,-24.258666992188
0.0265,7.2520751953125,15.219848632812,-22.536987304688
0.027,2.0870361328125,17.662231445312,-19.854370117188
0.0275,-2.9178466796875,20.384887695312,-17.732299804688
0.028,-7.3621826171875,22.747192382812,-15.690307617188
0.0285,-11.646362304688,24.428833007812,-13.127807617188
0.029,-15.089721679688,23.147583007812,-8.4432373046875
0.0295,-17.211791992188,22.106567382812,-5.3602294921875
0.03,-19.854370117188,19.423950195312,0.1251220703125
0.0305,-23.177612304688,18.222778320312,4.6895751953125
0.031,-23.537963867188,14.419067382812,8.8536376953125
0.0315,-25.099487304688,12.417114257812,12.457153320312
0.032,-24.338745117188,7.4122314453125,15.420043945312
0.0325,-21.095581054688,3.1680908203125,17.702270507812
0.033,-18.533081054688,-1.9168701171875,20.184692382812
0.0335,-17.051635742188,-6.6815185546875,23.387817382812
0.034,-13.448120117188,-10.885620117188,24.148559570312
0.0345,-9.6444091796875,-14.529174804688,24.028442382812
0.035,-5.6405029296875,-16.411010742188,21.906372070312
0.0355,0.2852783203125,-19.133666992188,18.863403320312
0.036,4.9698486328125,-22.016479492188,17.181762695312
0.0365,9.8946533203125,-23.497924804688,13.778442382812
0.037,13.177856445312,-25.019409179688,12.136840820312
0.0375,16.701293945312,-22.777221679688,6.2911376953125
0.038,18.623168945312,-21.576049804688,3.1280517578125
0.0385,21.425903320312,-18.893432617188,-2.3572998046875
0.039,24.468872070312,-17.331909179688,-7.0418701171875
0.0395,23.067504882812,-13.287963867188,-11.005737304688
0.04,25.349731445312,-10.845581054688,-14.449096679688
0.0405,22.787231445312,-6.3211669921875,-16.491088867188
0.041,20.464965820312,-1.3563232421875,-19.173706054688
0.0415,18.302856445312,3.4083251953125,-21.736206054688
0.042,15.660278320312,8.6534423828125,-24.258666992188
0.0425,12.937622070312,12.056762695312,-24.979370117188
0.043,7.6124267578125,15.900512695312,-23.497924804688
0.0435,4.0489501953125,17.341918945312,-21.455932617188
0.044,-2.1571044921875,20.384887695312,-18.412963867188
0.0445,-6.6815185546875,23.267700195312,-16.931518554688
0.045,-12.807495117188,23.908325195312,-12.727416992188
0.0455,-14.449096679688,25.029418945312,-11.005737304688
0.046,-17.411987304688,22.466918945312,-5.4403076171875
0.0465,-19.654174804688,20.785278320312,-1.5164794921875
0.047,-22.136596679688,18.583129882812,3.2481689453125
0.0475,-24.659057617188,16.180786132812,8.2130126953125
0.048,-24.418823242188,12.697387695312,10.255004882812
0.0485,-24.458862304688,8.8135986328125,14.098754882812
0.049,-22.056518554688,5.0899658203125,15.380004882812
0.0495,-19.574096679688,-0.5955810546875,19.824340820312
0.05,-17.772338867188,-4.8397216796875,22.386840820312
0.0505,-14.208862304688,-10.044799804688,24.028442382812
0.051,-12.166870117188,-14.088745117188,24.829223632812
0.0515,-6.1610107421875,-16.330932617188,22.266723632812
0.052,-2.5174560546875,-17.772338867188,20.144653320312
0.0525,3.1680908203125,-20.775268554688,17.662231445312
0.053,8.0128173828125,-23.537963867188,15.700317382812
0.0535,12.136840820312,-23.818237304688,11.896606445312
0.054,15.420043945312,-24.178588867188,7.6925048828125
0.0545,17.582153320312,-21.816284179688,4.5294189453125
0.055,20.464965820312,-19.854370117188,-0.4754638671875
0.0555,22.747192382812,-18.132690429688,-4.4793701171875
0.056,24.749145507812,-15.009643554688,-9.6444091796875
0.0565,24.629028320312,-12.286987304688,-12.327026367188
0.057,23.588012695312,-7.4422607421875,-16.130737304688
0.0575,21.305786132812,-4.0389404296875,-17.291870117188
0.058,19.183715820312,1.6065673828125,-20.775268554688
0.0585,16.981567382812,6.1710205078125,-23.177612304688
0.059,13.297973632812,11.015747070312,-24.258666992188
0.0595,10.775512695312,13.978637695312,-24.739135742188
0.06,4.8897705078125,16.821411132812,-23.057495117188
0.0605,0.4454345703125,18.903442382812,-19.453979492188
0.061,-4.3192138671875,21.746215820312,-17.732299804688
0.0615,-9.6844482421875,24.108520507812,-14.769409179688
0.062,-12.847534179688,24.068481445312,-11.646362304688
0.0625,-16.491088867188,23.588012695312,-7.4822998046875
0.063,-18.332885742188,21.305786132812,-3.3983154296875
0.0635,-21.616088867188,19.343872070312,1.9669189453125
0.064,-23.297729492188,17.301879882812,5.7305908203125
0.0645,-24.939331054688,13.858520507812,10.775512695312
0.065,-24.659057617188,10.895629882812,13.458129882812
0.0655,-22.897338867188,5.7706298828125,16.741333007812
0.066,-20.374877929688,1.8067626953125,18.342895507812
0.0665,-18.733276367188,-3.3182373046875,21.826293945312
0.067,-15.850463867188,-8.1629638671875,23.748168945312
0.0675,-12.487182617188,-12.086791992188,23.067504882812
0.068,-8.8035888671875,-16.651245117188,23.948364257812
0.0685,-3.3983154296875,-17.612182617188,20.825317382812
0.069,1.8067626953125,-20.174682617188,18.422973632812
0.0695,5.9708251953125,-22.577026367188,16.701293945312
0.07,11.416137695312,-24.619018554688,13.418090820312
0.0705,14.298950195312,-24.018432617188,9.8946533203125
0.071,17.582153320312,-23.017456054688,5.6505126953125
0.0715,19.544067382812,-20.414916992188,1.0460205078125
0.072,22.947387695312,-18.893432617188,-3.9588623046875
0.0725,23.948364257812,-16.010620117188,-7.9227294921875
0.073,25.269653320312,-13.047729492188,-12.206909179688
0.0735,24.388793945312,-9.3240966796875,-15.169799804688
0.074,22.146606445312,-4.4393310546875,-17.732299804688
0.0745,19.544067382812,0.2052001953125,-19.774291992188
0.075,18.182739257812,4.8497314453125,-22.977416992188
0.0755,14.619262695312,9.9747314453125,-24.498901367188
0.076,11.215942382812,13.338012695312,-24.458862304688
0.0765,6.9317626953125,16.340942382812,-23.297729492188
0.077,1.5665283203125,18.503051757812,-20.134643554688
0.0775,-3.6385498046875,21.505981445312,-18.092651367188
0.078,-7.8426513671875,23.187622070312,-15.650268554688
0.0785,-12.487182617188,25.149536132812,-13.007690429688
0.079,-15.610229492188,23.628051757812,-8.4432373046875
0.0795,-18.212768554688,22.466918945312,-4.6395263671875
0.08,-20.454956054688,19.704223632812,0.4454345703125
0.0805,-23.738159179688,18.463012695312,4.9698486328125
0.081,-24.138549804688,14.699340820312,9.1339111328125
0.0815,-25.099487304688,11.936645507812,11.536254882812
0.082,-23.818237304688,7.8126220703125,15.780395507812
0.0825,-21.295776367188,2.8878173828125,18.222778320312
0.083,-18.933471679688,-1.9569091796875,20.625122070312
0.0835,-17.051635742188,-7.6824951171875,23.187622070312
0.084,-13.808471679688,-11.085815429688,24.709106445312
0.0845,-9.6043701171875,-14.369018554688,23.748168945312
0.085,-5.5604248046875,-16.691284179688,22.106567382812
0.0855,0.1651611328125,-19.053588867188,18.903442382812
0.086,4.8897705078125,-22.336791992188,17.542114257812
0.0865,9.4542236328125,-23.217651367188,13.938598632812
0.087,13.137817382812,-24.979370117188,12.136840820312
0.0875,16.300903320312,-22.857299804688,6.7716064453125
0.088,18.663208007812,-21.495971679688,3.0479736328125
0.0885,21.265747070312,-19.053588867188,-2.1170654296875
0.089,24.268676757812,-17.652221679688,-6.5614013671875
0.0895,24.468872070312,-13.888549804688,-10.685424804688
0.09,24.789184570312,-10.645385742188,-14.128784179688
0.0905,21.786254882812,-6.8016357421875,-16.250854492188
0.091,20.264770507812,-1.4364013671875,-18.853393554688
0.0915,18.583129882812,3.2081298828125,-21.736206054688
0.092,15.700317382812,7.9327392578125,-23.537963867188
0.0925,13.378051757812,11.776489257812,-25.139526367188
0.093,7.8126220703125,15.259887695312,-23.097534179688
0.0935,4.1290283203125,17.261840820312,-21.455932617188
0.094,-1.7166748046875,19.864379882812,-18.372924804688
0.0945,-6.3211669921875,23.227661132812,-17.251831054688
0.095,-10.845581054688,23.467895507812,-13.007690429688
0.0955,-15.369995117188,24.669067382812,-10.885620117188
0.096,-17.932495117188,22.386840820312,-6.1209716796875
0.0965,-19.253784179688,19.223754882812,-1.6365966796875
0.097,-21.816284179688,18.463012695312,3.0479736328125
0.0975,-24.058471679688,16.180786132812,7.5723876953125
0.098,-24.458862304688,13.217895507812,11.055786132812
0.0985,-23.698120117188,8.6934814453125,14.779418945312
0.099,-22.056518554688,5.5704345703125,16.300903320312
0.0995,-19.253784179688,-0.1551513671875,19.183715820312
0.1,-18.012573242188,-4.5194091796875,22.346801757812
0.1005,-14.128784179688,-9.2039794921875,23.147583007812
0.101,-12.407104492188,-12.447143554688,24.629028320312
0.1015,-6.5213623046875,-15.490112304688,21.826293945312
0.102,-3.8387451171875,-17.532104492188,19.904418945312
0.1025,2.6475830078125,-20.054565429688,17.462036132812
0.103,7.4522705078125,-23.177612304688,15.860473632812
0.1035,11.296020507812,-23.377807617188,12.256958007812
0.104,14.939575195312,-23.537963867188,8.6934814453125
0.1045,16.701293945312,-23.057495117188,5.2901611328125
0.105,19.864379882812,-19.654174804688,-0.1151123046875
0.1055,22.426879882812,-18.172729492188,-4.2391357421875
0.106,23.788208007812,-14.849487304688,-8.8836669921875
0.1065,24.669067382812,-14.088745117188,-11.766479492188
0.107,22.787231445312,-7.4422607421875,-16.651245117188
0.1075,21.185668945312,-4.3992919921875,-16.811401367188
0.108,18.823364257812,1.0460205078125,-19.854370117188
0.1085,17.341918945312,5.8507080078125,-23.177612304688
0.109,13.338012695312,10.134887695312,-23.417846679688
0.1095,10.815551757812,13.578247070312,-25.619995117188
0.11,5.5303955078125,15.820434570312,-21.455932617188
0.1105,0.6456298828125,18.463012695312,-20.494995117188
0.111,-3.7987060546875,21.025512695312,-17.532104492188
0.1115,-9.2039794921875,23.708129882812,-14.849487304688
0.112,-12.166870117188,23.908325195312,-12.166870117188
0.1125,-15.970581054688,22.787231445312,-7.2020263671875
0.113,-17.452026367188,21.105590820312,-4.0789794921875
0.1135,-20.895385742188,19.103637695312,1.4464111328125
0.114,-23.337768554688,17.421997070312,5.6505126953125
0.1145,-24.178588867188,13.618286132812,8.9737548828125
0.115,-24.899291992188,11.456176757812,13.217895507812
0.1155,-22.256713867188,5.9307861328125,16.060668945312
0.116,-20.294799804688,2.0069580078125,18.062622070312
0.1165,-18.533081054688,-2.9178466796875,21.185668945312
0.117,-16.250854492188,-8.2030029296875,24.188598632812
0.1175,-12.527221679688,-11.686401367188,24.028442382812
0.118,-8.6834716796875,-15.249877929688,23.788208007812
0.1185,-3.7987060546875,-17.091674804688,20.785278320312
0.119,1.9268798828125,-20.294799804688,18.463012695312
0.1195,5.9708251953125,-22.617065429688,16.741333007812
0.12,11.576293945312,-24.699096679688,13.297973632812
0.1205,14.258911132812,-24.458862304688,10.415161132812
0.121,17.822387695312,-22.777221679688,3.8487548828125
0.1215,19.584106445312,-20.655151367188,1.2061767578125
0.122,23.027465820312,-18.893432617188,-3.9989013671875
0.1225,24.829223632812,-16.330932617188,-8.4031982421875
0.123,25.269653320312,-12.687377929688,-12.487182617188
0.1235,25.069458007812,-9.4842529296875,-15.610229492188
0.124,22.106567382812,-4.1190185546875,-19.213745117188
0.1245,19.904418945312,0.6456298828125,-20.454956054688
0.125,18.222778320312,3.8487548828125,-23.297729492188
0.1255,14.899536132812,10.695434570312,-25.579956054688
0.126,11.175903320312,13.778442382812,-24.939331054688
0.1265,6.3712158203125,17.221801757812,-23.618041992188
0.127,1.3262939453125,18.943481445312,-20.414916992188
0.1275,-4.3592529296875,22.466918945312,-18.412963867188
0.128,-8.4832763671875,24.068481445312,-15.890502929688
0.1285,-13.448120117188,25.750122070312,-12.687377929688
0.129,-16.330932617188,24.508911132812,-8.6434326171875
0.1295,-19.253784179688,22.546997070312,-3.7987060546875
0.13,-21.375854492188,19.944458007812,1.0460205078125
0.1305,-24.498901367188,18.543090820312,5.6905517578125
0.131,-25.579956054688,15.059692382812,8.9737548828125
0.1315,-26.901245117188,11.576293945312,13.818481445312
0.132,-24.498901367188,7.5323486328125,16.701293945312
0.1325,-21.295776367188,2.2071533203125,18.903442382812
0.133,-19.293823242188,-2.8377685546875,21.946411132812
0.1335,-17.211791992188,-7.1619873046875,24.068481445312
0.134,-14.048706054688,-12.206909179688,26.070434570312
0.1345,-9.6043701171875,-15.169799804688,24.588989257812
0.135,-4.7596435546875,-19.213745117188,22.506958007812
0.1355,0.6456298828125,-19.854370117188,17.942504882812
0.136,5.7706298828125,-23.537963867188,17.902465820312
0.1365,10.335083007812,-24.458862304688,14.258911132812
0.137,14.298950195312,-25.820190429688,11.656372070312
0.1375,17.181762695312,-23.938354492188,6.8116455078125
0.138,19.824340820312,-23.057495117188,2.1671142578125
0.1385,22.466918945312,-19.373901367188,-2.9578857421875
0.139,25.189575195312,-17.772338867188,-7.3221435546875
0.1395,26.030395507812,-14.128784179688,-11.806518554688
0.14,25.509887695312,-10.285034179688,-15.169799804688
0.1405,23.908325195312,-7.6824951171875,-17.452026367188
0.141,20.665161132812,-0.8758544921875,-19.774291992188
0.1415,19.183715820312,4.0089111328125,-23.177612304688
0.142,15.900512695312,8.6534423828125,-24.498901367188
0.1425,13.418090820312,12.977661132812,-26.340698242188
0.143,7.8526611328125,16.100708007812,-24.018432617188
0.1435,3.2882080078125,18.503051757812,-21.816284179688
0.144,-2.3973388671875,20.865356445312,-18.653198242188
0.1445,-7.1219482421875,24.388793945312,-17.612182617188
0.145,-11.846557617188,24.829223632812,-13.368041992188
0.1455,-16.651245117188,25.389770507812,-10.525268554688
0.146,-17.652221679688,23.347778320312,-6.0809326171875
0.1465,-20.414916992188,20.985473632812,-0.9158935546875
0.147,-23.297729492188,18.983520507812,4.0089111328125
0.1475,-25.139526367188,16.421020507812,8.4132080078125
0.148,-26.140502929688,13.538208007812,12.337036132812
0.1485,-24.619018554688,8.5333251953125,15.860473632812
0.149,-22.977416992188,5.0098876953125,17.702270507812
0.1495,-19.774291992188,-0.9158935546875,20.424926757812
0.15,-18.813354492188,-5.6004638671875,24.108520507812
0.1505,-14.489135742188,-10.325073242188,24.588989257812
0.151,-12.367065429688,-13.928588867188,26.070434570312
0.1515,-6.5213623046875,-16.691284179688,21.786254882812
0.152,-1.7166748046875,-19.133666992188,20.785278320312
0.1525,3.8087158203125,-21.736206054688,17.982543945312
0.153,8.8135986328125,-24.979370117188,16.300903320312
0.1535,11.536254882812,-25.299682617188,12.577270507812
0.154,15.380004882812,-24.699096679688,8.2930908203125
0.1545,18.382934570312,-22.897338867188,4.7696533203125
0.155,21.666137695312,-20.334838867188,-1.2362060546875
0.1555,24.629028320312,-18.733276367188,-5.7606201171875
0.156,24.348754882812,-15.049682617188,-10.525268554688
0.1565,26.671020507812,-12.927612304688,-13.688354492188
0.157,24.148559570312,-7.0418701171875,-17.091674804688
0.1575,22.266723632812,-3.3983154296875,-18.893432617188
0.158,19.504028320312,2.4473876953125,-21.896362304688
0.1585,18.022583007812,7.5723876953125,-25.579956054688
0.159,13.458129882812,12.056762695312,-25.459838867188
0.1595,10.535278320312,15.660278320312,-26.180541992188
0.16,4.9698486328125,17.742309570312,-22.737182617188
0.1605,-0.7156982421875,20.705200195312,-20.214721679688
0.161,-5.6004638671875,23.347778320312,-18.052612304688
0.1615,-11.286010742188,25.950317382812,-15.089721679688
0.162,-14.369018554688,26.150512695312,-12.166870117188
0.1625,-18.332885742188,24.428833007812,-6.5614013671875
0.163,-19.854370117188,22.466918945312,-3.1180419921875
0.1635,-23.257690429688,19.944458007812,2.9678955078125
0.164,-25.940307617188,18.022583007812,7.6124267578125
0.1645,-26.380737304688,13.658325195312,12.457153320312
0.165,-27.021362304688,11.336059570312,15.420043945312
0.1655,-23.698120117188,5.2901611328125,18.222778320312
0.166,-21.455932617188,0.8057861328125,20.464965820312
0.1665,-19.173706054688,-4.5194091796875,23.427856445312
0.167,-16.731323242188,-10.084838867188,26.590942382812
0.1675,-12.487182617188,-13.648315429688,25.950317382812
0.168,-8.2430419921875,-17.291870117188,25.349731445312
0.1685,-3.1580810546875,-18.973510742188,21.946411132812
0.169,3.1280517578125,-22.336791992188,19.263793945312
0.1695,7.5323486328125,-24.619018554688,17.181762695312
0.17,13.257934570312,-26.380737304688,13.338012695312
0.1705,15.980590820312,-26.180541992188,10.455200195312
0.171,19.463989257812,-23.818237304688,4.5694580078125
0.1715,21.225708007812,-21.576049804688,0.5255126953125
0.172,24.508911132812,-19.453979492188,-4.9197998046875
0.1725,26.630981445312,-16.851440429688,-9.6844482421875
0.173,26.550903320312,-12.727416992188,-13.768432617188
0.1735,26.430786132812,-9.5242919921875,-16.891479492188
0.174,22.907348632812,-4.0389404296875,-18.893432617188
0.1745,20.625122070312,1.0860595703125,-21.656127929688
0.175,18.663208007812,5.7706298828125,-25.619995117188
0.1755,15.299926757812,11.496215820312,-26.741088867188
0.176,11.496215820312,14.459106445312,-25.980346679688
0.1765,6.3311767578125,17.902465820312,-24.218627929688
0.177,1.6065673828125,19.303833007812,-21.055541992188
0.1775,-4.3992919921875,22.907348632812,-18.893432617188
0.178,-8.8035888671875,24.869262695312,-16.411010742188
