wavelength,x,y,z
0.0,-1.271240234375,5.415283203125,-3.313232421875
0.0005,-0.550537109375,5.495361328125,-4.194091796875
0.001,0.490478515625,5.255126953125,-4.994873046875
0.0015,1.691650390625,4.494384765625,-5.595458984375
0.002,2.852783203125,3.693603515625,-6.035888671875
0.0025,3.773681640625,2.692626953125,-6.156005859375
0.003,4.414306640625,1.771728515625,-6.156005859375
0.0035,4.734619140625,0.930908203125,-5.955810546875
0.004,4.854736328125,0.050048828125,-5.475341796875
0.0045,4.934814453125,-1.151123046875,-4.674560546875
0.005,4.934814453125,-2.272216796875,-3.793701171875
0.0055,4.774658203125,-3.313232421875,-2.832763671875
0.006,4.534423828125,-4.154052734375,-1.951904296875
0.0065,4.013916015625,-4.754638671875,-1.031005859375
0.007,3.253173828125,-5.195068359375,0.170166015625
0.0075,2.412353515625,-5.715576171875,1.451416015625
0.008,1.411376953125,-5.915771484375,2.652587890625
0.0085,0.610595703125,-6.156005859375,3.573486328125
0.009,-0.270263671875,-6.236083984375,4.454345703125
0.0095,-1.311279296875,-5.755615234375,5.135009765625
0.01,-2.592529296875,-4.834716796875,5.735595703125
0.0105,-3.713623046875,-3.873779296875,6.095947265625
0.011,-4.514404296875,-2.832763671875,6.095947265625
0.0115,-4.994873046875,-2.031982421875,6.055908203125
0.012,-5.235107421875,-1.151123046875,5.695556640625
0.0125,-5.275146484375,-0.150146484375,5.014892578125
0.013,-5.315185546875,1.091064453125,4.174072265625
0.0135,-5.275146484375,2.252197265625,3.173095703125
0.014,-4.994873046875,3.173095703125,2.252197265625
0.0145,-4.674560546875,3.893798828125,1.331298828125
0.015,-4.114013671875,4.414306640625,0.370361328125
0.0155,-3.153076171875,4.774658203125,-0.990966796875
0.016,-2.232177734375,5.215087890625,-2.272216796875
0.0165,-1.271240234375,5.335205078125,-3.313232421875
0.017,-0.590576171875,5.495361328125,-4.234130859375
0.0175,0.370361328125,5.375244140625,-4.994873046875
0.018,1.571533203125,4.734619140625,-5.635498046875
0.0185,2.852783203125,3.733642578125,-6.115966796875
0.019,3.853759765625,2.652587890625,-6.276123046875
0.0195,4.494384765625,1.691650390625,-6.236083984375
0.02,4.854736328125,0.930908203125,-6.115966796875
0.0205,4.974853515625,0.010009765625,-5.555419921875
0.021,4.934814453125,-1.191162109375,-4.674560546875
0.0215,4.974853515625,-2.352294921875,-3.833740234375
0.022,4.814697265625,-3.393310546875,-2.872802734375
0.0225,4.534423828125,-4.234130859375,-1.911865234375
0.023,4.134033203125,-4.874755859375,-1.031005859375
0.0235,3.413330078125,-5.275146484375,0.090087890625
0.024,2.412353515625,-5.715576171875,1.371337890625
0.0245,1.331298828125,-5.995849609375,2.692626953125
0.025,0.570556640625,-6.156005859375,3.653564453125
0.0255,-0.350341796875,-6.356201171875,4.494384765625
0.026,-1.311279296875,-5.835693359375,5.215087890625
0.0265,-2.592529296875,-4.954833984375,5.775634765625
0.027,-3.793701171875,-3.993896484375,6.216064453125
0.0275,-4.634521484375,-2.912841796875,6.296142578125
0.028,-5.155029296875,-1.991943359375,6.216064453125
0.0285,-5.435302734375,-1.191162109375,5.895751953125
0.029,-5.475341796875,-0.230224609375,5.255126953125
0.0295,-5.435302734375,1.051025390625,4.334228515625
0.03,-5.395263671875,2.292236328125,3.253173828125
0.0305,-5.155029296875,3.253173828125,2.252197265625
0.031,-4.834716796875,4.093994140625,1.371337890625
0.0315,-4.194091796875,4.534423828125,0.410400390625
0.032,-3.273193359375,4.894775390625,-0.910888671875
0.0325,-2.272216796875,5.295166015625,-2.272216796875
0.033,-1.231201171875,5.455322265625,-3.513427734375
0.0335,-0.510498046875,5.575439453125,-4.394287109375
0.034,0.450439453125,5.575439453125,-5.155029296875
0.0345,1.571533203125,4.934814453125,-5.795654296875
0.035,2.932861328125,3.853759765625,-6.276123046875
0.0355,4.053955078125,2.772705078125,-6.556396484375
0.036,4.734619140625,1.731689453125,-6.436279296875
0.0365,5.094970703125,0.850830078125,-6.276123046875
0.037,5.215087890625,0.010009765625,-5.755615234375
0.0375,5.175048828125,-1.271240234375,-4.914794921875
0.038,5.094970703125,-2.512451171875,-3.873779296875
0.0385,4.974853515625,-3.713623046875,-2.792724609375
0.039,4.694580078125,-4.554443359375,-1.791748046875
0.0395,4.334228515625,-5.235107421875,-0.910888671875
0.04,3.533447265625,-5.635498046875,0.210205078125
0.0405,2.412353515625,-5.955810546875,1.571533203125
0.041,1.251220703125,-6.356201171875,3.052978515625
0.0415,0.250244140625,-6.436279296875,4.053955078125
0.042,-0.590576171875,-6.436279296875,4.934814453125
0.0425,-1.511474609375,-6.115966796875,5.655517578125
0.043,-2.832763671875,-5.155029296875,6.256103515625
0.0435,-4.154052734375,-3.993896484375,6.656494140625
0.044,-5.155029296875,-2.792724609375,6.696533203125
0.0445,-5.715576171875,-1.711669921875,6.536376953125
0.045,-5.915771484375,-0.910888671875,6.216064453125
0.0455,-5.835693359375,0.250244140625,5.415283203125
0.046,-5.755615234375,1.571533203125,4.294189453125
0.0465,-5.715576171875,2.892822265625,3.133056640625
0.047,-5.395263671875,3.973876953125,1.971923828125
0.0475,-4.954833984375,4.694580078125,0.970947265625
0.048,-4.314208984375,5.135009765625,0.010009765625
0.0485,-3.233154296875,5.415283203125,-1.271240234375
0.049,-1.951904296875,5.735595703125,-2.872802734375
0.0495,-0.790771484375,5.815673828125,-4.234130859375
0.05,0.250244140625,5.895751953125,-5.114990234375
0.0505,0.970947265625,5.775634765625,-5.795654296875
0.051,2.132080078125,5.014892578125,-6.396240234375
0.0515,3.533447265625,3.773681640625,-6.836669921875
0.052,4.734619140625,2.572509765625,-7.076904296875
0.0525,5.415283203125,1.371337890625,-6.916748046875
0.053,5.775634765625,0.370361328125,-6.596435546875
0.0535,5.775634765625,-0.590576171875,-6.075927734375
0.054,5.615478515625,-1.671630859375,-5.114990234375
0.0545,5.415283203125,-3.113037109375,-3.753662109375
0.055,5.255126953125,-4.354248046875,-2.552490234375
0.0555,4.814697265625,-5.275146484375,-1.431396484375
0.056,4.334228515625,-5.835693359375,-0.510498046875
0.0565,3.493408203125,-6.156005859375,0.610595703125
0.057,2.252197265625,-6.396240234375,1.971923828125
0.0575,0.890869140625,-6.676513671875,3.533447265625
0.058,-0.310302734375,-6.596435546875,4.654541015625
0.0585,-1.031005859375,-6.556396484375,5.455322265625
0.059,-1.831787109375,-6.316162109375,6.095947265625
0.0595,-3.072998046875,-5.395263671875,6.616455078125
0.06,-4.514404296875,-4.073974609375,6.976806640625
0.0605,-5.515380859375,-2.832763671875,7.056884765625
0.061,-6.115966796875,-1.631591796875,6.776611328125
0.0615,-6.276123046875,-0.750732421875,6.416259765625
0.062,-6.196044921875,0.290283203125,5.735595703125
0.0625,-6.035888671875,1.571533203125,4.574462890625
0.063,-5.835693359375,2.892822265625,3.333251953125
0.0635,-5.515380859375,4.053955078125,2.052001953125
0.064,-5.074951171875,4.814697265625,1.010986328125
0.0645,-4.514404296875,5.375244140625,0.130126953125
0.065,-3.553466796875,5.575439453125,-1.111083984375
0.0655,-2.232177734375,5.735595703125,-2.632568359375
0.066,-0.950927734375,6.055908203125,-4.114013671875
0.0665,0.170166015625,5.975830078125,-5.074951171875
0.067,0.930908203125,5.895751953125,-5.795654296875
0.0675,1.851806640625,5.415283203125,-6.396240234375
0.068,3.173095703125,4.334228515625,-6.876708984375
0.0685,4.494384765625,3.052978515625,-7.156982421875
0.069,5.375244140625,1.771728515625,-7.116943359375
0.0695,5.815673828125,0.690673828125,-6.796630859375
0.07,5.935791015625,-0.270263671875,-6.396240234375
0.0705,5.775634765625,-1.271240234375,-5.515380859375
0.071,5.575439453125,-2.592529296875,-4.314208984375
0.0715,5.415283203125,-3.953857421875,-3.072998046875
0.072,5.094970703125,-4.994873046875,-1.871826171875
0.0725,4.574462890625,-5.715576171875,-0.870849609375
0.073,3.933837890625,-6.156005859375,0.170166015625
0.0735,2.812744140625,-6.396240234375,1.331298828125
0.074,1.491455078125,-6.556396484375,2.932861328125
0.0745,0.250244140625,-6.676513671875,4.294189453125
0.075,-0.750732421875,-6.596435546875,5.135009765625
0.0755,-1.471435546875,-6.476318359375,5.855712890625
0.076,-2.552490234375,-5.795654296875,6.416259765625
0.0765,-3.993896484375,-4.554443359375,6.856689453125
0.077,-5.155029296875,-3.313232421875,7.096923828125
0.0775,-5.875732421875,-2.072021484375,6.896728515625
0.078,-6.276123046875,-1.151123046875,6.656494140625
0.0785,-6.276123046875,-0.190185546875,6.095947265625
0.079,-6.115966796875,0.970947265625,5.175048828125
0.0795,-5.955810546875,2.332275390625,3.893798828125
0.08,-5.755615234375,3.693603515625,2.572509765625
0.0805,-5.315185546875,4.534423828125,1.411376953125
0.081,-4.794677734375,5.135009765625,0.490478515625
0.0815,-3.953857421875,5.495361328125,-0.710693359375
0.082,-2.712646484375,5.775634765625,-2.072021484375
0.0825,-1.471435546875,6.055908203125,-3.593505859375
0.083,-0.190185546875,5.975830078125,-4.794677734375
0.0835,0.650634765625,5.975830078125,-5.635498046875
0.084,1.411376953125,5.735595703125,-6.236083984375
0.0845,2.692626953125,4.854736328125,-6.756591796875
0.085,4.093994140625,3.533447265625,-7.116943359375
0.0855,5.135009765625,2.252197265625,-7.237060546875
0.086,5.735595703125,1.051025390625,-6.956787109375
0.0865,5.975830078125,0.130126953125,-6.636474609375
0.087,5.895751953125,-0.950927734375,-5.915771484375
0.0875,5.735595703125,-2.192138671875,-4.794677734375
0.088,5.575439453125,-3.553466796875,-3.513427734375
0.0885,5.255126953125,-4.834716796875,-2.272216796875
0.089,4.814697265625,-5.635498046875,-1.151123046875
0.0895,4.214111328125,-6.156005859375,-0.230224609375
0.09,3.253173828125,-6.396240234375,0.970947265625
0.0905,1.891845703125,-6.556396484375,2.532470703125
0.091,0.570556640625,-6.796630859375,4.053955078125
0.0915,-0.590576171875,-6.676513671875,5.054931640625
0.092,-1.311279296875,-6.636474609375,5.775634765625
0.0925,-2.272216796875,-6.156005859375,6.416259765625
0.093,-3.673583984375,-4.994873046875,6.856689453125
0.0935,-4.954833984375,-3.713623046875,7.177001953125
0.094,-5.835693359375,-2.432373046875,7.096923828125
0.0945,-6.276123046875,-1.311279296875,6.776611328125
0.095,-6.356201171875,-0.430419921875,6.296142578125
0.0955,-6.236083984375,0.690673828125,5.455322265625
0.096,-6.035888671875,2.052001953125,4.174072265625
0.0965,-5.795654296875,3.373291015625,2.892822265625
0.097,-5.395263671875,4.334228515625,1.651611328125
0.0975,-4.914794921875,5.094970703125,0.650634765625
0.098,-4.234130859375,5.495361328125,-0.350341796875
0.0985,-3.153076171875,5.695556640625,-1.591552734375
0.099,-1.791748046875,5.935791015625,-3.113037109375
0.0995,-0.510498046875,6.015869140625,-4.514404296875
0.1,0.490478515625,5.935791015625,-5.315185546875
0.1005,1.171142578125,5.815673828125,-5.955810546875
0.101,2.252197265625,5.094970703125,-6.516357421875
0.1015,3.613525390625,3.893798828125,-6.916748046875
0.102,4.734619140625,2.692626953125,-7.116943359375
0.1025,5.415283203125,1.451416015625,-6.956787109375
0.103,5.775634765625,0.490478515625,-6.676513671875
0.1035,5.815673828125,-0.470458984375,-6.156005859375
0.104,5.655517578125,-1.471435546875,-5.275146484375
0.1045,5.455322265625,-2.832763671875,-4.033935546875
0.105,5.255126953125,-4.073974609375,-2.832763671875
0.1055,4.814697265625,-4.994873046875,-1.671630859375
0.106,4.414306640625,-5.635498046875,-0.750732421875
0.1065,3.693603515625,-6.035888671875,0.330322265625
0.107,2.572509765625,-6.236083984375,1.571533203125
0.1075,1.291259765625,-6.516357421875,3.093017578125
0.108,0.170166015625,-6.516357421875,4.214111328125
0.1085,-0.710693359375,-6.516357421875,5.094970703125
0.109,-1.551513671875,-6.396240234375,5.775634765625
0.1095,-2.592529296875,-5.635498046875,6.336181640625
0.11,-3.993896484375,-4.434326171875,6.736572265625
0.1105,-5.074951171875,-3.233154296875,6.896728515625
0.111,-5.715576171875,-2.031982421875,6.696533203125
0.1115,-6.035888671875,-1.191162109375,6.416259765625
0.112,-6.075927734375,-0.270263671875,5.855712890625
0.1125,-5.915771484375,0.970947265625,4.854736328125
0.113,-5.755615234375,2.252197265625,3.693603515625
0.1135,-5.635498046875,3.413330078125,2.532470703125
0.114,-5.114990234375,4.334228515625,1.451416015625
0.1145,-4.634521484375,4.934814453125,0.570556640625
0.115,-3.833740234375,5.255126953125,-0.590576171875
0.1155,-2.592529296875,5.495361328125,-1.951904296875
0.116,-1.431396484375,5.775634765625,-3.393310546875
0.1165,-0.390380859375,5.735595703125,-4.434326171875
0.117,0.410400390625,5.775634765625,-5.235107421875
0.1175,1.291259765625,5.455322265625,-5.835693359375
0.118,2.532470703125,4.534423828125,-6.356201171875
0.1185,3.773681640625,3.413330078125,-6.716552734375
0.119,4.694580078125,2.252197265625,-6.756591796875
0.1195,5.215087890625,1.211181640625,-6.556396484375
0.12,5.415283203125,0.370361328125,-6.276123046875
0.1205,5.415283203125,-0.670654296875,-5.635498046875
0.121,5.255126953125,-1.831787109375,-4.554443359375
0.1215,5.094970703125,-3.072998046875,-3.553466796875
0.122,4.894775390625,-4.033935546875,-2.432373046875
0.1225,4.534423828125,-4.834716796875,-1.511474609375
0.123,4.093994140625,-5.395263671875,-0.630615234375
0.1235,3.213134765625,-5.715576171875,0.570556640625
0.124,2.092041015625,-6.035888671875,1.891845703125
0.1245,0.970947265625,-6.196044921875,3.173095703125
0.125,0.090087890625,-6.276123046875,4.134033203125
0.1255,-0.670654296875,-6.356201171875,4.894775390625
0.126,-1.631591796875,-5.915771484375,5.575439453125
0.1265,-2.912841796875,-4.954833984375,6.055908203125
0.127,-4.033935546875,-3.953857421875,6.416259765625
0.1275,-4.834716796875,-2.872802734375,6.416259765625
0.128,-5.355224609375,-1.951904296875,6.296142578125
0.1285,-5.595458984375,-1.151123046875,5.935791015625
0.129,-5.595458984375,-0.270263671875,5.375244140625
0.1295,-5.595458984375,0.970947265625,4.414306640625
0.13,-5.435302734375,2.252197265625,3.373291015625
0.1305,-5.155029296875,3.253173828125,2.372314453125
0.131,-4.834716796875,4.013916015625,1.451416015625
0.1315,-4.274169921875,4.534423828125,0.490478515625
0.132,-3.393310546875,4.894775390625,-0.790771484375
0.1325,-2.432373046875,5.335205078125,-2.072021484375
0.133,-1.351318359375,5.455322265625,-3.233154296875
0.1335,-0.590576171875,5.615478515625,-4.154052734375
0.134,0.290283203125,5.575439453125,-4.954833984375
0.1345,1.291259765625,5.094970703125,-5.635498046875
0.135,2.572509765625,4.134033203125,-6.115966796875
0.1355,3.693603515625,3.133056640625,-6.396240234375
0.136,4.414306640625,2.052001953125,-6.356201171875
0.1365,4.854736328125,1.211181640625,-6.276123046875
0.137,5.054931640625,0.330322265625,-5.835693359375
0.1375,5.054931640625,-0.830810546875,-5.195068359375
0.138,5.054931640625,-1.871826171875,-4.274169921875
0.1385,4.934814453125,-3.032958984375,-3.273193359375
0.139,4.654541015625,-3.913818359375,-2.272216796875
0.1395,4.374267578125,-4.674560546875,-1.431396484375
0.14,3.773681640625,-5.155029296875,-0.510498046875
0.1405,2.812744140625,-5.555419921875,0.810791015625
0.141,1.851806640625,-5.915771484375,2.172119140625
0.1415,0.890869140625,-6.035888671875,3.173095703125
0.142,0.170166015625,-6.196044921875,4.093994140625
0.1425,-0.790771484375,-6.115966796875,4.894775390625
0.143,-1.951904296875,-5.435302734375,5.495361328125
0.1435,-3.153076171875,-4.514404296875,6.015869140625
0.144,-4.154052734375,-3.473388671875,6.135986328125
0.1445,-4.834716796875,-2.552490234375,6.135986328125
0.145,-5.155029296875,-1.751708984375,6.015869140625
0.1455,-5.275146484375,-0.910888671875,5.415283203125
0.146,-5.275146484375,0.290283203125,4.774658203125
0.1465,-5.355224609375,1.451416015625,3.853759765625
0.147,-5.155029296875,2.492431640625,2.892822265625
0.1475,-4.874755859375,3.333251953125,1.971923828125
0.148,-4.514404296875,4.013916015625,1.131103515625
0.1485,-3.833740234375,4.494384765625,0.130126953125
0.149,-2.912841796875,4.934814453125,-1.271240234375
0.1495,-1.951904296875,5.215087890625,-2.512451171875
0.15,-1.151123046875,5.375244140625,-3.473388671875
0.1505,-0.430419921875,5.495361328125,-4.314208984375
0.151,0.650634765625,5.215087890625,-5.074951171875
0.1515,1.851806640625,4.494384765625,-5.635498046875
0.152,3.012939453125,3.573486328125,-6.115966796875
0.1525,3.853759765625,2.532470703125,-6.196044921875
0.153,4.454345703125,1.611572265625,-6.156005859375
0.1535,4.774658203125,0.850830078125,-5.995849609375
0.154,4.854736328125,0.010009765625,-5.435302734375
0.1545,4.894775390625,-1.191162109375,-4.674560546875
0.155,4.894775390625,-2.352294921875,-3.753662109375
0.1555,4.734619140625,-3.353271484375,-2.792724609375
0.156,4.494384765625,-4.154052734375,-1.951904296875
0.1565,4.013916015625,-4.754638671875,-1.031005859375
0.157,3.253173828125,-5.195068359375,0.170166015625
0.1575,2.372314453125,-5.715576171875,1.451416015625
0.158,1.411376953125,-5.915771484375,2.572509765625
0.1585,0.610595703125,-6.115966796875,3.573486328125
0.159,-0.230224609375,-6.196044921875,4.454345703125
0.1595,-1.271240234375,-5.755615234375,5.135009765625
0.16,-2.552490234375,-4.874755859375,5.695556640625
0.1605,-3.713623046875,-3.953857421875,6.055908203125
0.161,-4.474365234375,-2.952880859375,6.095947265625
0.1615,-4.954833984375,-2.112060546875,6.015869140625
0.162,-5.195068359375,-1.271240234375,5.695556640625
0.1625,-5.275146484375,-0.310302734375,5.094970703125
0.163,-5.315185546875,0.970947265625,4.214111328125
0.1635,-5.235107421875,2.092041015625,3.253173828125
0.164,-4.994873046875,3.012939453125,2.332275390625
0.1645,-4.754638671875,3.813720703125,1.451416015625
0.165,-4.154052734375,4.294189453125,0.490478515625
0.1655,-3.193115234375,4.734619140625,-0.830810546875
0.166,-2.312255859375,5.175048828125,-2.152099609375
0.1665,-1.351318359375,5.375244140625,-3.193115234375
0.167,-0.630615234375,5.495361328125,-4.114013671875
0.1675,0.330322265625,5.415283203125,-4.914794921875
0.168,1.491455078125,4.734619140625,-5.595458984375
0.1685,2.732666015625,3.773681640625,-6.035888671875
0.169,3.773681640625,2.692626953125,-6.276123046875
0.1695,4.334228515625,1.691650390625,-6.196044921875
0.17,4.814697265625,1.010986328125,-6.115966796875
0.1705,4.894775390625,0.090087890625,-5.555419921875
0.171,4.934814453125,-1.111083984375,-4.754638671875
0.1715,4.974853515625,-2.272216796875,-3.873779296875
0.172,4.814697265625,-3.353271484375,-2.872802734375
0.1725,4.534423828125,-4.194091796875,-1.951904296875
0.173,4.134033203125,-4.834716796875,-1.071044921875
0.1735,3.413330078125,-5.275146484375,0.050048828125
0.174,2.452392578125,-5.715576171875,1.371337890625
0.1745,1.371337890625,-5.955810546875,2.692626953125
0.175,0.570556640625,-6.115966796875,3.653564453125
0.1755,-0.270263671875,-6.276123046875,4.494384765625
0.176,-1.271240234375,-5.835693359375,5.215087890625
0.1765,-2.592529296875,-4.994873046875,5.775634765625
0.177,-3.793701171875,-3.993896484375,6.216064453125
0.1775,-4.674560546875,-2.992919921875,6.216064453125
0.178,-5.155029296875,-1.951904296875,6.176025390625
0.1785,-5.435302734375,-1.151123046875,5.895751953125
0.179,-5.435302734375,-0.230224609375,5.255126953125
0.1795,-5.435302734375,1.091064453125,4.294189453125
0.18,-5.395263671875,2.332275390625,3.253173828125
0.1805,-5.114990234375,3.293212890625,2.252197265625
0.181,-4.794677734375,4.013916015625,1.291259765625
0.1815,-4.194091796875,4.494384765625,0.370361328125
0.182,-3.233154296875,4.894775390625,-0.950927734375
0.1825,-2.232177734375,5.335205078125,-2.312255859375
0.183,-1.151123046875,5.455322265625,-3.473388671875
0.1835,-0.430419921875,5.615478515625,-4.354248046875
0.184,0.490478515625,5.535400390625,-5.114990234375
0.1845,1.571533203125,4.854736328125,-5.755615234375
0.185,2.932861328125,3.813720703125,-6.276123046875
0.1855,4.013916015625,2.692626953125,-6.516357421875
0.186,4.694580078125,1.731689453125,-6.396240234375
0.1865,5.094970703125,0.890869140625,-6.276123046875
0.187,5.135009765625,0.010009765625,-5.755615234375
0.1875,5.094970703125,-1.231201171875,-4.874755859375
0.188,5.094970703125,-2.432373046875,-3.873779296875
