wavelength,x,y,z
0.0,-0.350341796875,5.054931640625,-3.913818359375
0.0005,0.530517578125,5.054931640625,-4.794677734375
0.001,1.491455078125,4.894775390625,-5.755615234375
0.0015,2.852783203125,3.813720703125,-6.236083984375
0.002,3.773681640625,2.732666015625,-6.236083984375
0.0025,4.414306640625,1.411376953125,-5.835693359375
0.003,4.774658203125,0.610595703125,-5.635498046875
0.0035,5.014892578125,-0.350341796875,-5.355224609375
0.004,5.415283203125,-1.231201171875,-5.195068359375
0.0045,5.215087890625,-2.552490234375,-3.913818359375
0.005,4.614501953125,-3.553466796875,-2.552490234375
0.0055,4.214111328125,-4.234130859375,-1.591552734375
0.006,3.893798828125,-4.914794921875,-0.790771484375
0.0065,3.533447265625,-5.595458984375,0.250244140625
0.007,2.572509765625,-6.035888671875,1.571533203125
0.0075,1.411376953125,-6.075927734375,2.692626953125
0.008,0.250244140625,-5.755615234375,3.613525390625
0.0085,-0.590576171875,-5.795654296875,4.334228515625
0.009,-1.471435546875,-5.635498046875,5.135009765625
0.0095,-2.432373046875,-5.515380859375,6.095947265625
0.01,-3.873779296875,-3.953857421875,6.336181640625
0.0105,-4.674560546875,-2.632568359375,6.055908203125
0.011,-5.114990234375,-1.591552734375,5.735595703125
0.0115,-5.395263671875,-0.790771484375,5.455322265625
0.012,-5.715576171875,0.210205078125,5.215087890625
0.0125,-5.875732421875,1.411376953125,4.494384765625
0.013,-5.715576171875,2.532470703125,3.373291015625
0.0135,-4.914794921875,3.453369140625,1.931884765625
0.014,-4.514404296875,4.093994140625,1.010986328125
0.0145,-4.073974609375,4.734619140625,0.130126953125
0.015,-3.753662109375,5.415283203125,-0.910888671875
0.0155,-2.272216796875,5.615478515625,-2.472412109375
0.016,-1.031005859375,5.455322265625,-3.553466796875
0.0165,0.010009765625,5.175048828125,-4.354248046875
0.017,0.730712890625,5.175048828125,-5.114990234375
0.0175,1.771728515625,4.854736328125,-5.955810546875
0.018,2.932861328125,4.294189453125,-6.716552734375
0.0185,4.134033203125,2.852783203125,-6.756591796875
0.019,4.854736328125,1.331298828125,-6.276123046875
0.0195,5.135009765625,0.370361328125,-5.915771484375
0.02,5.415283203125,-0.590576171875,-5.595458984375
0.0205,5.735595703125,-1.471435546875,-5.315185546875
0.021,5.455322265625,-2.912841796875,-3.833740234375
0.0215,5.135009765625,-4.033935546875,-2.712646484375
0.022,4.494384765625,-4.754638671875,-1.431396484375
0.0225,4.013916015625,-5.395263671875,-0.590576171875
0.023,3.493408203125,-5.915771484375,0.530517578125
0.0235,2.852783203125,-6.516357421875,1.611572265625
0.024,1.291259765625,-6.516357421875,3.133056640625
0.0245,0.010009765625,-6.156005859375,4.134033203125
0.025,-0.910888671875,-6.035888671875,4.814697265625
0.0255,-1.791748046875,-5.835693359375,5.575439453125
0.026,-2.872802734375,-5.435302734375,6.456298828125
0.0265,-4.354248046875,-4.073974609375,6.856689453125
0.027,-5.195068359375,-2.792724609375,6.736572265625
0.0275,-5.635498046875,-1.391357421875,6.135986328125
0.028,-5.915771484375,-0.550537109375,5.815673828125
0.0285,-6.075927734375,0.530517578125,5.335205078125
0.029,-6.396240234375,1.571533203125,4.974853515625
0.0295,-5.955810546875,3.012939453125,3.333251953125
0.03,-5.275146484375,4.053955078125,1.851806640625
0.0305,-4.634521484375,4.614501953125,0.770751953125
0.031,-4.154052734375,5.135009765625,-0.270263671875
0.0315,-3.553466796875,5.735595703125,-1.311279296875
0.032,-2.272216796875,6.095947265625,-2.832763671875
0.0325,-0.990966796875,6.015869140625,-3.993896484375
0.033,0.410400390625,5.455322265625,-4.834716796875
0.0335,1.051025390625,5.335205078125,-5.515380859375
0.034,2.052001953125,4.974853515625,-6.276123046875
0.0345,3.133056640625,4.614501953125,-7.076904296875
0.035,4.534423828125,2.852783203125,-7.197021484375
0.0355,5.295166015625,1.331298828125,-6.756591796875
0.036,5.575439453125,0.250244140625,-6.196044921875
0.0365,5.735595703125,-0.750732421875,-5.795654296875
0.037,5.895751953125,-1.671630859375,-5.195068359375
0.0375,5.895751953125,-3.072998046875,-4.274169921875
0.038,5.495361328125,-4.274169921875,-2.952880859375
0.0385,4.694580078125,-5.114990234375,-1.391357421875
0.039,4.093994140625,-5.635498046875,-0.390380859375
0.0395,3.533447265625,-6.115966796875,0.610595703125
0.04,3.052978515625,-6.756591796875,1.571533203125
0.0405,1.291259765625,-6.756591796875,3.333251953125
0.041,0.010009765625,-6.556396484375,4.414306640625
0.0415,-1.151123046875,-6.236083984375,5.054931640625
0.042,-1.791748046875,-5.955810546875,5.735595703125
0.0425,-2.912841796875,-5.475341796875,6.456298828125
0.043,-4.073974609375,-4.714599609375,7.096923828125
0.0435,-5.275146484375,-3.193115234375,7.056884765625
0.044,-5.795654296875,-1.591552734375,6.416259765625
0.0445,-6.075927734375,-0.630615234375,5.975830078125
0.045,-6.156005859375,0.330322265625,5.495361328125
0.0455,-6.396240234375,1.291259765625,5.135009765625
0.046,-6.115966796875,2.812744140625,3.653564453125
0.0465,-5.635498046875,3.853759765625,2.412353515625
0.047,-4.834716796875,4.534423828125,1.051025390625
0.0475,-4.354248046875,5.094970703125,0.130126953125
0.048,-3.713623046875,5.575439453125,-0.990966796875
0.0485,-3.193115234375,6.135986328125,-1.991943359375
0.049,-1.471435546875,6.055908203125,-3.553466796875
0.0495,0.090087890625,5.615478515625,-4.674560546875
0.05,0.890869140625,5.415283203125,-5.275146484375
0.0505,1.611572265625,5.255126953125,-5.995849609375
0.051,2.732666015625,4.814697265625,-6.876708984375
0.0515,4.174072265625,3.533447265625,-7.237060546875
0.052,5.014892578125,2.212158203125,-7.076904296875
0.0525,5.495361328125,0.730712890625,-6.396240234375
0.053,5.735595703125,-0.310302734375,-6.075927734375
0.0535,5.855712890625,-1.271240234375,-5.555419921875
0.054,6.135986328125,-2.232177734375,-5.155029296875
0.0545,5.695556640625,-3.713623046875,-3.553466796875
0.055,5.054931640625,-4.794677734375,-1.991943359375
0.0555,4.334228515625,-5.395263671875,-0.870849609375
0.056,3.853759765625,-5.915771484375,0.090087890625
0.0565,3.173095703125,-6.516357421875,1.211181640625
0.057,2.092041015625,-6.916748046875,2.532470703125
0.0575,0.770751953125,-6.756591796875,3.813720703125
0.058,-0.710693359375,-6.236083984375,4.734619140625
0.0585,-1.431396484375,-6.115966796875,5.415283203125
0.059,-2.392333984375,-5.755615234375,6.135986328125
0.0595,-3.393310546875,-5.435302734375,7.056884765625
0.06,-4.954833984375,-3.673583984375,7.096923828125
0.0605,-5.715576171875,-2.192138671875,6.696533203125
0.061,-6.035888671875,-0.990966796875,6.216064453125
0.0615,-6.236083984375,0.010009765625,5.855712890625
0.062,-6.396240234375,0.970947265625,5.335205078125
0.0625,-6.436279296875,2.292236328125,4.414306640625
0.063,-6.035888671875,3.533447265625,3.052978515625
0.0635,-5.155029296875,4.494384765625,1.371337890625
0.064,-4.554443359375,5.014892578125,0.370361328125
0.0645,-3.913818359375,5.575439453125,-0.630615234375
0.065,-3.513427734375,6.135986328125,-1.631591796875
0.0655,-1.831787109375,6.176025390625,-3.393310546875
0.066,-0.470458984375,5.975830078125,-4.514404296875
0.0665,0.730712890625,5.535400390625,-5.195068359375
0.067,1.451416015625,5.415283203125,-5.915771484375
0.0675,2.492431640625,4.894775390625,-6.596435546875
0.068,3.653564453125,4.214111328125,-7.317138671875
0.0685,4.854736328125,2.612548828125,-7.237060546875
0.069,5.495361328125,0.970947265625,-6.556396484375
0.0695,5.735595703125,-0.150146484375,-6.115966796875
0.07,5.855712890625,-1.031005859375,-5.675537109375
0.0705,6.095947265625,-1.991943359375,-5.275146484375
0.071,5.775634765625,-3.473388671875,-3.833740234375
0.0715,5.335205078125,-4.514404296875,-2.552490234375
0.072,4.494384765625,-5.195068359375,-1.191162109375
0.0725,4.093994140625,-5.715576171875,-0.270263671875
0.073,3.333251953125,-6.276123046875,0.810791015625
0.0735,2.852783203125,-6.836669921875,1.771728515625
0.074,1.171142578125,-6.676513671875,3.333251953125
0.0745,-0.390380859375,-6.236083984375,4.414306640625
0.075,-1.151123046875,-5.995849609375,5.014892578125
0.0755,-1.911865234375,-5.835693359375,5.695556640625
0.076,-2.952880859375,-5.475341796875,6.536376953125
0.0765,-4.234130859375,-4.274169921875,6.896728515625
0.077,-5.114990234375,-3.032958984375,6.776611328125
0.0775,-5.635498046875,-1.511474609375,6.135986328125
0.078,-5.915771484375,-0.630615234375,5.815673828125
0.0785,-6.035888671875,0.330322265625,5.415283203125
0.079,-6.356201171875,1.211181640625,5.175048828125
0.0795,-5.915771484375,2.612548828125,3.613525390625
0.08,-5.315185546875,3.653564453125,2.172119140625
0.0805,-4.634521484375,4.214111328125,0.970947265625
0.081,-4.274169921875,4.854736328125,0.170166015625
0.0815,-3.833740234375,5.455322265625,-0.790771484375
0.082,-2.832763671875,5.895751953125,-2.112060546875
0.0825,-1.551513671875,5.895751953125,-3.353271484375
0.083,0.010009765625,5.375244140625,-4.314208984375
0.0835,0.650634765625,5.335205078125,-4.994873046875
0.084,1.491455078125,5.135009765625,-5.755615234375
0.0845,2.412353515625,5.014892578125,-6.716552734375
0.085,3.853759765625,3.413330078125,-6.836669921875
0.0855,4.694580078125,2.052001953125,-6.556396484375
0.086,5.135009765625,0.850830078125,-6.156005859375
0.0865,5.455322265625,0.010009765625,-5.915771484375
0.087,5.655517578125,-1.031005859375,-5.555419921875
0.0875,5.815673828125,-2.152099609375,-4.874755859375
0.088,5.455322265625,-3.353271484375,-3.553466796875
0.0885,4.734619140625,-4.354248046875,-2.112060546875
0.089,4.254150390625,-4.994873046875,-1.071044921875
0.0895,3.773681640625,-5.635498046875,-0.270263671875
0.09,3.533447265625,-6.276123046875,0.770751953125
0.0905,2.092041015625,-6.436279296875,2.252197265625
0.091,0.810791015625,-6.276123046875,3.333251953125
0.0915,-0.350341796875,-5.915771484375,4.134033203125
0.092,-1.111083984375,-5.915771484375,4.934814453125
0.0925,-2.031982421875,-5.635498046875,5.735595703125
0.093,-3.072998046875,-5.275146484375,6.536376953125
0.0935,-4.314208984375,-3.793701171875,6.576416015625
0.094,-5.034912109375,-2.272216796875,6.095947265625
0.0945,-5.395263671875,-1.311279296875,5.775634765625
0.095,-5.675537109375,-0.510498046875,5.615478515625
0.0955,-5.995849609375,0.410400390625,5.375244140625
0.096,-5.835693359375,1.691650390625,4.214111328125
0.0965,-5.515380859375,2.692626953125,3.093017578125
0.097,-4.794677734375,3.533447265625,1.771728515625
0.0975,-4.434326171875,4.214111328125,0.850830078125
0.098,-4.033935546875,4.814697265625,0.010009765625
0.0985,-3.713623046875,5.575439453125,-0.990966796875
0.099,-2.272216796875,5.575439453125,-2.392333984375
0.0995,-0.950927734375,5.255126953125,-3.473388671875
0.1,0.010009765625,5.175048828125,-4.234130859375
0.1005,0.770751953125,5.175048828125,-5.074951171875
0.101,1.651611328125,4.974853515625,-5.915771484375
0.1015,2.892822265625,4.093994140625,-6.436279296875
0.102,3.853759765625,2.892822265625,-6.436279296875
0.1025,4.494384765625,1.451416015625,-5.955810546875
0.103,4.934814453125,0.610595703125,-5.795654296875
0.1035,5.175048828125,-0.310302734375,-5.515380859375
0.104,5.575439453125,-1.071044921875,-5.475341796875
0.1045,5.295166015625,-2.432373046875,-4.114013671875
0.105,4.854736328125,-3.433349609375,-2.872802734375
0.1055,4.294189453125,-4.194091796875,-1.791748046875
0.106,4.013916015625,-4.874755859375,-0.950927734375
0.1065,3.653564453125,-5.515380859375,0.050048828125
0.107,2.972900390625,-6.035888671875,1.131103515625
0.1075,1.771728515625,-6.115966796875,2.292236328125
0.108,0.450439453125,-5.755615234375,3.293212890625
0.1085,-0.350341796875,-5.755615234375,4.093994140625
0.109,-1.151123046875,-5.755615234375,4.934814453125
0.1095,-1.991943359375,-5.715576171875,5.895751953125
0.11,-3.393310546875,-4.394287109375,6.095947265625
0.1105,-4.234130859375,-3.153076171875,5.975830078125
0.111,-4.794677734375,-1.991943359375,5.575439453125
0.1115,-5.195068359375,-1.231201171875,5.575439453125
0.112,-5.515380859375,-0.390380859375,5.375244140625
0.1125,-5.755615234375,0.570556640625,4.974853515625
0.113,-5.515380859375,1.651611328125,3.893798828125
0.1135,-4.954833984375,2.612548828125,2.492431640625
0.114,-4.514404296875,3.413330078125,1.571533203125
0.1145,-4.234130859375,4.134033203125,0.730712890625
0.115,-4.154052734375,4.934814453125,0.010009765625
0.1155,-2.992919921875,5.175048828125,-1.431396484375
0.116,-1.951904296875,5.175048828125,-2.512451171875
0.1165,-0.830810546875,4.974853515625,-3.353271484375
0.117,0.010009765625,5.094970703125,-4.194091796875
0.1175,0.850830078125,5.014892578125,-5.074951171875
0.118,1.771728515625,4.854736328125,-5.955810546875
0.1185,2.932861328125,3.653564453125,-6.115966796875
0.119,3.693603515625,2.212158203125,-5.715576171875
0.1195,4.334228515625,1.291259765625,-5.635498046875
0.12,4.734619140625,0.490478515625,-5.515380859375
0.1205,5.135009765625,-0.390380859375,-5.555419921875
0.121,5.135009765625,-1.471435546875,-4.674560546875
0.1215,4.934814453125,-2.432373046875,-3.753662109375
0.122,4.414306640625,-3.273193359375,-2.552490234375
0.1225,4.134033203125,-4.073974609375,-1.671630859375
0.123,3.893798828125,-4.794677734375,-0.830810546875
0.1235,3.773681640625,-5.595458984375,0.010009765625
0.124,2.532470703125,-5.755615234375,1.291259765625
0.1245,1.331298828125,-5.595458984375,2.372314453125
0.125,0.490478515625,-5.635498046875,3.173095703125
0.1255,-0.350341796875,-5.755615234375,4.134033203125
0.126,-1.271240234375,-5.715576171875,5.094970703125
0.1265,-2.392333984375,-5.114990234375,5.695556640625
0.127,-3.353271484375,-3.953857421875,5.895751953125
0.1275,-4.114013671875,-2.712646484375,5.535400390625
0.128,-4.674560546875,-1.911865234375,5.495361328125
0.1285,-5.114990234375,-1.151123046875,5.415283203125
0.129,-5.595458984375,-0.430419921875,5.495361328125
0.1295,-5.435302734375,0.810791015625,4.334228515625
0.13,-5.114990234375,1.931884765625,3.253173828125
0.1305,-4.674560546875,2.732666015625,2.252197265625
0.131,-4.514404296875,3.573486328125,1.371337890625
0.1315,-4.234130859375,4.334228515625,0.530517578125
0.132,-3.713623046875,5.014892578125,-0.630615234375
0.1325,-2.712646484375,5.135009765625,-1.791748046875
0.133,-1.391357421875,4.934814453125,-2.832763671875
0.1335,-0.630615234375,5.054931640625,-3.673583984375
0.134,0.290283203125,5.094970703125,-4.594482421875
0.1345,1.171142578125,5.135009765625,-5.595458984375
0.135,2.532470703125,3.853759765625,-5.995849609375
0.1355,3.453369140625,2.732666015625,-5.915771484375
0.136,4.053955078125,1.651611328125,-5.635498046875
0.1365,4.574462890625,0.810791015625,-5.635498046875
0.137,4.934814453125,0.010009765625,-5.475341796875
0.1375,5.255126953125,-0.990966796875,-5.155029296875
0.138,5.094970703125,-2.072021484375,-4.154052734375
0.1385,4.534423828125,-3.153076171875,-2.792724609375
0.139,4.134033203125,-3.873779296875,-1.831787109375
0.1395,3.973876953125,-4.634521484375,-0.990966796875
0.14,3.813720703125,-5.395263671875,-0.190185546875
0.1405,2.692626953125,-5.755615234375,1.211181640625
0.141,1.651611328125,-5.755615234375,2.252197265625
0.1415,0.570556640625,-5.635498046875,3.173095703125
0.142,-0.270263671875,-5.715576171875,3.973876953125
0.1425,-1.151123046875,-5.635498046875,4.894775390625
0.143,-2.232177734375,-5.435302734375,5.815673828125
0.1435,-3.353271484375,-4.194091796875,6.015869140625
0.144,-4.194091796875,-2.792724609375,5.695556640625
0.1445,-4.754638671875,-1.871826171875,5.495361328125
0.145,-5.114990234375,-1.151123046875,5.415283203125
0.1455,-5.595458984375,-0.350341796875,5.375244140625
0.146,-5.555419921875,0.970947265625,4.494384765625
0.1465,-5.395263671875,1.931884765625,3.533447265625
0.147,-4.834716796875,2.852783203125,2.252197265625
0.1475,-4.474365234375,3.613525390625,1.331298828125
0.148,-4.114013671875,4.334228515625,0.490478515625
0.1485,-3.953857421875,5.094970703125,-0.430419921875
0.149,-2.632568359375,5.215087890625,-1.831787109375
0.1495,-1.391357421875,5.094970703125,-2.912841796875
0.15,-0.590576171875,5.054931640625,-3.713623046875
0.1505,0.290283203125,5.094970703125,-4.554443359375
0.151,1.331298828125,4.934814453125,-5.515380859375
0.1515,2.412353515625,4.214111328125,-6.115966796875
0.152,3.453369140625,3.133056640625,-6.236083984375
0.1525,4.134033203125,1.651611328125,-5.795654296875
0.153,4.614501953125,0.770751953125,-5.675537109375
0.1535,4.854736328125,-0.190185546875,-5.475341796875
0.154,5.415283203125,-0.870849609375,-5.435302734375
0.1545,5.175048828125,-2.232177734375,-4.154052734375
0.155,4.814697265625,-3.233154296875,-2.952880859375
0.1555,4.334228515625,-3.993896484375,-1.871826171875
0.156,4.013916015625,-4.634521484375,-0.990966796875
0.1565,3.693603515625,-5.395263671875,0.010009765625
0.157,3.012939453125,-5.955810546875,1.091064453125
0.1575,1.851806640625,-6.075927734375,2.252197265625
0.158,0.530517578125,-5.755615234375,3.293212890625
0.1585,-0.310302734375,-5.755615234375,4.093994140625
0.159,-1.231201171875,-5.715576171875,4.974853515625
0.1595,-2.112060546875,-5.635498046875,5.895751953125
0.16,-3.553466796875,-4.234130859375,6.216064453125
0.1605,-4.434326171875,-3.072998046875,6.095947265625
0.161,-4.954833984375,-1.911865234375,5.735595703125
0.1615,-5.435302734375,-1.191162109375,5.615478515625
0.162,-5.635498046875,-0.190185546875,5.335205078125
0.1625,-5.835693359375,0.930908203125,4.854736328125
0.163,-5.635498046875,2.092041015625,3.693603515625
0.1635,-4.994873046875,3.173095703125,2.212158203125
0.164,-4.434326171875,3.893798828125,1.251220703125
0.1645,-4.194091796875,4.494384765625,0.450439453125
0.165,-3.913818359375,5.215087890625,-0.590576171875
0.1655,-2.632568359375,5.455322265625,-2.031982421875
0.166,-1.471435546875,5.455322265625,-3.153076171875
0.1665,-0.350341796875,5.175048828125,-3.993896484375
0.167,0.490478515625,5.255126953125,-4.874755859375
0.1675,1.371337890625,5.014892578125,-5.635498046875
0.168,2.452392578125,4.654541015625,-6.516357421875
0.1685,3.813720703125,3.173095703125,-6.676513671875
0.169,4.614501953125,1.611572265625,-6.276123046875
0.1695,4.934814453125,0.570556640625,-5.955810546875
0.17,5.335205078125,-0.270263671875,-5.755615234375
0.1705,5.615478515625,-1.191162109375,-5.435302734375
0.171,5.575439453125,-2.552490234375,-4.274169921875
0.1715,5.295166015625,-3.673583984375,-3.113037109375
0.172,4.614501953125,-4.434326171875,-1.631591796875
0.1725,4.134033203125,-5.155029296875,-0.790771484375
0.173,3.653564453125,-5.755615234375,0.250244140625
0.1735,3.173095703125,-6.436279296875,1.211181640625
0.174,1.571533203125,-6.476318359375,2.852783203125
0.1745,0.250244140625,-6.156005859375,3.933837890625
0.175,-0.790771484375,-5.995849609375,4.694580078125
0.1755,-1.471435546875,-5.835693359375,5.415283203125
0.176,-2.672607421875,-5.435302734375,6.296142578125
0.1765,-3.993896484375,-4.514404296875,6.816650390625
0.177,-5.034912109375,-3.153076171875,6.776611328125
0.1775,-5.635498046875,-1.671630859375,6.095947265625
0.178,-5.875732421875,-0.630615234375,5.855712890625
0.1785,-6.035888671875,0.370361328125,5.415283203125
0.179,-6.356201171875,1.331298828125,5.054931640625
0.1795,-5.955810546875,2.892822265625,3.453369140625
0.18,-5.395263671875,3.973876953125,2.172119140625
0.1805,-4.714599609375,4.534423828125,0.890869140625
0.181,-4.194091796875,5.094970703125,0.010009765625
0.1815,-3.593505859375,5.615478515625,-1.151123046875
0.182,-2.592529296875,6.095947265625,-2.512451171875
0.1825,-1.191162109375,6.055908203125,-3.873779296875
0.183,0.290283203125,5.535400390625,-4.754638671875
0.1835,0.970947265625,5.375244140625,-5.395263671875
0.184,1.891845703125,5.054931640625,-6.115966796875
0.1845,2.972900390625,4.614501953125,-6.996826171875
0.185,4.414306640625,2.972900390625,-7.156982421875
0.1855,5.094970703125,1.651611328125,-6.756591796875
0.186,5.535400390625,0.370361328125,-6.236083984375
0.1865,5.735595703125,-0.670654296875,-5.915771484375
0.187,5.815673828125,-1.591552734375,-5.315185546875
0.1875,5.975830078125,-2.712646484375,-4.674560546875
0.188,5.535400390625,-3.993896484375,-3.193115234375
