wavelength,x,y,z
0.0,1.921875,-2.8427734375,7.8876953125
0.0005,0.6806640625,-2.2021484375,8.0478515625
0.001,-0.400390625,-0.8408203125,8.0478515625
0.0015,-2.2021484375,0.8408203125,8.48828125
0.002,-3.5634765625,2.9228515625,8.5283203125
0.0025,-4.5244140625,4.64453125,8.1279296875
0.003,-5.60546875,5.7255859375,8.5283203125
0.0035,-6.7265625,7.52734375,7.9677734375
0.004,-7.447265625,8.8486328125,7.20703125
0.0045,-8.408203125,10.5703125,6.166015625
0.005,-8.6884765625,11.4111328125,4.724609375
0.0055,-9.0888671875,11.8115234375,3.603515625
0.006,-9.529296875,12.33203125,2.2021484375
0.0065,-9.0087890625,12.3720703125,0.3603515625
0.007,-8.48828125,12.3720703125,-1.6015625
0.0075,-7.3671875,12.412109375,-4.0439453125
0.008,-5.92578125,11.53125,-5.3251953125
0.0085,-4.8447265625,11.05078125,-7.0869140625
0.009,-2.9228515625,9.9296875,-8.6484375
0.0095,-1.0810546875,8.2880859375,-9.5693359375
0.01,1.44140625,5.365234375,-10.890625
0.0105,3.4033203125,-7.0869140625,-11.69140625
0.011,4.32421875,-5.3251953125,-11.8916015625
0.0115,5.685546875,-4.3642578125,-12.8525390625
0.012,6.5263671875,-3.603515625,-12.2119140625
0.0125,7.2470703125,-3.0830078125,-11.37109375
0.013,8.1279296875,-2.9228515625,-9.9697265625
0.0135,8.16796875,-2.5625,-8.087890625
0.014,8.3681640625,-2.322265625,-6.9267578125
0.0145,8.6484375,-2.2822265625,-5.28515625
0.015,7.84765625,-1.921875,-2.8828125
0.0155,6.88671875,-1.7216796875,-0.3203125
0.016,5.28515625,-1.521484375,2.7626953125
0.0165,3.6435546875,-0.640625,4.3642578125
0.017,2.5625,-0.4404296875,6.0859375
0.0175,0.3603515625,0.640625,7.52734375
0.018,-2.1220703125,1.681640625,7.1669921875
0.0185,-5.205078125,3.0830078125,2.2421875
0.019,-7.7275390625,4.564453125,-11.5712890625
0.0195,-8.888671875,5.4853515625,-10.41015625
0.02,-10.810546875,6.3662109375,-9.3291015625
0.0205,-12.091796875,8.0078125,-8.7685546875
0.021,-12.8125,9.2490234375,-8.2080078125
0.0215,-13.8134765625,10.650390625,-7.7275390625
0.022,-13.61328125,11.0908203125,-7.4072265625
0.0225,-13.853515625,11.2109375,-6.966796875
0.023,-13.6533203125,11.69140625,-7.287109375
0.0235,-12.33203125,11.6513671875,-8.328125
0.024,-10.7705078125,11.53125,-10.0498046875
0.0245,-8.80859375,11.4912109375,-11.9716796875
0.025,-7.046875,10.73046875,-12.8125
0.0255,-5.8056640625,10.5703125,-13.9736328125
0.026,-3.3232421875,9.44921875,-14.8544921875
0.0265,-0.8408203125,7.8876953125,-15.3349609375
0.027,2.2822265625,6.0458984375,-15.8955078125
0.0275,4.6044921875,4.3642578125,-15.9755859375
0.028,5.685546875,3.123046875,-16.015625
0.0285,7.3671875,1.921875,-16.1357421875
0.029,8.328125,-0.1201171875,-15.375
0.0295,8.9287109375,-1.4814453125,-14.2939453125
0.03,9.609375,-3.1630859375,-12.8125
0.0305,9.2490234375,-3.7236328125,-11.4111328125
0.031,9.4091796875,-4.1240234375,-10.41015625
0.0315,8.96875,-4.7646484375,-8.568359375
0.032,7.84765625,-4.724609375,-6.326171875
0.0325,6.1259765625,-4.8447265625,-3.7236328125
0.033,4.244140625,-4.5244140625,-1.12109375
0.0335,2.7626953125,-3.8037109375,0.2001953125
0.034,1.4814453125,-3.5234375,2.0419921875
0.0345,-1.44140625,-1.9619140625,3.8037109375
0.035,-3.763671875,-0.240234375,4.6044921875
0.0355,-6.7666015625,1.76171875,5.7255859375
0.036,-8.8486328125,3.6435546875,5.8857421875
0.0365,-10.25,4.8046875,5.8857421875
0.037,-12.091796875,6.166015625,5.7255859375
0.0375,-13.3330078125,8.2880859375,4.4443359375
0.038,-13.9736328125,9.5693359375,3.04296875
0.0385,-14.8544921875,11.05078125,1.1611328125
0.039,-14.4140625,11.37109375,-0.6806640625
0.0395,-14.494140625,11.771484375,-1.8017578125
0.04,13.0927734375,12.1318359375,-4.0439453125
0.0405,12.8125,12.2119140625,-6.646484375
0.041,11.2109375,12.171875,-9.0888671875
0.0415,9.849609375,11.6513671875,9.9296875
0.042,8.7685546875,10.8505859375,9.529296875
0.0425,7.927734375,10.41015625,8.80859375
0.043,7.4873046875,8.6884765625,8.2880859375
0.0435,7.0869140625,6.88671875,8.0478515625
0.044,7.0869140625,5.125,7.84765625
0.0445,7.046875,3.4033203125,7.6875
0.045,7.046875,2.2021484375,7.6474609375
0.0455,7.3271484375,0.5205078125,7.3271484375
0.046,7.52734375,-1.681640625,7.4072265625
0.0465,7.5673828125,-2.8828125,7.8876953125
0.047,7.927734375,-4.5244140625,7.927734375
0.0475,7.7275390625,-4.9248046875,8.408203125
0.048,7.7275390625,-5.4052734375,8.4482421875
0.0485,7.287109375,-5.9658203125,9.9296875
0.049,6.5263671875,-5.8056640625,11.0107421875
0.0495,5.4853515625,-5.6455078125,12.5322265625
0.05,4.3642578125,-5.1650390625,14.25390625
0.0505,3.2431640625,-4.083984375,15.3349609375
0.051,1.921875,-3.283203125,16.9365234375
0.0515,0.0,-1.201171875,18.3779296875
0.052,-1.6015625,0.6806640625,18.7783203125
0.0525,-3.2431640625,2.3623046875,19.779296875
0.053,-4.564453125,4.1640625,19.859375
0.0535,-5.2451171875,5.4453125,19.37890625
0.054,-6.2861328125,7.046875,18.6982421875
0.0545,-7.0068359375,8.16796875,17.13671875
0.055,-7.3271484375,-1.361328125,15.6552734375
0.0555,-7.927734375,-0.720703125,13.9736328125
0.056,-7.6875,-0.16015625,11.931640625
0.0565,-7.6875,-0.3603515625,10.490234375
0.057,-6.7666015625,-1.0009765625,7.6474609375
0.0575,-5.6455078125,-1.6416015625,5.60546875
0.058,-4.3642578125,-2.1220703125,3.4033203125
0.0585,-2.802734375,-2.6025390625,1.361328125
0.059,-1.4013671875,-3.1630859375,0.2001953125
0.0595,0.2802734375,-3.5634765625,-1.201171875
0.06,2.001953125,-4.4443359375,-2.482421875
0.0605,2.6826171875,-5.125,-2.6826171875
0.061,3.763671875,-5.4453125,-3.5634765625
0.0615,3.8037109375,-6.40625,-3.4833984375
0.062,3.68359375,-7.046875,-3.1630859375
0.0625,3.3232421875,-8.248046875,-2.3623046875
0.063,1.76171875,-9.44921875,0.8408203125
0.0635,-4.8046875,-10.009765625,0.0
0.064,-11.53125,-11.0107421875,-0.640625
0.0645,-10.650390625,-11.130859375,-1.041015625
0.065,-9.609375,-11.3310546875,-1.28125
0.0655,-8.8486328125,-11.53125,-0.80078125
0.066,-8.1279296875,-11.130859375,-0.5205078125
0.0665,-7.447265625,-10.8505859375,0.3203125
0.067,-7.0869140625,-10.25,1.361328125
0.0675,-7.046875,-9.2490234375,2.40234375
0.068,-7.3271484375,-7.84765625,3.603515625
0.0685,-8.2080078125,-6.0458984375,4.8046875
0.069,-8.6884765625,-4.32421875,5.4853515625
0.0695,-9.369140625,-3.04296875,6.7265625
0.07,-9.6494140625,2.8828125,7.287109375
0.0705,-9.8095703125,1.9619140625,7.607421875
0.071,-10.0498046875,1.3212890625,7.287109375
0.0715,-9.8896484375,0.80078125,6.6064453125
0.072,-9.689453125,0.3203125,5.765625
0.0725,-9.609375,0.0,4.6845703125
0.073,-8.96875,-0.4404296875,3.04296875
0.0735,-8.3681640625,-0.5205078125,1.4013671875
0.074,-7.4873046875,-0.640625,-1.361328125
0.0745,-6.3662109375,-1.041015625,-3.123046875
0.075,-5.4052734375,-1.2412109375,-5.205078125
0.0755,-4.32421875,-1.8017578125,-7.287109375
0.076,-2.5625,-2.08203125,-8.3681640625
0.0765,-0.3603515625,-2.802734375,-9.849609375
0.077,2.0419921875,-3.7236328125,-10.890625
0.0775,3.4033203125,-4.3642578125,-10.73046875
0.078,5.4052734375,-4.884765625,-11.8115234375
0.0785,6.646484375,-5.845703125,-11.130859375
0.079,7.6875,-6.646484375,-10.4501953125
0.0795,8.80859375,-7.84765625,-9.1689453125
0.08,8.8486328125,-8.5283203125,-7.5673828125
0.0805,9.0087890625,-9.0087890625,-6.486328125
0.081,9.208984375,-9.6494140625,-5.1650390625
0.0815,8.2880859375,-9.849609375,-3.6435546875
0.082,7.4072265625,-10.169921875,-2.001953125
0.0825,5.8056640625,-10.3701171875,0.0
0.083,4.083984375,-9.8896484375,1.12109375
0.0835,3.0029296875,-9.1689453125,2.72265625
0.084,0.880859375,-9.2890625,3.9638671875
0.0845,-1.2412109375,-8.2880859375,4.96484375
0.085,-4.00390625,-6.88671875,6.0458984375
0.0855,-6.24609375,-5.0048828125,6.806640625
0.086,-7.4072265625,-3.68359375,7.1669921875
0.0865,-9.12890625,-2.72265625,7.9677734375
0.087,-10.1298828125,-0.8408203125,7.6875
0.0875,-10.970703125,0.640625,6.966796875
0.088,-12.01171875,2.5224609375,5.8056640625
0.0885,-11.931640625,3.2431640625,4.4443359375
0.089,-12.33203125,3.8037109375,3.283203125
0.0895,-12.3720703125,4.3642578125,1.6416015625
0.09,-11.4912109375,4.4443359375,-0.48046875
0.0905,-10.490234375,4.484375,-2.9228515625
0.091,-8.9287109375,4.5244140625,-5.765625
0.0915,-7.287109375,3.603515625,-7.4072265625
0.092,-6.2060546875,3.5634765625,-11.2509765625
0.0925,-4.00390625,2.482421875,9.3291015625
0.093,-1.8818359375,1.0009765625,8.4482421875
0.0935,1.3212890625,-0.7607421875,7.6875
0.094,3.68359375,-2.5625,7.3671875
0.0945,5.044921875,-3.7236328125,6.8466796875
0.095,6.966796875,-4.8447265625,6.7666015625
0.0955,8.328125,-6.6064453125,6.6865234375
0.096,9.2490234375,-8.2080078125,6.806640625
0.0965,10.41015625,-9.9697265625,8.6884765625
0.097,10.169921875,-10.650390625,7.1669921875
0.0975,10.490234375,-11.1708984375,7.046875
0.098,10.2099609375,-11.7314453125,7.52734375
0.0985,8.96875,-11.69140625,8.2880859375
0.099,7.52734375,13.693359375,9.849609375
0.0995,5.685546875,12.33203125,11.8115234375
0.1,4.1240234375,11.291015625,12.9326171875
0.1005,3.0029296875,10.2900390625,14.734375
0.101,0.6005859375,9.6494140625,16.3759765625
0.1015,-1.76171875,9.0087890625,17.216796875
0.102,-4.7646484375,8.6484375,18.177734375
0.1025,-6.7265625,8.2880859375,18.1376953125
0.103,-8.16796875,7.8876953125,18.017578125
0.1035,-10.009765625,7.84765625,17.9775390625
0.104,-11.1708984375,7.927734375,16.736328125
0.1045,-12.0517578125,8.6484375,15.455078125
0.105,-13.0927734375,8.3681640625,13.61328125
0.1055,-12.8125,8.2880859375,11.8115234375
0.106,-13.3330078125,8.3681640625,9.8095703125
0.1065,-12.7724609375,8.5283203125,3.68359375
0.107,-11.4111328125,8.408203125,-9.2490234375
0.1075,-9.9296875,8.4482421875,-7.3271484375
0.108,-8.0078125,8.2080078125,-5.765625
0.1085,-6.646484375,7.8076171875,-4.6845703125
0.109,-5.28515625,7.6875,-4.2041015625
0.1095,-2.6826171875,6.646484375,-4.244140625
0.11,-0.4404296875,5.60546875,-4.1640625
0.1105,2.6826171875,4.4443359375,-4.244140625
0.111,4.6044921875,3.2431640625,-3.603515625
0.1115,-5.4052734375,2.482421875,-3.0830078125
0.112,-5.525390625,1.28125,-2.322265625
0.1125,-4.96484375,0.400390625,-1.0009765625
0.113,-5.8056640625,-1.12109375,0.560546875
0.1135,-5.765625,-2.162109375,2.1220703125
0.114,-5.8056640625,-2.5224609375,3.3232421875
0.1145,-5.6455078125,-3.0029296875,3.9638671875
0.115,-5.6455078125,-3.4833984375,5.4052734375
0.1155,-5.765625,-3.5634765625,-7.1669921875
0.116,-6.0458984375,-3.7236328125,-7.84765625
0.1165,-6.40625,-3.4833984375,-8.087890625
0.117,-6.5263671875,-2.9228515625,-8.16796875
0.1175,-7.1669921875,-2.6025390625,-7.5673828125
0.118,-8.568359375,-1.2412109375,-6.8466796875
0.1185,-9.7294921875,0.2802734375,-5.92578125
0.119,-11.291015625,1.8818359375,-4.64453125
0.1195,-12.2119140625,3.04296875,-3.763671875
0.12,-13.0126953125,3.763671875,-2.802734375
0.1205,-13.0126953125,4.8046875,-2.1220703125
0.121,-14.25390625,5.8857421875,-2.001953125
0.1215,-14.494140625,6.4462890625,-2.08203125
0.122,-14.8544921875,7.046875,-2.6025390625
0.1225,-14.494140625,6.8466796875,-3.443359375
0.123,-14.4140625,6.9267578125,-4.32421875
0.1235,-13.533203125,6.7265625,-6.2861328125
0.124,-12.5322265625,5.8857421875,-8.087890625
0.1245,-11.2509765625,4.484375,-10.330078125
0.125,-9.6494140625,-1.361328125,-12.5322265625
0.1255,-8.2880859375,-8.888671875,-13.7333984375
0.126,-6.4462890625,-7.6474609375,-15.4150390625
0.1265,-3.5634765625,-6.7265625,-16.736328125
0.127,-1.681640625,-5.92578125,-17.0166015625
0.1275,1.041015625,-5.205078125,-17.9775390625
0.128,2.72265625,-4.884765625,-17.7373046875
0.1285,3.84375,-4.7646484375,-17.3369140625
0.129,5.365234375,-4.96484375,-16.576171875
0.1295,6.0859375,-5.205078125,-14.974609375
0.13,6.0859375,-5.28515625,-13.61328125
0.1305,6.6865234375,-5.525390625,-12.412109375
0.131,5.7255859375,-5.2451171875,-11.611328125
0.1315,5.4853515625,-5.125,-13.453125
0.132,3.9638671875,-4.96484375,6.326171875
0.1325,2.40234375,-4.4443359375,3.9638671875
0.133,0.7607421875,-4.1240234375,2.6025390625
0.1335,-1.28125,-3.4033203125,1.841796875
0.134,-3.1630859375,-2.6025390625,1.201171875
0.1345,-5.4453125,-1.681640625,0.9609375
0.135,-8.48828125,-0.400390625,0.7607421875
0.1355,-10.2900390625,1.12109375,0.6005859375
0.136,-12.6123046875,2.162109375,0.7607421875
0.1365,-14.0537109375,3.8037109375,0.640625
0.137,-15.0947265625,4.8046875,0.3203125
0.1375,-16.3759765625,6.5263671875,-0.2802734375
0.138,-16.9765625,7.9677734375,-1.2412109375
0.1385,-16.9765625,8.80859375,-2.1220703125
0.139,-17.5771484375,9.849609375,-3.283203125
0.1395,-16.6962890625,9.9296875,-4.8447265625
0.14,-16.3359375,10.169921875,-6.2060546875
0.1405,-14.814453125,10.4501953125,-8.5283203125
0.141,-13.1328125,9.7294921875,-10.009765625
0.1415,-11.53125,9.4892578125,-11.771484375
0.142,8.6884765625,8.80859375,-13.3330078125
0.1425,9.0087890625,7.52734375,-14.4140625
0.143,7.046875,6.1259765625,-15.775390625
0.1435,6.326171875,4.2041015625,-16.65625
0.144,5.125,2.40234375,-16.81640625
0.1445,4.5244140625,1.4013671875,-17.697265625
0.145,3.68359375,-0.48046875,-17.376953125
0.1455,3.1630859375,-1.7216796875,-16.8564453125
0.146,2.802734375,-3.6435546875,15.8154296875
0.1465,2.40234375,-4.6845703125,14.89453125
0.147,2.1220703125,-5.205078125,12.251953125
0.1475,1.921875,-6.1259765625,10.3701171875
0.148,1.2412109375,-6.24609375,9.0087890625
0.1485,0.6806640625,-6.5263671875,8.087890625
0.149,-0.3203125,-6.806640625,8.0478515625
0.1495,-1.1611328125,-6.0458984375,7.84765625
0.15,-2.08203125,-6.0458984375,8.328125
0.1505,-3.1630859375,-5.28515625,8.96875
0.151,-4.244140625,-4.0439453125,9.2490234375
0.1515,-5.6455078125,-2.3623046875,9.7294921875
0.152,-6.8466796875,-0.3603515625,9.8896484375
0.1525,-7.4072265625,1.44140625,9.529296875
0.153,-8.5283203125,-2.482421875,10.0498046875
0.1535,-9.208984375,-2.642578125,9.529296875
0.154,-9.689453125,-2.9228515625,8.8486328125
0.1545,-10.1298828125,-3.36328125,7.6474609375
0.155,18.1376953125,-3.6435546875,6.24609375
0.1555,15.9755859375,-3.84375,5.0849609375
0.156,14.654296875,-3.8837890625,3.6435546875
0.1565,13.693359375,-3.923828125,1.5615234375
0.157,12.6923828125,-3.8837890625,-0.48046875
0.1575,11.931640625,-3.8037109375,-3.203125
0.158,11.3310546875,-4.0439453125,-4.64453125
0.1585,10.6103515625,-3.923828125,-6.2861328125
0.159,10.25,-4.2041015625,-7.9677734375
0.1595,10.2900390625,-4.724609375,-8.8486328125
0.16,10.6103515625,-5.4853515625,-10.0498046875
0.1605,10.9306640625,-6.40625,-10.7705078125
0.161,11.0107421875,-6.966796875,-10.7705078125
0.1615,11.451171875,-7.4072265625,-11.611328125
0.162,11.69140625,-8.568359375,-10.890625
0.1625,12.171875,-9.529296875,-9.9697265625
0.163,12.4921875,-10.890625,-8.3681640625
0.1635,12.4521484375,-11.451171875,-6.4462890625
0.164,12.572265625,-11.8115234375,-5.3251953125
0.1645,12.6123046875,-12.412109375,-3.603515625
0.165,11.9716796875,-12.4521484375,-1.0009765625
0.1655,11.1708984375,-12.65234375,1.5615234375
0.166,9.9697265625,-12.6923828125,4.484375
0.1665,8.6884765625,-11.931640625,5.525390625
0.167,7.84765625,-11.8916015625,4.8046875
0.1675,6.0458984375,-10.890625,-10.4501953125
0.168,4.2841796875,-9.4091796875,-9.8896484375
0.1685,2.0419921875,-7.6474609375,-9.3291015625
0.169,0.48046875,-5.60546875,-8.80859375
0.1695,-0.48046875,-4.3642578125,-8.2080078125
0.17,-1.7216796875,-3.3232421875,-7.4072265625
0.1705,-2.482421875,-1.1611328125,-7.0068359375
0.171,-3.2431640625,0.16015625,-6.88671875
0.1715,-4.083984375,1.8818359375,-7.0068359375
0.172,-4.083984375,2.40234375,-7.3671875
0.1725,-4.404296875,2.642578125,-7.447265625
0.173,-4.2841796875,3.2431640625,-8.2080078125
0.1735,-3.4033203125,3.2431640625,-9.44921875
0.174,-2.322265625,3.283203125,-11.2509765625
0.1745,-0.6005859375,3.1630859375,-13.6533203125
0.175,1.0810546875,2.2421875,-14.8544921875
0.1755,2.0419921875,2.0419921875,-16.3759765625
0.176,4.404296875,0.7607421875,-17.8974609375
0.1765,6.166015625,-1.0810546875,-18.578125
0.177,8.2080078125,-2.962890625,-19.37890625
0.1775,9.44921875,-4.96484375,-19.619140625
0.178,9.9697265625,-6.2060546875,-19.458984375
0.1785,10.73046875,-7.6474609375,-19.5791015625
0.179,11.3310546875,-9.8896484375,-18.2978515625
0.1795,11.53125,-11.2509765625,-17.13671875
0.18,11.8115234375,-13.1328125,-15.3349609375
0.1805,11.4111328125,-13.7734375,-13.453125
0.181,11.05078125,-14.09375,-12.251953125
0.1815,10.169921875,-14.7744140625,-9.8896484375
0.182,8.4482421875,-14.7744140625,-7.1669921875
0.1825,5.8857421875,-14.654296875,5.4052734375
0.183,-4.724609375,-14.4140625,3.1630859375
0.1835,-7.5673828125,-13.3330078125,1.681640625
0.184,-6.24609375,-12.892578125,0.9208984375
0.1845,-5.3251953125,-11.05078125,0.6005859375
0.185,-4.244140625,-9.12890625,0.0400390625
0.1855,-3.7236328125,-7.0869140625,0.0
0.186,-3.283203125,-5.1650390625,-0.2001953125
0.1865,-2.08203125,-3.5634765625,-0.5205078125
0.187,-2.72265625,-2.1220703125,-0.640625
0.1875,-2.5224609375,0.400390625,-1.5615234375
0.188,-2.001953125,1.6015625,-2.4423828125
0.1885,-1.7216796875,3.443359375,-3.6435546875
0.189,-1.0810546875,3.9638671875,-4.96484375
0.1895,-0.48046875,4.32421875,-5.92578125
0.19,0.4404296875,4.96484375,-7.8876953125
0.1905,1.4013671875,4.7646484375,-9.9296875
0.191,2.4423828125,4.3642578125,-11.7314453125
0.1915,3.603515625,4.00390625,-13.8134765625
0.192,4.6845703125,2.6826171875,-14.89453125
0.1925,5.7255859375,1.921875,-16.17578125
0.193,7.8876953125,-0.16015625,-17.45703125
0.1935,9.369140625,-2.1220703125,-18.0576171875
0.194,11.0107421875,-4.083984375,-18.7783203125
0.1945,12.4921875,-5.92578125,-19.3388671875
0.195,12.65234375,-7.6474609375,-18.73828125
0.1955,13.29296875,-9.12890625,-18.4580078125
0.196,13.693359375,-11.5712890625,-16.81640625
0.1965,13.61328125,-12.5322265625,16.0556640625
0.197,13.8134765625,-14.09375,14.5341796875
0.1975,13.4130859375,-14.6142578125,12.2919921875
0.198,12.97265625,-14.7744140625,10.3701171875
0.1985,12.171875,-15.4150390625,9.208984375
0.199,10.7705078125,16.7763671875,8.5283203125
0.1995,9.2890625,15.53515625,8.16796875
0.2,7.607421875,13.93359375,8.6083984375
0.2005,5.7255859375,12.8125,8.728515625
0.201,3.8837890625,11.69140625,9.0888671875
0.2015,0.80078125,11.05078125,9.609375
0.202,-1.0009765625,10.5703125,9.2490234375
0.2025,-2.72265625,10.2099609375,9.609375
0.203,-4.1240234375,9.849609375,9.2490234375
0.2035,6.1259765625,9.6494140625,8.6484375
0.204,7.6875,9.7294921875,8.0478515625
0.2045,7.6875,9.9296875,6.7265625
0.205,7.607421875,9.849609375,5.4052734375
0.2055,7.20703125,10.0498046875,4.083984375
0.206,6.966796875,9.8896484375,2.2021484375
0.2065,6.7265625,9.8896484375,0.6806640625
0.207,6.6865234375,10.009765625,-1.841796875
0.2075,6.646484375,9.7294921875,-3.84375
0.208,6.6064453125,9.3291015625,-5.4052734375
0.2085,6.7666015625,9.0087890625,-7.3671875
0.209,7.046875,8.16796875,-8.48828125
0.2095,7.447265625,7.3671875,-9.7294921875
0.21,8.2880859375,6.0859375,-10.970703125
0.2105,8.6884765625,4.7646484375,-11.2509765625
0.211,9.4091796875,3.84375,-12.1318359375
0.2115,10.0498046875,2.6826171875,-12.251953125
0.212,10.5302734375,1.4814453125,-11.8916015625
0.2125,11.2109375,0.4404296875,-11.05078125
0.213,11.771484375,-0.8408203125,-9.44921875
0.2135,11.8916015625,-1.3212890625,-7.8876953125
0.214,12.412109375,-2.322265625,-6.6064453125
0.2145,12.171875,-2.5625,-4.32421875
0.215,11.9716796875,-2.8427734375,-2.4423828125
0.2155,11.3310546875,-3.283203125,0.6005859375
0.216,10.2099609375,-3.04296875,2.8427734375
0.2165,9.208984375,-2.8427734375,4.2041015625
0.217,7.8876953125,-2.5625,-7.8876953125
0.2175,6.1259765625,-1.4013671875,-7.607421875
0.218,4.00390625,-0.2802734375,-7.3271484375
0.2185,1.3212890625,1.5615234375,-6.966796875
0.219,0.0,3.283203125,-6.806640625
0.2195,-1.76171875,4.1640625,-6.166015625
0.22,-3.123046875,5.4052734375,-5.8056640625
0.2205,-3.84375,6.8466796875,-5.4853515625
0.221,-4.7646484375,8.248046875,-5.4453125
0.2215,-5.3251953125,9.2490234375,-5.7255859375
0.222,-5.205078125,9.44921875,-6.166015625
0.2225,-5.845703125,10.169921875,-6.56640625
0.223,-5.0849609375,10.3701171875,-7.7275390625
0.2235,-4.3642578125,10.41015625,-8.96875
