wavelength,x,y,z
0.0,2.692626953125,-6.356201171875,1.491455078125
0.0005,1.331298828125,-6.556396484375,3.052978515625
0.001,0.010009765625,-6.596435546875,4.454345703125
0.0015,-0.990966796875,-6.596435546875,5.295166015625
0.002,-1.631591796875,-6.396240234375,6.015869140625
0.0025,-2.792724609375,-5.675537109375,6.536376953125
0.003,-4.234130859375,-4.314208984375,6.896728515625
0.0035,-5.355224609375,-3.032958984375,7.056884765625
0.004,-6.115966796875,-1.711669921875,6.856689453125
0.0045,-6.396240234375,-0.790771484375,6.536376953125
0.005,-6.356201171875,0.210205078125,5.935791015625
0.0055,-6.115966796875,1.291259765625,4.854736328125
0.006,-5.875732421875,2.692626953125,3.573486328125
0.0065,-5.595458984375,3.893798828125,2.252197265625
0.007,-5.155029296875,4.814697265625,1.131103515625
0.0075,-4.594482421875,5.375244140625,0.170166015625
0.008,-3.753662109375,5.615478515625,-0.910888671875
0.0085,-2.352294921875,5.695556640625,-2.352294921875
0.009,-1.071044921875,5.895751953125,-3.833740234375
0.0095,0.210205078125,5.775634765625,-5.034912109375
0.01,0.970947265625,5.775634765625,-5.755615234375
0.0105,1.771728515625,5.455322265625,-6.356201171875
0.011,2.892822265625,4.534423828125,-6.756591796875
0.0115,4.254150390625,3.173095703125,-7.036865234375
0.012,5.255126953125,1.891845703125,-7.036865234375
0.0125,5.775634765625,0.690673828125,-6.756591796875
0.013,5.895751953125,-0.230224609375,-6.396240234375
0.0135,5.775634765625,-1.151123046875,-5.715576171875
0.014,5.495361328125,-2.312255859375,-4.514404296875
0.0145,5.295166015625,-3.553466796875,-3.273193359375
0.015,4.974853515625,-4.714599609375,-1.991943359375
0.0155,4.534423828125,-5.475341796875,-0.990966796875
0.016,4.013916015625,-5.955810546875,-0.190185546875
0.0165,3.133056640625,-6.196044921875,0.930908203125
0.017,1.771728515625,-6.356201171875,2.332275390625
0.0175,0.490478515625,-6.476318359375,3.733642578125
0.018,-0.630615234375,-6.396240234375,4.774658203125
0.0185,-1.271240234375,-6.396240234375,5.455322265625
0.019,-2.112060546875,-5.955810546875,6.095947265625
0.0195,-3.353271484375,-4.914794921875,6.456298828125
0.02,-4.594482421875,-3.713623046875,6.736572265625
0.0205,-5.475341796875,-2.432373046875,6.696533203125
0.021,-5.995849609375,-1.391357421875,6.456298828125
0.0215,-6.115966796875,-0.630615234375,6.095947265625
0.022,-6.035888671875,0.410400390625,5.415283203125
0.0225,-5.755615234375,1.571533203125,4.294189453125
0.023,-5.635498046875,2.812744140625,3.173095703125
0.0235,-5.275146484375,3.893798828125,1.931884765625
0.024,-4.874755859375,4.614501953125,1.010986328125
0.0245,-4.314208984375,5.094970703125,0.090087890625
0.025,-3.273193359375,5.295166015625,-1.151123046875
0.0255,-2.072021484375,5.535400390625,-2.592529296875
0.026,-0.790771484375,5.695556640625,-3.913818359375
0.0265,0.210205078125,5.695556640625,-4.874755859375
0.027,0.850830078125,5.695556640625,-5.595458984375
0.0275,1.851806640625,5.094970703125,-6.156005859375
0.028,3.173095703125,3.973876953125,-6.556396484375
0.0285,4.294189453125,2.812744140625,-6.756591796875
0.029,5.094970703125,1.571533203125,-6.676513671875
0.0295,5.455322265625,0.690673828125,-6.476318359375
0.03,5.575439453125,-0.270263671875,-6.035888671875
0.0305,5.415283203125,-1.271240234375,-5.155029296875
0.031,5.215087890625,-2.472412109375,-4.033935546875
0.0315,5.054931640625,-3.713623046875,-2.872802734375
0.032,4.734619140625,-4.634521484375,-1.791748046875
0.0325,4.334228515625,-5.315185546875,-0.950927734375
0.033,3.653564453125,-5.715576171875,0.090087890625
0.0335,2.532470703125,-5.915771484375,1.251220703125
0.034,1.371337890625,-6.115966796875,2.692626953125
0.0345,0.210205078125,-6.115966796875,3.893798828125
0.035,-0.630615234375,-6.236083984375,4.734619140625
0.0355,-1.311279296875,-6.115966796875,5.415283203125
0.036,-2.432373046875,-5.435302734375,5.935791015625
0.0365,-3.713623046875,-4.274169921875,6.296142578125
0.037,-4.674560546875,-3.153076171875,6.456298828125
0.0375,-5.395263671875,-2.031982421875,6.336181640625
0.038,-5.635498046875,-1.271240234375,6.135986328125
0.0385,-5.715576171875,-0.430419921875,5.615478515625
0.039,-5.515380859375,0.690673828125,4.734619140625
0.0395,-5.395263671875,1.851806640625,3.733642578125
0.04,-5.155029296875,3.012939453125,2.532470703125
0.0405,-4.874755859375,3.813720703125,1.571533203125
0.041,-4.514404296875,4.454345703125,0.730712890625
0.0415,-3.833740234375,4.774658203125,-0.270263671875
0.042,-2.712646484375,5.054931640625,-1.511474609375
0.0425,-1.631591796875,5.335205078125,-2.872802734375
0.043,-0.630615234375,5.375244140625,-3.913818359375
0.0435,0.130126953125,5.495361328125,-4.714599609375
0.044,0.970947265625,5.255126953125,-5.395263671875
0.0445,2.052001953125,4.494384765625,-5.835693359375
0.045,3.253173828125,3.493408203125,-6.236083984375
0.0455,4.214111328125,2.332275390625,-6.356201171875
0.046,4.814697265625,1.411376953125,-6.276123046875
0.0465,5.054931640625,0.610595703125,-6.035888671875
0.047,5.094970703125,-0.310302734375,-5.515380859375
0.0475,4.974853515625,-1.311279296875,-4.634521484375
0.048,4.934814453125,-2.512451171875,-3.713623046875
0.0485,4.734619140625,-3.593505859375,-2.632568359375
0.049,4.494384765625,-4.394287109375,-1.791748046875
0.0495,4.013916015625,-4.994873046875,-0.990966796875
0.05,3.253173828125,-5.275146484375,0.210205078125
0.0505,2.292236328125,-5.635498046875,1.411376953125
0.051,1.211181640625,-5.835693359375,2.692626953125
0.0515,0.370361328125,-5.995849609375,3.693603515625
0.052,-0.350341796875,-6.115966796875,4.494384765625
0.0525,-1.311279296875,-5.755615234375,5.094970703125
0.053,-2.512451171875,-4.914794921875,5.615478515625
0.0535,-3.633544921875,-3.953857421875,5.975830078125
0.054,-4.514404296875,-2.872802734375,6.015869140625
0.0545,-5.034912109375,-1.991943359375,6.015869140625
0.055,-5.275146484375,-1.271240234375,5.775634765625
0.0555,-5.275146484375,-0.390380859375,5.175048828125
0.056,-5.235107421875,0.730712890625,4.374267578125
0.0565,-5.155029296875,1.851806640625,3.413330078125
0.057,-4.994873046875,2.852783203125,2.412353515625
0.0575,-4.754638671875,3.573486328125,1.571533203125
0.058,-4.234130859375,4.134033203125,0.730712890625
0.0585,-3.393310546875,4.494384765625,-0.470458984375
0.059,-2.512451171875,4.934814453125,-1.671630859375
0.0595,-1.471435546875,5.094970703125,-2.872802734375
0.06,-0.710693359375,5.295166015625,-3.833740234375
0.0605,0.090087890625,5.375244140625,-4.594482421875
0.061,1.051025390625,4.934814453125,-5.195068359375
0.0615,2.252197265625,4.053955078125,-5.715576171875
0.062,3.333251953125,3.052978515625,-6.035888671875
0.0625,4.134033203125,2.052001953125,-6.035888671875
0.063,4.534423828125,1.291259765625,-6.035888671875
0.0635,4.774658203125,0.530517578125,-5.675537109375
0.064,4.774658203125,-0.510498046875,-5.074951171875
0.0645,4.814697265625,-1.591552734375,-4.274169921875
0.065,4.734619140625,-2.752685546875,-3.313232421875
0.0655,4.494384765625,-3.673583984375,-2.432373046875
0.066,4.334228515625,-4.354248046875,-1.591552734375
0.0665,3.813720703125,-4.834716796875,-0.710693359375
0.067,2.852783203125,-5.195068359375,0.570556640625
0.0675,1.931884765625,-5.635498046875,1.811767578125
0.068,0.970947265625,-5.795654296875,2.932861328125
0.0685,0.290283203125,-6.035888671875,3.853759765625
0.069,-0.630615234375,-5.955810546875,4.614501953125
0.0695,-1.751708984375,-5.315185546875,5.215087890625
0.07,-2.912841796875,-4.474365234375,5.735595703125
0.0705,-3.953857421875,-3.393310546875,5.935791015625
0.071,-4.674560546875,-2.432373046875,5.975830078125
0.0715,-5.034912109375,-1.711669921875,5.815673828125
0.072,-5.155029296875,-0.910888671875,5.455322265625
0.0725,-5.114990234375,0.210205078125,4.654541015625
0.073,-5.195068359375,1.291259765625,3.853759765625
0.0735,-5.074951171875,2.412353515625,2.772705078125
0.074,-4.834716796875,3.333251953125,1.931884765625
0.0745,-4.514404296875,3.933837890625,1.131103515625
0.075,-3.793701171875,4.334228515625,0.130126953125
0.0755,-2.872802734375,4.774658203125,-1.231201171875
0.076,-1.791748046875,5.094970703125,-2.552490234375
0.0765,-0.990966796875,5.255126953125,-3.553466796875
0.077,-0.310302734375,5.415283203125,-4.394287109375
0.0775,0.770751953125,5.094970703125,-5.114990234375
0.078,1.971923828125,4.214111328125,-5.635498046875
0.0785,3.133056640625,3.293212890625,-6.035888671875
0.079,4.053955078125,2.212158203125,-6.075927734375
0.0795,4.574462890625,1.371337890625,-6.115966796875
0.08,4.814697265625,0.570556640625,-5.795654296875
0.0805,4.854736328125,-0.430419921875,-5.195068359375
0.081,4.814697265625,-1.551513671875,-4.354248046875
0.0815,4.774658203125,-2.752685546875,-3.393310546875
0.082,4.614501953125,-3.673583984375,-2.432373046875
0.0825,4.414306640625,-4.434326171875,-1.591552734375
0.083,3.853759765625,-4.954833984375,-0.710693359375
0.0835,2.932861328125,-5.275146484375,0.490478515625
0.084,1.971923828125,-5.635498046875,1.771728515625
0.0845,0.930908203125,-5.835693359375,3.012939453125
0.085,0.210205078125,-6.035888671875,3.893798828125
0.0855,-0.630615234375,-6.035888671875,4.694580078125
0.086,-1.671630859375,-5.475341796875,5.335205078125
0.0865,-2.952880859375,-4.474365234375,5.775634765625
0.087,-4.073974609375,-3.433349609375,6.095947265625
0.0875,-4.834716796875,-2.392333984375,6.055908203125
0.088,-5.195068359375,-1.631591796875,5.935791015625
0.0885,-5.315185546875,-0.830810546875,5.615478515625
0.089,-5.275146484375,0.290283203125,4.734619140625
0.0895,-5.275146484375,1.371337890625,3.853759765625
0.09,-5.155029296875,2.612548828125,2.772705078125
0.0905,-4.914794921875,3.493408203125,1.891845703125
0.091,-4.514404296875,4.134033203125,1.010986328125
0.0915,-3.873779296875,4.534423828125,0.130126953125
0.092,-2.832763671875,4.814697265625,-1.271240234375
0.0925,-1.831787109375,5.175048828125,-2.592529296875
0.093,-0.870849609375,5.335205078125,-3.673583984375
0.0935,-0.190185546875,5.495361328125,-4.514404296875
0.094,0.730712890625,5.255126953125,-5.195068359375
0.0945,1.931884765625,4.454345703125,-5.755615234375
0.095,3.173095703125,3.413330078125,-6.156005859375
0.0955,4.214111328125,2.252197265625,-6.276123046875
0.096,4.814697265625,1.331298828125,-6.236083984375
0.0965,5.054931640625,0.490478515625,-5.995849609375
0.097,5.094970703125,-0.470458984375,-5.475341796875
0.0975,4.974853515625,-1.591552734375,-4.514404296875
0.098,4.934814453125,-2.712646484375,-3.513427734375
0.0985,4.734619140625,-3.833740234375,-2.432373046875
0.099,4.494384765625,-4.634521484375,-1.551513671875
0.0995,3.973876953125,-5.155029296875,-0.710693359375
0.1,3.133056640625,-5.435302734375,0.450439453125
0.1005,2.011962890625,-5.755615234375,1.771728515625
0.101,0.890869140625,-5.955810546875,3.133056640625
0.1015,0.090087890625,-6.115966796875,4.093994140625
0.102,-0.670654296875,-6.115966796875,4.854736328125
0.1025,-1.671630859375,-5.715576171875,5.495361328125
0.103,-3.032958984375,-4.674560546875,5.975830078125
0.1035,-4.154052734375,-3.593505859375,6.296142578125
0.104,-5.034912109375,-2.432373046875,6.256103515625
0.1045,-5.475341796875,-1.591552734375,6.176025390625
0.105,-5.635498046875,-0.790771484375,5.775634765625
0.1055,-5.595458984375,0.290283203125,5.014892578125
0.106,-5.435302734375,1.571533203125,3.973876953125
0.1065,-5.395263671875,2.772705078125,2.852783203125
0.107,-5.074951171875,3.773681640625,1.811767578125
0.1075,-4.754638671875,4.454345703125,0.970947265625
0.108,-4.073974609375,4.814697265625,0.050048828125
0.1085,-2.912841796875,5.094970703125,-1.311279296875
0.109,-1.791748046875,5.415283203125,-2.792724609375
0.1095,-0.630615234375,5.575439453125,-4.033935546875
0.11,0.210205078125,5.615478515625,-4.914794921875
0.1105,0.970947265625,5.455322265625,-5.635498046875
0.111,2.092041015625,4.774658203125,-6.156005859375
0.1115,3.533447265625,3.493408203125,-6.596435546875
0.112,4.574462890625,2.292236328125,-6.756591796875
0.1125,5.255126953125,1.131103515625,-6.556396484375
0.113,5.495361328125,0.290283203125,-6.356201171875
0.1135,5.495361328125,-0.710693359375,-5.755615234375
0.114,5.375244140625,-1.951904296875,-4.634521484375
0.1145,5.215087890625,-3.233154296875,-3.433349609375
0.115,5.014892578125,-4.434326171875,-2.232177734375
0.1155,4.614501953125,-5.235107421875,-1.231201171875
0.116,4.134033203125,-5.755615234375,-0.350341796875
0.1165,3.213134765625,-5.995849609375,0.770751953125
0.117,1.851806640625,-6.196044921875,2.292236328125
0.1175,0.610595703125,-6.396240234375,3.773681640625
0.118,-0.510498046875,-6.396240234375,4.774658203125
0.1185,-1.191162109375,-6.396240234375,5.495361328125
0.119,-2.192138671875,-5.835693359375,6.135986328125
0.1195,-3.553466796875,-4.714599609375,6.576416015625
0.12,-4.834716796875,-3.433349609375,6.856689453125
0.1205,-5.715576171875,-2.232177734375,6.776611328125
0.121,-6.115966796875,-1.191162109375,6.536376953125
0.1215,-6.196044921875,-0.390380859375,6.055908203125
0.122,-6.035888671875,0.730712890625,5.255126953125
0.1225,-5.755615234375,2.092041015625,3.893798828125
0.123,-5.555419921875,3.333251953125,2.692626953125
0.1235,-5.195068359375,4.414306640625,1.451416015625
0.124,-4.754638671875,5.054931640625,0.570556640625
0.1245,-4.033935546875,5.415283203125,-0.470458984375
0.125,-2.912841796875,5.575439453125,-1.631591796875
0.1255,-1.551513671875,5.735595703125,-3.193115234375
0.126,-0.310302734375,5.855712890625,-4.514404296875
0.1265,0.610595703125,5.775634765625,-5.395263671875
0.127,1.291259765625,5.695556640625,-6.035888671875
0.1275,2.372314453125,4.934814453125,-6.556396484375
0.128,3.773681640625,3.613525390625,-6.876708984375
0.1285,4.894775390625,2.292236328125,-7.076904296875
0.129,5.615478515625,1.051025390625,-6.876708984375
0.1295,5.895751953125,0.130126953125,-6.596435546875
0.13,5.895751953125,-0.790771484375,-6.035888671875
0.1305,5.655517578125,-1.791748046875,-5.034912109375
0.131,5.415283203125,-3.193115234375,-3.713623046875
0.1315,5.135009765625,-4.394287109375,-2.432373046875
0.132,4.774658203125,-5.315185546875,-1.311279296875
0.1325,4.294189453125,-5.875732421875,-0.470458984375
0.133,3.453369140625,-6.156005859375,0.610595703125
0.1335,2.212158203125,-6.276123046875,1.931884765625
0.134,0.890869140625,-6.516357421875,3.493408203125
0.1345,-0.430419921875,-6.516357421875,4.694580078125
0.135,-1.151123046875,-6.436279296875,5.455322265625
0.1355,-1.911865234375,-6.236083984375,6.095947265625
0.136,-3.072998046875,-5.315185546875,6.576416015625
0.1365,-4.474365234375,-3.993896484375,6.856689453125
0.137,-5.515380859375,-2.712646484375,6.976806640625
0.1375,-6.115966796875,-1.551513671875,6.656494140625
0.138,-6.276123046875,-0.670654296875,6.376220703125
0.1385,-6.236083984375,0.330322265625,5.695556640625
0.139,-5.955810546875,1.531494140625,4.534423828125
0.1395,-5.755615234375,2.812744140625,3.293212890625
0.14,-5.435302734375,4.013916015625,1.971923828125
0.1405,-4.994873046875,4.814697265625,0.970947265625
0.141,-4.434326171875,5.295166015625,0.090087890625
0.1415,-3.553466796875,5.535400390625,-1.031005859375
0.142,-2.112060546875,5.735595703125,-2.552490234375
0.1425,-0.830810546875,5.895751953125,-4.033935546875
0.143,0.330322265625,5.815673828125,-5.114990234375
0.1435,0.970947265625,5.815673828125,-5.795654296875
0.144,1.891845703125,5.375244140625,-6.396240234375
0.1445,3.213134765625,4.214111328125,-6.836669921875
0.145,4.494384765625,2.892822265625,-7.076904296875
0.1455,5.375244140625,1.571533203125,-7.076904296875
0.146,5.895751953125,0.570556640625,-6.756591796875
0.1465,5.935791015625,-0.390380859375,-6.356201171875
0.147,5.775634765625,-1.431396484375,-5.515380859375
0.1475,5.535400390625,-2.712646484375,-4.194091796875
0.148,5.335205078125,-4.033935546875,-2.872802734375
0.1485,4.974853515625,-5.114990234375,-1.671630859375
0.149,4.494384765625,-5.795654296875,-0.710693359375
0.1495,3.853759765625,-6.196044921875,0.290283203125
0.15,2.732666015625,-6.356201171875,1.411376953125
0.1505,1.331298828125,-6.516357421875,3.012939453125
0.151,0.010009765625,-6.556396484375,4.454345703125
0.1515,-0.990966796875,-6.516357421875,5.335205078125
0.152,-1.631591796875,-6.396240234375,5.975830078125
0.1525,-2.712646484375,-5.755615234375,6.536376953125
0.153,-4.154052734375,-4.434326171875,6.896728515625
0.1535,-5.395263671875,-3.153076171875,7.056884765625
0.154,-6.115966796875,-1.791748046875,6.896728515625
0.1545,-6.436279296875,-0.790771484375,6.576416015625
0.155,-6.396240234375,0.170166015625,6.015869140625
0.1555,-6.196044921875,1.251220703125,5.014892578125
0.156,-5.955810546875,2.612548828125,3.653564453125
0.1565,-5.635498046875,3.933837890625,2.292236328125
0.157,-5.195068359375,4.854736328125,1.131103515625
0.1575,-4.674560546875,5.415283203125,0.250244140625
0.158,-3.833740234375,5.655517578125,-0.830810546875
0.1585,-2.472412109375,5.775634765625,-2.272216796875
0.159,-1.151123046875,6.015869140625,-3.833740234375
0.1595,0.250244140625,5.895751953125,-5.074951171875
0.16,0.970947265625,5.815673828125,-5.755615234375
0.1605,1.731689453125,5.535400390625,-6.356201171875
0.161,2.852783203125,4.614501953125,-6.796630859375
0.1615,4.254150390625,3.173095703125,-7.076904296875
0.162,5.295166015625,1.931884765625,-7.116943359375
0.1625,5.855712890625,0.730712890625,-6.796630859375
0.163,6.015869140625,-0.270263671875,-6.436279296875
0.1635,5.895751953125,-1.151123046875,-5.755615234375
0.164,5.615478515625,-2.312255859375,-4.594482421875
0.1645,5.375244140625,-3.553466796875,-3.353271484375
0.165,5.054931640625,-4.754638671875,-2.072021484375
0.1655,4.614501953125,-5.515380859375,-1.031005859375
0.166,4.053955078125,-5.955810546875,-0.190185546875
0.1665,3.173095703125,-6.156005859375,0.890869140625
0.167,1.851806640625,-6.276123046875,2.292236328125
0.1675,0.530517578125,-6.436279296875,3.773681640625
0.168,-0.630615234375,-6.356201171875,4.814697265625
0.1685,-1.271240234375,-6.396240234375,5.495361328125
0.169,-2.112060546875,-6.035888671875,6.095947265625
0.1695,-3.353271484375,-5.034912109375,6.456298828125
0.17,-4.554443359375,-3.753662109375,6.736572265625
0.1705,-5.475341796875,-2.512451171875,6.736572265625
0.171,-5.995849609375,-1.431396484375,6.536376953125
0.1715,-6.115966796875,-0.630615234375,6.135986328125
0.172,-6.035888671875,0.330322265625,5.455322265625
0.1725,-5.755615234375,1.531494140625,4.334228515625
0.173,-5.635498046875,2.772705078125,3.173095703125
0.1735,-5.275146484375,3.853759765625,1.971923828125
0.174,-4.914794921875,4.614501953125,1.051025390625
0.1745,-4.354248046875,5.094970703125,0.170166015625
0.175,-3.393310546875,5.295166015625,-0.990966796875
0.1755,-2.152099609375,5.535400390625,-2.432373046875
0.176,-0.910888671875,5.695556640625,-3.833740234375
0.1765,0.170166015625,5.615478515625,-4.834716796875
0.177,0.810791015625,5.655517578125,-5.515380859375
0.1775,1.731689453125,5.135009765625,-6.115966796875
0.178,3.052978515625,4.053955078125,-6.516357421875
0.1785,4.214111328125,2.932861328125,-6.796630859375
0.179,5.094970703125,1.651611328125,-6.716552734375
0.1795,5.495361328125,0.730712890625,-6.516357421875
0.18,5.615478515625,-0.190185546875,-6.115966796875
0.1805,5.495361328125,-1.151123046875,-5.315185546875
0.181,5.295166015625,-2.432373046875,-4.154052734375
0.1815,5.135009765625,-3.673583984375,-2.992919921875
0.182,4.774658203125,-4.634521484375,-1.871826171875
0.1825,4.454345703125,-5.315185546875,-0.990966796875
0.183,3.773681640625,-5.715576171875,0.010009765625
0.1835,2.652587890625,-5.875732421875,1.211181640625
0.184,1.451416015625,-6.156005859375,2.612548828125
0.1845,0.250244140625,-6.276123046875,3.853759765625
0.185,-0.630615234375,-6.276123046875,4.774658203125
0.1855,-1.311279296875,-6.236083984375,5.415283203125
0.186,-2.312255859375,-5.515380859375,5.935791015625
0.1865,-3.673583984375,-4.314208984375,6.296142578125
0.187,-4.754638671875,-3.193115234375,6.496337890625
0.1875,-5.435302734375,-1.991943359375,6.376220703125
0.188,-5.755615234375,-1.231201171875,6.176025390625
