wavelength,x,y,z
0.0,-4.9248046875,1.921875,2.5224609375
0.0005,-4.8447265625,1.361328125,2.9228515625
0.001,-4.6044921875,0.3603515625,3.603515625
0.0015,-4.1240234375,-0.6005859375,4.00390625
0.002,-3.36328125,-1.521484375,4.32421875
0.0025,-2.72265625,-2.4423828125,4.5244140625
0.003,-1.921875,-3.5634765625,4.8046875
0.0035,-1.1611328125,-3.84375,4.32421875
0.004,-0.3203125,-4.564453125,4.1640625
0.0045,0.6806640625,-4.6845703125,3.36328125
0.005,1.44140625,-5.0048828125,2.9228515625
0.0055,2.7626953125,-5.205078125,1.841796875
0.006,3.5234375,-5.205078125,1.0810546875
0.0065,3.84375,-4.6044921875,0.16015625
0.007,4.32421875,-4.4443359375,-0.5205078125
0.0075,4.2841796875,-3.4833984375,-1.3212890625
0.008,4.4443359375,-2.962890625,-2.001953125
0.0085,4.64453125,-2.0419921875,-3.1630859375
0.009,4.2041015625,-1.3212890625,-3.4833984375
0.0095,3.8837890625,-0.400390625,-4.0439453125
0.01,3.1630859375,0.6005859375,-4.2041015625
0.0105,2.5625,1.4013671875,-4.404296875
0.011,1.76171875,2.3623046875,-4.5244140625
0.0115,1.0810546875,3.203125,-4.6845703125
0.012,0.240234375,3.443359375,-4.00390625
0.0125,-0.48046875,4.083984375,-3.9638671875
0.013,-1.44140625,4.083984375,-3.04296875
0.0135,-2.162109375,4.404296875,-2.642578125
0.014,-3.4033203125,4.6044921875,-1.6015625
0.0145,-3.8837890625,4.404296875,-1.0009765625
0.015,-4.32421875,3.9638671875,-0.1201171875
0.0155,-4.64453125,3.68359375,0.5205078125
0.016,-4.7646484375,2.9228515625,1.361328125
0.0165,-4.884765625,2.2822265625,2.08203125
0.017,-5.1650390625,1.4814453125,3.1630859375
0.0175,-4.564453125,0.6005859375,3.36328125
0.018,-4.484375,-0.240234375,4.1240234375
0.0185,-3.5634765625,-1.3212890625,4.2841796875
0.019,-3.123046875,-2.08203125,4.6044921875
0.0195,-2.2021484375,-3.203125,4.724609375
0.02,-1.44140625,-3.9638671875,4.7646484375
0.0205,-0.48046875,-4.2041015625,4.00390625
0.021,0.240234375,-4.8447265625,3.9638671875
0.0215,1.3212890625,-4.884765625,2.8828125
0.022,2.08203125,-5.1650390625,2.40234375
0.0225,3.36328125,-5.3251953125,1.361328125
0.023,3.763671875,-4.96484375,0.6005859375
0.0235,4.1640625,-4.5244140625,-0.2802734375
0.024,4.404296875,-4.00390625,-1.0009765625
0.0245,4.484375,-3.2431640625,-1.841796875
0.025,4.5244140625,-2.5625,-2.6025390625
0.0255,4.724609375,-1.76171875,-3.5634765625
0.026,3.8837890625,-0.6806640625,-3.7236328125
0.0265,3.8037109375,0.1201171875,-4.3642578125
0.027,2.72265625,1.12109375,-4.32421875
0.0275,2.2822265625,1.921875,-4.564453125
0.028,1.4013671875,2.8828125,-4.64453125
0.0285,0.640625,3.4833984375,-4.484375
0.029,-0.3203125,3.8037109375,-3.84375
0.0295,-0.9609375,4.2041015625,-3.603515625
0.03,-2.0419921875,4.2841796875,-2.6025390625
0.0305,-2.7626953125,4.484375,-2.162109375
0.031,-3.8837890625,4.64453125,-1.1611328125
0.0315,-4.083984375,4.0439453125,-0.400390625
0.032,-4.564453125,3.8837890625,0.240234375
0.0325,-4.64453125,3.123046875,1.0009765625
0.033,-4.8447265625,2.5224609375,1.76171875
0.0335,-4.9248046875,1.76171875,2.6025390625
0.034,-5.044921875,1.12109375,3.4033203125
0.0345,-4.2041015625,0.0,3.68359375
0.035,-4.1640625,-0.720703125,4.32421875
0.0355,-3.0830078125,-1.8818359375,4.32421875
0.036,-2.72265625,-2.5625,4.6044921875
0.0365,-1.76171875,-3.603515625,4.6845703125
0.037,-0.9609375,-4.0439453125,4.32421875
0.0375,-0.080078125,-4.5244140625,3.84375
0.038,0.7607421875,-4.8447265625,3.443359375
0.0385,1.8818359375,-4.96484375,2.482421875
0.039,2.5625,-5.1650390625,1.9619140625
0.0395,3.603515625,-5.2451171875,1.0009765625
0.04,3.8037109375,-4.5244140625,0.16015625
0.0405,4.2841796875,-4.404296875,-0.5205078125
0.041,4.32421875,-3.4833984375,-1.44140625
0.0415,4.484375,-2.962890625,-2.162109375
0.042,4.484375,-2.08203125,-2.962890625
0.0425,4.404296875,-1.3212890625,-3.603515625
0.043,3.5634765625,-0.2001953125,-3.8837890625
0.0435,3.36328125,0.5205078125,-4.32421875
0.044,2.2822265625,1.6416015625,-4.3642578125
0.0445,1.921875,2.2421875,-4.564453125
0.045,1.0009765625,3.1630859375,-4.564453125
0.0455,0.1201171875,3.5234375,-4.00390625
0.046,-0.6005859375,3.8837890625,-3.7236328125
0.0465,-1.5615234375,4.1640625,-2.962890625
0.047,-2.5224609375,4.32421875,-2.2021484375
0.0475,-3.203125,4.404296875,-1.6015625
0.048,-3.923828125,4.3642578125,-0.9208984375
0.0485,-4.083984375,3.603515625,0.0
0.049,-4.5244140625,3.5234375,0.48046875
0.0495,-4.564453125,2.5224609375,1.4814453125
0.05,-4.8046875,2.2421875,2.08203125
0.0505,-4.8046875,1.361328125,2.9228515625
0.051,-4.5244140625,0.6005859375,3.36328125
0.0515,-3.8837890625,-0.4404296875,3.763671875
0.052,-3.5634765625,-1.2412109375,4.1240234375
0.0525,-2.642578125,-2.2822265625,4.32421875
0.053,-2.2822265625,-2.8427734375,4.484375
0.0535,-1.361328125,-3.7236328125,4.4443359375
0.054,-0.5205078125,-4.00390625,3.84375
0.0545,0.16015625,-4.5244140625,3.68359375
0.055,1.3212890625,-4.6845703125,2.72265625
0.0555,2.1220703125,-4.96484375,2.2021484375
0.056,2.8828125,-4.9248046875,1.44140625
0.0565,3.5234375,-4.884765625,0.720703125
0.057,3.68359375,-4.2041015625,-0.16015625
0.0575,4.1240234375,-4.0439453125,-0.720703125
0.058,4.1640625,-2.9228515625,-1.8017578125
0.0585,4.32421875,-2.6025390625,-2.2822265625
0.059,4.32421875,-1.681640625,-3.1630859375
0.0595,3.84375,-0.8408203125,-3.5234375
0.06,3.3232421875,0.1201171875,-3.923828125
0.0605,2.7626953125,0.9609375,-4.1640625
0.061,1.9619140625,1.9619140625,-4.3642578125
0.0615,1.521484375,2.482421875,-4.404296875
0.062,0.6806640625,3.2431640625,-4.32421875
0.0625,-0.240234375,3.4833984375,-3.603515625
0.063,-0.8408203125,3.9638671875,-3.4833984375
0.0635,-2.1220703125,4.083984375,-2.3623046875
0.064,-2.72265625,4.32421875,-1.9619140625
0.0645,-3.4833984375,4.1240234375,-1.2412109375
0.065,-3.8837890625,3.923828125,-0.6005859375
0.0655,-4.083984375,3.36328125,0.2001953125
0.066,-4.4443359375,3.0830078125,0.880859375
0.0665,-4.564453125,2.2021484375,1.921875
0.067,-4.6044921875,1.76171875,2.322265625
0.0675,-4.64453125,1.0009765625,3.123046875
0.068,-3.9638671875,0.0400390625,3.36328125
0.0685,-3.7236328125,-0.80078125,3.8837890625
0.069,-2.8828125,-1.8017578125,4.083984375
0.0695,-2.40234375,-2.6025390625,4.3642578125
0.07,-1.7216796875,-3.1630859375,4.2041015625
0.0705,-1.0009765625,-3.8037109375,4.083984375
0.071,-0.080078125,-4.00390625,3.443359375
0.0715,0.6005859375,-4.5244140625,3.2431640625
0.072,1.8818359375,-4.64453125,2.162109375
0.0725,2.3623046875,-4.8447265625,1.841796875
0.073,3.0830078125,-4.724609375,0.9609375
0.0735,3.36328125,-4.3642578125,0.2802734375
0.074,3.68359375,-3.84375,-0.400390625
0.0745,3.8837890625,-3.3232421875,-1.12109375
0.075,4.1240234375,-2.642578125,-2.001953125
0.0755,4.00390625,-2.08203125,-2.4423828125
0.076,4.00390625,-1.361328125,-3.1630859375
0.0765,3.2431640625,-0.3603515625,-3.36328125
0.077,3.123046875,0.3603515625,-3.923828125
0.0775,2.162109375,1.44140625,-4.00390625
0.078,1.921875,2.0419921875,-4.3642578125
0.0785,1.0810546875,2.6025390625,-4.083984375
0.079,0.3603515625,3.1630859375,-3.8837890625
0.0795,-0.48046875,3.36328125,-3.283203125
0.08,-1.28125,3.84375,-3.0029296875
0.0805,-2.3623046875,4.00390625,-2.08203125
0.081,-2.8427734375,4.00390625,-1.7216796875
0.0815,-3.4833984375,3.923828125,-1.0009765625
0.082,-3.7236328125,3.5234375,-0.2802734375
0.0825,-4.1240234375,3.2431640625,0.3603515625
0.083,-4.2041015625,2.5224609375,1.28125
0.0835,-4.5244140625,2.08203125,1.9619140625
0.084,-4.2841796875,1.3212890625,2.482421875
0.0845,-4.2841796875,0.6806640625,3.0830078125
0.085,-3.5634765625,-0.400390625,3.36328125
0.0855,-3.4033203125,-1.041015625,3.84375
0.086,-2.4423828125,-2.2021484375,3.9638671875
0.0865,-2.2021484375,-2.642578125,4.1640625
0.087,-1.3212890625,-3.283203125,3.9638671875
0.0875,-0.6005859375,-3.7236328125,3.6435546875
0.088,0.2001953125,-4.00390625,3.1630859375
0.0885,1.12109375,-4.404296875,2.6025390625
0.089,2.0419921875,-4.6845703125,1.921875
0.0895,2.482421875,-4.5244140625,1.3212890625
0.09,3.123046875,-4.4443359375,0.7607421875
0.0905,3.2431640625,-3.8037109375,0.0
0.091,3.6435546875,-3.6435546875,-0.6005859375
0.0915,3.763671875,-2.7626953125,-1.5615234375
0.092,4.00390625,-2.482421875,-2.08203125
0.0925,3.763671875,-1.6416015625,-2.642578125
0.093,3.6435546875,-1.0009765625,-3.1630859375
0.0935,2.8828125,0.0400390625,-3.36328125
0.094,2.6826171875,0.720703125,-3.84375
0.0945,1.8818359375,1.76171875,-4.0439453125
0.095,1.5615234375,2.1220703125,-4.083984375
0.0955,0.720703125,2.802734375,-3.8837890625
0.096,0.0,3.123046875,-3.4833984375
0.0965,-0.80078125,3.5234375,-3.1630859375
0.097,-1.8017578125,3.8037109375,-2.40234375
0.0975,-2.6025390625,4.0439453125,-1.9619140625
0.098,-3.0029296875,3.8037109375,-1.2412109375
0.0985,-3.5634765625,3.84375,-0.6806640625
0.099,-3.7236328125,3.1630859375,0.1201171875
0.0995,-4.1240234375,2.962890625,0.6806640625
0.1,-4.3642578125,2.1220703125,1.76171875
0.1005,-4.4443359375,1.76171875,2.2021484375
0.101,-4.2041015625,0.880859375,2.8427734375
0.1015,-3.8837890625,0.080078125,3.283203125
0.102,-3.3232421875,-0.880859375,3.603515625
0.1025,-2.8427734375,-1.681640625,3.8837890625
0.103,-2.2021484375,-2.642578125,4.244140625
0.1035,-1.6015625,-2.962890625,3.9638671875
0.104,-0.9208984375,-3.7236328125,3.8837890625
0.1045,0.0,-3.923828125,3.2431640625
0.105,0.7607421875,-4.404296875,2.962890625
0.1055,1.921875,-4.64453125,2.0419921875
0.106,2.5625,-4.7646484375,1.5615234375
0.1065,3.0029296875,-4.3642578125,0.7607421875
0.107,3.4833984375,-4.244140625,0.16015625
0.1075,3.603515625,-3.5634765625,-0.640625
0.108,3.84375,-3.1630859375,-1.28125
0.1085,4.1240234375,-2.3623046875,-2.2822265625
0.109,3.8837890625,-1.8017578125,-2.6025390625
0.1095,3.68359375,-0.9609375,-3.283203125
0.11,3.0830078125,0.0,-3.4833984375
0.1105,2.642578125,0.7607421875,-3.84375
0.111,1.9619140625,1.6416015625,-4.00390625
0.1115,1.44140625,2.40234375,-4.2841796875
0.112,0.6806640625,2.6826171875,-3.8037109375
0.1125,0.080078125,3.283203125,-3.8037109375
0.113,-0.80078125,3.36328125,-3.0029296875
0.1135,-1.5615234375,3.8037109375,-2.72265625
0.114,-2.72265625,4.083984375,-1.8017578125
0.1145,-3.1630859375,4.00390625,-1.28125
0.115,-3.603515625,3.7236328125,-0.560546875
0.1155,-3.9638671875,3.4833984375,0.0400390625
0.116,-4.1640625,2.8828125,0.7607421875
0.1165,-4.3642578125,2.3623046875,1.521484375
0.117,-4.6845703125,1.76171875,2.4423828125
0.1175,-4.244140625,1.0009765625,2.7626953125
0.118,-4.2041015625,0.2001953125,3.4833984375
0.1185,-3.4033203125,-0.8408203125,3.68359375
0.119,-3.1630859375,-1.5615234375,4.083984375
0.1195,-2.2822265625,-2.6025390625,4.2841796875
0.12,-1.7216796875,-3.2431640625,4.3642578125
0.1205,-0.8408203125,-3.7236328125,3.8037109375
0.121,-0.2001953125,-4.244140625,3.763671875
0.1215,0.80078125,-4.404296875,2.8828125
0.122,1.5615234375,-4.724609375,2.5224609375
0.1225,2.8427734375,-5.0048828125,1.521484375
0.123,3.1630859375,-4.64453125,0.880859375
0.1235,3.68359375,-4.3642578125,0.1201171875
0.124,3.8837890625,-3.84375,-0.640625
0.1245,4.0439453125,-3.2431640625,-1.361328125
0.125,4.2041015625,-2.5625,-2.2021484375
0.1255,4.4443359375,-1.8818359375,-3.0830078125
0.126,3.7236328125,-0.9208984375,-3.3232421875
0.1265,3.68359375,-0.16015625,-3.9638671875
0.127,2.6826171875,0.880859375,-3.9638671875
0.1275,2.322265625,1.5615234375,-4.32421875
0.128,1.44140625,2.6025390625,-4.484375
0.1285,0.7607421875,3.123046875,-4.2841796875
0.129,-0.1201171875,3.4833984375,-3.8037109375
0.1295,-0.80078125,3.84375,-3.5634765625
0.13,-1.8017578125,4.00390625,-2.5625
0.1305,-2.5625,4.2041015625,-2.08203125
0.131,-3.6435546875,4.4443359375,-1.2412109375
0.1315,-3.84375,3.84375,-0.48046875
0.132,-4.32421875,3.763671875,0.1201171875
0.1325,-4.404296875,3.04296875,0.9208984375
0.133,-4.6044921875,2.5224609375,1.6015625
0.1335,-4.724609375,1.76171875,2.5224609375
0.134,-4.8046875,1.12109375,3.1630859375
0.1345,-4.083984375,0.0400390625,3.4833984375
0.135,-4.00390625,-0.6806640625,4.1240234375
0.1355,-3.0029296875,-1.76171875,4.1240234375
0.136,-2.642578125,-2.4423828125,4.484375
0.1365,-1.7216796875,-3.5634765625,4.6044921875
0.137,-0.9609375,-3.9638671875,4.1640625
0.1375,-0.16015625,-4.4443359375,3.84375
0.138,0.720703125,-4.724609375,3.36328125
0.1385,1.8017578125,-4.9248046875,2.482421875
0.139,2.6025390625,-5.125,1.921875
0.1395,3.6435546875,-5.205078125,1.0009765625
0.14,3.8037109375,-4.5244140625,0.1201171875
0.1405,4.32421875,-4.3642578125,-0.5205078125
0.141,4.32421875,-3.4033203125,-1.521484375
0.1415,4.484375,-2.8828125,-2.2021484375
0.142,4.5244140625,-1.9619140625,-3.123046875
0.1425,4.404296875,-1.201171875,-3.7236328125
0.143,3.603515625,-0.080078125,-4.00390625
0.1435,3.3232421875,0.6806640625,-4.4443359375
0.144,2.2021484375,1.8818359375,-4.484375
0.1445,1.76171875,2.40234375,-4.64453125
0.145,0.8408203125,3.4033203125,-4.6845703125
0.1455,-0.080078125,3.68359375,-4.0439453125
0.146,-0.80078125,4.1240234375,-3.68359375
0.1465,-1.8818359375,4.32421875,-2.8828125
0.147,-2.802734375,4.4443359375,-2.08203125
0.1475,-3.5234375,4.484375,-1.4013671875
0.148,-4.2041015625,4.4443359375,-0.640625
0.1485,-4.32421875,3.68359375,0.240234375
0.149,-4.6845703125,3.5234375,0.720703125
0.1495,-4.7646484375,2.4423828125,1.841796875
0.15,-4.884765625,2.0419921875,2.3623046875
0.1505,-4.884765625,1.1611328125,3.2431640625
0.151,-4.5244140625,0.3603515625,3.6435546875
0.1515,-3.923828125,-0.6806640625,4.00390625
0.152,-3.4833984375,-1.4814453125,4.3642578125
0.1525,-2.5224609375,-2.642578125,4.484375
0.153,-2.08203125,-3.203125,4.564453125
0.1535,-1.1611328125,-4.1240234375,4.5244140625
0.154,-0.240234375,-4.2841796875,3.84375
0.1545,0.4404296875,-4.7646484375,3.68359375
0.155,1.6416015625,-5.0048828125,2.642578125
0.1555,2.482421875,-5.1650390625,2.0419921875
0.156,3.2431640625,-5.125,1.28125
0.1565,3.8837890625,-5.0048828125,0.48046875
0.157,4.0439453125,-4.2041015625,-0.400390625
0.1575,4.4443359375,-4.00390625,-1.0009765625
0.158,4.484375,-2.8427734375,-2.2021484375
0.1585,4.564453125,-2.4423828125,-2.642578125
0.159,4.5244140625,-1.4814453125,-3.5634765625
0.1595,3.9638671875,-0.5205078125,-3.923828125
0.16,3.36328125,0.4404296875,-4.2841796875
0.1605,2.72265625,1.3212890625,-4.5244140625
0.161,1.841796875,2.4423828125,-4.6845703125
0.1615,1.28125,2.8828125,-4.64453125
0.162,0.3603515625,3.763671875,-4.5244140625
0.1625,-0.6005859375,3.8837890625,-3.7236328125
0.163,-1.28125,4.32421875,-3.443359375
0.1635,-2.6025390625,4.484375,-2.2822265625
0.164,-3.2431640625,4.6044921875,-1.76171875
0.1645,-3.923828125,4.404296875,-0.9208984375
0.165,-4.404296875,4.1240234375,-0.2001953125
0.1655,-4.5244140625,3.443359375,0.6005859375
0.166,-4.8447265625,3.04296875,1.28125
0.1665,-4.9248046875,2.001953125,2.40234375
0.167,-4.8447265625,1.5615234375,2.802734375
0.1675,-4.8046875,0.6806640625,3.5634765625
0.168,-4.0439453125,-0.3603515625,3.84375
0.1685,-3.68359375,-1.201171875,4.244140625
0.169,-2.8427734375,-2.2822265625,4.404296875
0.1695,-2.2021484375,-3.1630859375,4.6044921875
0.17,-1.44140625,-3.5634765625,4.3642578125
0.1705,-0.640625,-4.244140625,4.244140625
0.171,0.2802734375,-4.4443359375,3.4833984375
0.1715,0.9609375,-4.884765625,3.2431640625
0.172,2.3623046875,-5.0048828125,2.0419921875
0.1725,2.8427734375,-5.125,1.6416015625
0.173,3.5234375,-4.884765625,0.7607421875
0.1735,3.8837890625,-4.5244140625,0.0
0.174,4.1240234375,-3.8837890625,-0.80078125
0.1745,4.3642578125,-3.36328125,-1.5615234375
0.175,4.5244140625,-2.5224609375,-2.5625
0.1755,4.3642578125,-1.9619140625,-2.962890625
0.176,4.32421875,-1.041015625,-3.8037109375
0.1765,3.4833984375,0.0,-3.9638671875
0.177,3.1630859375,0.7607421875,-4.404296875
0.1775,2.08203125,1.921875,-4.5244140625
0.178,1.6416015625,2.6826171875,-4.7646484375
0.1785,0.7607421875,3.1630859375,-4.32421875
0.179,0.0,3.84375,-4.1640625
0.1795,-1.0009765625,3.923828125,-3.3232421875
0.18,-1.8017578125,4.3642578125,-2.962890625
0.1805,-3.0830078125,4.484375,-1.841796875
0.181,-3.4833984375,4.4443359375,-1.361328125
0.1815,-4.1240234375,4.2041015625,-0.5205078125
0.182,-4.404296875,3.68359375,0.240234375
0.1825,-4.564453125,3.1630859375,0.9208984375
0.183,-4.724609375,2.40234375,1.841796875
0.1835,-4.96484375,1.76171875,2.6826171875
0.184,-4.5244140625,1.041015625,3.04296875
0.1845,-4.5244140625,0.2001953125,3.68359375
0.185,-3.5634765625,-0.9609375,3.84375
0.1855,-3.3232421875,-1.6015625,4.2841796875
0.186,-2.2421875,-2.7626953125,4.404296875
0.1865,-1.8818359375,-3.2431640625,4.484375
0.187,-0.9609375,-3.8037109375,4.083984375
0.1875,-0.2001953125,-4.244140625,3.8037109375
0.188,0.6806640625,-4.4443359375,3.123046875
0.1885,1.5615234375,-4.7646484375,2.6025390625
0.189,2.6826171875,-5.0048828125,1.7216796875
0.1895,3.0029296875,-4.7646484375,1.201171875
0.19,3.6435546875,-4.6044921875,0.4404296875
0.1905,3.763671875,-3.923828125,-0.400390625
0.191,4.083984375,-3.6435546875,-1.0009765625
0.1915,4.1640625,-2.7626953125,-2.001953125
0.192,4.4443359375,-2.2822265625,-2.642578125
0.1925,3.9638671875,-1.44140625,-3.123046875
0.193,3.8837890625,-0.6806640625,-3.7236328125
0.1935,2.9228515625,0.4404296875,-3.8837890625
0.194,2.7626953125,1.12109375,-4.32421875
0.1945,1.76171875,2.322265625,-4.484375
0.195,1.4013671875,2.6826171875,-4.4443359375
0.1955,0.400390625,3.3232421875,-4.1240234375
0.196,-0.400390625,3.7236328125,-3.68359375
0.1965,-1.28125,3.9638671875,-3.123046875
0.197,-2.2421875,4.2041015625,-2.40234375
0.1975,-3.2431640625,4.484375,-1.6416015625
0.198,-3.5634765625,4.0439453125,-1.0009765625
0.1985,-4.1640625,3.9638671875,-0.3203125
0.199,-4.2041015625,3.203125,0.560546875
0.1995,-4.5244140625,2.9228515625,1.1611328125
0.2,-4.6845703125,1.9619140625,2.2021484375
0.2005,-4.7646484375,1.4814453125,2.72265625
0.201,-4.2841796875,0.5205078125,3.1630859375
0.2015,-4.0439453125,-0.2802734375,3.68359375
0.202,-3.203125,-1.28125,3.8837890625
0.2025,-2.8427734375,-1.9619140625,4.2041015625
0.203,-2.001953125,-3.0830078125,4.4443359375
0.2035,-1.4013671875,-3.283203125,4.083984375
0.204,-0.640625,-3.9638671875,3.8837890625
0.2045,0.240234375,-4.1640625,3.283203125
0.205,0.9609375,-4.484375,2.8828125
0.2055,2.0419921875,-4.6845703125,2.0419921875
0.206,2.8427734375,-4.884765625,1.44140625
0.2065,3.123046875,-4.3642578125,0.640625
0.207,3.6435546875,-4.3642578125,0.1201171875
0.2075,3.68359375,-3.5234375,-0.7607421875
0.208,3.9638671875,-3.203125,-1.3212890625
0.2085,4.1640625,-2.40234375,-2.40234375
0.209,4.083984375,-1.9619140625,-2.72265625
0.2095,3.763671875,-1.0009765625,-3.36328125
0.21,3.2431640625,-0.16015625,-3.603515625
0.2105,2.6826171875,0.7607421875,-3.8837890625
0.211,2.162109375,1.5615234375,-4.1640625
0.2115,1.5615234375,2.4423828125,-4.404296875
0.212,0.8408203125,2.6826171875,-3.8837890625
0.2125,0.1201171875,3.4033203125,-3.8837890625
0.213,-0.80078125,3.5234375,-3.123046875
0.2135,-1.4814453125,3.923828125,-2.8427734375
0.214,-2.6025390625,4.1240234375,-1.9619140625
0.2145,-3.203125,4.1640625,-1.44140625
0.215,-3.5634765625,3.763671875,-0.640625
0.2155,-4.00390625,3.603515625,-0.080078125
0.216,-4.1640625,2.9228515625,0.7607421875
0.2165,-4.3642578125,2.482421875,1.4013671875
0.217,-4.64453125,1.76171875,2.3623046875
0.2175,-4.2841796875,1.12109375,2.6025390625
0.218,-4.1640625,0.2802734375,3.3232421875
0.2185,-3.4833984375,-0.6806640625,3.5634765625
0.219,-3.0830078125,-1.44140625,3.923828125
0.2195,-2.40234375,-2.3623046875,4.1240234375
0.22,-1.8017578125,-3.04296875,4.244140625
0.2205,-1.0009765625,-3.3232421875,3.68359375
0.221,-0.48046875,-3.923828125,3.68359375
0.2215,0.560546875,-4.0439453125,2.8828125
0.222,1.28125,-4.4443359375,2.5625
0.2225,2.3623046875,-4.64453125,1.681640625
0.223,2.72265625,-4.484375,1.1611328125
0.2235,3.203125,-4.1640625,0.400390625
0.224,3.443359375,-3.84375,-0.2001953125
0.2245,3.68359375,-3.283203125,-1.0009765625
0.225,3.84375,-2.802734375,-1.6416015625
0.2255,4.1240234375,-2.2421875,-2.482421875
0.226,3.5634765625,-1.361328125,-2.72265625
0.2265,3.5634765625,-0.640625,-3.4033203125
0.227,2.6826171875,0.3203125,-3.5234375
