wavelength,x,y,z
0.0,-6.22607421875,-1.58154296875,6.78662109375
0.0005,-6.66650390625,-0.70068359375,6.70654296875
0.001,-6.58642578125,0.14013671875,6.22607421875
0.0015,-6.22607421875,1.06103515625,5.14501953125
0.002,-5.74560546875,2.54248046875,3.58349609375
0.0025,-5.42529296875,3.98388671875,2.06201171875
0.003,-5.26513671875,5.10498046875,0.98095703125
0.0035,-4.86474609375,5.66552734375,0.26025390625
0.004,-4.02392578125,5.74560546875,-0.66064453125
0.0045,-2.58251953125,5.70556640625,-1.94189453125
0.005,-0.98095703125,5.74560546875,-3.66357421875
0.0055,0.38037109375,5.86572265625,-5.10498046875
0.006,1.02099609375,6.06591796875,-6.02587890625
0.0065,1.66162109375,5.90576171875,-6.58642578125
0.007,2.66259765625,4.98486328125,-6.82666015625
0.0075,4.10400390625,3.38330078125,-6.94677734375
0.008,5.38525390625,1.78173828125,-6.98681640625
0.0085,6.18603515625,0.50048828125,-6.94677734375
0.009,6.42626953125,-0.34033203125,-6.78662109375
0.0095,6.10595703125,-1.14111328125,-6.10595703125
0.01,5.66552734375,-2.18212890625,-4.86474609375
0.0105,5.26513671875,-3.58349609375,-3.22314453125
0.011,5.02490234375,-4.98486328125,-1.82177734375
0.0115,4.82470703125,-5.94580078125,-0.82080078125
0.012,4.42431640625,-6.38623046875,-0.18017578125
0.0125,3.46337890625,-6.38623046875,0.82080078125
0.013,1.86181640625,-6.34619140625,2.26220703125
0.0135,0.30029296875,-6.42626953125,3.90380859375
0.014,-0.82080078125,-6.62646484375,5.22509765625
0.0145,-1.42138671875,-6.82666015625,6.10595703125
0.015,-2.18212890625,-6.38623046875,6.54638671875
0.0155,-3.34326171875,-5.22509765625,6.74658203125
0.016,-4.78466796875,-3.66357421875,6.90673828125
0.0165,-5.94580078125,-2.14208984375,6.90673828125
0.017,-6.66650390625,-1.06103515625,6.86669921875
0.0175,-6.70654296875,-0.42041015625,6.54638671875
0.018,-6.34619140625,0.58056640625,5.74560546875
0.0185,-5.90576171875,1.86181640625,4.30419921875
0.019,-5.58544921875,3.34326171875,2.74267578125
0.0195,-5.38525390625,4.62451171875,1.42138671875
0.02,-5.14501953125,5.42529296875,0.62060546875
0.0205,-4.50439453125,5.70556640625,-0.22021484375
0.021,-3.38330078125,5.70556640625,-1.18115234375
0.0215,-1.78173828125,5.70556640625,-2.78271484375
0.022,-0.30029296875,5.78564453125,-4.42431640625
0.0225,0.70068359375,6.02587890625,-5.62548828125
0.023,1.26123046875,6.10595703125,-6.30615234375
0.0235,2.10205078125,5.46533203125,-6.70654296875
0.024,3.38330078125,4.10400390625,-6.86669921875
0.0245,4.78466796875,2.50244140625,-6.98681640625
0.025,5.82568359375,1.06103515625,-6.94677734375
0.0255,6.26611328125,0.18017578125,-6.94677734375
0.026,6.26611328125,-0.62060546875,-6.46630859375
0.0265,5.86572265625,-1.50146484375,-5.54541015625
0.027,5.42529296875,-2.86279296875,-3.98388671875
0.0275,5.14501953125,-4.42431640625,-2.42236328125
0.028,4.98486328125,-5.62548828125,-1.26123046875
0.0285,4.66455078125,-6.26611328125,-0.50048828125
0.029,3.90380859375,-6.42626953125,0.42041015625
0.0295,2.54248046875,-6.38623046875,1.62158203125
0.03,0.94091796875,-6.46630859375,3.34326171875
0.0305,-0.50048828125,-6.58642578125,4.82470703125
0.031,-1.22119140625,-6.86669921875,5.86572265625
0.0315,-1.86181640625,-6.70654296875,6.46630859375
0.032,-2.90283203125,-5.78564453125,6.78662109375
0.0325,-4.38427734375,-4.22412109375,6.94677734375
0.033,-5.74560546875,-2.58251953125,6.98681640625
0.0335,-6.58642578125,-1.30126953125,6.90673828125
0.034,-6.82666015625,-0.50048828125,6.78662109375
0.0345,-6.58642578125,0.38037109375,6.10595703125
0.035,-6.10595703125,1.54150390625,4.82470703125
0.0355,-5.74560546875,2.98291015625,3.22314453125
0.036,-5.42529296875,4.42431640625,1.74169921875
0.0365,-5.18505859375,5.38525390625,0.74072265625
0.037,-4.70458984375,5.74560546875,0.02001953125
0.0375,-3.70361328125,5.78564453125,-0.98095703125
0.038,-2.18212890625,5.70556640625,-2.38232421875
0.0385,-0.58056640625,5.78564453125,-4.10400390625
0.039,0.58056640625,5.90576171875,-5.34521484375
0.0395,1.18115234375,6.10595703125,-6.18603515625
0.04,1.86181640625,5.70556640625,-6.62646484375
0.0405,2.98291015625,4.50439453125,-6.78662109375
0.041,4.42431640625,2.90283203125,-6.94677734375
0.0415,5.50537109375,1.34130859375,-6.90673828125
0.042,6.22607421875,0.38037109375,-6.90673828125
0.0425,6.26611328125,-0.38037109375,-6.58642578125
0.043,5.90576171875,-1.14111328125,-5.78564453125
0.0435,5.42529296875,-2.26220703125,-4.50439453125
0.044,5.10498046875,-3.70361328125,-2.94287109375
0.0445,4.86474609375,-4.98486328125,-1.66162109375
0.045,4.70458984375,-5.82568359375,-0.82080078125
0.0455,4.18408203125,-6.14599609375,-0.14013671875
0.046,3.10302734375,-6.14599609375,0.90087890625
0.0465,1.62158203125,-6.18603515625,2.34228515625
0.047,0.14013671875,-6.26611328125,3.94384765625
0.0475,-0.70068359375,-6.58642578125,5.10498046875
0.048,-1.30126953125,-6.70654296875,5.86572265625
0.0485,-2.10205078125,-6.22607421875,6.26611328125
0.049,-3.34326171875,-4.98486328125,6.46630859375
0.0495,-4.70458984375,-3.54345703125,6.62646484375
0.05,-5.74560546875,-2.10205078125,6.66650390625
0.0505,-6.34619140625,-1.22119140625,6.70654296875
0.051,-6.30615234375,-0.58056640625,6.38623046875
0.0515,-6.02587890625,0.38037109375,5.50537109375
0.052,-5.62548828125,1.62158203125,4.18408203125
0.0525,-5.38525390625,3.10302734375,2.70263671875
0.053,-5.30517578125,4.34423828125,1.62158203125
0.0535,-5.06494140625,5.06494140625,0.86083984375
0.054,-4.42431640625,5.30517578125,0.14013671875
0.0545,-3.22314453125,5.34521484375,-1.06103515625
0.055,-1.82177734375,5.50537109375,-2.62255859375
0.0555,-0.50048828125,5.62548828125,-4.14404296875
0.056,0.34033203125,5.94580078125,-5.26513671875
0.0565,0.94091796875,5.90576171875,-5.90576171875
0.057,1.86181640625,5.26513671875,-6.30615234375
0.0575,3.18310546875,3.86376953125,-6.50634765625
0.058,4.54443359375,2.42236328125,-6.62646484375
0.0585,5.46533203125,1.26123046875,-6.70654296875
0.059,5.86572265625,0.50048828125,-6.70654296875
0.0595,5.74560546875,-0.30029296875,-6.22607421875
0.06,5.42529296875,-1.26123046875,-5.18505859375
0.0605,5.10498046875,-2.58251953125,-3.82373046875
0.061,4.86474609375,-3.98388671875,-2.42236328125
0.0615,4.82470703125,-5.06494140625,-1.46142578125
0.062,4.50439453125,-5.62548828125,-0.78076171875
0.0625,3.70361328125,-5.82568359375,0.10009765625
0.063,2.42236328125,-5.82568359375,1.34130859375
0.0635,1.02099609375,-6.02587890625,2.90283203125
0.064,0.02001953125,-6.26611328125,4.22412109375
0.0645,-0.70068359375,-6.62646484375,5.18505859375
0.065,-1.42138671875,-6.38623046875,5.74560546875
0.0655,-2.50244140625,-5.50537109375,6.02587890625
0.066,-3.82373046875,-4.10400390625,6.26611328125
0.0665,-5.06494140625,-2.66259765625,6.38623046875
0.067,-5.78564453125,-1.66162109375,6.46630859375
0.0675,-6.02587890625,-1.02099609375,6.34619140625
0.068,-5.78564453125,-0.34033203125,5.74560546875
0.0685,-5.46533203125,0.78076171875,4.62451171875
0.069,-5.22509765625,2.14208984375,3.34326171875
0.0695,-5.10498046875,3.42333984375,2.14208984375
0.07,-5.02490234375,4.34423828125,1.34130859375
0.0705,-4.58447265625,4.74462890625,0.70068359375
0.071,-3.74365234375,4.86474609375,-0.26025390625
0.0715,-2.50244140625,5.02490234375,-1.58154296875
0.072,-1.22119140625,5.22509765625,-3.06298828125
0.0725,-0.38037109375,5.50537109375,-4.30419921875
0.073,0.26025390625,5.78564453125,-5.10498046875
0.0735,0.94091796875,5.46533203125,-5.58544921875
0.074,2.06201171875,4.54443359375,-5.82568359375
0.0745,3.34326171875,3.26318359375,-6.10595703125
0.075,4.50439453125,1.98193359375,-6.26611328125
0.0755,5.10498046875,1.22119140625,-6.42626953125
0.076,5.30517578125,0.58056640625,-6.26611328125
0.0765,5.14501953125,-0.26025390625,-5.62548828125
0.077,4.90478515625,-1.30126953125,-4.58447265625
0.0775,4.78466796875,-2.70263671875,-3.34326171875
0.078,4.74462890625,-3.86376953125,-2.38232421875
0.0785,4.70458984375,-4.74462890625,-1.66162109375
0.079,4.22412109375,-5.10498046875,-0.98095703125
0.0795,3.26318359375,-5.30517578125,0.14013671875
0.08,2.14208984375,-5.58544921875,1.46142578125
0.0805,0.98095703125,-5.90576171875,2.90283203125
0.081,0.30029296875,-6.34619140625,4.02392578125
0.0815,-0.46044921875,-6.50634765625,4.82470703125
0.082,-1.26123046875,-6.06591796875,5.30517578125
0.0825,-2.50244140625,-4.98486328125,5.62548828125
0.083,-3.78369140625,-3.70361328125,5.90576171875
0.0835,-4.82470703125,-2.58251953125,6.10595703125
0.084,-5.38525390625,-1.94189453125,6.26611328125
0.0845,-5.42529296875,-1.26123046875,6.02587890625
0.085,-5.26513671875,-0.42041015625,5.22509765625
0.0855,-5.10498046875,0.86083984375,4.18408203125
0.086,-5.06494140625,2.22216796875,3.02294921875
0.0865,-5.06494140625,3.26318359375,2.18212890625
0.087,-4.94482421875,3.98388671875,1.58154296875
0.0875,-4.42431640625,4.34423828125,0.82080078125
0.088,-3.34326171875,4.50439453125,-0.38037109375
0.0885,-2.22216796875,4.82470703125,-1.82177734375
0.089,-1.26123046875,5.18505859375,-3.14306640625
0.0895,-0.66064453125,5.58544921875,-4.18408203125
0.09,0.14013671875,5.62548828125,-4.86474609375
0.0905,1.06103515625,5.02490234375,-5.26513671875
0.091,2.30224609375,3.98388671875,-5.62548828125
0.0915,3.58349609375,2.74267578125,-5.90576171875
0.092,4.50439453125,1.82177734375,-6.14599609375
0.0925,4.86474609375,1.22119140625,-6.26611328125
0.093,4.90478515625,0.54052734375,-5.86572265625
0.0935,4.74462890625,-0.50048828125,-5.06494140625
0.094,4.66455078125,-1.74169921875,-3.98388671875
0.0945,4.66455078125,-3.06298828125,-2.94287109375
0.095,4.74462890625,-4.02392578125,-2.22216796875
0.0955,4.54443359375,-4.62451171875,-1.58154296875
0.096,3.86376953125,-4.94482421875,-0.78076171875
0.0965,2.78271484375,-5.26513671875,0.58056640625
0.097,1.62158203125,-5.62548828125,2.02197265625
0.0975,0.82080078125,-6.10595703125,3.26318359375
0.098,0.22021484375,-6.38623046875,4.22412109375
0.0985,-0.66064453125,-6.22607421875,4.86474609375
0.099,-1.78173828125,-5.34521484375,5.30517578125
0.0995,-3.14306640625,-4.18408203125,5.66552734375
0.1,-4.30419921875,-3.06298828125,5.90576171875
0.1005,-5.06494140625,-2.26220703125,6.18603515625
0.101,-5.30517578125,-1.62158203125,6.10595703125
0.1015,-5.26513671875,-0.90087890625,5.58544921875
0.102,-5.10498046875,0.30029296875,4.58447265625
0.1025,-5.06494140625,1.66162109375,3.42333984375
0.103,-5.10498046875,2.90283203125,2.50244140625
0.1035,-5.06494140625,3.78369140625,1.78173828125
0.104,-4.62451171875,4.18408203125,1.10107421875
0.1045,-3.70361328125,4.42431640625,0.06005859375
0.105,-2.62255859375,4.74462890625,-1.38134765625
0.1055,-1.54150390625,5.06494140625,-2.82275390625
0.106,-0.78076171875,5.50537109375,-3.90380859375
0.1065,-0.22021484375,5.70556640625,-4.70458984375
0.107,0.78076171875,5.26513671875,-5.22509765625
0.1075,1.98193359375,4.22412109375,-5.58544921875
0.108,3.34326171875,2.94287109375,-5.86572265625
0.1085,4.38427734375,1.90185546875,-6.10595703125
0.109,4.94482421875,1.26123046875,-6.26611328125
0.1095,4.98486328125,0.58056640625,-6.02587890625
0.11,4.82470703125,-0.34033203125,-5.26513671875
0.1105,4.70458984375,-1.58154296875,-4.18408203125
0.111,4.66455078125,-2.90283203125,-3.06298828125
0.1115,4.70458984375,-4.02392578125,-2.18212890625
0.112,4.54443359375,-4.74462890625,-1.54150390625
0.1125,3.98388671875,-5.10498046875,-0.78076171875
0.113,2.90283203125,-5.26513671875,0.50048828125
0.1135,1.70166015625,-5.62548828125,1.90185546875
0.114,0.78076171875,-5.94580078125,3.26318359375
0.1145,0.18017578125,-6.38623046875,4.30419921875
0.115,-0.66064453125,-6.30615234375,4.98486328125
0.1155,-1.66162109375,-5.58544921875,5.38525390625
0.116,-3.06298828125,-4.42431640625,5.74560546875
0.1165,-4.30419921875,-3.10302734375,5.94580078125
0.117,-5.18505859375,-2.14208984375,6.22607421875
0.1175,-5.50537109375,-1.54150390625,6.22607421875
0.118,-5.42529296875,-0.82080078125,5.74560546875
0.1185,-5.18505859375,0.30029296875,4.74462890625
0.119,-5.10498046875,1.58154296875,3.58349609375
0.1195,-5.06494140625,2.90283203125,2.50244140625
0.12,-5.10498046875,3.86376953125,1.74169921875
0.1205,-4.74462890625,4.34423828125,1.02099609375
0.121,-3.94384765625,4.54443359375,0.18017578125
0.1215,-2.74267578125,4.74462890625,-1.26123046875
0.122,-1.46142578125,5.10498046875,-2.78271484375
0.1225,-0.66064453125,5.50537109375,-3.98388671875
0.123,0.02001953125,5.78564453125,-4.86474609375
0.1235,0.82080078125,5.46533203125,-5.42529296875
0.124,1.98193359375,4.46435546875,-5.74560546875
0.1245,3.34326171875,3.18310546875,-6.06591796875
0.125,4.50439453125,1.94189453125,-6.26611328125
0.1255,5.14501953125,1.14111328125,-6.42626953125
0.126,5.30517578125,0.50048828125,-6.22607421875
0.1265,5.14501953125,-0.38037109375,-5.54541015625
0.127,4.86474609375,-1.58154296875,-4.38427734375
0.1275,4.78466796875,-2.98291015625,-3.06298828125
0.128,4.78466796875,-4.18408203125,-2.10205078125
0.1285,4.66455078125,-5.06494140625,-1.42138671875
0.129,4.10400390625,-5.42529296875,-0.66064453125
0.1295,3.02294921875,-5.54541015625,0.50048828125
0.13,1.78173828125,-5.74560546875,1.98193359375
0.1305,0.62060546875,-6.06591796875,3.46337890625
0.131,-0.18017578125,-6.42626953125,4.58447265625
0.1315,-0.82080078125,-6.46630859375,5.34521484375
0.132,-1.82177734375,-5.82568359375,5.82568359375
0.1325,-3.18310546875,-4.54443359375,6.06591796875
0.133,-4.54443359375,-3.14306640625,6.26611328125
0.1335,-5.50537109375,-1.98193359375,6.42626953125
0.134,-5.94580078125,-1.26123046875,6.42626953125
0.1345,-5.86572265625,-0.58056640625,5.94580078125
0.135,-5.58544921875,0.58056640625,4.94482421875
0.1355,-5.34521484375,1.94189453125,3.62353515625
0.136,-5.18505859375,3.34326171875,2.26220703125
0.1365,-5.14501953125,4.34423828125,1.38134765625
0.137,-4.82470703125,4.86474609375,0.70068359375
0.1375,-4.02392578125,5.06494140625,-0.26025390625
0.138,-2.70263671875,5.14501953125,-1.54150390625
0.1385,-1.26123046875,5.38525390625,-3.18310546875
0.139,-0.26025390625,5.66552734375,-4.50439453125
0.1395,0.50048828125,5.94580078125,-5.42529296875
0.14,1.22119140625,5.66552734375,-6.02587890625
0.1405,2.34228515625,4.66455078125,-6.26611328125
0.141,3.78369140625,3.22314453125,-6.50634765625
0.1415,4.98486328125,1.78173828125,-6.58642578125
0.142,5.74560546875,0.78076171875,-6.70654296875
0.1425,5.90576171875,0.06005859375,-6.50634765625
0.143,5.62548828125,-0.82080078125,-5.74560546875
0.1435,5.26513671875,-2.02197265625,-4.50439453125
0.144,5.02490234375,-3.54345703125,-2.98291015625
0.1445,4.86474609375,-4.82470703125,-1.78173828125
0.145,4.74462890625,-5.70556640625,-0.98095703125
0.1455,4.18408203125,-6.10595703125,-0.30029296875
0.146,3.14306640625,-6.06591796875,0.82080078125
0.1465,1.58154296875,-6.10595703125,2.42236328125
0.147,0.18017578125,-6.30615234375,3.98388671875
0.1475,-0.70068359375,-6.58642578125,5.14501953125
0.148,-1.30126953125,-6.70654296875,5.90576171875
0.1485,-2.22216796875,-6.10595703125,6.38623046875
0.149,-3.58349609375,-4.70458984375,6.54638671875
0.1495,-4.98486328125,-3.18310546875,6.70654296875
0.15,-6.02587890625,-1.78173828125,6.70654296875
0.1505,-6.50634765625,-0.90087890625,6.70654296875
0.151,-6.42626953125,-0.18017578125,6.26611328125
0.1515,-6.10595703125,0.82080078125,5.26513671875
0.152,-5.66552734375,2.22216796875,3.78369140625
0.1525,-5.42529296875,3.66357421875,2.26220703125
0.153,-5.26513671875,4.82470703125,1.14111328125
0.1535,-4.94482421875,5.42529296875,0.38037109375
0.154,-4.14404296875,5.58544921875,-0.50048828125
0.1545,-2.78271484375,5.58544921875,-1.70166015625
0.155,-1.22119140625,5.66552734375,-3.34326171875
0.1555,0.14013671875,5.78564453125,-4.82470703125
0.156,0.86083984375,6.06591796875,-5.82568359375
0.1565,1.46142578125,5.90576171875,-6.38623046875
0.157,2.50244140625,5.02490234375,-6.70654296875
0.1575,3.86376953125,3.50341796875,-6.86669921875
0.158,5.18505859375,1.90185546875,-6.90673828125
0.1585,6.06591796875,0.66064453125,-6.90673828125
0.159,6.30615234375,-0.18017578125,-6.74658203125
0.1595,6.06591796875,-0.94091796875,-6.10595703125
0.16,5.62548828125,-1.98193359375,-4.90478515625
0.1605,5.26513671875,-3.54345703125,-3.30322265625
0.161,5.02490234375,-4.94482421875,-1.90185546875
0.1615,4.82470703125,-5.90576171875,-0.94091796875
0.162,4.42431640625,-6.34619140625,-0.26025390625
0.1625,3.42333984375,-6.38623046875,0.74072265625
0.163,1.90185546875,-6.30615234375,2.18212890625
0.1635,0.34033203125,-6.38623046875,3.86376953125
0.164,-0.78076171875,-6.58642578125,5.14501953125
0.1645,-1.42138671875,-6.74658203125,6.06591796875
0.165,-2.18212890625,-6.38623046875,6.54638671875
0.1655,-3.34326171875,-5.22509765625,6.70654296875
0.166,-4.74462890625,-3.66357421875,6.86669921875
0.1665,-5.94580078125,-2.10205078125,6.86669921875
0.167,-6.58642578125,-1.02099609375,6.82666015625
0.1675,-6.66650390625,-0.30029296875,6.54638671875
0.168,-6.34619140625,0.62060546875,5.70556640625
0.1685,-5.90576171875,1.86181640625,4.22412109375
0.169,-5.54541015625,3.34326171875,2.70263671875
0.1695,-5.38525390625,4.62451171875,1.38134765625
0.17,-5.10498046875,5.42529296875,0.58056640625
0.1705,-4.50439453125,5.70556640625,-0.26025390625
0.171,-3.34326171875,5.70556640625,-1.22119140625
0.1715,-1.74169921875,5.70556640625,-2.82275390625
0.172,-0.26025390625,5.74560546875,-4.46435546875
0.1725,0.70068359375,6.02587890625,-5.58544921875
0.173,1.26123046875,6.10595703125,-6.30615234375
0.1735,2.06201171875,5.46533203125,-6.66650390625
0.174,3.42333984375,4.10400390625,-6.82666015625
0.1745,4.78466796875,2.54248046875,-6.90673828125
0.175,5.78564453125,1.10107421875,-6.90673828125
0.1755,6.34619140625,0.22021484375,-6.90673828125
0.176,6.22607421875,-0.62060546875,-6.46630859375
0.1765,5.86572265625,-1.54150390625,-5.50537109375
0.177,5.42529296875,-2.90283203125,-3.98388671875
0.1775,5.10498046875,-4.42431640625,-2.46240234375
0.178,4.98486328125,-5.58544921875,-1.30126953125
0.1785,4.66455078125,-6.26611328125,-0.54052734375
0.179,3.90380859375,-6.38623046875,0.34033203125
0.1795,2.54248046875,-6.34619140625,1.58154296875
0.18,0.98095703125,-6.42626953125,3.26318359375
0.1805,-0.50048828125,-6.54638671875,4.78466796875
0.181,-1.18115234375,-6.78662109375,5.78564453125
0.1815,-1.82177734375,-6.70654296875,6.42626953125
0.182,-2.86279296875,-5.82568359375,6.74658203125
0.1825,-4.34423828125,-4.22412109375,6.90673828125
0.183,-5.62548828125,-2.62255859375,7.02685546875
0.1835,-6.54638671875,-1.30126953125,6.94677734375
0.184,-6.78662109375,-0.58056640625,6.78662109375
0.1845,-6.58642578125,0.30029296875,6.10595703125
0.185,-6.14599609375,1.42138671875,4.86474609375
0.1855,-5.78564453125,2.86279296875,3.22314453125
0.186,-5.46533203125,4.42431640625,1.78173828125
0.1865,-5.26513671875,5.34521484375,0.78076171875
0.187,-4.82470703125,5.78564453125,0.06005859375
0.1875,-3.82373046875,5.82568359375,-0.94091796875
0.188,-2.22216796875,5.74560546875,-2.42236328125
0.1885,-0.62060546875,5.82568359375,-4.14404296875
0.189,0.62060546875,5.98583984375,-5.42529296875
0.1895,1.22119140625,6.14599609375,-6.26611328125
0.19,1.94189453125,5.74560546875,-6.70654296875
0.1905,3.06298828125,4.54443359375,-6.90673828125
0.191,4.50439453125,2.94287109375,-7.02685546875
0.1915,5.66552734375,1.42138671875,-6.98681640625
0.192,6.30615234375,0.34033203125,-6.90673828125
0.1925,6.38623046875,-0.50048828125,-6.66650390625
0.193,5.98583984375,-1.30126953125,-5.78564453125
0.1935,5.50537109375,-2.54248046875,-4.42431640625
0.194,5.14501953125,-3.98388671875,-2.82275390625
0.1945,4.94482421875,-5.26513671875,-1.54150390625
0.195,4.74462890625,-6.06591796875,-0.66064453125
0.1955,4.14404296875,-6.34619140625,0.10009765625
0.196,3.06298828125,-6.34619140625,1.10107421875
0.1965,1.46142578125,-6.34619140625,2.58251953125
0.197,-0.14013671875,-6.38623046875,4.22412109375
0.1975,-0.98095703125,-6.62646484375,5.38525390625
0.198,-1.54150390625,-6.70654296875,6.10595703125
0.1985,-2.34228515625,-6.10595703125,6.46630859375
0.199,-3.62353515625,-4.82470703125,6.66650390625
