wavelength,x,y,z
0.0,-3.913818359375,-3.593505859375,5.975830078125
0.0005,-4.674560546875,-2.392333984375,5.815673828125
0.001,-5.114990234375,-1.751708984375,5.815673828125
0.0015,-5.435302734375,-1.071044921875,5.735595703125
0.002,-5.555419921875,0.050048828125,5.215087890625
0.0025,-5.275146484375,1.171142578125,4.093994140625
0.003,-4.874755859375,2.452392578125,2.892822265625
0.0035,-4.674560546875,3.173095703125,1.891845703125
0.004,-4.554443359375,3.893798828125,1.211181640625
0.0045,-4.394287109375,4.614501953125,0.490478515625
0.005,-3.393310546875,4.974853515625,-0.790771484375
0.0055,-2.112060546875,5.054931640625,-2.112060546875
0.006,-1.111083984375,5.094970703125,-3.193115234375
0.0065,-0.510498046875,5.295166015625,-3.993896484375
0.007,0.330322265625,5.415283203125,-4.874755859375
0.0075,1.331298828125,5.215087890625,-5.715576171875
0.008,2.532470703125,3.973876953125,-5.915771484375
0.0085,3.573486328125,2.612548828125,-5.835693359375
0.009,4.254150390625,1.611572265625,-5.835693359375
0.0095,4.614501953125,1.010986328125,-5.915771484375
0.01,5.014892578125,0.370361328125,-5.835693359375
0.0105,5.014892578125,-0.750732421875,-5.155029296875
0.011,4.774658203125,-1.991943359375,-4.073974609375
0.0115,4.494384765625,-2.992919921875,-2.832763671875
0.012,4.334228515625,-3.833740234375,-2.072021484375
0.0125,4.254150390625,-4.634521484375,-1.391357421875
0.013,3.973876953125,-5.355224609375,-0.510498046875
0.0135,2.892822265625,-5.635498046875,0.850830078125
0.014,1.651611328125,-5.715576171875,2.092041015625
0.0145,0.770751953125,-5.875732421875,3.133056640625
0.015,0.170166015625,-6.115966796875,4.013916015625
0.0155,-0.910888671875,-6.196044921875,5.014892578125
0.016,-1.991943359375,-5.595458984375,5.695556640625
0.0165,-3.193115234375,-4.354248046875,5.775634765625
0.017,-4.154052734375,-3.032958984375,5.735595703125
0.0175,-4.754638671875,-2.232177734375,5.735595703125
0.018,-5.155029296875,-1.551513671875,5.815673828125
0.0185,-5.515380859375,-0.750732421875,5.695556640625
0.019,-5.475341796875,0.530517578125,4.734619140625
0.0195,-5.074951171875,1.731689453125,3.413330078125
0.02,-4.834716796875,2.732666015625,2.332275390625
0.0205,-4.714599609375,3.533447265625,1.611572265625
0.021,-4.514404296875,4.294189453125,0.890869140625
0.0215,-3.873779296875,4.814697265625,-0.310302734375
0.022,-2.752685546875,5.054931640625,-1.551513671875
0.0225,-1.551513671875,5.094970703125,-2.792724609375
0.023,-0.790771484375,5.295166015625,-3.713623046875
0.0235,0.010009765625,5.455322265625,-4.634521484375
0.024,0.930908203125,5.455322265625,-5.595458984375
0.0245,2.212158203125,4.334228515625,-5.955810546875
0.025,3.333251953125,2.932861328125,-5.955810546875
0.0255,4.134033203125,1.771728515625,-5.915771484375
0.026,4.574462890625,1.131103515625,-5.915771484375
0.0265,4.894775390625,0.410400390625,-5.835693359375
0.027,5.255126953125,-0.510498046875,-5.395263671875
0.0275,4.854736328125,-1.791748046875,-4.154052734375
0.028,4.534423828125,-2.952880859375,-2.912841796875
0.0285,4.334228515625,-3.833740234375,-1.991943359375
0.029,4.214111328125,-4.594482421875,-1.311279296875
0.0295,4.053955078125,-5.395263671875,-0.550537109375
0.03,3.052978515625,-5.755615234375,0.810791015625
0.0305,1.731689453125,-5.755615234375,2.132080078125
0.031,0.690673828125,-5.915771484375,3.213134765625
0.0315,0.130126953125,-6.115966796875,4.134033203125
0.032,-0.870849609375,-6.115966796875,5.054931640625
0.0325,-1.951904296875,-5.755615234375,5.815673828125
0.033,-3.273193359375,-4.514404296875,6.055908203125
0.0335,-4.354248046875,-3.072998046875,5.935791015625
0.034,-4.954833984375,-2.031982421875,5.895751953125
0.0345,-5.315185546875,-1.351318359375,5.815673828125
0.035,-5.595458984375,-0.670654296875,5.655517578125
0.0355,-5.555419921875,0.610595703125,4.774658203125
0.036,-5.195068359375,1.891845703125,3.453369140625
0.0365,-4.874755859375,3.012939453125,2.252197265625
0.037,-4.674560546875,3.733642578125,1.411376953125
0.0375,-4.434326171875,4.414306640625,0.650634765625
0.038,-3.953857421875,5.054931640625,-0.350341796875
0.0385,-2.712646484375,5.255126953125,-1.711669921875
0.039,-1.391357421875,5.255126953125,-3.032958984375
0.0395,-0.550537109375,5.335205078125,-3.953857421875
0.04,0.210205078125,5.455322265625,-4.794677734375
0.0405,1.131103515625,5.295166015625,-5.675537109375
0.041,2.332275390625,4.494384765625,-6.236083984375
0.0415,3.493408203125,3.052978515625,-6.276123046875
0.042,4.454345703125,1.731689453125,-6.075927734375
0.0425,4.854736328125,0.970947265625,-5.955810546875
0.043,5.094970703125,0.290283203125,-5.835693359375
0.0435,5.415283203125,-0.710693359375,-5.595458984375
0.044,5.135009765625,-1.951904296875,-4.354248046875
0.0445,4.734619140625,-3.193115234375,-2.912841796875
0.045,4.454345703125,-4.194091796875,-1.871826171875
0.0455,4.214111328125,-4.874755859375,-1.151123046875
0.046,3.973876953125,-5.515380859375,-0.310302734375
0.0465,3.133056640625,-6.035888671875,0.970947265625
0.047,1.771728515625,-6.075927734375,2.292236328125
0.0475,0.530517578125,-6.075927734375,3.533447265625
0.048,-0.310302734375,-6.156005859375,4.374267578125
0.0485,-1.031005859375,-6.276123046875,5.215087890625
0.049,-2.072021484375,-6.035888671875,6.135986328125
0.0495,-3.473388671875,-4.754638671875,6.416259765625
0.05,-4.594482421875,-3.153076171875,6.296142578125
0.0505,-5.195068359375,-1.911865234375,6.135986328125
0.051,-5.515380859375,-1.151123046875,5.975830078125
0.0515,-5.795654296875,-0.390380859375,5.735595703125
0.052,-5.835693359375,0.810791015625,4.934814453125
0.0525,-5.475341796875,2.132080078125,3.533447265625
0.053,-5.114990234375,3.333251953125,2.172119140625
0.0535,-4.794677734375,4.134033203125,1.251220703125
0.054,-4.474365234375,4.774658203125,0.490478515625
0.0545,-4.114013671875,5.415283203125,-0.510498046875
0.055,-2.792724609375,5.615478515625,-1.951904296875
0.0555,-1.271240234375,5.615478515625,-3.353271484375
0.056,-0.270263671875,5.575439453125,-4.434326171875
0.0565,0.490478515625,5.575439453125,-5.195068359375
0.057,1.411376953125,5.415283203125,-6.035888671875
0.0575,2.572509765625,4.734619140625,-6.756591796875
0.058,3.933837890625,3.253173828125,-6.836669921875
0.0585,4.974853515625,1.611572265625,-6.556396484375
0.059,5.415283203125,0.650634765625,-6.356201171875
0.0595,5.615478515625,-0.190185546875,-6.115966796875
0.06,5.775634765625,-1.071044921875,-5.715576171875
0.0605,5.615478515625,-2.432373046875,-4.474365234375
0.061,5.094970703125,-3.833740234375,-2.872802734375
0.0615,4.694580078125,-4.874755859375,-1.551513671875
0.062,4.334228515625,-5.515380859375,-0.670654296875
0.0625,3.853759765625,-6.035888671875,0.210205078125
0.063,3.133056640625,-6.556396484375,1.331298828125
0.0635,1.491455078125,-6.596435546875,2.972900390625
0.064,0.050048828125,-6.436279296875,4.294189453125
0.0645,-0.910888671875,-6.396240234375,5.094970703125
0.065,-1.591552734375,-6.356201171875,5.815673828125
0.0655,-2.752685546875,-5.875732421875,6.616455078125
0.066,-4.073974609375,-4.674560546875,7.096923828125
0.0665,-5.155029296875,-3.113037109375,6.816650390625
0.067,-6.035888671875,-1.551513671875,6.456298828125
0.0675,-6.196044921875,-0.630615234375,6.216064453125
0.068,-6.276123046875,0.250244140625,5.775634765625
0.0685,-6.356201171875,1.291259765625,5.135009765625
0.069,-5.915771484375,2.772705078125,3.533447265625
0.0695,-5.315185546875,3.973876953125,1.931884765625
0.07,-4.834716796875,4.814697265625,0.770751953125
0.0705,-4.434326171875,5.335205078125,0.010009765625
0.071,-3.833740234375,5.815673828125,-0.990966796875
0.0715,-2.632568359375,6.095947265625,-2.352294921875
0.072,-1.031005859375,5.975830078125,-3.873779296875
0.0725,0.330322265625,5.735595703125,-4.994873046875
0.073,1.010986328125,5.655517578125,-5.675537109375
0.0735,1.731689453125,5.455322265625,-6.396240234375
0.074,2.772705078125,5.054931640625,-7.076904296875
0.0745,4.013916015625,3.373291015625,-7.197021484375
0.075,5.135009765625,1.771728515625,-6.796630859375
0.0755,5.735595703125,0.490478515625,-6.476318359375
0.076,5.855712890625,-0.350341796875,-6.236083984375
0.0765,5.895751953125,-1.151123046875,-5.795654296875
0.077,5.815673828125,-2.312255859375,-4.834716796875
0.0775,5.295166015625,-3.673583984375,-3.193115234375
0.078,4.774658203125,-4.874755859375,-1.751708984375
0.0785,4.334228515625,-5.555419921875,-0.750732421875
0.079,3.973876953125,-6.115966796875,0.050048828125
0.0795,3.493408203125,-6.596435546875,0.970947265625
0.08,2.011962890625,-6.756591796875,2.532470703125
0.0805,0.410400390625,-6.556396484375,3.893798828125
0.081,-0.750732421875,-6.476318359375,4.934814453125
0.0815,-1.391357421875,-6.476318359375,5.615478515625
0.082,-2.272216796875,-6.156005859375,6.416259765625
0.0825,-3.553466796875,-5.475341796875,7.016845703125
0.083,-4.754638671875,-3.713623046875,7.056884765625
0.0835,-5.755615234375,-2.112060546875,6.656494140625
0.084,-6.115966796875,-1.031005859375,6.336181640625
0.0845,-6.276123046875,-0.310302734375,6.055908203125
0.085,-6.396240234375,0.650634765625,5.655517578125
0.0855,-6.115966796875,1.971923828125,4.334228515625
0.086,-5.635498046875,3.333251953125,2.772705078125
0.0865,-5.114990234375,4.414306640625,1.331298828125
0.087,-4.714599609375,4.974853515625,0.530517578125
0.0875,-4.194091796875,5.495361328125,-0.390380859375
0.088,-3.473388671875,5.975830078125,-1.471435546875
0.0885,-1.911865234375,5.975830078125,-3.072998046875
0.089,-0.350341796875,5.735595703125,-4.434326171875
0.0895,0.570556640625,5.695556640625,-5.275146484375
0.09,1.251220703125,5.695556640625,-5.955810546875
0.0905,2.252197265625,5.295166015625,-6.676513671875
0.091,3.533447265625,4.134033203125,-7.197021484375
0.0915,4.734619140625,2.532470703125,-7.036865234375
0.092,5.575439453125,0.970947265625,-6.676513671875
0.0925,5.815673828125,0.170166015625,-6.396240234375
0.093,5.895751953125,-0.710693359375,-6.115966796875
0.0935,6.015869140625,-1.751708984375,-5.475341796875
0.094,5.615478515625,-3.193115234375,-3.873779296875
0.0945,5.054931640625,-4.514404296875,-2.272216796875
0.095,4.574462890625,-5.395263671875,-1.071044921875
0.0955,4.214111328125,-5.955810546875,-0.310302734375
0.096,3.693603515625,-6.436279296875,0.690673828125
0.0965,2.572509765625,-6.836669921875,2.011962890625
0.097,0.930908203125,-6.716552734375,3.573486328125
0.0975,-0.590576171875,-6.556396484375,4.774658203125
0.098,-1.271240234375,-6.436279296875,5.495361328125
0.0985,-1.991943359375,-6.276123046875,6.256103515625
0.099,-3.072998046875,-5.835693359375,7.056884765625
0.0995,-4.554443359375,-4.234130859375,7.177001953125
0.1,-5.635498046875,-2.512451171875,6.896728515625
0.1005,-6.236083984375,-1.151123046875,6.496337890625
0.101,-6.356201171875,-0.390380859375,6.216064453125
0.1015,-6.436279296875,0.570556640625,5.735595703125
0.102,-6.276123046875,1.771728515625,4.694580078125
0.1025,-5.835693359375,3.173095703125,3.052978515625
0.103,-5.235107421875,4.374267578125,1.531494140625
0.1035,-4.794677734375,5.054931640625,0.570556640625
0.104,-4.314208984375,5.535400390625,-0.310302734375
0.1045,-3.793701171875,6.015869140625,-1.271240234375
0.105,-2.232177734375,6.095947265625,-2.832763671875
0.1055,-0.630615234375,5.855712890625,-4.274169921875
0.106,0.610595703125,5.735595703125,-5.235107421875
0.1065,1.211181640625,5.695556640625,-5.835693359375
0.107,2.092041015625,5.375244140625,-6.596435546875
0.1075,3.253173828125,4.574462890625,-7.197021484375
0.108,4.494384765625,2.932861328125,-7.076904296875
0.1085,5.415283203125,1.291259765625,-6.716552734375
0.109,5.775634765625,0.290283203125,-6.436279296875
0.1095,5.895751953125,-0.510498046875,-6.115966796875
0.11,6.015869140625,-1.471435546875,-5.795654296875
0.1105,5.695556640625,-2.632568359375,-4.434326171875
0.111,5.094970703125,-3.993896484375,-2.752685546875
0.1115,4.614501953125,-5.034912109375,-1.431396484375
0.112,4.254150390625,-5.635498046875,-0.590576171875
0.1125,3.853759765625,-6.196044921875,0.250244140625
0.113,3.133056640625,-6.676513671875,1.291259765625
0.1135,1.571533203125,-6.676513671875,2.772705078125
0.114,0.050048828125,-6.396240234375,4.134033203125
0.1145,-0.870849609375,-6.356201171875,4.974853515625
0.115,-1.511474609375,-6.356201171875,5.735595703125
0.1155,-2.432373046875,-6.075927734375,6.496337890625
0.116,-3.713623046875,-4.954833984375,6.896728515625
0.1165,-4.834716796875,-3.353271484375,6.736572265625
0.117,-5.715576171875,-1.871826171875,6.416259765625
0.1175,-6.035888671875,-1.031005859375,6.176025390625
0.118,-6.236083984375,-0.390380859375,5.935791015625
0.1185,-6.276123046875,0.690673828125,5.415283203125
0.119,-5.835693359375,2.052001953125,3.973876953125
0.1195,-5.315185546875,3.333251953125,2.412353515625
0.12,-4.914794921875,4.214111328125,1.291259765625
0.1205,-4.634521484375,4.814697265625,0.530517578125
0.121,-4.194091796875,5.415283203125,-0.350341796875
0.1215,-3.233154296875,5.735595703125,-1.631591796875
0.122,-1.671630859375,5.735595703125,-3.072998046875
0.1225,-0.390380859375,5.615478515625,-4.274169921875
0.123,0.410400390625,5.655517578125,-5.074951171875
0.1235,1.131103515625,5.615478515625,-5.835693359375
0.124,2.092041015625,5.375244140625,-6.676513671875
0.1245,3.493408203125,3.933837890625,-6.836669921875
0.125,4.574462890625,2.252197265625,-6.596435546875
0.1255,5.255126953125,1.010986328125,-6.356201171875
0.126,5.415283203125,0.170166015625,-6.236083984375
0.1265,5.695556640625,-0.590576171875,-5.915771484375
0.127,5.655517578125,-1.631591796875,-5.114990234375
0.1275,5.175048828125,-2.952880859375,-3.633544921875
0.128,4.734619140625,-4.154052734375,-2.192138671875
0.1285,4.414306640625,-4.954833984375,-1.271240234375
0.129,4.134033203125,-5.595458984375,-0.550537109375
0.1295,3.733642578125,-6.196044921875,0.370361328125
0.13,2.452392578125,-6.356201171875,1.771728515625
0.1305,0.930908203125,-6.156005859375,3.173095703125
0.131,-0.190185546875,-6.115966796875,4.214111328125
0.1315,-0.830810546875,-6.276123046875,4.974853515625
0.132,-1.671630859375,-6.115966796875,5.735595703125
0.1325,-2.752685546875,-5.515380859375,6.456298828125
0.133,-3.993896484375,-4.073974609375,6.456298828125
0.1335,-4.994873046875,-2.552490234375,6.256103515625
0.134,-5.475341796875,-1.551513671875,6.135986328125
0.1345,-5.715576171875,-0.910888671875,5.895751953125
0.135,-5.915771484375,0.010009765625,5.655517578125
0.1355,-5.755615234375,1.171142578125,4.574462890625
0.136,-5.275146484375,2.412353515625,3.173095703125
0.1365,-4.874755859375,3.413330078125,1.891845703125
0.137,-4.634521484375,4.093994140625,1.131103515625
0.1375,-4.354248046875,4.654541015625,0.370361328125
0.138,-3.833740234375,5.255126953125,-0.630615234375
0.1385,-2.512451171875,5.375244140625,-1.951904296875
0.139,-1.151123046875,5.255126953125,-3.233154296875
0.1395,-0.310302734375,5.295166015625,-4.154052734375
0.14,0.410400390625,5.495361328125,-4.914794921875
0.1405,1.251220703125,5.415283203125,-5.755615234375
0.141,2.372314453125,4.574462890625,-6.276123046875
0.1415,3.493408203125,3.173095703125,-6.236083984375
0.142,4.414306640625,1.811767578125,-6.035888671875
0.1425,4.814697265625,1.091064453125,-6.075927734375
0.143,5.094970703125,0.410400390625,-5.915771484375
0.1435,5.375244140625,-0.510498046875,-5.715576171875
0.144,5.094970703125,-1.631591796875,-4.554443359375
0.1445,4.694580078125,-2.912841796875,-3.193115234375
0.145,4.454345703125,-3.873779296875,-2.152099609375
0.1455,4.294189453125,-4.634521484375,-1.431396484375
0.146,4.093994140625,-5.275146484375,-0.670654296875
0.1465,3.373291015625,-5.755615234375,0.490478515625
0.147,2.092041015625,-5.835693359375,1.771728515625
0.1475,0.930908203125,-5.835693359375,2.972900390625
0.148,0.210205078125,-6.115966796875,3.853759765625
0.1485,-0.630615234375,-6.196044921875,4.774658203125
0.149,-1.511474609375,-6.156005859375,5.735595703125
0.1495,-2.832763671875,-4.994873046875,6.055908203125
0.15,-3.913818359375,-3.553466796875,5.935791015625
0.1505,-4.714599609375,-2.432373046875,5.895751953125
0.151,-5.114990234375,-1.711669921875,5.855712890625
0.1515,-5.435302734375,-0.990966796875,5.775634765625
0.152,-5.595458984375,0.050048828125,5.215087890625
0.1525,-5.275146484375,1.171142578125,4.013916015625
0.153,-4.994873046875,2.332275390625,2.772705078125
0.1535,-4.794677734375,3.173095703125,1.891845703125
0.154,-4.634521484375,3.933837890625,1.211181640625
0.1545,-4.434326171875,4.734619140625,0.490478515625
0.155,-3.353271484375,5.014892578125,-0.870849609375
0.1555,-2.072021484375,5.054931640625,-2.192138671875
0.156,-1.071044921875,5.135009765625,-3.273193359375
0.1565,-0.470458984375,5.375244140625,-4.114013671875
0.157,0.450439453125,5.415283203125,-4.994873046875
0.1575,1.411376953125,5.094970703125,-5.755615234375
0.158,2.612548828125,3.853759765625,-5.915771484375
0.1585,3.693603515625,2.572509765625,-5.755615234375
0.159,4.334228515625,1.571533203125,-5.835693359375
0.1595,4.734619140625,0.970947265625,-5.915771484375
0.16,5.094970703125,0.250244140625,-5.835693359375
0.1605,5.014892578125,-0.950927734375,-5.074951171875
0.161,4.694580078125,-2.152099609375,-3.793701171875
0.1615,4.454345703125,-3.233154296875,-2.632568359375
0.162,4.334228515625,-3.993896484375,-1.911865234375
0.1625,4.214111328125,-4.754638671875,-1.231201171875
0.163,3.853759765625,-5.435302734375,-0.310302734375
0.1635,2.692626953125,-5.715576171875,1.091064453125
0.164,1.451416015625,-5.755615234375,2.372314453125
0.1645,0.650634765625,-5.915771484375,3.333251953125
0.165,0.010009765625,-6.156005859375,4.214111328125
0.1655,-0.990966796875,-6.156005859375,5.175048828125
0.166,-2.192138671875,-5.435302734375,5.775634765625
0.1665,-3.353271484375,-4.194091796875,5.735595703125
0.167,-4.314208984375,-2.832763671875,5.775634765625
0.1675,-4.834716796875,-2.072021484375,5.775634765625
0.168,-5.195068359375,-1.391357421875,5.775634765625
0.1685,-5.555419921875,-0.590576171875,5.535400390625
0.169,-5.355224609375,0.690673828125,4.494384765625
0.1695,-5.114990234375,1.891845703125,3.173095703125
0.17,-4.794677734375,2.892822265625,2.212158203125
0.1705,-4.674560546875,3.693603515625,1.491455078125
0.171,-4.474365234375,4.414306640625,0.730712890625
0.1715,-3.753662109375,4.894775390625,-0.510498046875
0.172,-2.552490234375,5.054931640625,-1.711669921875
0.1725,-1.391357421875,5.094970703125,-2.912841796875
0.173,-0.710693359375,5.295166015625,-3.793701171875
0.1735,0.130126953125,5.455322265625,-4.714599609375
0.174,1.010986328125,5.415283203125,-5.635498046875
0.1745,2.212158203125,4.134033203125,-5.955810546875
0.175,3.453369140625,2.852783203125,-5.915771484375
0.1755,4.214111328125,1.771728515625,-5.835693359375
0.176,4.614501953125,1.091064453125,-5.915771484375
0.1765,4.974853515625,0.290283203125,-5.795654296875
0.177,5.094970703125,-0.750732421875,-5.235107421875
0.1775,4.814697265625,-1.951904296875,-4.073974609375
0.178,4.534423828125,-3.072998046875,-2.832763671875
0.1785,4.374267578125,-3.913818359375,-1.991943359375
0.179,4.254150390625,-4.634521484375,-1.271240234375
0.1795,4.053955078125,-5.435302734375,-0.510498046875
0.18,2.932861328125,-5.715576171875,0.890869140625
0.1805,1.611572265625,-5.755615234375,2.212158203125
0.181,0.650634765625,-5.875732421875,3.253173828125
0.1815,0.010009765625,-6.115966796875,4.134033203125
0.182,-0.950927734375,-6.075927734375,5.054931640625
0.1825,-1.951904296875,-5.435302734375,5.815673828125
0.183,-3.273193359375,-4.354248046875,5.975830078125
0.1835,-4.354248046875,-2.912841796875,5.855712890625
0.184,-4.914794921875,-1.991943359375,5.815673828125
0.1845,-5.275146484375,-1.351318359375,5.775634765625
0.185,-5.635498046875,-0.630615234375,5.695556640625
0.1855,-5.475341796875,0.690673828125,4.694580078125
0.186,-5.155029296875,1.931884765625,3.373291015625
0.1865,-4.874755859375,2.972900390625,2.212158203125
0.187,-4.674560546875,3.733642578125,1.451416015625
0.1875,-4.434326171875,4.414306640625,0.690673828125
0.188,-3.913818359375,5.014892578125,-0.390380859375
