wavelength,x,y,z
0.0,-6.636474609375,21.110595703125,-14.444091796875
0.0005,-10.760498046875,21.911376953125,-11.240966796875
0.001,-14.123779296875,21.470947265625,-7.517333984375
0.0015,-17.567138671875,21.030517578125,-3.793701171875
0.002,-19.889404296875,19.348876953125,0.290283203125
0.0025,-21.651123046875,17.547119140625,3.813720703125
0.003,-21.771240234375,13.943603515625,7.537353515625
0.0035,-21.771240234375,9.979736328125,11.421142578125
0.004,-21.731201171875,7.096923828125,14.183837890625
0.0045,-20.169677734375,2.372314453125,17.306884765625
0.005,-18.928466796875,-1.591552734375,19.709228515625
0.0055,-15.885498046875,-5.715576171875,20.670166015625
0.006,-12.642333984375,-10.039794921875,21.711181640625
0.0065,-8.157958984375,-13.763427734375,20.790283203125
0.007,-4.754638671875,-16.926513671875,20.590087890625
0.0075,0.170166015625,-19.529052734375,18.347900390625
0.008,4.013916015625,-21.931396484375,16.986572265625
0.0085,8.258056640625,-22.211669921875,13.022705078125
0.009,12.141845703125,-22.732177734375,9.739501953125
0.0095,15.344970703125,-22.451904296875,6.336181640625
0.01,18.668212890625,-21.290771484375,1.971923828125
0.0105,20.710205078125,-19.489013671875,-1.871826171875
0.011,21.911376953125,-17.046630859375,-5.475341796875
0.0115,21.951416015625,-13.282958984375,-9.239013671875
0.012,21.510986328125,-9.158935546875,-12.842529296875
0.0125,21.430908203125,-6.396240234375,-15.485107421875
0.013,19.509033203125,-1.471435546875,-18.407958984375
0.0135,18.227783203125,2.412353515625,-20.730224609375
0.014,14.263916015625,6.776611328125,-21.090576171875
0.0145,11.140869140625,10.820556640625,-21.811279296875
0.015,6.776611328125,14.384033203125,-20.970458984375
0.0155,2.612548828125,17.467041015625,-19.889404296875
0.016,-1.951904296875,19.869384765625,-17.847412109375
0.0165,-5.955810546875,21.991455078125,-16.005615234375
0.017,-9.879638671875,21.791259765625,-11.961669921875
0.0175,-13.603271484375,21.911376953125,-8.478271484375
0.018,-16.566162109375,21.751220703125,-5.395263671875
0.0185,-19.729248046875,20.149658203125,-0.670654296875
0.019,-21.490966796875,18.227783203125,3.012939453125
0.0195,-22.131591796875,15.064697265625,6.776611328125
0.02,-22.331787109375,11.581298828125,10.380126953125
0.0205,-21.490966796875,7.417236328125,13.663330078125
0.021,-21.130615234375,4.254150390625,16.385986328125
0.0215,-19.288818359375,-0.510498046875,19.108642578125
0.022,-17.447021484375,-4.674560546875,21.270751953125
0.0225,-13.202880859375,-8.918701171875,21.110595703125
0.023,-9.919677734375,-12.762451171875,21.631103515625
0.0235,-6.115966796875,-15.885498046875,20.830322265625
0.024,-1.311279296875,-18.968505859375,19.228759765625
0.0245,2.612548828125,-21.010498046875,17.346923828125
0.025,7.217041015625,-22.772216796875,14.584228515625
0.0255,10.780517578125,-22.652099609375,10.940673828125
0.026,14.544189453125,-22.331787109375,7.096923828125
0.0265,17.266845703125,-21.931396484375,4.013916015625
0.027,20.109619140625,-20.209716796875,-0.590576171875
0.0275,21.711181640625,-18.087646484375,-4.234130859375
0.028,21.631103515625,-14.163818359375,-8.037841796875
0.0285,22.071533203125,-11.000732421875,-11.561279296875
0.029,21.030517578125,-6.956787109375,-14.484130859375
0.0295,20.269775390625,-3.353271484375,-17.326904296875
0.03,18.588134765625,0.890869140625,-19.609130859375
0.0305,15.985595703125,5.495361328125,-21.490966796875
0.031,11.981689453125,9.299072265625,-21.210693359375
0.0315,8.298095703125,13.262939453125,-21.370849609375
0.032,4.614501953125,15.985595703125,-20.369873046875
0.0325,-0.590576171875,19.228759765625,-18.568115234375
0.033,-4.114013671875,20.950439453125,-16.846435546875
0.0335,-8.838623046875,21.991455078125,-13.242919921875
0.034,-12.041748046875,22.071533203125,-10.159912109375
0.0345,-15.765380859375,21.591064453125,-6.075927734375
0.035,-18.407958984375,20.750244140625,-2.632568359375
0.0355,-20.810302734375,19.068603515625,1.571533203125
0.036,-22.371826171875,16.506103515625,5.575439453125
0.0365,-21.811279296875,12.302001953125,9.098876953125
0.037,-22.371826171875,9.339111328125,12.662353515625
0.0375,-21.170654296875,5.335205078125,15.385009765625
0.038,-20.089599609375,1.051025390625,18.427978515625
0.0385,-18.327880859375,-2.872802734375,20.389892578125
0.039,-14.844482421875,-7.957763671875,21.831298828125
0.0395,-11.040771484375,-11.441162109375,21.470947265625
0.04,-7.116943359375,-15.324951171875,21.350830078125
0.0405,-3.193115234375,-17.847412109375,19.869384765625
0.041,1.691650390625,-20.970458984375,18.227783203125
0.0415,5.575439453125,-22.572021484375,15.945556640625
0.042,10.219970703125,-22.932373046875,11.861572265625
0.0425,13.423095703125,-23.052490234375,8.898681640625
0.043,17.026611328125,-22.251708984375,4.534423828125
0.0435,19.629150390625,-21.010498046875,0.770751953125
0.044,21.470947265625,-19.168701171875,-2.912841796875
0.0445,22.752197265625,-15.925537109375,-7.397216796875
0.045,21.911376953125,-11.601318359375,-10.840576171875
0.0455,22.111572265625,-8.478271484375,-14.123779296875
0.046,20.790283203125,-4.434326171875,-16.726318359375
0.0465,19.509033203125,0.170166015625,-19.849365234375
0.047,17.226806640625,3.973876953125,-21.210693359375
0.0475,13.343017578125,9.018798828125,-22.291748046875
0.048,9.579345703125,12.382080078125,-21.771240234375
0.0485,5.295166015625,16.145751953125,-21.210693359375
0.049,0.890869140625,18.548095703125,-19.208740234375
0.0495,-3.433349609375,21.230712890625,-17.807373046875
0.05,-7.757568359375,22.552001953125,-14.764404296875
0.0505,-11.761474609375,22.431884765625,-10.720458984375
0.051,-15.004638671875,22.552001953125,-7.717529296875
0.0515,-18.367919921875,21.270751953125,-3.193115234375
0.052,-21.010498046875,19.829345703125,0.970947265625
0.0525,-22.131591796875,17.747314453125,4.134033203125
0.053,-23.132568359375,14.023681640625,8.778564453125
0.0535,-22.331787109375,9.939697265625,12.061767578125
0.054,-22.131591796875,6.496337890625,15.224853515625
0.0545,-20.489990234375,2.252197265625,17.747314453125
0.055,-19.368896484375,-2.152099609375,20.750244140625
0.0555,-16.125732421875,-6.356201171875,21.591064453125
0.056,-12.241943359375,-10.920654296875,22.191650390625
0.0565,-8.638427734375,-14.283935546875,21.791259765625
0.057,-4.033935546875,-17.767333984375,20.630126953125
0.0575,0.570556640625,-20.209716796875,18.588134765625
0.058,4.214111328125,-22.291748046875,17.146728515625
0.0585,9.018798828125,-23.372802734375,13.463134765625
0.059,12.702392578125,-22.812255859375,9.339111328125
0.0595,16.025634765625,-23.052490234375,6.376220703125
0.06,18.988525390625,-21.330810546875,1.771728515625
0.0605,21.470947265625,-19.849365234375,-2.272216796875
0.061,22.031494140625,-17.166748046875,-5.435302734375
0.0615,22.712158203125,-13.282958984375,-9.959716796875
0.062,21.951416015625,-9.359130859375,-13.122802734375
0.0625,21.470947265625,-5.675537109375,-16.205810546875
0.063,19.669189453125,-1.431396484375,-18.568115234375
0.0635,18.468017578125,2.572509765625,-21.130615234375
0.064,14.744384765625,7.096923828125,-21.771240234375
0.0645,10.620361328125,11.260986328125,-21.851318359375
0.065,7.337158203125,14.544189453125,-21.691162109375
0.0655,2.132080078125,17.787353515625,-19.729248046875
0.066,-2.192138671875,20.309814453125,-18.007568359375
0.0665,-5.835693359375,21.871337890625,-16.005615234375
0.067,-10.320068359375,22.752197265625,-12.442138671875
0.0675,-13.803466796875,21.911376953125,-8.278076171875
0.068,-17.126708984375,22.071533203125,-5.195068359375
0.0685,-19.809326171875,20.109619140625,-0.590576171875
0.069,-22.091552734375,18.548095703125,3.253173828125
0.0695,-22.211669921875,15.264892578125,6.656494140625
0.07,-22.732177734375,11.461181640625,10.900634765625
0.0705,-22.051513671875,7.857666015625,13.783447265625
0.071,-21.130615234375,3.533447265625,17.026611328125
0.0715,-19.489013671875,-0.630615234375,19.348876953125
0.072,-17.607177734375,-4.754638671875,21.470947265625
0.0725,-13.763427734375,-9.279052734375,22.071533203125
0.073,-9.439208984375,-13.282958984375,21.591064453125
0.0735,-6.396240234375,-16.365966796875,21.470947265625
0.074,-0.990966796875,-19.328857421875,19.188720703125
0.0745,3.133056640625,-21.811279296875,17.747314453125
0.075,7.257080078125,-22.732177734375,14.584228515625
0.0755,11.501220703125,-23.572998046875,11.260986328125
0.076,14.904541015625,-22.692138671875,7.056884765625
0.0765,18.147705078125,-22.291748046875,3.493408203125
0.077,20.550048828125,-20.329833984375,-0.910888671875
0.0775,22.592041015625,-18.447998046875,-4.794677734375
0.078,22.271728515625,-14.444091796875,-8.358154296875
0.0785,22.632080078125,-10.600341796875,-12.522216796875
0.079,21.911376953125,-7.357177734375,-15.044677734375
0.0795,20.429931640625,-2.512451171875,-18.247802734375
0.08,18.908447265625,1.451416015625,-20.489990234375
0.0805,15.945556640625,5.895751953125,-21.891357421875
0.081,12.462158203125,10.099853515625,-22.451904296875
0.0815,7.697509765625,14.063720703125,-21.651123046875
0.082,4.334228515625,16.906494140625,-21.010498046875
0.0825,-1.191162109375,19.869384765625,-18.568115234375
0.083,-5.114990234375,22.271728515625,-17.126708984375
0.0835,-9.399169921875,22.391845703125,-13.002685546875
0.084,-13.122802734375,23.032470703125,-10.039794921875
0.0845,-16.365966796875,22.151611328125,-6.035888671875
0.085,-19.489013671875,21.070556640625,-1.831787109375
0.0855,-21.651123046875,19.068603515625,2.332275390625
0.086,-23.332763671875,16.626220703125,6.416259765625
0.0865,-22.772216796875,12.542236328125,9.899658203125
0.087,-22.772216796875,8.658447265625,13.743408203125
0.0875,-22.051513671875,5.495361328125,16.065673828125
0.088,-20.169677734375,0.290283203125,19.228759765625
0.0885,-18.568115234375,-3.713623046875,21.470947265625
0.089,-14.604248046875,-8.438232421875,22.071533203125
0.0895,-11.401123046875,-12.281982421875,22.552001953125
0.09,-6.756591796875,-15.885498046875,21.510986328125
0.0905,-2.872802734375,-18.568115234375,20.269775390625
0.091,2.172119140625,-21.210693359375,18.067626953125
0.0915,6.536376953125,-23.572998046875,16.065673828125
0.092,10.620361328125,-23.092529296875,11.661376953125
0.0925,14.303955078125,-23.532958984375,8.458251953125
0.093,17.266845703125,-22.652099609375,4.774658203125
0.0935,20.349853515625,-21.130615234375,0.210205078125
0.094,22.071533203125,-19.088623046875,-3.633544921875
0.0945,23.152587890625,-15.765380859375,-7.957763671875
0.095,22.792236328125,-11.961669921875,-11.361083984375
0.0955,22.231689453125,-7.877685546875,-14.804443359375
0.096,21.390869140625,-4.754638671875,-17.046630859375
0.0965,19.509033203125,0.370361328125,-20.009521484375
0.097,17.427001953125,4.534423828125,-22.091552734375
0.0975,13.102783203125,9.018798828125,-22.131591796875
0.098,9.819580078125,12.822509765625,-22.451904296875
0.0985,5.375244140625,16.105712890625,-21.210693359375
0.099,0.770751953125,18.948486328125,-19.489013671875
0.0995,-3.513427734375,21.190673828125,-17.567138671875
0.1,-8.398193359375,23.192626953125,-14.724365234375
0.1005,-11.841552734375,22.552001953125,-10.760498046875
0.101,-15.565185546875,22.712158203125,-7.317138671875
0.1015,-18.207763671875,21.591064453125,-3.593505859375
0.102,-21.250732421875,19.909423828125,1.131103515625
0.1025,-22.692138671875,17.667236328125,4.774658203125
0.103,-23.132568359375,13.743408203125,9.098876953125
0.1035,-23.132568359375,10.380126953125,12.342041015625
0.104,-22.131591796875,6.216064453125,15.505126953125
0.1045,-20.970458984375,2.452392578125,17.907470703125
0.105,-19.208740234375,-2.272216796875,20.670166015625
0.1055,-16.325927734375,-7.156982421875,22.471923828125
0.106,-12.041748046875,-11.080810546875,22.111572265625
0.1065,-8.678466796875,-14.764404296875,22.351806640625
0.107,-4.354248046875,-17.647216796875,20.830322265625
0.1075,0.690673828125,-20.690185546875,18.988525390625
0.108,4.454345703125,-22.451904296875,17.026611328125
0.1085,9.739501953125,-23.973388671875,13.302978515625
0.109,12.942626953125,-23.372802734375,9.659423828125
0.1095,16.666259765625,-23.292724609375,5.935791015625
0.11,19.148681640625,-21.731201171875,1.971923828125
0.1105,21.791259765625,-20.049560546875,-2.432373046875
0.111,23.032470703125,-17.206787109375,-6.436279296875
0.1115,22.912353515625,-12.842529296875,-10.560302734375
0.112,22.992431640625,-9.719482421875,-13.763427734375
0.1125,21.711181640625,-5.515380859375,-16.646240234375
0.113,20.189697265625,-1.311279296875,-19.208740234375
0.1135,18.347900390625,2.892822265625,-21.410888671875
0.114,14.784423828125,8.258056640625,-23.012451171875
0.1145,10.500244140625,11.861572265625,-22.251708984375
0.115,7.056884765625,15.505126953125,-22.291748046875
0.1155,2.252197265625,18.067626953125,-20.089599609375
0.116,-2.592529296875,21.150634765625,-18.447998046875
0.1165,-6.436279296875,22.552001953125,-16.005615234375
0.117,-11.321044921875,23.392822265625,-12.081787109375
0.1175,-14.364013671875,22.832275390625,-8.678466796875
0.118,-17.967529296875,22.431884765625,-4.634521484375
0.1185,-20.369873046875,20.469970703125,-0.350341796875
0.119,-22.531982421875,18.748291015625,3.533447265625
0.1195,-23.572998046875,15.344970703125,7.937744140625
0.12,-23.092529296875,11.020751953125,11.701416015625
0.1205,-23.052490234375,7.937744140625,14.664306640625
0.121,-21.450927734375,3.373291015625,17.507080078125
0.1215,-20.009521484375,-1.071044921875,20.229736328125
0.122,-17.567138671875,-5.114990234375,21.791259765625
0.1225,-13.803466796875,-10.320068359375,23.152587890625
0.123,-9.479248046875,-13.723388671875,22.111572265625
0.1235,-5.835693359375,-17.246826171875,21.951416015625
0.124,-0.910888671875,-19.609130859375,19.388916015625
0.1245,3.533447265625,-22.451904296875,17.947509765625
0.125,7.857666015625,-23.412841796875,14.664306640625
0.1255,12.342041015625,-23.893310546875,10.740478515625
0.126,15.385009765625,-23.532958984375,7.417236328125
0.1265,18.748291015625,-22.451904296875,3.052978515625
0.127,21.070556640625,-20.570068359375,-1.151123046875
0.1275,22.632080078125,-18.447998046875,-4.834716796875
0.128,23.392822265625,-14.604248046875,-9.359130859375
0.1285,22.672119140625,-10.320068359375,-12.882568359375
0.129,22.511962890625,-7.357177734375,-15.685302734375
0.1295,20.469970703125,-2.632568359375,-18.287841796875
0.13,19.268798828125,1.651611328125,-21.050537109375
0.1305,15.945556640625,5.935791015625,-21.851318359375
0.131,12.302001953125,10.740478515625,-22.932373046875
0.1315,8.097900390625,14.103759765625,-21.931396484375
0.132,3.893798828125,17.427001953125,-21.090576171875
0.1325,-1.071044921875,19.789306640625,-18.568115234375
0.133,-4.994873046875,22.271728515625,-17.166748046875
0.1335,-9.479248046875,22.832275390625,-13.322998046875
0.134,-13.403076171875,22.792236328125,-9.519287109375
0.1345,-16.365966796875,22.672119140625,-6.476318359375
0.135,-19.529052734375,20.990478515625,-1.751708984375
0.1355,-21.771240234375,19.148681640625,2.372314453125
0.136,-22.732177734375,16.546142578125,5.895751953125
0.1365,-23.372802734375,12.742431640625,10.219970703125
0.137,-22.491943359375,8.618408203125,13.463134765625
0.1375,-22.251708984375,5.335205078125,16.345947265625
0.138,-19.969482421875,0.610595703125,18.828369140625
0.1385,-18.728271484375,-3.553466796875,21.470947265625
0.139,-14.724365234375,-7.997802734375,21.791259765625
0.1395,-11.040771484375,-12.402099609375,22.431884765625
0.14,-7.357177734375,-15.525146484375,21.751220703125
0.1405,-2.672607421875,-18.608154296875,20.149658203125
0.141,1.931884765625,-20.890380859375,17.987548828125
0.1415,6.015869140625,-22.932373046875,15.985595703125
0.142,10.380126953125,-23.452880859375,12.181884765625
0.1425,14.063720703125,-22.972412109375,8.137939453125
0.143,16.946533203125,-22.892333984375,5.255126953125
0.1435,19.869384765625,-20.930419921875,0.490478515625
0.144,21.991455078125,-19.168701171875,-3.433349609375
0.1445,22.271728515625,-15.765380859375,-7.116943359375
0.145,22.952392578125,-12.161865234375,-11.361083984375
0.1455,21.911376953125,-8.238037109375,-14.243896484375
0.146,21.310791015625,-4.594482421875,-17.126708984375
0.1465,19.228759765625,0.050048828125,-19.408935546875
0.147,17.386962890625,4.254150390625,-21.651123046875
0.1475,13.383056640625,8.618408203125,-21.931396484375
0.148,9.339111328125,12.782470703125,-21.971435546875
0.1485,6.015869140625,15.625244140625,-21.410888671875
0.149,0.770751953125,18.708251953125,-19.208740234375
0.1495,-3.313232421875,20.950439453125,-17.487060546875
0.15,-7.797607421875,22.271728515625,-14.404052734375
0.1505,-11.561279296875,22.792236328125,-11.281005859375
0.151,-15.084716796875,22.071533203125,-7.156982421875
0.1515,-17.847412109375,21.631103515625,-3.993896484375
0.152,-20.489990234375,19.589111328125,0.690673828125
0.1525,-22.451904296875,17.627197265625,4.614501953125
0.153,-22.251708984375,13.703369140625,8.258056640625
0.1535,-22.932373046875,10.219970703125,12.221923828125
0.154,-21.891357421875,6.696533203125,14.784423828125
0.1545,-20.770263671875,2.412353515625,17.827392578125
0.155,-18.928466796875,-1.871826171875,19.989501953125
0.1555,-16.005615234375,-6.596435546875,21.751220703125
0.156,-12.482177734375,-10.560302734375,22.031494140625
0.1565,-8.197998046875,-14.524169921875,21.631103515625
0.157,-4.994873046875,-17.006591796875,20.830322265625
0.1575,0.410400390625,-20.049560546875,18.588134765625
0.158,4.334228515625,-22.171630859375,16.946533203125
0.1585,9.098876953125,-22.772216796875,12.822509765625
0.159,12.582275390625,-23.372802734375,10.059814453125
0.1595,15.945556640625,-22.612060546875,6.015869140625
0.16,18.628173828125,-21.611083984375,2.292236328125
0.1605,20.910400390625,-19.649169921875,-1.951904296875
0.161,22.592041015625,-17.086669921875,-6.196044921875
0.1615,22.071533203125,-12.962646484375,-9.679443359375
0.162,22.431884765625,-9.479248046875,-13.443115234375
0.1625,21.430908203125,-6.115966796875,-15.685302734375
0.163,19.909423828125,-1.471435546875,-18.728271484375
0.1635,18.067626953125,2.532470703125,-20.650146484375
0.164,14.303955078125,7.537353515625,-21.811279296875
0.1645,11.020751953125,11.180908203125,-22.091552734375
0.165,6.696533203125,14.904541015625,-21.410888671875
0.1655,2.852783203125,17.306884765625,-19.889404296875
0.166,-2.031982421875,20.109619140625,-17.967529296875
0.1665,-6.316162109375,22.151611328125,-15.845458984375
0.167,-10.400146484375,22.071533203125,-11.641357421875
0.1675,-13.843505859375,22.552001953125,-8.838623046875
0.168,-16.886474609375,21.671142578125,-4.994873046875
0.1685,-19.729248046875,20.229736328125,-0.830810546875
0.169,-21.490966796875,18.187744140625,3.012939453125
0.1695,-22.812255859375,14.984619140625,7.457275390625
0.17,-22.371826171875,11.220947265625,10.740478515625
0.1705,-22.251708984375,7.617431640625,14.223876953125
0.171,-21.090576171875,4.174072265625,16.385986328125
0.1715,-19.529052734375,-0.630615234375,19.428955078125
0.172,-17.166748046875,-4.834716796875,21.190673828125
0.1725,-13.122802734375,-9.599365234375,21.751220703125
0.173,-9.999755859375,-13.002685546875,21.951416015625
0.1735,-5.795654296875,-16.365966796875,21.030517578125
0.174,-1.591552734375,-18.768310546875,19.228759765625
0.1745,2.692626953125,-21.130615234375,17.467041015625
0.175,7.617431640625,-23.052490234375,14.544189453125
0.1755,11.301025390625,-22.612060546875,10.540283203125
0.176,14.744384765625,-23.012451171875,7.537353515625
0.1765,17.427001953125,-21.811279296875,3.693603515625
0.177,20.189697265625,-20.369873046875,-0.510498046875
0.1775,21.510986328125,-17.967529296875,-4.234130859375
0.178,22.311767578125,-14.083740234375,-8.758544921875
0.1785,22.111572265625,-10.680419921875,-11.921630859375
0.179,21.551025390625,-7.036865234375,-15.004638671875
0.1795,20.189697265625,-3.433349609375,-17.086669921875
0.18,18.788330078125,1.010986328125,-19.889404296875
0.1805,15.745361328125,5.735595703125,-21.490966796875
