wavelength,x,y,z
0.0,3.593505859375,-2.532470703125,-1.971923828125
0.0005,3.713623046875,-1.971923828125,-2.812744140625
0.001,3.273193359375,-1.131103515625,-3.173095703125
0.0015,3.153076171875,-0.490478515625,-3.773681640625
0.002,2.512451171875,0.470458984375,-3.893798828125
0.0025,2.072021484375,1.191162109375,-4.294189453125
0.003,1.151123046875,2.312255859375,-4.494384765625
0.0035,0.430419921875,2.912841796875,-4.294189453125
0.004,-0.570556640625,3.393310546875,-3.853759765625
0.0045,-1.131103515625,3.833740234375,-3.653564453125
0.005,-1.891845703125,3.993896484375,-3.052978515625
0.0055,-2.532470703125,4.154052734375,-2.492431640625
0.006,-3.333251953125,4.394287109375,-1.811767578125
0.0065,-3.493408203125,3.873779296875,-1.051025390625
0.007,-3.853759765625,3.833740234375,-0.530517578125
0.0075,-3.853759765625,3.072998046875,0.310302734375
0.008,-4.013916015625,2.592529296875,1.071044921875
0.0085,-3.973876953125,1.751708984375,1.991943359375
0.009,-3.933837890625,1.111083984375,2.552490234375
0.0095,-3.533447265625,0.310302734375,2.952880859375
0.01,-3.333251953125,-0.250244140625,3.313232421875
0.0105,-2.652587890625,-1.010986328125,3.513427734375
0.011,-2.252197265625,-1.771728515625,3.793701171875
0.0115,-1.411376953125,-2.732666015625,3.873779296875
0.012,-0.610595703125,-3.213134765625,3.553466796875
0.0125,0.190185546875,-3.773681640625,3.353271484375
0.013,0.790771484375,-4.053955078125,2.992919921875
0.0135,1.471435546875,-4.334228515625,2.552490234375
0.014,2.232177734375,-4.534423828125,1.951904296875
0.0145,2.912841796875,-4.694580078125,1.311279296875
0.015,3.072998046875,-4.174072265625,0.590576171875
0.0155,3.553466796875,-4.214111328125,0.030029296875
0.016,3.593505859375,-3.373291015625,-0.970947265625
0.0165,3.793701171875,-3.052978515625,-1.771728515625
0.017,3.873779296875,-2.092041015625,-2.732666015625
0.0175,3.793701171875,-1.451416015625,-3.453369140625
0.018,3.233154296875,-0.490478515625,-3.773681640625
0.0185,2.992919921875,0.190185546875,-4.214111328125
0.019,2.272216796875,1.151123046875,-4.454345703125
0.0195,1.631591796875,2.031982421875,-4.694580078125
0.02,0.710693359375,3.072998046875,-4.814697265625
0.0205,-0.330322265625,3.553466796875,-4.254150390625
0.021,-1.091064453125,4.154052734375,-4.093994140625
0.0215,-1.931884765625,4.434326171875,-3.413330078125
0.022,-2.732666015625,4.634521484375,-2.732666015625
0.0225,-3.493408203125,4.754638671875,-2.052001953125
0.023,-4.134033203125,4.674560546875,-1.251220703125
0.0235,-4.174072265625,3.993896484375,-0.330322265625
0.024,-4.534423828125,3.793701171875,0.350341796875
0.0245,-4.574462890625,2.592529296875,1.591552734375
0.025,-4.494384765625,1.951904296875,2.192138671875
0.0255,-4.414306640625,0.990966796875,3.072998046875
0.026,-3.893798828125,0.230224609375,3.553466796875
0.0265,-3.413330078125,-0.650634765625,3.873779296875
0.027,-2.892822265625,-1.451416015625,4.154052734375
0.0275,-2.011962890625,-2.492431640625,4.314208984375
0.028,-1.251220703125,-3.173095703125,4.234130859375
0.0285,-0.330322265625,-4.053955078125,4.154052734375
0.029,0.670654296875,-4.294189453125,3.433349609375
0.0295,1.271240234375,-4.774658203125,3.193115234375
0.03,2.232177734375,-4.894775390625,2.312255859375
0.0305,2.792724609375,-4.934814453125,1.711669921875
0.031,3.393310546875,-4.934814453125,0.990966796875
0.0315,3.833740234375,-4.654541015625,0.270263671875
0.032,3.873779296875,-4.013916015625,-0.610595703125
0.0325,4.194091796875,-3.773681640625,-1.291259765625
0.033,4.033935546875,-2.692626953125,-2.332275390625
0.0335,3.993896484375,-2.172119140625,-2.852783203125
0.034,3.873779296875,-1.211181640625,-3.773681640625
0.0345,3.353271484375,-0.330322265625,-4.093994140625
0.035,2.992919921875,0.470458984375,-4.494384765625
0.0355,2.312255859375,1.351318359375,-4.734619140625
0.036,1.591552734375,2.272216796875,-4.974853515625
0.0365,0.790771484375,3.072998046875,-4.894775390625
0.037,-0.250244140625,3.873779296875,-4.774658203125
0.0375,-1.211181640625,4.234130859375,-4.093994140625
0.038,-1.811767578125,4.794677734375,-3.893798828125
0.0385,-2.852783203125,4.914794921875,-2.892822265625
0.039,-3.493408203125,4.994873046875,-2.372314453125
0.0395,-4.134033203125,4.954833984375,-1.531494140625
0.04,-4.534423828125,4.594482421875,-0.650634765625
0.0405,-4.814697265625,3.833740234375,0.310302734375
0.041,-4.894775390625,3.393310546875,1.111083984375
0.0415,-4.854736328125,2.192138671875,2.352294921875
0.042,-4.734619140625,1.591552734375,2.872802734375
0.0425,-4.494384765625,0.590576171875,3.793701171875
0.043,-3.813720703125,-0.490478515625,4.114013671875
0.0435,-3.333251953125,-1.291259765625,4.474365234375
0.044,-2.452392578125,-2.372314453125,4.674560546875
0.0445,-1.571533203125,-3.413330078125,4.794677734375
0.045,-0.610595703125,-4.053955078125,4.434326171875
0.0455,0.470458984375,-4.774658203125,4.154052734375
0.046,1.351318359375,-4.974853515625,3.353271484375
0.0465,1.991943359375,-5.295166015625,2.992919921875
0.047,3.153076171875,-5.415283203125,1.871826171875
0.0475,3.673583984375,-5.295166015625,1.191162109375
0.048,4.154052734375,-4.974853515625,0.270263671875
0.0485,4.394287109375,-4.534423828125,-0.610595703125
0.049,4.354248046875,-3.813720703125,-1.411376953125
0.0495,4.434326171875,-3.173095703125,-2.292236328125
0.05,4.354248046875,-1.931884765625,-3.413330078125
0.0505,3.993896484375,-1.291259765625,-3.773681640625
0.051,3.673583984375,-0.290283203125,-4.494384765625
0.0515,2.952880859375,0.630615234375,-4.694580078125
0.052,2.472412109375,1.351318359375,-4.974853515625
0.0525,1.551513671875,2.432373046875,-5.094970703125
0.053,0.790771484375,3.353271484375,-5.135009765625
0.0535,-0.250244140625,3.873779296875,-4.694580078125
0.054,-1.131103515625,4.514404296875,-4.454345703125
0.0545,-1.971923828125,4.674560546875,-3.693603515625
0.055,-2.572509765625,4.994873046875,-3.333251953125
0.0555,-3.653564453125,5.074951171875,-2.252197265625
0.056,-4.013916015625,4.954833984375,-1.691650390625
0.0565,-4.494384765625,4.634521484375,-0.810791015625
0.057,-4.734619140625,4.154052734375,0.030029296875
0.0575,-4.814697265625,3.513427734375,0.870849609375
0.058,-4.814697265625,2.752685546875,1.791748046875
0.0585,-4.854736328125,1.791748046875,2.872802734375
0.059,-4.454345703125,1.031005859375,3.233154296875
0.0595,-4.214111328125,0.070068359375,3.993896484375
0.06,-3.493408203125,-0.890869140625,4.194091796875
0.0605,-3.052978515625,-1.691650390625,4.594482421875
0.061,-1.971923828125,-2.852783203125,4.714599609375
0.0615,-1.251220703125,-3.693603515625,4.754638671875
0.062,-0.130126953125,-4.294189453125,4.194091796875
0.0625,0.790771484375,-4.974853515625,3.993896484375
0.063,1.631591796875,-5.135009765625,3.233154296875
0.0635,2.352294921875,-5.375244140625,2.712646484375
0.064,3.513427734375,-5.575439453125,1.631591796875
0.0645,3.873779296875,-5.295166015625,0.910888671875
0.065,4.314208984375,-4.974853515625,-0.130126953125
0.0655,4.514404296875,-4.454345703125,-0.970947265625
0.066,4.514404296875,-3.573486328125,-1.851806640625
0.0665,4.514404296875,-2.652587890625,-2.852783203125
0.067,4.514404296875,-1.651611328125,-3.893798828125
0.0675,3.873779296875,-0.730712890625,-4.214111328125
0.068,3.553466796875,0.270263671875,-4.894775390625
0.0685,2.712646484375,1.151123046875,-4.934814453125
0.069,2.192138671875,1.951904296875,-5.215087890625
0.0695,1.031005859375,3.193115234375,-5.295166015625
0.07,0.150146484375,3.993896484375,-5.135009765625
0.0705,-1.051025390625,4.434326171875,-4.414306640625
0.071,-1.731689453125,4.874755859375,-4.174072265625
0.0715,-2.532470703125,4.914794921875,-3.333251953125
0.072,-3.213134765625,5.074951171875,-2.692626953125
0.0725,-4.254150390625,5.195068359375,-1.691650390625
0.073,-4.454345703125,4.634521484375,-0.890869140625
0.0735,-4.814697265625,4.274169921875,-0.130126953125
0.074,-4.774658203125,3.673583984375,0.710693359375
0.0745,-4.814697265625,2.912841796875,1.551513671875
0.075,-4.654541015625,1.951904296875,2.512451171875
0.0755,-4.614501953125,1.151123046875,3.353271484375
0.076,-3.933837890625,0.270263671875,3.553466796875
0.0765,-3.773681640625,-0.570556640625,4.154052734375
0.077,-2.892822265625,-1.411376953125,4.194091796875
0.0775,-2.492431640625,-2.092041015625,4.474365234375
0.078,-1.371337890625,-3.253173828125,4.514404296875
0.0785,-0.610595703125,-3.813720703125,4.234130859375
0.079,0.430419921875,-4.334228515625,3.793701171875
0.0795,1.071044921875,-4.774658203125,3.473388671875
0.08,1.831787109375,-4.894775390625,2.792724609375
0.0805,2.512451171875,-5.094970703125,2.232177734375
0.081,3.433349609375,-5.375244140625,1.391357421875
0.0815,3.593505859375,-4.814697265625,0.590576171875
0.082,4.114013671875,-4.654541015625,-0.170166015625
0.0825,4.114013671875,-3.853759765625,-1.051025390625
0.083,4.274169921875,-3.293212890625,-1.891845703125
0.0835,4.194091796875,-2.332275390625,-2.852783203125
0.084,4.154052734375,-1.571533203125,-3.653564453125
0.0845,3.553466796875,-0.610595703125,-4.013916015625
0.085,3.353271484375,0.190185546875,-4.614501953125
0.0855,2.512451171875,1.151123046875,-4.694580078125
0.086,1.991943359375,1.911865234375,-5.014892578125
0.0865,0.950927734375,3.153076171875,-5.094970703125
0.087,0.030029296875,3.713623046875,-4.694580078125
0.0875,-1.010986328125,4.274169921875,-4.294189453125
0.088,-1.731689453125,4.634521484375,-3.853759765625
0.0885,-2.572509765625,4.794677734375,-3.133056640625
0.089,-3.253173828125,4.834716796875,-2.452392578125
0.0895,-4.134033203125,4.954833984375,-1.571533203125
0.09,-4.254150390625,4.274169921875,-0.650634765625
0.0905,-4.654541015625,4.154052734375,0.030029296875
0.091,-4.534423828125,3.153076171875,1.031005859375
0.0915,-4.614501953125,2.512451171875,1.791748046875
0.092,-4.494384765625,1.511474609375,2.752685546875
0.0925,-4.254150390625,0.710693359375,3.353271484375
0.093,-3.613525390625,-0.250244140625,3.673583984375
0.0935,-3.333251953125,-0.890869140625,3.993896484375
0.094,-2.492431640625,-1.771728515625,4.073974609375
0.0945,-1.891845703125,-2.492431640625,4.154052734375
0.095,-0.930908203125,-3.533447265625,4.194091796875
0.0955,0.030029296875,-3.853759765625,3.633544921875
0.096,0.710693359375,-4.334228515625,3.393310546875
0.0965,1.351318359375,-4.494384765625,2.872802734375
0.097,1.991943359375,-4.734619140625,2.312255859375
0.0975,2.672607421875,-4.814697265625,1.631591796875
0.098,3.233154296875,-4.814697265625,0.950927734375
0.0985,3.353271484375,-4.134033203125,0.230224609375
0.099,3.713623046875,-4.134033203125,-0.370361328125
0.0995,3.673583984375,-3.173095703125,-1.251220703125
0.1,3.833740234375,-2.732666015625,-1.931884765625
0.1005,3.793701171875,-1.931884765625,-2.852783203125
0.101,3.513427734375,-1.331298828125,-3.173095703125
0.1015,3.193115234375,-0.530517578125,-3.733642578125
0.102,2.832763671875,0.190185546875,-4.013916015625
0.1025,2.272216796875,1.031005859375,-4.334228515625
0.103,1.631591796875,1.911865234375,-4.534423828125
0.1035,0.830810546875,2.752685546875,-4.614501953125
0.104,-0.130126953125,3.193115234375,-4.093994140625
0.1045,-0.770751953125,3.873779296875,-4.093994140625
0.105,-1.571533203125,3.993896484375,-3.453369140625
0.1055,-2.212158203125,4.354248046875,-3.133056640625
0.106,-3.012939453125,4.514404296875,-2.412353515625
0.1065,-3.533447265625,4.434326171875,-1.651611328125
0.107,-3.813720703125,3.993896484375,-0.890869140625
0.1075,-4.134033203125,3.833740234375,-0.290283203125
0.108,-4.134033203125,2.872802734375,0.830810546875
0.1085,-4.334228515625,2.392333984375,1.591552734375
0.109,-4.334228515625,1.511474609375,2.512451171875
0.1095,-3.853759765625,0.750732421875,2.872802734375
0.11,-3.653564453125,0.030029296875,3.393310546875
0.1105,-3.052978515625,-0.890869140625,3.593505859375
0.111,-2.492431640625,-1.651611328125,3.913818359375
0.1115,-1.651611328125,-2.532470703125,3.913818359375
0.112,-0.850830078125,-3.253173828125,3.873779296875
0.1125,0.110107421875,-3.653564453125,3.313232421875
0.113,0.630615234375,-4.214111328125,3.233154296875
0.1135,1.551513671875,-4.334228515625,2.432373046875
0.114,2.072021484375,-4.534423828125,1.991943359375
0.1145,2.712646484375,-4.534423828125,1.311279296875
0.115,3.032958984375,-4.214111328125,0.630615234375
0.1155,3.233154296875,-3.893798828125,0.030029296875
0.116,3.353271484375,-3.453369140625,-0.690673828125
0.1165,3.433349609375,-2.692626953125,-1.571533203125
0.117,3.473388671875,-2.212158203125,-2.172119140625
0.1175,3.393310546875,-1.491455078125,-2.892822265625
0.118,2.952880859375,-0.770751953125,-3.173095703125
0.1185,2.872802734375,-0.250244140625,-3.693603515625
0.119,2.232177734375,0.630615234375,-3.813720703125
0.1195,1.871826171875,1.311279296875,-4.174072265625
0.12,1.071044921875,2.112060546875,-4.174072265625
0.1205,0.350341796875,2.712646484375,-4.013916015625
0.121,-0.490478515625,3.113037109375,-3.693603515625
0.1215,-0.970947265625,3.553466796875,-3.573486328125
0.122,-1.731689453125,3.793701171875,-3.012939453125
0.1225,-2.252197265625,4.114013671875,-2.692626953125
0.123,-2.892822265625,4.154052734375,-2.011962890625
0.1235,-3.133056640625,3.833740234375,-1.411376953125
0.124,-3.573486328125,3.793701171875,-0.810791015625
0.1245,-3.693603515625,3.153076171875,0.070068359375
0.125,-3.933837890625,2.632568359375,0.910888671875
0.1255,-3.973876953125,2.031982421875,1.591552734375
0.126,-3.973876953125,1.431396484375,2.272216796875
0.1265,-3.533447265625,0.630615234375,2.632568359375
0.127,-3.493408203125,0.030029296875,3.233154296875
0.1275,-2.732666015625,-0.970947265625,3.433349609375
0.128,-2.292236328125,-1.731689453125,3.793701171875
0.1285,-1.411376953125,-2.572509765625,3.753662109375
0.129,-0.650634765625,-3.213134765625,3.513427734375
0.1295,0.110107421875,-3.693603515625,3.233154296875
0.13,0.790771484375,-4.093994140625,2.872802734375
0.1305,1.591552734375,-4.294189453125,2.272216796875
0.131,2.112060546875,-4.454345703125,1.871826171875
0.1315,2.752685546875,-4.454345703125,1.191162109375
0.132,2.952880859375,-3.973876953125,0.470458984375
0.1325,3.353271484375,-3.813720703125,-0.250244140625
0.133,3.393310546875,-2.972900390625,-1.211181640625
0.1335,3.553466796875,-2.492431640625,-1.931884765625
0.134,3.433349609375,-1.771728515625,-2.572509765625
0.1345,3.273193359375,-1.131103515625,-3.173095703125
0.135,2.832763671875,-0.370361328125,-3.453369140625
0.1355,2.552490234375,0.350341796875,-3.853759765625
0.136,1.791748046875,1.311279296875,-4.093994140625
0.1365,1.271240234375,1.991943359375,-4.214111328125
0.137,0.390380859375,2.712646484375,-4.093994140625
0.1375,-0.450439453125,3.153076171875,-3.773681640625
0.138,-1.010986328125,3.513427734375,-3.533447265625
0.1385,-1.771728515625,3.833740234375,-2.932861328125
0.139,-2.412353515625,4.033935546875,-2.412353515625
0.1395,-2.812744140625,3.993896484375,-1.931884765625
0.14,-3.253173828125,3.913818359375,-1.291259765625
0.1405,-3.373291015625,3.433349609375,-0.650634765625
0.141,-3.733642578125,3.273193359375,0.030029296875
0.1415,-3.733642578125,2.352294921875,0.950927734375
0.142,-3.853759765625,1.991943359375,1.551513671875
0.1425,-3.693603515625,1.311279296875,2.152099609375
0.143,-3.533447265625,0.710693359375,2.552490234375
0.1435,-3.213134765625,0.030029296875,2.952880859375
0.144,-2.812744140625,-0.730712890625,3.273193359375
0.1445,-2.212158203125,-1.571533203125,3.553466796875
0.145,-1.611572265625,-2.292236328125,3.593505859375
0.1455,-0.850830078125,-2.972900390625,3.513427734375
0.146,-0.130126953125,-3.413330078125,3.153076171875
0.1465,0.510498046875,-3.813720703125,3.072998046875
0.147,1.311279296875,-4.053955078125,2.432373046875
0.1475,1.911865234375,-4.374267578125,2.072021484375
0.148,2.392333984375,-4.334228515625,1.471435546875
0.1485,2.832763671875,-4.214111328125,0.870849609375
0.149,3.072998046875,-3.853759765625,0.150146484375
0.1495,3.393310546875,-3.533447265625,-0.610595703125
0.15,3.513427734375,-2.692626953125,-1.611572265625
0.1505,3.593505859375,-2.292236328125,-2.212158203125
0.151,3.433349609375,-1.451416015625,-2.932861328125
0.1515,3.113037109375,-0.770751953125,-3.333251953125
0.152,2.832763671875,0.030029296875,-3.813720703125
0.1525,2.232177734375,0.910888671875,-4.134033203125
0.153,1.551513671875,1.831787109375,-4.414306640625
0.1535,0.790771484375,2.472412109375,-4.254150390625
0.154,-0.130126953125,3.193115234375,-4.134033203125
0.1545,-0.890869140625,3.553466796875,-3.653564453125
0.155,-1.531494140625,3.993896484375,-3.373291015625
0.1555,-2.492431640625,4.194091796875,-2.572509765625
0.156,-3.052978515625,4.314208984375,-2.052001953125
0.1565,-3.453369140625,4.073974609375,-1.331298828125
0.157,-3.773681640625,3.833740234375,-0.690673828125
0.1575,-3.853759765625,3.233154296875,0.150146484375
0.158,-4.013916015625,2.672607421875,0.990966796875
0.1585,-4.093994140625,1.791748046875,1.951904296875
0.159,-3.853759765625,1.231201171875,2.392333984375
0.1595,-3.693603515625,0.470458984375,2.992919921875
0.16,-3.173095703125,-0.290283203125,3.193115234375
0.1605,-2.812744140625,-0.970947265625,3.553466796875
0.161,-2.052001953125,-1.971923828125,3.713623046875
0.1615,-1.371337890625,-2.732666015625,3.873779296875
0.162,-0.530517578125,-3.253173828125,3.433349609375
0.1625,0.190185546875,-3.773681640625,3.353271484375
0.163,0.830810546875,-3.973876953125,2.832763671875
0.1635,1.431396484375,-4.294189453125,2.512451171875
0.164,2.312255859375,-4.494384765625,1.711669921875
0.1645,2.712646484375,-4.454345703125,1.271240234375
0.165,3.072998046875,-4.214111328125,0.590576171875
0.1655,3.273193359375,-3.853759765625,-0.130126953125
0.166,3.473388671875,-3.413330078125,-0.850830078125
0.1665,3.553466796875,-2.732666015625,-1.651611328125
0.167,3.673583984375,-2.092041015625,-2.532470703125
0.1675,3.393310546875,-1.451416015625,-2.932861328125
0.168,3.313232421875,-0.770751953125,-3.573486328125
0.1685,2.752685546875,0.070068359375,-3.813720703125
0.169,2.432373046875,0.710693359375,-4.294189453125
0.1695,1.551513671875,1.791748046875,-4.494384765625
0.17,0.990966796875,2.592529296875,-4.654541015625
0.1705,-0.130126953125,3.233154296875,-4.174072265625
0.171,-0.770751953125,3.873779296875,-4.093994140625
0.1715,-1.571533203125,4.114013671875,-3.493408203125
0.172,-2.252197265625,4.474365234375,-3.093017578125
0.1725,-3.213134765625,4.674560546875,-2.252197265625
0.173,-3.653564453125,4.434326171875,-1.531494140625
0.1735,-4.093994140625,4.234130859375,-0.770751953125
0.174,-4.254150390625,3.713623046875,0.030029296875
0.1745,-4.414306640625,3.072998046875,0.950927734375
0.175,-4.454345703125,2.232177734375,1.951904296875
0.1755,-4.494384765625,1.431396484375,2.872802734375
0.176,-3.893798828125,0.510498046875,3.233154296875
0.1765,-3.773681640625,-0.330322265625,3.873779296875
0.177,-3.012939453125,-1.211181640625,3.913818359375
0.1775,-2.492431640625,-1.931884765625,4.194091796875
0.178,-1.411376953125,-3.173095703125,4.314208984375
0.1785,-0.570556640625,-3.813720703125,4.154052734375
0.179,0.470458984375,-4.254150390625,3.553466796875
0.1795,1.111083984375,-4.694580078125,3.313232421875
0.18,1.951904296875,-4.774658203125,2.512451171875
0.1805,2.592529296875,-4.934814453125,1.951904296875
0.181,3.553466796875,-5.094970703125,1.031005859375
0.1815,3.713623046875,-4.494384765625,0.190185546875
0.182,3.993896484375,-4.294189453125,-0.490478515625
0.1825,3.993896484375,-3.533447265625,-1.291259765625
0.183,4.033935546875,-2.852783203125,-2.092041015625
0.1835,3.913818359375,-1.891845703125,-3.052978515625
0.184,3.873779296875,-1.131103515625,-3.773681640625
0.1845,3.193115234375,-0.250244140625,-4.013916015625
0.185,2.992919921875,0.390380859375,-4.494384765625
0.1855,2.192138671875,1.231201171875,-4.494384765625
0.186,1.711669921875,1.951904296875,-4.814697265625
0.1865,0.670654296875,3.153076171875,-4.854736328125
0.187,-0.250244140625,3.673583984375,-4.494384765625
0.1875,-1.131103515625,4.154052734375,-4.093994140625
0.188,-1.771728515625,4.514404296875,-3.733642578125
