wavelength,x,y,z
0.0,-5.915771484375,1.331298828125,4.734619140625
0.0005,-5.675537109375,2.652587890625,3.373291015625
0.001,-5.315185546875,3.853759765625,1.971923828125
0.0015,-4.994873046875,4.734619140625,0.930908203125
0.002,-4.594482421875,5.415283203125,0.130126953125
0.0025,-3.753662109375,5.615478515625,-0.950927734375
0.003,-2.392333984375,5.775634765625,-2.392333984375
0.0035,-1.111083984375,6.015869140625,-3.873779296875
0.004,0.130126953125,5.895751953125,-4.954833984375
0.0045,0.810791015625,6.055908203125,-5.835693359375
0.005,1.651611328125,5.735595703125,-6.476318359375
0.0055,3.012939453125,4.534423828125,-6.876708984375
0.006,4.334228515625,3.173095703125,-7.116943359375
0.0065,5.255126953125,1.771728515625,-7.036865234375
0.007,5.815673828125,0.650634765625,-6.756591796875
0.0075,6.015869140625,-0.230224609375,-6.516357421875
0.008,5.815673828125,-1.151123046875,-5.755615234375
0.0085,5.535400390625,-2.432373046875,-4.434326171875
0.009,5.295166015625,-3.833740234375,-3.072998046875
0.0095,4.854736328125,-4.994873046875,-1.791748046875
0.01,4.534423828125,-5.755615234375,-0.790771484375
0.0105,4.013916015625,-6.276123046875,0.130126953125
0.011,3.012939453125,-6.436279296875,1.291259765625
0.0115,1.571533203125,-6.636474609375,2.852783203125
0.012,0.210205078125,-6.676513671875,4.294189453125
0.0125,-0.830810546875,-6.636474609375,5.255126953125
0.013,-1.511474609375,-6.716552734375,6.095947265625
0.0135,-2.512451171875,-6.075927734375,6.576416015625
0.014,-3.953857421875,-4.714599609375,6.896728515625
0.0145,-5.155029296875,-3.313232421875,7.056884765625
0.015,-5.955810546875,-1.951904296875,6.816650390625
0.0155,-6.396240234375,-0.990966796875,6.576416015625
0.016,-6.396240234375,-0.150146484375,6.135986328125
0.0165,-6.115966796875,0.970947265625,5.175048828125
0.017,-5.835693359375,2.292236328125,3.813720703125
0.0175,-5.595458984375,3.653564453125,2.372314453125
0.018,-5.114990234375,4.654541015625,1.171142578125
0.0185,-4.794677734375,5.415283203125,0.290283203125
0.019,-4.033935546875,5.695556640625,-0.670654296875
0.0195,-2.752685546875,5.855712890625,-2.031982421875
0.02,-1.431396484375,6.095947265625,-3.553466796875
0.0205,0.010009765625,5.975830078125,-4.834716796875
0.021,0.770751953125,6.055908203125,-5.755615234375
0.0215,1.491455078125,5.895751953125,-6.396240234375
0.022,2.652587890625,5.014892578125,-6.916748046875
0.0225,4.093994140625,3.533447265625,-7.116943359375
0.023,5.135009765625,2.172119140625,-7.156982421875
0.0235,5.775634765625,0.890869140625,-6.876708984375
0.024,6.055908203125,0.010009765625,-6.636474609375
0.0245,5.935791015625,-0.950927734375,-6.035888671875
0.025,5.615478515625,-2.112060546875,-4.834716796875
0.0255,5.295166015625,-3.473388671875,-3.513427734375
0.026,4.974853515625,-4.634521484375,-2.072021484375
0.0265,4.574462890625,-5.515380859375,-0.990966796875
0.027,4.134033203125,-6.115966796875,-0.190185546875
0.0275,3.333251953125,-6.356201171875,0.890869140625
0.028,1.971923828125,-6.476318359375,2.252197265625
0.0285,0.610595703125,-6.636474609375,3.813720703125
0.029,-0.590576171875,-6.556396484375,4.854736328125
0.0295,-1.271240234375,-6.636474609375,5.735595703125
0.03,-2.072021484375,-6.316162109375,6.336181640625
0.0305,-3.273193359375,-5.195068359375,6.656494140625
0.031,-4.554443359375,-3.873779296875,6.896728515625
0.0315,-5.475341796875,-2.512451171875,6.776611328125
0.032,-6.035888671875,-1.391357421875,6.536376953125
0.0325,-6.236083984375,-0.670654296875,6.256103515625
0.033,-6.035888671875,0.290283203125,5.575439453125
0.0335,-5.755615234375,1.411376953125,4.414306640625
0.034,-5.515380859375,2.772705078125,3.133056640625
0.0345,-5.114990234375,3.853759765625,1.851806640625
0.035,-4.834716796875,4.774658203125,0.850830078125
0.0355,-4.394287109375,5.255126953125,0.090087890625
0.036,-3.513427734375,5.495361328125,-1.071044921875
0.0365,-2.272216796875,5.735595703125,-2.512451171875
0.037,-0.990966796875,5.775634765625,-3.873779296875
0.0375,0.090087890625,5.855712890625,-4.874755859375
0.038,0.770751953125,6.015869140625,-5.755615234375
0.0385,1.691650390625,5.495361328125,-6.316162109375
0.039,3.012939453125,4.334228515625,-6.676513671875
0.0395,4.214111328125,3.052978515625,-6.876708984375
0.04,5.094970703125,1.771728515625,-6.756591796875
0.0405,5.615478515625,0.690673828125,-6.596435546875
0.041,5.735595703125,-0.150146484375,-6.276123046875
0.0415,5.535400390625,-1.151123046875,-5.475341796875
0.042,5.295166015625,-2.312255859375,-4.274169921875
0.0425,5.094970703125,-3.633544921875,-2.952880859375
0.043,4.734619140625,-4.674560546875,-1.791748046875
0.0435,4.494384765625,-5.515380859375,-0.910888671875
0.044,3.853759765625,-5.915771484375,0.050048828125
0.0445,2.812744140625,-6.115966796875,1.251220703125
0.045,1.571533203125,-6.356201171875,2.692626953125
0.0455,0.330322265625,-6.356201171875,3.933837890625
0.046,-0.590576171875,-6.436279296875,4.894775390625
0.0465,-1.271240234375,-6.436279296875,5.655517578125
0.047,-2.312255859375,-5.755615234375,6.135986328125
0.0475,-3.633544921875,-4.514404296875,6.416259765625
0.048,-4.714599609375,-3.273193359375,6.536376953125
0.0485,-5.435302734375,-2.072021484375,6.376220703125
0.049,-5.795654296875,-1.311279296875,6.256103515625
0.0495,-5.795654296875,-0.550537109375,5.735595703125
0.05,-5.555419921875,0.610595703125,4.854736328125
0.0505,-5.395263671875,1.771728515625,3.773681640625
0.051,-5.155029296875,2.972900390625,2.532470703125
0.0515,-4.834716796875,3.893798828125,1.491455078125
0.052,-4.634521484375,4.614501953125,0.730712890625
0.0525,-3.953857421875,4.974853515625,-0.270263671875
0.053,-2.872802734375,5.215087890625,-1.431396484375
0.0535,-1.791748046875,5.455322265625,-2.752685546875
0.054,-0.710693359375,5.495361328125,-3.873779296875
0.0545,0.050048828125,5.735595703125,-4.834716796875
0.055,0.850830078125,5.615478515625,-5.515380859375
0.0555,1.931884765625,4.814697265625,-6.035888671875
0.056,3.173095703125,3.733642578125,-6.316162109375
0.0565,4.134033203125,2.492431640625,-6.396240234375
0.057,4.814697265625,1.411376953125,-6.316162109375
0.0575,5.175048828125,0.690673828125,-6.276123046875
0.058,5.175048828125,0.010009765625,-5.755615234375
0.0585,5.054931640625,-1.151123046875,-4.874755859375
0.059,4.934814453125,-2.312255859375,-3.873779296875
0.0595,4.654541015625,-3.473388671875,-2.712646484375
0.06,4.534423828125,-4.394287109375,-1.791748046875
0.0605,4.294189453125,-5.074951171875,-1.031005859375
0.061,3.533447265625,-5.435302734375,0.050048828125
0.0615,2.572509765625,-5.795654296875,1.251220703125
0.062,1.411376953125,-5.955810546875,2.572509765625
0.0625,0.490478515625,-6.115966796875,3.653564453125
0.063,-0.310302734375,-6.436279296875,4.614501953125
0.0635,-1.151123046875,-6.115966796875,5.295166015625
0.064,-2.352294921875,-5.275146484375,5.735595703125
0.0645,-3.513427734375,-4.234130859375,6.095947265625
0.065,-4.434326171875,-3.072998046875,6.095947265625
0.0655,-5.114990234375,-2.192138671875,6.095947265625
0.066,-5.395263671875,-1.431396484375,5.975830078125
0.0665,-5.395263671875,-0.590576171875,5.415283203125
0.067,-5.235107421875,0.570556640625,4.534423828125
0.0675,-5.155029296875,1.771728515625,3.493408203125
0.068,-4.954833984375,2.852783203125,2.412353515625
0.0685,-4.874755859375,3.773681640625,1.571533203125
0.069,-4.434326171875,4.294189453125,0.810791015625
0.0695,-3.593505859375,4.654541015625,-0.350341796875
0.07,-2.712646484375,5.094970703125,-1.591552734375
0.0705,-1.631591796875,5.255126953125,-2.832763671875
0.071,-0.790771484375,5.495361328125,-3.873779296875
0.0715,0.010009765625,5.695556640625,-4.794677734375
0.072,0.970947265625,5.215087890625,-5.435302734375
0.0725,2.212158203125,4.254150390625,-5.835693359375
0.073,3.293212890625,3.173095703125,-6.115966796875
0.0735,4.134033203125,2.052001953125,-6.115966796875
0.074,4.734619140625,1.291259765625,-6.196044921875
0.0745,4.894775390625,0.610595703125,-5.915771484375
0.075,4.814697265625,-0.390380859375,-5.195068359375
0.0755,4.814697265625,-1.511474609375,-4.354248046875
0.076,4.614501953125,-2.672607421875,-3.273193359375
0.0765,4.494384765625,-3.713623046875,-2.272216796875
0.077,4.414306640625,-4.554443359375,-1.551513671875
0.0775,3.853759765625,-4.994873046875,-0.670654296875
0.078,3.012939453125,-5.395263671875,0.570556640625
0.0785,2.011962890625,-5.755615234375,1.851806640625
0.079,1.010986328125,-5.915771484375,2.932861328125
0.0795,0.290283203125,-6.236083984375,3.973876953125
0.08,-0.590576171875,-6.236083984375,4.774658203125
0.0805,-1.631591796875,-5.635498046875,5.295166015625
0.081,-2.832763671875,-4.674560546875,5.735595703125
0.0815,-3.873779296875,-3.553466796875,5.855712890625
0.082,-4.634521484375,-2.512451171875,5.895751953125
0.0825,-5.114990234375,-1.831787109375,6.015869140625
0.083,-5.195068359375,-1.071044921875,5.575439453125
0.0835,-5.114990234375,0.010009765625,4.814697265625
0.084,-5.114990234375,1.131103515625,3.933837890625
0.0845,-4.954833984375,2.252197265625,2.852783203125
0.085,-4.834716796875,3.213134765625,1.971923828125
0.0855,-4.634521484375,3.973876953125,1.251220703125
0.086,-3.993896484375,4.414306640625,0.290283203125
0.0865,-3.113037109375,4.814697265625,-0.990966796875
0.087,-2.112060546875,5.135009765625,-2.272216796875
0.0875,-1.231201171875,5.375244140625,-3.353271484375
0.088,-0.510498046875,5.695556640625,-4.354248046875
0.0885,0.490478515625,5.375244140625,-5.114990234375
0.089,1.651611328125,4.534423828125,-5.635498046875
0.0895,2.852783203125,3.573486328125,-6.035888671875
0.09,3.813720703125,2.532470703125,-6.075927734375
0.0905,4.494384765625,1.571533203125,-6.115966796875
0.091,4.814697265625,0.930908203125,-6.075927734375
0.0915,4.854736328125,0.050048828125,-5.515380859375
0.092,4.814697265625,-1.111083984375,-4.634521484375
0.0925,4.734619140625,-2.272216796875,-3.673583984375
0.093,4.534423828125,-3.353271484375,-2.592529296875
0.0935,4.494384765625,-4.314208984375,-1.791748046875
0.094,4.093994140625,-4.874755859375,-0.990966796875
0.0945,3.293212890625,-5.275146484375,0.210205078125
0.095,2.372314453125,-5.715576171875,1.451416015625
0.0955,1.291259765625,-5.915771484375,2.692626953125
0.096,0.490478515625,-6.156005859375,3.773681640625
0.0965,-0.350341796875,-6.356201171875,4.654541015625
0.097,-1.391357421875,-5.915771484375,5.255126953125
0.0975,-2.632568359375,-4.914794921875,5.735595703125
0.098,-3.713623046875,-3.753662109375,5.935791015625
0.0985,-4.554443359375,-2.632568359375,5.935791015625
0.099,-5.114990234375,-1.871826171875,6.015869140625
0.0995,-5.275146484375,-1.151123046875,5.735595703125
0.1,-5.195068359375,-0.190185546875,4.974853515625
0.1005,-5.155029296875,1.010986328125,4.093994140625
0.101,-4.994873046875,2.212158203125,2.972900390625
0.1015,-4.834716796875,3.213134765625,1.971923828125
0.102,-4.714599609375,4.013916015625,1.251220703125
0.1025,-4.154052734375,4.494384765625,0.370361328125
0.103,-3.193115234375,4.814697265625,-0.910888671875
0.1035,-2.192138671875,5.215087890625,-2.232177734375
0.104,-1.231201171875,5.375244140625,-3.353271484375
0.1045,-0.470458984375,5.615478515625,-4.434326171875
0.105,0.490478515625,5.535400390625,-5.195068359375
0.1055,1.611572265625,4.734619140625,-5.755615234375
0.106,2.892822265625,3.733642578125,-6.115966796875
0.1065,3.933837890625,2.532470703125,-6.276123046875
0.107,4.654541015625,1.531494140625,-6.236083984375
0.1075,5.094970703125,0.810791015625,-6.196044921875
0.108,5.094970703125,0.010009765625,-5.715576171875
0.1085,4.974853515625,-1.231201171875,-4.754638671875
0.109,4.854736328125,-2.432373046875,-3.673583984375
0.1095,4.614501953125,-3.593505859375,-2.552490234375
0.11,4.494384765625,-4.514404296875,-1.631591796875
0.1105,4.174072265625,-5.195068359375,-0.830810546875
0.111,3.333251953125,-5.515380859375,0.290283203125
0.1115,2.292236328125,-5.835693359375,1.611572265625
0.112,1.131103515625,-6.035888671875,2.932861328125
0.1125,0.290283203125,-6.276123046875,3.973876953125
0.113,-0.590576171875,-6.436279296875,4.934814453125
0.1135,-1.551513671875,-6.075927734375,5.535400390625
0.114,-2.832763671875,-4.954833984375,5.975830078125
0.1145,-3.993896484375,-3.793701171875,6.256103515625
0.115,-4.874755859375,-2.552490234375,6.216064453125
0.1155,-5.435302734375,-1.671630859375,6.176025390625
0.116,-5.635498046875,-0.950927734375,5.895751953125
0.1165,-5.515380859375,0.090087890625,5.135009765625
0.117,-5.315185546875,1.251220703125,4.093994140625
0.1175,-5.155029296875,2.532470703125,2.932861328125
0.118,-4.914794921875,3.533447265625,1.851806640625
0.1185,-4.754638671875,4.414306640625,0.970947265625
0.119,-4.194091796875,4.814697265625,0.170166015625
0.1195,-3.153076171875,5.094970703125,-1.111083984375
0.12,-2.072021484375,5.415283203125,-2.512451171875
0.1205,-0.990966796875,5.495361328125,-3.713623046875
0.121,-0.190185546875,5.695556640625,-4.714599609375
0.1215,0.650634765625,5.695556640625,-5.555419921875
0.122,1.771728515625,5.054931640625,-6.115966796875
0.1225,3.173095703125,3.853759765625,-6.436279296875
0.123,4.254150390625,2.572509765625,-6.556396484375
0.1235,4.974853515625,1.411376953125,-6.436279296875
0.124,5.415283203125,0.610595703125,-6.396240234375
0.1245,5.455322265625,-0.310302734375,-5.955810546875
0.125,5.255126953125,-1.391357421875,-4.914794921875
0.1255,5.094970703125,-2.712646484375,-3.753662109375
0.126,4.854736328125,-3.913818359375,-2.552490234375
0.1265,4.574462890625,-4.874755859375,-1.431396484375
0.127,4.334228515625,-5.635498046875,-0.630615234375
0.1275,3.493408203125,-5.915771484375,0.450439453125
0.128,2.252197265625,-6.156005859375,1.851806640625
0.1285,1.010986328125,-6.436279296875,3.333251953125
0.129,0.010009765625,-6.436279296875,4.414306640625
0.1295,-0.910888671875,-6.636474609375,5.335205078125
0.13,-1.791748046875,-6.276123046875,6.055908203125
0.1305,-3.113037109375,-5.155029296875,6.456298828125
0.131,-4.394287109375,-3.873779296875,6.736572265625
0.1315,-5.355224609375,-2.512451171875,6.696533203125
0.132,-5.915771484375,-1.431396484375,6.456298828125
0.1325,-6.115966796875,-0.630615234375,6.216064453125
0.133,-5.995849609375,0.370361328125,5.455322265625
0.1335,-5.715576171875,1.651611328125,4.134033203125
0.134,-5.475341796875,3.012939453125,2.852783203125
0.1345,-5.114990234375,4.093994140625,1.611572265625
0.135,-4.834716796875,4.934814453125,0.650634765625
0.1355,-4.274169921875,5.415283203125,-0.270263671875
0.136,-3.193115234375,5.615478515625,-1.431396484375
0.1365,-1.831787109375,5.775634765625,-3.032958984375
0.137,-0.630615234375,5.815673828125,-4.354248046875
0.1375,0.370361328125,5.855712890625,-5.275146484375
0.138,1.131103515625,5.935791015625,-6.115966796875
0.1385,2.212158203125,5.175048828125,-6.676513671875
0.139,3.653564453125,3.853759765625,-6.996826171875
0.1395,4.814697265625,2.532470703125,-7.076904296875
0.14,5.535400390625,1.211181640625,-6.876708984375
0.1405,5.895751953125,0.250244140625,-6.636474609375
0.141,5.935791015625,-0.670654296875,-6.156005859375
0.1415,5.695556640625,-1.751708984375,-5.114990234375
0.142,5.375244140625,-3.153076171875,-3.713623046875
0.1425,5.094970703125,-4.434326171875,-2.392333984375
0.143,4.654541015625,-5.395263671875,-1.191162109375
0.1435,4.334228515625,-6.115966796875,-0.310302734375
0.144,3.533447265625,-6.356201171875,0.690673828125
0.1445,2.252197265625,-6.556396484375,2.052001953125
0.145,0.850830078125,-6.716552734375,3.613525390625
0.1455,-0.470458984375,-6.676513671875,4.774658203125
0.146,-1.231201171875,-6.636474609375,5.655517578125
0.1465,-1.951904296875,-6.436279296875,6.376220703125
0.147,-3.193115234375,-5.475341796875,6.776611328125
0.1475,-4.514404296875,-4.033935546875,7.056884765625
0.148,-5.595458984375,-2.632568359375,7.016845703125
0.1485,-6.156005859375,-1.431396484375,6.696533203125
0.149,-6.436279296875,-0.590576171875,6.456298828125
0.1495,-6.276123046875,0.370361328125,5.735595703125
0.15,-5.955810546875,1.571533203125,4.534423828125
0.1505,-5.675537109375,2.892822265625,3.173095703125
0.151,-5.275146484375,4.093994140625,1.851806640625
0.1515,-4.914794921875,4.974853515625,0.770751953125
0.152,-4.514404296875,5.535400390625,0.010009765625
0.1525,-3.593505859375,5.735595703125,-1.151123046875
0.153,-2.192138671875,5.815673828125,-2.592529296875
0.1535,-0.950927734375,5.975830078125,-4.114013671875
0.154,0.290283203125,5.935791015625,-5.114990234375
0.1545,0.970947265625,6.055908203125,-5.995849609375
0.155,1.891845703125,5.615478515625,-6.596435546875
0.1555,3.213134765625,4.414306640625,-6.956787109375
0.156,4.494384765625,3.052978515625,-7.156982421875
0.1565,5.375244140625,1.651611328125,-7.036865234375
0.157,5.895751953125,0.570556640625,-6.756591796875
0.1575,6.055908203125,-0.310302734375,-6.476318359375
0.158,5.855712890625,-1.271240234375,-5.675537109375
0.1585,5.495361328125,-2.552490234375,-4.354248046875
0.159,5.255126953125,-3.873779296875,-3.032958984375
0.1595,4.854736328125,-4.994873046875,-1.711669921875
0.16,4.534423828125,-5.795654296875,-0.710693359375
0.1605,3.973876953125,-6.316162109375,0.250244140625
0.161,2.892822265625,-6.476318359375,1.411376953125
0.1615,1.491455078125,-6.716552734375,2.932861328125
0.162,0.130126953125,-6.676513671875,4.334228515625
0.1625,-0.910888671875,-6.636474609375,5.295166015625
0.163,-1.591552734375,-6.716552734375,6.135986328125
0.1635,-2.632568359375,-6.035888671875,6.656494140625
0.164,-4.033935546875,-4.634521484375,6.976806640625
0.1645,-5.195068359375,-3.273193359375,7.056884765625
0.165,-5.955810546875,-1.911865234375,6.816650390625
0.1655,-6.396240234375,-0.990966796875,6.576416015625
0.166,-6.396240234375,0.010009765625,6.135986328125
0.1665,-6.156005859375,1.091064453125,5.135009765625
0.167,-5.835693359375,2.412353515625,3.733642578125
0.1675,-5.515380859375,3.733642578125,2.372314453125
0.168,-5.114990234375,4.694580078125,1.131103515625
0.1685,-4.794677734375,5.415283203125,0.250244140625
0.169,-3.993896484375,5.735595703125,-0.790771484375
0.1695,-2.712646484375,5.855712890625,-2.192138671875
0.17,-1.311279296875,6.095947265625,-3.753662109375
0.1705,0.010009765625,6.055908203125,-4.954833984375
0.171,0.890869140625,6.095947265625,-5.835693359375
0.1715,1.571533203125,5.895751953125,-6.556396484375
0.172,2.852783203125,4.934814453125,-7.076904296875
0.1725,4.214111328125,3.453369140625,-7.277099609375
0.173,5.295166015625,2.052001953125,-7.197021484375
0.1735,5.895751953125,0.770751953125,-6.916748046875
0.174,6.176025390625,-0.190185546875,-6.716552734375
0.1745,6.055908203125,-1.111083984375,-5.955810546875
0.175,5.695556640625,-2.312255859375,-4.714599609375
0.1755,5.415283203125,-3.713623046875,-3.313232421875
0.176,4.974853515625,-4.874755859375,-1.911865234375
0.1765,4.574462890625,-5.755615234375,-0.830810546875
0.177,4.134033203125,-6.396240234375,0.090087890625
0.1775,3.173095703125,-6.556396484375,1.131103515625
0.178,1.771728515625,-6.596435546875,2.612548828125
0.1785,0.370361328125,-6.676513671875,4.093994140625
0.179,-0.790771484375,-6.556396484375,5.094970703125
0.1795,-1.431396484375,-6.676513671875,5.895751953125
0.18,-2.312255859375,-6.236083984375,6.536376953125
0.1805,-3.633544921875,-4.994873046875,6.856689453125
0.181,-4.834716796875,-3.673583984375,7.016845703125
0.1815,-5.715576171875,-2.312255859375,6.856689453125
0.182,-6.156005859375,-1.231201171875,6.576416015625
0.1825,-6.316162109375,-0.430419921875,6.256103515625
0.183,-6.115966796875,0.570556640625,5.455322265625
0.1835,-5.795654296875,1.771728515625,4.214111328125
0.184,-5.475341796875,3.052978515625,2.892822265625
0.1845,-5.114990234375,4.053955078125,1.651611328125
0.185,-4.834716796875,4.854736328125,0.690673828125
0.1855,-4.354248046875,5.335205078125,-0.230224609375
0.186,-3.273193359375,5.575439453125,-1.311279296875
0.1865,-2.031982421875,5.775634765625,-2.712646484375
0.187,-0.750732421875,5.775634765625,-4.033935546875
0.1875,0.250244140625,5.855712890625,-4.994873046875
0.188,0.930908203125,5.975830078125,-5.835693359375
