wavelength,x,y,z
0.0,4.62451171875,-3.94384765625,-2.22216796875
0.0005,4.18408203125,-4.62451171875,-1.30126953125
0.001,3.86376953125,-5.22509765625,-0.58056640625
0.0015,3.62353515625,-5.94580078125,0.30029296875
0.002,2.18212890625,-5.94580078125,1.78173828125
0.0025,0.94091796875,-5.86572265625,2.94287109375
0.003,0.06005859375,-5.74560546875,3.74365234375
0.0035,-0.74072265625,-5.78564453125,4.50439453125
0.004,-1.58154296875,-5.62548828125,5.30517578125
0.0045,-2.62255859375,-5.10498046875,5.98583984375
0.005,-3.78369140625,-3.86376953125,6.14599609375
0.0055,-4.58447265625,-2.50244140625,5.78564453125
0.006,-4.98486328125,-1.62158203125,5.58544921875
0.0065,-5.30517578125,-0.86083984375,5.46533203125
0.007,-5.70556640625,-0.18017578125,5.42529296875
0.0075,-5.46533203125,1.30126953125,4.14404296875
0.008,-5.26513671875,2.30224609375,3.10302734375
0.0085,-4.82470703125,3.10302734375,2.06201171875
0.009,-4.50439453125,3.78369140625,1.26123046875
0.0095,-4.18408203125,4.42431640625,0.38037109375
0.01,-3.78369140625,5.10498046875,-0.58056640625
0.0105,-2.50244140625,5.18505859375,-1.86181640625
0.011,-1.22119140625,4.98486328125,-2.98291015625
0.0115,-0.50048828125,5.06494140625,-3.74365234375
0.012,0.34033203125,5.10498046875,-4.54443359375
0.0125,1.26123046875,5.06494140625,-5.50537109375
0.013,2.54248046875,3.94384765625,-5.86572265625
0.0135,3.50341796875,2.90283203125,-5.98583984375
0.014,4.14404296875,1.66162109375,-5.74560546875
0.0145,4.54443359375,0.94091796875,-5.62548828125
0.015,4.86474609375,0.14013671875,-5.46533203125
0.0155,5.30517578125,-0.74072265625,-5.42529296875
0.016,5.10498046875,-2.02197265625,-4.14404296875
0.0165,4.66455078125,-3.14306640625,-2.90283203125
0.017,4.34423828125,-3.82373046875,-2.06201171875
0.0175,4.10400390625,-4.54443359375,-1.26123046875
0.018,3.86376953125,-5.18505859375,-0.50048828125
0.0185,2.90283203125,-5.62548828125,0.82080078125
0.019,1.86181640625,-5.74560546875,1.98193359375
0.0195,0.70068359375,-5.58544921875,2.94287109375
0.02,0.06005859375,-5.62548828125,3.70361328125
0.0205,-0.82080078125,-5.66552734375,4.58447265625
0.021,-1.66162109375,-5.70556640625,5.50537109375
0.0215,-3.02294921875,-4.34423828125,5.74560546875
0.022,-3.90380859375,-3.14306640625,5.62548828125
0.0225,-4.50439453125,-2.18212890625,5.46533203125
0.023,-4.86474609375,-1.42138671875,5.42529296875
0.0235,-5.26513671875,-0.66064453125,5.30517578125
0.024,-5.42529296875,0.42041015625,4.78466796875
0.0245,-5.30517578125,1.46142578125,3.82373046875
0.025,-4.90478515625,2.46240234375,2.62255859375
0.0255,-4.58447265625,3.18310546875,1.78173828125
0.026,-4.34423828125,3.90380859375,0.98095703125
0.0265,-4.22412109375,4.74462890625,0.30029296875
0.027,-2.98291015625,4.90478515625,-1.22119140625
0.0275,-1.90185546875,5.02490234375,-2.34228515625
0.028,-0.98095703125,4.98486328125,-3.18310546875
0.0285,-0.26025390625,5.10498046875,-4.02392578125
0.029,0.74072265625,5.02490234375,-4.90478515625
0.0295,1.78173828125,4.62451171875,-5.74560546875
0.03,2.98291015625,3.46337890625,-5.94580078125
0.0305,3.82373046875,2.10205078125,-5.70556640625
0.031,4.30419921875,1.26123046875,-5.62548828125
0.0315,4.70458984375,0.50048828125,-5.50537109375
0.032,5.10498046875,-0.34033203125,-5.50537109375
0.0325,5.06494140625,-1.66162109375,-4.42431640625
0.033,4.86474609375,-2.78271484375,-3.38330078125
0.0335,4.46435546875,-3.62353515625,-2.38232421875
0.034,4.14404296875,-4.22412109375,-1.50146484375
0.0345,3.86376953125,-4.94482421875,-0.66064453125
0.035,3.50341796875,-5.62548828125,0.30029296875
0.0355,2.18212890625,-5.74560546875,1.70166015625
0.036,0.94091796875,-5.62548828125,2.82275390625
0.0365,0.22021484375,-5.66552734375,3.58349609375
0.037,-0.66064453125,-5.70556640625,4.42431640625
0.0375,-1.58154296875,-5.62548828125,5.30517578125
0.038,-2.90283203125,-4.50439453125,5.74560546875
0.0385,-3.86376953125,-3.42333984375,5.90576171875
0.039,-4.50439453125,-2.26220703125,5.62548828125
0.0395,-4.90478515625,-1.42138671875,5.42529296875
0.04,-5.26513671875,-0.66064453125,5.30517578125
0.0405,-5.62548828125,0.26025390625,5.10498046875
0.041,-5.38525390625,1.58154296875,3.86376953125
0.0415,-5.06494140625,2.62255859375,2.58251953125
0.042,-4.62451171875,3.34326171875,1.74169921875
0.0425,-4.34423828125,3.98388671875,0.98095703125
0.043,-3.98388671875,4.66455078125,0.14013671875
0.0435,-3.06298828125,5.06494140625,-1.22119140625
0.044,-1.98193359375,5.22509765625,-2.42236328125
0.0445,-0.86083984375,4.98486328125,-3.34326171875
0.045,-0.14013671875,5.06494140625,-4.10400390625
0.0455,0.78076171875,5.02490234375,-4.94482421875
0.046,1.66162109375,4.94482421875,-5.82568359375
0.0465,3.10302734375,3.46337890625,-6.10595703125
0.047,3.98388671875,2.22216796875,-5.94580078125
0.0475,4.50439453125,1.22119140625,-5.74560546875
0.048,4.78466796875,0.50048828125,-5.58544921875
0.0485,5.14501953125,-0.50048828125,-5.38525390625
0.049,5.30517578125,-1.58154296875,-4.74462890625
0.0495,5.10498046875,-2.82275390625,-3.66357421875
0.05,4.62451171875,-3.70361328125,-2.38232421875
0.0505,4.22412109375,-4.42431640625,-1.46142578125
0.051,3.90380859375,-4.98486328125,-0.70068359375
0.0515,3.66357421875,-5.70556640625,0.18017578125
0.052,2.26220703125,-5.82568359375,1.74169921875
0.0525,1.02099609375,-5.90576171875,2.90283203125
0.053,0.14013671875,-5.74560546875,3.70361328125
0.0535,-0.66064453125,-5.74560546875,4.46435546875
0.054,-1.58154296875,-5.58544921875,5.26513671875
0.0545,-2.70263671875,-5.10498046875,6.06591796875
0.055,-3.90380859375,-3.74365234375,6.22607421875
0.0555,-4.74462890625,-2.34228515625,5.82568359375
0.056,-5.10498046875,-1.42138671875,5.62548828125
0.0565,-5.42529296875,-0.66064453125,5.42529296875
0.057,-5.74560546875,0.22021484375,5.26513671875
0.0575,-5.62548828125,1.66162109375,3.90380859375
0.058,-5.38525390625,2.82275390625,2.86279296875
0.0585,-4.86474609375,3.58349609375,1.78173828125
0.059,-4.50439453125,4.18408203125,0.94091796875
0.0595,-4.02392578125,4.82470703125,0.02001953125
0.06,-3.54345703125,5.42529296875,-1.06103515625
0.0605,-2.06201171875,5.42529296875,-2.54248046875
0.061,-0.70068359375,5.26513671875,-3.70361328125
0.0615,0.14013671875,5.22509765625,-4.42431640625
0.062,0.90087890625,5.14501953125,-5.14501953125
0.0625,1.94189453125,4.86474609375,-6.06591796875
0.063,3.38330078125,3.58349609375,-6.46630859375
0.0635,4.34423828125,2.38232421875,-6.54638671875
0.064,4.94482421875,1.06103515625,-6.10595703125
0.0645,5.22509765625,0.18017578125,-5.82568359375
0.065,5.42529296875,-0.82080078125,-5.46533203125
0.0655,5.74560546875,-1.82177734375,-5.14501953125
0.066,5.42529296875,-3.26318359375,-3.54345703125
0.0665,4.94482421875,-4.42431640625,-2.14208984375
0.067,4.42431640625,-4.98486328125,-1.18115234375
0.0675,3.98388671875,-5.50537109375,-0.34033203125
0.068,3.38330078125,-6.10595703125,0.74072265625
0.0685,2.14208984375,-6.42626953125,2.26220703125
0.069,0.78076171875,-6.42626953125,3.54345703125
0.0695,-0.50048828125,-6.06591796875,4.46435546875
0.07,-1.22119140625,-5.94580078125,5.10498046875
0.0705,-2.06201171875,-5.62548828125,5.78564453125
0.071,-3.06298828125,-5.30517578125,6.70654296875
0.0715,-4.66455078125,-3.54345703125,6.70654296875
0.072,-5.46533203125,-2.10205078125,6.46630859375
0.0725,-5.78564453125,-1.06103515625,6.02587890625
0.073,-5.90576171875,-0.22021484375,5.62548828125
0.0735,-6.10595703125,0.90087890625,5.10498046875
0.074,-6.10595703125,2.26220703125,4.14404296875
0.0745,-5.78564453125,3.50341796875,2.82275390625
0.075,-5.10498046875,4.42431640625,1.38134765625
0.0755,-4.50439453125,4.90478515625,0.46044921875
0.076,-3.98388671875,5.38525390625,-0.50048828125
0.0765,-3.46337890625,5.90576171875,-1.42138671875
0.077,-1.70166015625,5.98583984375,-3.18310546875
0.0775,-0.38037109375,5.82568359375,-4.42431640625
0.078,0.62060546875,5.46533203125,-5.10498046875
0.0785,1.34130859375,5.30517578125,-5.70556640625
0.079,2.42236328125,4.82470703125,-6.38623046875
0.0795,3.58349609375,4.06396484375,-7.06689453125
0.08,4.82470703125,2.50244140625,-7.06689453125
0.0805,5.54541015625,0.86083984375,-6.54638671875
0.081,5.70556640625,-0.18017578125,-6.10595703125
0.0815,5.78564453125,-1.02099609375,-5.74560546875
0.082,6.02587890625,-1.94189453125,-5.26513671875
0.0825,5.74560546875,-3.58349609375,-3.58349609375
0.083,5.30517578125,-4.66455078125,-2.34228515625
0.0835,4.62451171875,-5.38525390625,-1.14111328125
0.084,4.06396484375,-5.86572265625,-0.26025390625
0.0845,3.46337890625,-6.30615234375,0.82080078125
0.085,2.70263671875,-6.78662109375,1.94189453125
0.0855,0.94091796875,-6.66650390625,3.54345703125
0.086,-0.62060546875,-6.30615234375,4.70458984375
0.0865,-1.30126953125,-6.10595703125,5.26513671875
0.087,-2.06201171875,-5.82568359375,5.90576171875
0.0875,-3.14306640625,-5.42529296875,6.70654296875
0.088,-4.58447265625,-3.94384765625,7.02685546875
0.0885,-5.46533203125,-2.70263671875,6.90673828125
0.089,-5.98583984375,-1.26123046875,6.30615234375
0.0895,-6.14599609375,-0.38037109375,5.90576171875
0.09,-6.22607421875,0.66064453125,5.42529296875
0.0905,-6.42626953125,1.62158203125,4.98486328125
0.091,-5.98583984375,3.22314453125,3.18310546875
0.0915,-5.38525390625,4.30419921875,1.74169921875
0.092,-4.78466796875,4.82470703125,0.78076171875
0.0925,-4.22412109375,5.34521484375,-0.18017578125
0.093,-3.58349609375,5.82568359375,-1.14111328125
0.0935,-2.38232421875,6.10595703125,-2.66259765625
0.094,-0.98095703125,6.06591796875,-3.98388671875
0.0945,0.46044921875,5.58544921875,-4.90478515625
0.095,1.14111328125,5.42529296875,-5.50537109375
0.0955,1.94189453125,5.10498046875,-6.18603515625
0.096,2.94287109375,4.78466796875,-7.02685546875
0.0965,4.54443359375,2.90283203125,-7.06689453125
0.097,5.34521484375,1.42138671875,-6.78662109375
0.0975,5.62548828125,0.34033203125,-6.34619140625
0.098,5.78564453125,-0.58056640625,-5.90576171875
0.0985,5.90576171875,-1.54150390625,-5.42529296875
0.099,5.98583984375,-2.82275390625,-4.50439453125
0.0995,5.62548828125,-4.14404296875,-3.06298828125
0.1,4.90478515625,-5.10498046875,-1.58154296875
0.1005,4.30419921875,-5.62548828125,-0.62060546875
0.101,3.82373046875,-6.10595703125,0.30029296875
0.1015,3.26318359375,-6.70654296875,1.30126953125
0.102,1.50146484375,-6.74658203125,3.02294921875
0.1025,0.14013671875,-6.54638671875,4.30419921875
0.103,-0.98095703125,-6.22607421875,5.02490234375
0.1035,-1.66162109375,-6.02587890625,5.62548828125
0.104,-2.62255859375,-5.62548828125,6.34619140625
0.1045,-3.82373046875,-4.98486328125,7.02685546875
0.105,-5.10498046875,-3.30322265625,7.02685546875
0.1055,-5.90576171875,-1.74169921875,6.46630859375
0.106,-6.10595703125,-0.70068359375,6.06591796875
0.1065,-6.22607421875,0.26025390625,5.70556640625
0.107,-6.38623046875,1.22119140625,5.26513671875
0.1075,-6.14599609375,2.82275390625,3.70361328125
0.108,-5.74560546875,3.94384765625,2.42236328125
0.1085,-5.06494140625,4.70458984375,1.14111328125
0.109,-4.50439453125,5.18505859375,0.22021484375
0.1095,-3.90380859375,5.70556640625,-0.78076171875
0.11,-3.18310546875,6.22607421875,-1.90185546875
0.1105,-1.42138671875,6.10595703125,-3.58349609375
0.111,0.10009765625,5.74560546875,-4.74462890625
0.1115,0.90087890625,5.58544921875,-5.38525390625
0.112,1.62158203125,5.34521484375,-6.06591796875
0.1125,2.70263671875,4.82470703125,-6.78662109375
0.113,4.18408203125,3.38330078125,-7.18701171875
0.1135,5.14501953125,2.06201171875,-7.10693359375
0.114,5.70556640625,0.66064453125,-6.50634765625
0.1145,5.86572265625,-0.38037109375,-6.10595703125
0.115,5.94580078125,-1.30126953125,-5.62548828125
0.1155,6.18603515625,-2.26220703125,-5.14501953125
0.116,5.70556640625,-3.94384765625,-3.34326171875
0.1165,5.10498046875,-4.98486328125,-1.90185546875
0.117,4.46435546875,-5.58544921875,-0.82080078125
0.1175,3.90380859375,-6.02587890625,0.06005859375
0.118,3.26318359375,-6.46630859375,1.10107421875
0.1185,2.06201171875,-6.78662109375,2.54248046875
0.119,0.58056640625,-6.70654296875,3.94384765625
0.1195,-0.86083984375,-6.22607421875,4.82470703125
0.12,-1.54150390625,-6.02587890625,5.42529296875
0.1205,-2.30224609375,-5.78564453125,6.10595703125
0.121,-3.22314453125,-5.42529296875,6.86669921875
0.1215,-4.82470703125,-3.62353515625,6.90673828125
0.122,-5.62548828125,-2.22216796875,6.66650390625
0.1225,-5.94580078125,-1.02099609375,6.14599609375
0.123,-6.06591796875,-0.22021484375,5.74560546875
0.1235,-6.18603515625,0.78076171875,5.30517578125
0.124,-6.26611328125,1.94189453125,4.50439453125
0.1245,-5.86572265625,3.30322265625,3.06298828125
0.125,-5.14501953125,4.30419921875,1.58154296875
0.1255,-4.62451171875,4.78466796875,0.62060546875
0.126,-4.14404296875,5.26513671875,-0.26025390625
0.1265,-3.66357421875,5.82568359375,-1.14111328125
0.127,-2.06201171875,5.90576171875,-2.78271484375
0.1275,-0.74072265625,5.78564453125,-3.98388671875
0.128,0.46044921875,5.46533203125,-4.78466796875
0.1285,1.10107421875,5.30517578125,-5.42529296875
0.129,1.98193359375,5.02490234375,-6.14599609375
0.1295,3.02294921875,4.46435546875,-6.90673828125
0.13,4.42431640625,2.90283203125,-6.90673828125
0.1305,5.14501953125,1.34130859375,-6.46630859375
0.131,5.46533203125,0.38037109375,-6.10595703125
0.1315,5.66552734375,-0.50048828125,-5.82568359375
0.132,5.86572265625,-1.38134765625,-5.50537109375
0.1325,5.70556640625,-2.86279296875,-4.10400390625
0.133,5.34521484375,-4.02392578125,-2.86279296875
0.1335,4.74462890625,-4.82470703125,-1.62158203125
0.134,4.22412109375,-5.42529296875,-0.70068359375
0.1345,3.70361328125,-5.94580078125,0.26025390625
0.135,3.18310546875,-6.46630859375,1.22119140625
0.1355,1.54150390625,-6.42626953125,2.82275390625
0.136,0.10009765625,-6.18603515625,3.98388671875
0.1365,-0.82080078125,-6.06591796875,4.74462890625
0.137,-1.54150390625,-5.94580078125,5.38525390625
0.1375,-2.50244140625,-5.62548828125,6.10595703125
0.138,-3.82373046875,-4.42431640625,6.54638671875
0.1385,-4.82470703125,-3.14306640625,6.58642578125
0.139,-5.42529296875,-1.78173828125,6.10595703125
0.1395,-5.66552734375,-0.90087890625,5.78564453125
0.14,-5.82568359375,0.02001953125,5.46533203125
0.1405,-6.10595703125,0.90087890625,5.18505859375
0.141,-5.74560546875,2.34228515625,3.66357421875
0.1415,-5.26513671875,3.46337890625,2.26220703125
0.142,-4.74462890625,4.10400390625,1.30126953125
0.1425,-4.34423828125,4.62451171875,0.50048828125
0.143,-3.86376953125,5.14501953125,-0.46044921875
0.1435,-2.98291015625,5.54541015625,-1.62158203125
0.144,-1.66162109375,5.58544921875,-2.90283203125
0.1445,-0.38037109375,5.18505859375,-3.90380859375
0.145,0.38037109375,5.14501953125,-4.62451171875
0.1455,1.14111328125,5.02490234375,-5.38525390625
0.146,1.98193359375,4.98486328125,-6.18603515625
0.1465,3.46337890625,3.46337890625,-6.38623046875
0.147,4.34423828125,2.18212890625,-6.26611328125
0.1475,4.78466796875,1.10107421875,-5.94580078125
0.148,5.06494140625,0.34033203125,-5.74560546875
0.1485,5.34521484375,-0.58056640625,-5.50537109375
0.149,5.46533203125,-1.58154296875,-4.98486328125
0.1495,5.26513671875,-2.78271484375,-3.78369140625
0.15,4.70458984375,-3.82373046875,-2.42236328125
0.1505,4.26416015625,-4.50439453125,-1.50146484375
0.151,3.98388671875,-5.06494140625,-0.78076171875
0.1515,3.70361328125,-5.74560546875,0.14013671875
0.152,2.42236328125,-5.94580078125,1.54150390625
0.1525,1.22119140625,-5.98583984375,2.74267578125
0.153,0.18017578125,-5.78564453125,3.54345703125
0.1535,-0.62060546875,-5.82568359375,4.34423828125
0.154,-1.38134765625,-5.74560546875,5.14501953125
0.1545,-2.30224609375,-5.42529296875,5.94580078125
0.155,-3.58349609375,-4.10400390625,6.10595703125
0.1555,-4.50439453125,-2.70263671875,5.82568359375
0.156,-4.94482421875,-1.78173828125,5.66552734375
0.1565,-5.26513671875,-1.02099609375,5.50537109375
0.157,-5.62548828125,-0.30029296875,5.42529296875
0.1575,-5.54541015625,1.02099609375,4.42431640625
0.158,-5.42529296875,2.18212890625,3.38330078125
0.1585,-4.94482421875,3.02294921875,2.26220703125
0.159,-4.54443359375,3.74365234375,1.42138671875
0.1595,-4.30419921875,4.38427734375,0.62060546875
0.16,-3.98388671875,5.06494140625,-0.30029296875
0.1605,-2.62255859375,5.14501953125,-1.70166015625
0.161,-1.38134765625,5.06494140625,-2.86279296875
0.1615,-0.62060546875,5.06494140625,-3.70361328125
0.162,0.22021484375,5.14501953125,-4.46435546875
0.1625,1.10107421875,5.06494140625,-5.34521484375
0.163,2.34228515625,4.14404296875,-5.90576171875
0.1635,3.38330078125,3.14306640625,-6.06591796875
0.164,4.14404296875,1.86181640625,-5.74560546875
0.1645,4.54443359375,0.98095703125,-5.62548828125
0.165,4.86474609375,0.26025390625,-5.50537109375
0.1655,5.26513671875,-0.62060546875,-5.46533203125
0.166,5.06494140625,-1.94189453125,-4.18408203125
0.1665,4.74462890625,-3.02294921875,-3.06298828125
0.167,4.38427734375,-3.70361328125,-2.10205078125
0.1675,4.10400390625,-4.42431640625,-1.38134765625
0.168,3.82373046875,-5.06494140625,-0.54052734375
0.1685,3.14306640625,-5.62548828125,0.62060546875
0.169,2.02197265625,-5.74560546875,1.78173828125
0.1695,0.78076171875,-5.62548828125,2.82275390625
0.17,0.10009765625,-5.62548828125,3.62353515625
0.1705,-0.70068359375,-5.70556640625,4.42431640625
0.171,-1.54150390625,-5.70556640625,5.34521484375
0.1715,-2.86279296875,-4.46435546875,5.62548828125
0.172,-3.82373046875,-3.34326171875,5.70556640625
0.1725,-4.42431640625,-2.30224609375,5.46533203125
0.173,-4.78466796875,-1.58154296875,5.42529296875
0.1735,-5.14501953125,-0.78076171875,5.30517578125
0.174,-5.42529296875,0.18017578125,4.98486328125
0.1745,-5.34521484375,1.30126953125,3.98388671875
0.175,-4.90478515625,2.38232421875,2.74267578125
0.1755,-4.58447265625,3.06298828125,1.94189453125
0.176,-4.42431640625,3.78369140625,1.22119140625
0.1765,-4.22412109375,4.50439453125,0.42041015625
0.177,-3.18310546875,4.82470703125,-0.98095703125
0.1775,-2.18212890625,4.98486328125,-2.10205078125
0.178,-1.14111328125,4.94482421875,-2.98291015625
0.1785,-0.46044921875,5.06494140625,-3.82373046875
0.179,0.50048828125,5.06494140625,-4.70458984375
0.1795,1.42138671875,4.90478515625,-5.62548828125
0.18,2.70263671875,3.70361328125,-5.86572265625
0.1805,3.70361328125,2.34228515625,-5.74560546875
0.181,4.18408203125,1.46142578125,-5.62548828125
0.1815,4.62451171875,0.78076171875,-5.54541015625
0.182,4.98486328125,0.02001953125,-5.50537109375
0.1825,5.06494140625,-1.30126953125,-4.62451171875
0.183,4.98486328125,-2.38232421875,-3.70361328125
0.1835,4.54443359375,-3.30322265625,-2.62255859375
0.184,4.22412109375,-4.06396484375,-1.78173828125
0.1845,3.98388671875,-4.78466796875,-0.98095703125
0.185,3.74365234375,-5.50537109375,-0.14013671875
0.1855,2.42236328125,-5.70556640625,1.30126953125
0.186,1.26123046875,-5.62548828125,2.54248046875
0.1865,0.46044921875,-5.62548828125,3.34326171875
0.187,-0.34033203125,-5.74560546875,4.14404296875
0.1875,-1.26123046875,-5.62548828125,5.02490234375
0.188,-2.46240234375,-4.86474609375,5.62548828125
0.1885,-3.54345703125,-3.82373046875,5.86572265625
0.189,-4.30419921875,-2.50244140625,5.58544921875
0.1895,-4.78466796875,-1.66162109375,5.46533203125
0.19,-5.10498046875,-0.98095703125,5.34521484375
0.1905,-5.50537109375,-0.22021484375,5.30517578125
0.191,-5.34521484375,1.22119140625,4.06396484375
0.1915,-5.10498046875,2.30224609375,2.94287109375
0.192,-4.74462890625,3.06298828125,2.02197265625
0.1925,-4.46435546875,3.70361328125,1.26123046875
0.193,-4.14404296875,4.34423828125,0.42041015625
0.1935,-3.54345703125,4.94482421875,-0.74072265625
0.194,-2.38232421875,5.14501953125,-1.98193359375
0.1945,-1.14111328125,4.98486328125,-3.06298828125
0.195,-0.42041015625,5.06494140625,-3.82373046875
0.1955,0.46044921875,5.10498046875,-4.66455078125
0.196,1.34130859375,5.02490234375,-5.62548828125
0.1965,2.82275390625,3.66357421875,-5.94580078125
0.197,3.78369140625,2.54248046875,-5.98583984375
0.1975,4.34423828125,1.46142578125,-5.74560546875
0.198,4.70458984375,0.66064453125,-5.62548828125
0.1985,4.98486328125,-0.26025390625,-5.42529296875
0.199,5.30517578125,-1.26123046875,-5.06494140625
