wavelength,x,y,z
0.0,9.899658203125,-22.451904296875,12.902587890625
0.0005,12.782470703125,-22.371826171875,10.139892578125
0.001,16.786376953125,-20.730224609375,4.614501953125
0.0015,19.789306640625,-18.808349609375,-0.270263671875
0.002,21.831298828125,-16.886474609375,-3.993896484375
0.0025,22.672119140625,-14.764404296875,-6.996826171875
0.003,22.151611328125,-11.481201171875,-9.759521484375
0.0035,21.591064453125,-7.397216796875,-13.403076171875
0.004,20.309814453125,-2.712646484375,-16.726318359375
0.0045,18.548095703125,2.132080078125,-19.809326171875
0.005,16.466064453125,5.495361328125,-21.130615234375
0.0055,14.103759765625,8.298095703125,-21.651123046875
0.006,10.940673828125,11.220947265625,-21.531005859375
0.0065,5.094970703125,15.425048828125,-20.089599609375
0.007,0.210205078125,18.427978515625,-18.287841796875
0.0075,-4.234130859375,20.790283203125,-16.566162109375
0.008,-7.357177734375,21.831298828125,-14.764404296875
0.0085,-10.239990234375,21.510986328125,-11.841552734375
0.009,-13.162841796875,21.190673828125,-8.798583984375
0.0095,-16.846435546875,19.709228515625,-3.633544921875
0.01,-19.889404296875,17.627197265625,1.371337890625
0.0105,-21.290771484375,15.865478515625,4.494384765625
0.011,-21.891357421875,13.623291015625,7.297119140625
0.0115,-21.531005859375,10.580322265625,9.979736328125
0.012,-20.650146484375,5.695556640625,14.023681640625
0.0125,-19.288818359375,1.411376953125,16.946533203125
0.013,-17.807373046875,-2.872802734375,19.789306640625
0.0135,-15.765380859375,-6.035888671875,20.950439453125
0.014,-13.002685546875,-8.718505859375,20.910400390625
0.0145,-9.719482421875,-11.841552734375,20.870361328125
0.015,-3.913818359375,-15.885498046875,19.228759765625
0.0155,1.331298828125,-18.848388671875,17.266845703125
0.016,4.814697265625,-20.570068359375,15.745361328125
0.0165,7.697509765625,-21.571044921875,14.063720703125
0.017,10.540283203125,-21.210693359375,11.060791015625
0.0175,14.063720703125,-20.489990234375,6.976806640625
0.018,17.306884765625,-19.088623046875,2.532470703125
0.0185,20.149658203125,-17.126708984375,-2.232177734375
0.019,21.070556640625,-15.324951171875,-4.954833984375
0.0195,21.310791015625,-12.802490234375,-7.717529296875
0.02,21.110595703125,-9.679443359375,-10.600341796875
0.0205,19.989501953125,-4.514404296875,-14.684326171875
0.021,18.427978515625,0.010009765625,-17.567138671875
0.0215,16.986572265625,3.573486328125,-19.769287109375
0.022,15.024658203125,6.576416015625,-20.850341796875
0.0225,11.821533203125,9.339111328125,-20.530029296875
0.023,7.697509765625,12.982666015625,-20.089599609375
0.0235,2.492431640625,16.586181640625,-18.648193359375
0.024,-2.792724609375,19.468994140625,-16.606201171875
0.0245,-5.715576171875,20.630126953125,-15.124755859375
0.025,-8.518310546875,21.270751953125,-13.122802734375
0.0255,-11.401123046875,20.950439453125,-10.199951171875
0.026,-15.204833984375,19.709228515625,-5.275146484375
0.0265,-18.207763671875,18.147705078125,-0.830810546875
0.027,-20.530029296875,16.345947265625,3.253173828125
0.0275,-21.210693359375,14.384033203125,5.895751953125
0.028,-21.090576171875,11.421142578125,8.698486328125
0.0285,-20.690185546875,7.817626953125,11.981689453125
0.029,-19.529052734375,3.052978515625,15.625244140625
0.0295,-17.807373046875,-1.591552734375,18.508056640625
0.03,-16.165771484375,-4.714599609375,19.989501953125
0.0305,-14.243896484375,-7.517333984375,20.910400390625
0.031,-10.760498046875,-10.360107421875,20.389892578125
0.0315,-5.795654296875,-14.123779296875,19.348876953125
0.032,-0.910888671875,-17.366943359375,17.827392578125
0.0325,3.813720703125,-19.929443359375,15.985595703125
0.033,6.416259765625,-20.690185546875,14.384033203125
0.0335,9.339111328125,-20.890380859375,11.981689453125
0.034,12.221923828125,-20.570068359375,8.898681640625
0.0345,15.865478515625,-19.128662109375,3.973876953125
0.035,18.708251953125,-17.326904296875,-0.670654296875
0.0355,20.429931640625,-15.725341796875,-3.873779296875
0.036,20.950439453125,-13.603271484375,-6.476318359375
0.0365,20.550048828125,-10.480224609375,-9.279052734375
0.037,19.869384765625,-6.276123046875,-12.802490234375
0.0375,18.708251953125,-1.951904296875,-16.045654296875
0.038,17.106689453125,2.412353515625,-18.768310546875
0.0385,15.224853515625,5.255126953125,-19.729248046875
0.039,12.982666015625,8.017822265625,-20.329833984375
0.0395,9.459228515625,11.100830078125,-19.929443359375
0.04,4.134033203125,14.824462890625,-18.568115234375
0.0405,-0.750732421875,17.827392578125,-16.966552734375
0.041,-4.514404296875,19.869384765625,-15.445068359375
0.0415,-7.076904296875,20.510009765625,-13.763427734375
0.042,-9.999755859375,20.469970703125,-10.960693359375
0.0425,-13.202880859375,19.869384765625,-7.357177734375
0.043,-16.566162109375,18.427978515625,-2.712646484375
0.0435,-19.248779296875,16.586181640625,1.851806640625
0.044,-20.369873046875,14.864501953125,4.534423828125
0.0445,-20.810302734375,12.582275390625,7.297119140625
0.045,-20.489990234375,9.259033203125,10.219970703125
0.0455,-19.408935546875,4.654541015625,13.903564453125
0.046,-18.087646484375,0.370361328125,16.906494140625
0.0465,-16.686279296875,-3.553466796875,19.348876953125
0.047,-14.684326171875,-6.156005859375,20.029541015625
0.0475,-12.041748046875,-8.918701171875,20.189697265625
0.048,-7.957763671875,-12.442138671875,19.709228515625
0.0485,-2.632568359375,-16.005615234375,18.067626953125
0.049,2.172119140625,-18.728271484375,16.345947265625
0.0495,5.295166015625,-20.209716796875,15.024658203125
0.05,7.937744140625,-20.770263671875,13.102783203125
0.0505,10.860595703125,-20.449951171875,9.979736328125
0.051,14.343994140625,-19.529052734375,5.775634765625
0.0515,17.467041015625,-17.967529296875,1.291259765625
0.052,19.869384765625,-16.245849609375,-2.912841796875
0.0525,20.469970703125,-14.283935546875,-5.355224609375
0.053,20.670166015625,-11.681396484375,-8.077880859375
0.0535,20.189697265625,-7.917724609375,-11.481201171875
0.054,18.988525390625,-3.393310546875,-14.844482421875
0.0545,17.427001953125,0.970947265625,-17.647216796875
0.055,15.985595703125,4.334228515625,-19.569091796875
0.0555,13.743408203125,7.016845703125,-20.049560546875
0.056,10.660400390625,9.859619140625,-19.889404296875
0.0565,6.135986328125,13.463134765625,-19.208740234375
0.057,0.970947265625,16.786376953125,-17.567138671875
0.0575,-3.473388671875,19.228759765625,-15.685302734375
0.058,-6.156005859375,20.189697265625,-14.243896484375
0.0585,-8.918701171875,20.630126953125,-12.161865234375
0.059,-12.041748046875,20.029541015625,-8.678466796875
0.0595,-15.284912109375,18.788330078125,-4.314208984375
0.06,-18.247802734375,17.146728515625,0.290283203125
0.0605,-20.249755859375,15.425048828125,3.893798828125
0.061,-20.489990234375,13.302978515625,6.256103515625
0.0615,-20.489990234375,10.420166015625,9.098876953125
0.062,-19.769287109375,6.216064453125,12.662353515625
0.0625,-18.528076171875,1.851806640625,15.865478515625
0.063,-16.886474609375,-2.312255859375,18.307861328125
0.0635,-15.324951171875,-5.195068359375,19.709228515625
0.064,-13.042724609375,-7.837646484375,20.109619140625
0.0645,-9.319091796875,-10.960693359375,19.509033203125
0.065,-4.634521484375,-14.323974609375,18.387939453125
0.0655,0.490478515625,-17.447021484375,16.746337890625
0.066,4.334228515625,-19.489013671875,15.104736328125
0.0665,6.696533203125,-19.969482421875,13.463134765625
0.067,9.419189453125,-20.209716796875,11.220947265625
0.0675,12.782470703125,-19.489013671875,7.257080078125
0.068,15.825439453125,-18.087646484375,2.972900390625
0.0685,18.427978515625,-16.486083984375,-1.191162109375
0.069,19.869384765625,-14.884521484375,-4.194091796875
0.0695,19.989501953125,-12.562255859375,-6.596435546875
0.07,19.789306640625,-9.439208984375,-9.639404296875
0.0705,18.908447265625,-5.195068359375,-12.962646484375
0.071,17.707275390625,-0.870849609375,-16.085693359375
0.0715,16.185791015625,2.852783203125,-18.447998046875
0.072,14.263916015625,5.335205078125,-19.088623046875
0.0725,12.141845703125,8.057861328125,-19.529052734375
0.073,7.737548828125,11.581298828125,-18.928466796875
0.0735,3.253173828125,14.744384765625,-17.607177734375
0.074,-1.391357421875,17.587158203125,-16.085693359375
0.0745,-4.754638671875,19.348876953125,-14.764404296875
0.075,-7.076904296875,19.629150390625,-12.882568359375
0.0755,-9.759521484375,19.709228515625,-10.400146484375
0.076,-13.403076171875,18.868408203125,-6.115966796875
0.0765,-16.365966796875,17.346923828125,-1.791748046875
0.077,-18.648193359375,15.825439453125,2.052001953125
0.0775,-19.689208984375,14.143798828125,4.614501953125
0.078,-19.849365234375,11.701416015625,7.217041015625
0.0785,-19.489013671875,7.977783203125,10.620361328125
0.079,-18.488037109375,3.933837890625,13.703369140625
0.0795,-17.286865234375,-0.390380859375,16.706298828125
0.08,-15.725341796875,-3.793701171875,18.828369140625
0.0805,-13.763427734375,-6.196044921875,19.188720703125
0.081,-11.240966796875,-8.918701171875,19.308837890625
0.0815,-6.436279296875,-12.722412109375,18.548095703125
0.082,-1.631591796875,-15.845458984375,16.946533203125
0.0825,2.492431640625,-18.167724609375,15.505126953125
0.083,5.415283203125,-19.649169921875,14.263916015625
0.0835,7.977783203125,-19.809326171875,12.101806640625
0.084,10.940673828125,-19.529052734375,9.098876953125
0.0845,14.343994140625,-18.568115234375,4.854736328125
0.085,17.346923828125,-17.006591796875,0.370361328125
0.0855,19.308837890625,-15.445068359375,-3.113037109375
0.086,19.829345703125,-13.483154296875,-5.555419921875
0.0865,19.989501953125,-10.920654296875,-8.238037109375
0.087,19.348876953125,-6.516357421875,-12.081787109375
0.0875,18.187744140625,-2.432373046875,-14.964599609375
0.088,16.786376953125,1.491455078125,-17.647216796875
0.0885,15.304931640625,4.734619140625,-19.368896484375
0.089,12.742431640625,7.217041015625,-19.408935546875
0.0895,9.739501953125,10.219970703125,-19.408935546875
0.09,4.814697265625,14.023681640625,-18.447998046875
0.0905,-0.350341796875,17.226806640625,-16.686279296875
0.091,-3.993896484375,19.148681640625,-15.204833984375
0.0915,-6.676513671875,20.109619140625,-13.723388671875
0.092,-9.399169921875,20.189697265625,-11.321044921875
0.0925,-12.842529296875,19.468994140625,-7.317138671875
0.093,-15.885498046875,18.227783203125,-3.193115234375
0.0935,-18.768310546875,16.626220703125,1.331298828125
0.094,-20.329833984375,14.864501953125,4.494384765625
0.0945,-20.369873046875,12.462158203125,7.016845703125
0.095,-20.449951171875,9.619384765625,9.899658203125
0.0955,-19.529052734375,4.774658203125,13.823486328125
0.096,-18.087646484375,0.410400390625,16.826416015625
0.0965,-16.526123046875,-3.233154296875,18.908447265625
0.097,-14.884521484375,-6.196044921875,20.229736328125
0.0975,-12.121826171875,-8.798583984375,20.149658203125
0.098,-7.837646484375,-12.281982421875,19.468994140625
0.0985,-3.193115234375,-15.565185546875,18.227783203125
0.099,1.971923828125,-18.568115234375,16.385986328125
0.0995,5.295166015625,-20.049560546875,14.824462890625
0.1,7.817626953125,-20.489990234375,12.862548828125
0.1005,10.500244140625,-20.570068359375,10.540283203125
0.101,14.384033203125,-19.368896484375,5.615478515625
0.1015,17.306884765625,-17.807373046875,1.331298828125
0.102,19.549072265625,-16.245849609375,-2.552490234375
0.1025,20.630126953125,-14.444091796875,-5.395263671875
0.103,20.389892578125,-11.681396484375,-7.877685546875
0.1035,20.149658203125,-8.197998046875,-11.160888671875
0.104,19.148681640625,-3.793701171875,-14.604248046875
0.1045,17.627197265625,0.810791015625,-17.647216796875
0.105,15.945556640625,4.093994140625,-19.288818359375
0.1055,14.023681640625,6.776611328125,-20.089599609375
0.106,11.260986328125,9.459228515625,-20.129638671875
0.1065,6.015869140625,13.463134765625,-18.968505859375
0.107,1.491455078125,16.426025390625,-17.607177734375
0.1075,-3.032958984375,19.068603515625,-16.005615234375
0.108,-6.115966796875,20.349853515625,-14.444091796875
0.1085,-8.718505859375,20.269775390625,-12.001708984375
0.109,-11.401123046875,20.229736328125,-9.439208984375
0.1095,-15.204833984375,18.948486328125,-4.514404296875
0.11,-18.247802734375,17.146728515625,0.290283203125
0.1105,-19.929443359375,15.545166015625,3.533447265625
0.111,-20.770263671875,13.663330078125,6.216064453125
0.1115,-20.489990234375,10.820556640625,8.818603515625
0.112,-19.889404296875,6.416259765625,12.582275390625
0.1125,-18.768310546875,2.292236328125,15.585205078125
0.113,-17.366943359375,-2.072021484375,18.508056640625
0.1135,-15.525146484375,-5.195068359375,19.909423828125
0.114,-13.162841796875,-7.757568359375,20.149658203125
0.1145,-10.280029296875,-10.640380859375,20.229736328125
0.115,-4.594482421875,-14.764404296875,18.788330078125
0.1155,0.410400390625,-17.687255859375,16.986572265625
0.116,4.093994140625,-19.729248046875,15.545166015625
0.1165,7.016845703125,-20.810302734375,13.983642578125
0.117,9.859619140625,-20.530029296875,11.100830078125
0.1175,12.942626953125,-20.009521484375,7.697509765625
0.118,16.345947265625,-18.768310546875,3.173095703125
0.1185,19.268798828125,-16.846435546875,-1.671630859375
0.119,20.469970703125,-15.164794921875,-4.514404296875
0.1195,20.870361328125,-12.882568359375,-7.197021484375
0.12,20.630126953125,-9.999755859375,-9.879638671875
0.1205,19.669189453125,-4.994873046875,-13.963623046875
0.121,18.227783203125,-0.750732421875,-16.846435546875
0.1215,16.826416015625,3.173095703125,-19.248779296875
0.122,14.944580078125,6.216064453125,-20.449951171875
0.1225,11.901611328125,8.898681640625,-20.169677734375
0.123,8.298095703125,12.181884765625,-19.969482421875
0.1235,3.012939453125,15.905517578125,-18.568115234375
0.124,-2.272216796875,18.908447265625,-16.406005859375
0.1245,-5.355224609375,20.229736328125,-15.004638671875
0.125,-8.117919921875,20.990478515625,-13.242919921875
0.1255,-10.920654296875,20.630126953125,-10.280029296875
0.126,-14.524169921875,19.509033203125,-5.755615234375
0.1265,-17.567138671875,18.107666015625,-1.431396484375
0.127,-20.129638671875,16.265869140625,2.972900390625
0.1275,-20.890380859375,14.384033203125,5.615478515625
0.128,-20.890380859375,11.541259765625,8.378173828125
0.1285,-20.650146484375,8.378173828125,11.301025390625
0.129,-19.489013671875,3.413330078125,15.144775390625
0.1295,-17.807373046875,-1.151123046875,17.987548828125
0.13,-16.245849609375,-4.434326171875,19.829345703125
0.1305,-14.404052734375,-7.237060546875,20.790283203125
0.131,-11.040771484375,-9.999755859375,20.309814453125
0.1315,-6.476318359375,-13.643310546875,19.509033203125
0.132,-1.471435546875,-17.006591796875,18.027587890625
0.1325,3.493408203125,-19.689208984375,16.065673828125
0.133,6.256103515625,-20.570068359375,14.504150390625
0.1335,9.058837890625,-21.010498046875,12.302001953125
0.134,11.901611328125,-20.690185546875,9.339111328125
0.1345,15.625244140625,-19.288818359375,4.414306640625
0.135,18.548095703125,-17.647216796875,-0.230224609375
0.1355,20.510009765625,-15.965576171875,-3.833740234375
0.136,21.110595703125,-13.963623046875,-6.396240234375
0.1365,20.790283203125,-10.840576171875,-9.279052734375
0.137,20.309814453125,-6.916748046875,-12.682373046875
0.1375,19.148681640625,-2.352294921875,-16.045654296875
0.138,17.427001953125,2.292236328125,-18.928466796875
0.1385,15.625244140625,5.215087890625,-20.129638671875
0.139,13.503173828125,7.977783203125,-20.850341796875
0.1395,9.859619140625,11.100830078125,-20.369873046875
0.14,4.614501953125,14.864501953125,-19.088623046875
0.1405,-0.350341796875,17.987548828125,-17.487060546875
0.141,-4.634521484375,20.309814453125,-15.765380859375
0.1415,-7.237060546875,20.950439453125,-14.003662109375
0.142,-10.239990234375,20.990478515625,-11.240966796875
0.1425,-13.322998046875,20.469970703125,-7.837646484375
0.143,-16.806396484375,18.908447265625,-2.992919921875
0.1435,-19.729248046875,16.946533203125,1.811767578125
0.144,-21.130615234375,15.224853515625,4.854736328125
0.1445,-21.531005859375,12.942626953125,7.617431640625
0.145,-21.130615234375,9.499267578125,10.620361328125
0.1455,-20.169677734375,4.974853515625,14.263916015625
0.146,-18.848388671875,0.570556640625,17.427001953125
0.1465,-17.206787109375,-3.753662109375,20.109619140625
0.147,-15.124755859375,-6.516357421875,20.790283203125
0.1475,-12.522216796875,-9.319091796875,21.110595703125
0.148,-8.398193359375,-12.802490234375,20.550048828125
0.1485,-2.952880859375,-16.365966796875,18.868408203125
0.149,2.052001953125,-19.208740234375,16.946533203125
0.1495,5.655517578125,-21.010498046875,15.425048828125
0.15,8.378173828125,-21.490966796875,13.383056640625
0.1505,11.421142578125,-21.130615234375,10.260009765625
0.151,14.864501953125,-20.289794921875,6.095947265625
0.1515,18.107666015625,-18.648193359375,1.411376953125
0.152,20.670166015625,-16.726318359375,-3.193115234375
0.1525,21.470947265625,-14.804443359375,-5.875732421875
0.153,21.711181640625,-12.201904296875,-8.798583984375
0.1535,21.150634765625,-8.278076171875,-12.121826171875
0.154,19.909423828125,-3.553466796875,-15.565185546875
0.1545,18.307861328125,1.010986328125,-18.528076171875
0.155,16.666259765625,4.814697265625,-20.770263671875
0.1555,14.263916015625,7.537353515625,-21.130615234375
0.156,11.180908203125,10.500244140625,-21.090576171875
0.1565,6.536376953125,14.223876953125,-20.289794921875
0.157,1.211181640625,17.627197265625,-18.568115234375
0.1575,-3.673583984375,20.189697265625,-16.526123046875
0.158,-6.716552734375,21.470947265625,-14.924560546875
0.1585,-9.599365234375,21.751220703125,-12.682373046875
0.159,-12.762451171875,21.150634765625,-9.078857421875
0.1595,-16.165771484375,19.909423828125,-4.554443359375
0.16,-19.368896484375,18.107666015625,0.370361328125
0.1605,-21.611083984375,16.145751953125,4.494384765625
0.161,-21.931396484375,13.863525390625,7.056884765625
0.1615,-21.971435546875,10.900634765625,10.099853515625
0.162,-21.210693359375,6.496337890625,13.783447265625
0.1625,-19.849365234375,1.891845703125,17.066650390625
0.163,-18.007568359375,-2.632568359375,19.749267578125
0.1635,-16.325927734375,-6.035888671875,21.470947265625
0.164,-13.723388671875,-8.798583984375,21.711181640625
0.1645,-9.959716796875,-12.001708984375,21.190673828125
0.165,-5.034912109375,-15.605224609375,20.109619140625
0.1655,0.570556640625,-18.968505859375,18.147705078125
0.166,4.974853515625,-21.130615234375,16.145751953125
0.1665,7.697509765625,-21.771240234375,14.384033203125
0.167,10.740478515625,-22.051513671875,11.821533203125
0.1675,14.263916015625,-21.170654296875,7.617431640625
0.168,17.507080078125,-19.729248046875,3.012939453125
0.1685,20.469970703125,-17.927490234375,-1.831787109375
0.169,22.271728515625,-16.005615234375,-5.475341796875
0.1695,22.271728515625,-13.282958984375,-8.077880859375
0.17,22.071533203125,-9.959716796875,-11.321044921875
0.1705,21.070556640625,-5.155029296875,-15.084716796875
0.171,19.509033203125,-0.430419921875,-18.327880859375
0.1715,17.627197265625,3.853759765625,-20.650146484375
0.172,15.665283203125,6.896728515625,-21.811279296875
0.1725,12.822509765625,9.859619140625,-21.971435546875
0.173,8.137939453125,13.583251953125,-21.130615234375
0.1735,3.293212890625,16.826416015625,-19.769287109375
0.174,-2.272216796875,20.109619140625,-17.767333984375
0.1745,-6.236083984375,21.911376953125,-15.885498046875
0.175,-8.918701171875,22.151611328125,-13.643310546875
0.1755,-11.921630859375,22.271728515625,-10.960693359375
0.176,-15.885498046875,20.990478515625,-5.995849609375
0.1765,-18.968505859375,19.228759765625,-1.191162109375
0.177,-21.490966796875,17.306884765625,3.253173828125
0.1775,-22.852294921875,15.224853515625,6.576416015625
0.178,-22.652099609375,12.221923828125,9.419189453125
0.1785,-22.291748046875,8.258056640625,13.022705078125
0.179,-21.010498046875,3.573486328125,16.466064453125
0.1795,-19.328857421875,-1.391357421875,19.789306640625
0.18,-17.286865234375,-5.395263671875,21.751220703125
0.1805,-15.004638671875,-8.197998046875,22.271728515625
0.181,-12.041748046875,-11.200927734375,22.431884765625
