wavelength,x,y,z
0.0,-4.50439453125,4.50439453125,0.66064453125
0.0005,-3.78369140625,4.86474609375,-0.38037109375
0.001,-2.66259765625,5.10498046875,-1.62158203125
0.0015,-1.54150390625,5.38525390625,-3.06298828125
0.002,-0.58056640625,5.42529296875,-4.06396484375
0.0025,0.30029296875,5.50537109375,-4.86474609375
0.003,1.10107421875,5.18505859375,-5.46533203125
0.0035,2.26220703125,4.18408203125,-5.82568359375
0.004,3.54345703125,3.06298828125,-6.14599609375
0.0045,4.54443359375,1.82177734375,-6.22607421875
0.005,5.06494140625,0.86083984375,-6.06591796875
0.0055,5.22509765625,0.06005859375,-5.78564453125
0.006,5.22509765625,-0.90087890625,-5.22509765625
0.0065,5.06494140625,-2.06201171875,-4.14404296875
0.007,4.98486328125,-3.34326171875,-3.02294921875
0.0075,4.74462890625,-4.42431640625,-1.94189453125
0.008,4.42431640625,-5.10498046875,-1.10107421875
0.0085,3.86376953125,-5.50537109375,-0.30029296875
0.009,2.98291015625,-5.78564453125,0.86083984375
0.0095,1.78173828125,-6.10595703125,2.26220703125
0.01,0.62060546875,-6.22607421875,3.62353515625
0.0105,-0.34033203125,-6.26611328125,4.50439453125
0.011,-0.98095703125,-6.26611328125,5.26513671875
0.0115,-1.98193359375,-5.70556640625,5.78564453125
0.012,-3.34326171875,-4.50439453125,6.14599609375
0.0125,-4.58447265625,-3.18310546875,6.42626953125
0.013,-5.42529296875,-1.94189453125,6.30615234375
0.0135,-5.78564453125,-1.02099609375,6.10595703125
0.014,-5.90576171875,-0.22021484375,5.62548828125
0.0145,-5.74560546875,0.94091796875,4.74462890625
0.015,-5.62548828125,2.26220703125,3.58349609375
0.0155,-5.42529296875,3.54345703125,2.34228515625
0.016,-5.10498046875,4.42431640625,1.30126953125
0.0165,-4.62451171875,4.98486328125,0.46044921875
0.017,-3.90380859375,5.26513671875,-0.50048828125
0.0175,-2.70263671875,5.42529296875,-1.86181640625
0.018,-1.46142578125,5.74560546875,-3.34326171875
0.0185,-0.26025390625,5.74560546875,-4.54443359375
0.019,0.62060546875,5.70556640625,-5.30517578125
0.0195,1.34130859375,5.42529296875,-5.90576171875
0.02,2.54248046875,4.54443359375,-6.34619140625
0.0205,3.86376953125,3.18310546875,-6.58642578125
0.021,4.98486328125,1.78173828125,-6.70654296875
0.0215,5.58544921875,0.62060546875,-6.42626953125
0.022,5.74560546875,-0.30029296875,-6.10595703125
0.0225,5.70556640625,-1.18115234375,-5.42529296875
0.023,5.42529296875,-2.42236328125,-4.26416015625
0.0235,5.26513671875,-3.74365234375,-3.02294921875
0.024,4.98486328125,-4.90478515625,-1.78173828125
0.0245,4.54443359375,-5.62548828125,-0.82080078125
0.025,3.98388671875,-6.10595703125,0.10009765625
0.0255,3.10302734375,-6.26611328125,1.06103515625
0.026,1.70166015625,-6.38623046875,2.54248046875
0.0265,0.38037109375,-6.54638671875,4.02392578125
0.027,-0.70068359375,-6.42626953125,5.02490234375
0.0275,-1.42138671875,-6.38623046875,5.70556640625
0.028,-2.26220703125,-5.86572265625,6.22607421875
0.0285,-3.62353515625,-4.62451171875,6.54638671875
0.029,-4.90478515625,-3.26318359375,6.78662109375
0.0295,-5.86572265625,-1.90185546875,6.66650390625
0.03,-6.26611328125,-0.82080078125,6.34619140625
0.0305,-6.26611328125,0.14013671875,5.90576171875
0.031,-6.10595703125,1.10107421875,5.10498046875
0.0315,-5.82568359375,2.42236328125,3.78369140625
0.032,-5.62548828125,3.78369140625,2.42236328125
0.0325,-5.22509765625,4.78466796875,1.22119140625
0.033,-4.74462890625,5.30517578125,0.34033203125
0.0335,-4.02392578125,5.58544921875,-0.62060546875
0.034,-2.86279296875,5.74560546875,-1.82177734375
0.0345,-1.54150390625,5.94580078125,-3.34326171875
0.035,-0.18017578125,5.90576171875,-4.70458984375
0.0355,0.74072265625,5.82568359375,-5.50537109375
0.036,1.42138671875,5.66552734375,-6.10595703125
0.0365,2.42236328125,4.90478515625,-6.50634765625
0.037,3.78369140625,3.54345703125,-6.74658203125
0.0375,4.94482421875,2.18212890625,-6.86669921875
0.038,5.70556640625,0.82080078125,-6.66650390625
0.0385,5.90576171875,-0.18017578125,-6.30615234375
0.039,5.90576171875,-1.02099609375,-5.74560546875
0.0395,5.62548828125,-2.06201171875,-4.74462890625
0.04,5.38525390625,-3.38330078125,-3.46337890625
0.0405,5.14501953125,-4.66455078125,-2.14208984375
0.041,4.74462890625,-5.58544921875,-1.06103515625
0.0415,4.22412109375,-6.10595703125,-0.26025390625
0.042,3.46337890625,-6.26611328125,0.74072265625
0.0425,2.22216796875,-6.38623046875,2.02197265625
0.043,0.90087890625,-6.58642578125,3.54345703125
0.0435,-0.42041015625,-6.50634765625,4.70458984375
0.044,-1.18115234375,-6.46630859375,5.50537109375
0.0445,-1.94189453125,-6.18603515625,6.10595703125
0.045,-3.06298828125,-5.26513671875,6.46630859375
0.0455,-4.42431640625,-3.86376953125,6.70654296875
0.046,-5.54541015625,-2.50244140625,6.74658203125
0.0465,-6.10595703125,-1.26123046875,6.46630859375
0.047,-6.30615234375,-0.38037109375,6.10595703125
0.0475,-6.22607421875,0.58056640625,5.50537109375
0.048,-5.94580078125,1.78173828125,4.34423828125
0.0485,-5.74560546875,3.14306640625,3.06298828125
0.049,-5.42529296875,4.30419921875,1.78173828125
0.0495,-4.98486328125,5.06494140625,0.74072265625
0.05,-4.46435546875,5.50537109375,-0.18017578125
0.0505,-3.54345703125,5.70556640625,-1.22119140625
0.051,-2.14208984375,5.86572265625,-2.66259765625
0.0515,-0.78076171875,6.02587890625,-4.18408203125
0.052,0.38037109375,5.90576171875,-5.18505859375
0.0525,1.10107421875,5.82568359375,-5.90576171875
0.053,1.98193359375,5.34521484375,-6.38623046875
0.0535,3.26318359375,4.10400390625,-6.70654296875
0.054,4.54443359375,2.70263671875,-6.94677734375
0.0545,5.50537109375,1.30126953125,-6.86669921875
0.055,5.98583984375,0.26025390625,-6.54638671875
0.0555,6.02587890625,-0.70068359375,-6.10595703125
0.056,5.86572265625,-1.70166015625,-5.26513671875
0.0565,5.58544921875,-3.02294921875,-3.94384765625
0.057,5.38525390625,-4.50439453125,-2.58251953125
0.0575,4.98486328125,-5.50537109375,-1.34130859375
0.058,4.46435546875,-6.06591796875,-0.42041015625
0.0585,3.78369140625,-6.38623046875,0.54052734375
0.059,2.62255859375,-6.50634765625,1.74169921875
0.0595,1.22119140625,-6.70654296875,3.30322265625
0.06,-0.26025390625,-6.70654296875,4.66455078125
0.0605,-1.14111328125,-6.54638671875,5.50537109375
0.061,-1.82177734375,-6.38623046875,6.10595703125
0.0615,-2.86279296875,-5.62548828125,6.54638671875
0.062,-4.22412109375,-4.14404296875,6.78662109375
0.0625,-5.46533203125,-2.74267578125,6.90673828125
0.063,-6.14599609375,-1.42138671875,6.66650390625
0.0635,-6.42626953125,-0.46044921875,6.26611328125
0.064,-6.34619140625,0.50048828125,5.66552734375
0.0645,-6.10595703125,1.58154296875,4.62451171875
0.065,-5.82568359375,2.86279296875,3.30322265625
0.0655,-5.50537109375,4.14404296875,1.98193359375
0.066,-5.06494140625,4.98486328125,0.90087890625
0.0665,-4.50439453125,5.42529296875,0.06005859375
0.067,-3.70361328125,5.70556640625,-0.98095703125
0.0675,-2.42236328125,5.74560546875,-2.26220703125
0.068,-1.14111328125,5.94580078125,-3.70361328125
0.0685,0.22021484375,5.82568359375,-4.86474609375
0.069,0.98095703125,5.74560546875,-5.62548828125
0.0695,1.62158203125,5.46533203125,-6.14599609375
0.07,2.70263671875,4.62451171875,-6.46630859375
0.0705,3.94384765625,3.22314453125,-6.66650390625
0.071,5.06494140625,1.90185546875,-6.70654296875
0.0715,5.62548828125,0.66064453125,-6.42626953125
0.072,5.78564453125,-0.26025390625,-6.14599609375
0.0725,5.70556640625,-1.10107421875,-5.54541015625
0.073,5.42529296875,-2.18212890625,-4.50439453125
0.0735,5.26513671875,-3.46337890625,-3.34326171875
0.074,4.98486328125,-4.58447265625,-2.06201171875
0.0745,4.58447265625,-5.34521484375,-1.10107421875
0.075,4.14404296875,-5.82568359375,-0.30029296875
0.0755,3.34326171875,-6.10595703125,0.66064453125
0.076,2.10205078125,-6.26611328125,1.98193359375
0.0765,0.90087890625,-6.38623046875,3.46337890625
0.077,-0.34033203125,-6.34619140625,4.50439453125
0.0775,-0.98095703125,-6.38623046875,5.26513671875
0.078,-1.82177734375,-6.06591796875,5.82568359375
0.0785,-2.98291015625,-5.02490234375,6.18603515625
0.079,-4.22412109375,-3.82373046875,6.46630859375
0.0795,-5.26513671875,-2.50244140625,6.46630859375
0.08,-5.74560546875,-1.42138671875,6.26611328125
0.0805,-5.98583984375,-0.62060546875,5.94580078125
0.081,-5.90576171875,0.30029296875,5.30517578125
0.0815,-5.70556640625,1.54150390625,4.18408203125
0.082,-5.58544921875,2.86279296875,3.06298828125
0.0825,-5.26513671875,3.90380859375,1.86181640625
0.083,-4.90478515625,4.62451171875,0.94091796875
0.0835,-4.34423828125,5.06494140625,0.14013671875
0.084,-3.38330078125,5.26513671875,-0.98095703125
0.0845,-2.26220703125,5.54541015625,-2.34228515625
0.085,-0.98095703125,5.62548828125,-3.74365234375
0.0855,0.06005859375,5.62548828125,-4.62451171875
0.086,0.70068359375,5.58544921875,-5.38525390625
0.0865,1.58154296875,5.10498046875,-5.82568359375
0.087,2.86279296875,3.94384765625,-6.14599609375
0.0875,4.02392578125,2.70263671875,-6.38623046875
0.088,4.82470703125,1.46142578125,-6.26611328125
0.0885,5.26513671875,0.62060546875,-6.10595703125
0.089,5.34521484375,-0.34033203125,-5.70556640625
0.0895,5.26513671875,-1.26123046875,-4.98486328125
0.09,5.10498046875,-2.38232421875,-3.94384765625
0.0905,4.98486328125,-3.66357421875,-2.78271484375
0.091,4.62451171875,-4.54443359375,-1.74169921875
0.0915,4.34423828125,-5.18505859375,-0.94091796875
0.092,3.74365234375,-5.54541015625,0.02001953125
0.0925,2.74267578125,-5.74560546875,1.10107421875
0.093,1.62158203125,-6.10595703125,2.42236328125
0.0935,0.50048828125,-6.10595703125,3.58349609375
0.094,-0.38037109375,-6.18603515625,4.50439453125
0.0945,-1.10107421875,-6.10595703125,5.14501953125
0.095,-2.06201171875,-5.42529296875,5.62548828125
0.0955,-3.26318359375,-4.34423828125,5.94580078125
0.096,-4.42431640625,-3.14306640625,6.10595703125
0.0965,-5.10498046875,-2.02197265625,6.02587890625
0.097,-5.46533203125,-1.26123046875,5.82568359375
0.0975,-5.54541015625,-0.50048828125,5.42529296875
0.098,-5.42529296875,0.62060546875,4.62451171875
0.0985,-5.38525390625,1.78173828125,3.66357421875
0.099,-5.18505859375,2.94287109375,2.54248046875
0.0995,-4.86474609375,3.82373046875,1.58154296875
0.1,-4.58447265625,4.42431640625,0.82080078125
0.1005,-3.94384765625,4.78466796875,0.02001953125
0.101,-2.94287109375,5.06494140625,-1.26123046875
0.1015,-1.86181640625,5.30517578125,-2.58251953125
0.102,-0.82080078125,5.38525390625,-3.70361328125
0.1025,0.02001953125,5.46533203125,-4.50439453125
0.103,0.78076171875,5.26513671875,-5.14501953125
0.1035,1.86181640625,4.50439453125,-5.58544921875
0.104,2.98291015625,3.46337890625,-5.90576171875
0.1045,4.02392578125,2.30224609375,-6.06591796875
0.105,4.62451171875,1.26123046875,-5.94580078125
0.1055,4.98486328125,0.50048828125,-5.82568359375
0.106,4.98486328125,-0.30029296875,-5.38525390625
0.1065,4.94482421875,-1.30126953125,-4.54443359375
0.107,4.86474609375,-2.50244140625,-3.54345703125
0.1075,4.70458984375,-3.58349609375,-2.54248046875
0.108,4.50439453125,-4.38427734375,-1.66162109375
0.1085,4.14404296875,-4.98486328125,-0.94091796875
0.109,3.38330078125,-5.30517578125,0.14013671875
0.1095,2.42236328125,-5.62548828125,1.34130859375
0.11,1.34130859375,-5.82568359375,2.58251953125
0.1105,0.46044921875,-5.94580078125,3.58349609375
0.111,-0.30029296875,-6.10595703125,4.42431640625
0.1115,-1.22119140625,-5.74560546875,5.02490234375
0.112,-2.34228515625,-4.90478515625,5.46533203125
0.1125,-3.54345703125,-3.82373046875,5.74560546875
0.113,-4.42431640625,-2.74267578125,5.78564453125
0.1135,-4.94482421875,-1.90185546875,5.74560546875
0.114,-5.26513671875,-1.10107421875,5.58544921875
0.1145,-5.26513671875,-0.30029296875,5.02490234375
0.115,-5.14501953125,0.82080078125,4.22412109375
0.1155,-5.14501953125,2.02197265625,3.22314453125
0.116,-4.94482421875,3.02294921875,2.26220703125
0.1165,-4.66455078125,3.78369140625,1.46142578125
0.117,-4.26416015625,4.26416015625,0.66064453125
0.1175,-3.46337890625,4.58447265625,-0.46044921875
0.118,-2.58251953125,4.98486328125,-1.62158203125
0.1185,-1.50146484375,5.14501953125,-2.86279296875
0.119,-0.70068359375,5.30517578125,-3.78369140625
0.1195,0.10009765625,5.34521484375,-4.54443359375
0.12,1.02099609375,4.86474609375,-5.10498046875
0.1205,2.18212890625,3.98388671875,-5.54541015625
0.121,3.30322265625,2.86279296875,-5.82568359375
0.1215,4.14404296875,1.82177734375,-5.82568359375
0.122,4.54443359375,1.10107421875,-5.78564453125
0.1225,4.78466796875,0.38037109375,-5.50537109375
0.123,4.78466796875,-0.62060546875,-4.86474609375
0.1235,4.82470703125,-1.70166015625,-4.10400390625
0.124,4.70458984375,-2.86279296875,-3.06298828125
0.1245,4.50439453125,-3.82373046875,-2.18212890625
0.125,4.30419921875,-4.50439453125,-1.42138671875
0.1255,3.78369140625,-4.98486328125,-0.62060546875
0.126,2.90283203125,-5.30517578125,0.62060546875
0.1265,1.94189453125,-5.74560546875,1.94189453125
0.127,0.98095703125,-5.86572265625,3.02294921875
0.1275,0.26025390625,-6.06591796875,3.94384765625
0.128,-0.70068359375,-5.90576171875,4.66455078125
0.1285,-1.78173828125,-5.22509765625,5.18505859375
0.129,-2.98291015625,-4.30419921875,5.58544921875
0.1295,-4.06396484375,-3.18310546875,5.74560546875
0.13,-4.78466796875,-2.18212890625,5.78564453125
0.1305,-5.14501953125,-1.38134765625,5.66552734375
0.131,-5.22509765625,-0.62060546875,5.26513671875
0.1315,-5.18505859375,0.50048828125,4.50439453125
0.132,-5.22509765625,1.66162109375,3.54345703125
0.1325,-5.06494140625,2.78271484375,2.54248046875
0.133,-4.82470703125,3.62353515625,1.66162109375
0.1335,-4.46435546875,4.18408203125,0.90087890625
0.134,-3.70361328125,4.54443359375,-0.18017578125
0.1345,-2.78271484375,4.94482421875,-1.42138671875
0.135,-1.66162109375,5.14501953125,-2.70263671875
0.1355,-0.82080078125,5.30517578125,-3.70361328125
0.136,0.02001953125,5.38525390625,-4.50439453125
0.1365,0.90087890625,5.06494140625,-5.14501953125
0.137,2.06201171875,4.10400390625,-5.54541015625
0.1375,3.22314453125,3.06298828125,-5.86572265625
0.138,4.10400390625,1.94189453125,-5.90576171875
0.1385,4.66455078125,1.10107421875,-5.82568359375
0.139,4.86474609375,0.30029296875,-5.62548828125
0.1395,4.86474609375,-0.66064453125,-4.98486328125
0.14,4.86474609375,-1.70166015625,-4.14404296875
0.1405,4.82470703125,-2.94287109375,-3.14306640625
0.141,4.58447265625,-3.90380859375,-2.14208984375
0.1415,4.34423828125,-4.66455078125,-1.34130859375
0.142,3.86376953125,-5.10498046875,-0.58056640625
0.1425,2.94287109375,-5.42529296875,0.62060546875
0.143,1.94189453125,-5.78564453125,1.94189453125
0.1435,0.90087890625,-5.90576171875,3.10302734375
0.144,0.14013671875,-6.10595703125,4.02392578125
0.1445,-0.70068359375,-6.02587890625,4.82470703125
0.145,-1.74169921875,-5.46533203125,5.34521484375
0.1455,-2.98291015625,-4.46435546875,5.74560546875
0.146,-4.14404296875,-3.18310546875,5.94580078125
0.1465,-4.86474609375,-2.14208984375,5.90576171875
0.147,-5.26513671875,-1.30126953125,5.74560546875
0.1475,-5.42529296875,-0.54052734375,5.38525390625
0.148,-5.30517578125,0.58056640625,4.54443359375
0.1485,-5.26513671875,1.78173828125,3.58349609375
0.149,-5.18505859375,2.94287109375,2.54248046875
0.1495,-4.90478515625,3.78369140625,1.58154296875
0.15,-4.54443359375,4.38427734375,0.86083984375
0.1505,-3.86376953125,4.74462890625,-0.14013671875
0.151,-2.86279296875,4.98486328125,-1.38134765625
0.1515,-1.70166015625,5.30517578125,-2.74267578125
0.152,-0.70068359375,5.38525390625,-3.82373046875
0.1525,0.14013671875,5.46533203125,-4.66455078125
0.153,0.94091796875,5.14501953125,-5.30517578125
0.1535,2.06201171875,4.30419921875,-5.74560546875
0.154,3.26318359375,3.26318359375,-6.02587890625
0.1545,4.30419921875,2.02197265625,-6.14599609375
0.155,4.86474609375,1.02099609375,-6.02587890625
0.1555,5.10498046875,0.30029296875,-5.78564453125
0.156,5.10498046875,-0.66064453125,-5.22509765625
0.1565,4.98486328125,-1.82177734375,-4.26416015625
0.157,4.98486328125,-3.10302734375,-3.18310546875
0.1575,4.74462890625,-4.14404296875,-2.10205078125
0.158,4.46435546875,-4.90478515625,-1.26123046875
0.1585,3.94384765625,-5.38525390625,-0.50048828125
0.159,3.06298828125,-5.62548828125,0.66064453125
0.1595,1.98193359375,-5.94580078125,2.06201171875
0.16,0.78076171875,-6.10595703125,3.34326171875
0.1605,-0.18017578125,-6.22607421875,4.34423828125
0.161,-0.90087890625,-6.26611328125,5.10498046875
0.1615,-1.86181640625,-5.74560546875,5.70556640625
0.162,-3.18310546875,-4.54443359375,6.06591796875
0.1625,-4.42431640625,-3.30322265625,6.34619140625
0.163,-5.26513671875,-2.06201171875,6.26611328125
0.1635,-5.70556640625,-1.18115234375,6.06591796875
0.164,-5.78564453125,-0.34033203125,5.66552734375
0.1645,-5.70556640625,0.78076171875,4.82470703125
0.165,-5.58544921875,2.10205078125,3.62353515625
0.1655,-5.42529296875,3.38330078125,2.42236328125
0.166,-5.10498046875,4.34423828125,1.34130859375
0.1665,-4.66455078125,4.94482421875,0.54052734375
0.167,-3.94384765625,5.26513671875,-0.50048828125
0.1675,-2.74267578125,5.46533203125,-1.86181640625
0.168,-1.50146484375,5.74560546875,-3.30322265625
0.1685,-0.34033203125,5.74560546875,-4.50439453125
0.169,0.58056640625,5.70556640625,-5.30517578125
0.1695,1.34130859375,5.42529296875,-5.94580078125
0.17,2.54248046875,4.50439453125,-6.38623046875
0.1705,3.90380859375,3.14306640625,-6.58642578125
0.171,5.02490234375,1.78173828125,-6.70654296875
0.1715,5.58544921875,0.62060546875,-6.42626953125
0.172,5.74560546875,-0.34033203125,-6.10595703125
0.1725,5.70556640625,-1.26123046875,-5.42529296875
0.173,5.42529296875,-2.46240234375,-4.22412109375
0.1735,5.26513671875,-3.78369140625,-2.98291015625
0.174,4.98486328125,-4.94482421875,-1.78173828125
0.1745,4.50439453125,-5.62548828125,-0.78076171875
0.175,3.98388671875,-6.10595703125,0.18017578125
0.1755,3.02294921875,-6.26611328125,1.14111328125
0.176,1.58154296875,-6.38623046875,2.66259765625
0.1765,0.34033203125,-6.54638671875,4.10400390625
0.177,-0.74072265625,-6.46630859375,5.06494140625
0.1775,-1.46142578125,-6.42626953125,5.74560546875
0.178,-2.42236328125,-5.78564453125,6.26611328125
0.1785,-3.70361328125,-4.54443359375,6.54638671875
0.179,-4.98486328125,-3.18310546875,6.74658203125
0.1795,-5.90576171875,-1.82177734375,6.66650390625
0.18,-6.26611328125,-0.78076171875,6.34619140625
0.1805,-6.30615234375,0.14013671875,5.90576171875
0.181,-6.14599609375,1.14111328125,5.06494140625
0.1815,-5.82568359375,2.42236328125,3.70361328125
0.182,-5.62548828125,3.78369140625,2.46240234375
0.1825,-5.22509765625,4.74462890625,1.22119140625
0.183,-4.74462890625,5.34521484375,0.30029296875
0.1835,-4.02392578125,5.62548828125,-0.62060546875
0.184,-2.86279296875,5.74560546875,-1.86181640625
0.1845,-1.50146484375,5.94580078125,-3.34326171875
0.185,-0.18017578125,5.90576171875,-4.70458984375
0.1855,0.78076171875,5.78564453125,-5.50537109375
0.186,1.42138671875,5.66552734375,-6.14599609375
0.1865,2.50244140625,4.90478515625,-6.58642578125
0.187,3.82373046875,3.50341796875,-6.78662109375
0.1875,4.98486328125,2.18212890625,-6.90673828125
0.188,5.70556640625,0.82080078125,-6.66650390625
0.1885,5.98583984375,-0.18017578125,-6.34619140625
0.189,5.94580078125,-1.06103515625,-5.74560546875
0.1895,5.70556640625,-2.10205078125,-4.78466796875
0.19,5.42529296875,-3.42333984375,-3.46337890625
0.1905,5.18505859375,-4.66455078125,-2.18212890625
0.191,4.74462890625,-5.54541015625,-1.10107421875
0.1915,4.22412109375,-6.10595703125,-0.22021484375
0.192,3.46337890625,-6.34619140625,0.78076171875
0.1925,2.18212890625,-6.42626953125,2.10205078125
0.193,0.82080078125,-6.66650390625,3.58349609375
0.1935,-0.50048828125,-6.54638671875,4.78466796875
0.194,-1.26123046875,-6.46630859375,5.54541015625
0.1945,-2.02197265625,-6.18603515625,6.14599609375
0.195,-3.18310546875,-5.22509765625,6.54638671875
0.1955,-4.50439453125,-3.82373046875,6.74658203125
0.196,-5.58544921875,-2.42236328125,6.78662109375
0.1965,-6.14599609375,-1.22119140625,6.50634765625
0.197,-6.34619140625,-0.38037109375,6.14599609375
0.1975,-6.26611328125,0.62060546875,5.46533203125
0.198,-5.98583984375,1.86181640625,4.30419921875
0.1985,-5.74560546875,3.18310546875,3.02294921875
0.199,-5.42529296875,4.34423828125,1.78173828125
