wavelength,x,y,z
0.0,-6.2611083984375,-16.511108398438,21.766235351562
0.0005,-1.9368896484375,-18.272827148438,19.083618164062
0.001,2.7076416015625,-21.115600585938,17.442016601562
0.0015,7.7926025390625,-22.917358398438,14.238891601562
0.002,12.276977539062,-22.917358398438,9.9547119140625
0.0025,15.319946289062,-23.357788085938,7.3922119140625
0.003,17.882446289062,-21.716186523438,3.1881103515625
0.0035,20.204711914062,-19.834350585938,-0.9759521484375
0.004,22.486938476562,-17.832397460938,-5.2601318359375
0.0045,23.527954101562,-14.068725585938,-9.9847412109375
0.005,23.007446289062,-10.104858398438,-13.307983398438
0.0055,23.127563476562,-7.3822021484375,-16.150756835938
0.006,20.645141601562,-3.0579833984375,-17.912475585938
0.0065,19.203735351562,1.5064697265625,-20.755249023438
0.007,16.200805664062,6.3912353515625,-22.476928710938
0.0075,11.796508789062,11.356079101562,-22.957397460938
0.008,8.6734619140625,14.158813476562,-22.797241210938
0.0085,4.2691650390625,17.041625976562,-21.035522460938
0.009,-0.2952880859375,18.923461914062,-18.513061523438
0.0095,-4.6995849609375,21.686157226562,-16.831420898438
0.01,-9.9046630859375,22.767211914062,-12.827514648438
0.0105,-13.788452148438,22.567016601562,-8.9036865234375
0.011,-16.711303710938,22.767211914062,-6.2611083984375
0.0115,-19.153686523438,20.725219726562,-1.8167724609375
0.012,-21.716186523438,18.723266601562,2.7476806640625
0.0125,-23.397827148438,16.280883789062,6.9117431640625
0.013,-24.078491210938,12.276977539062,11.476196289062
0.0135,-23.557983398438,8.6734619140625,14.439086914062
0.014,-22.957397460938,5.3101806640625,17.121704101562
0.0145,-20.354858398438,0.7457275390625,19.043579101562
0.015,-18.913452148438,-3.9388427734375,22.046508789062
0.0155,-14.989624023438,-8.8236083984375,22.887329101562
0.016,-10.825561523438,-13.388061523438,23.047485351562
0.0165,-7.9427490234375,-16.030639648438,22.767211914062
0.017,-2.9378662109375,-18.553100585938,20.364868164062
0.0175,1.7066650390625,-20.635131835938,17.962524414062
0.018,6.3111572265625,-23.077514648438,15.840454101562
0.0185,11.235961914062,-23.718139648438,11.636352539062
0.019,14.839477539062,-23.357788085938,7.8326416015625
0.0195,17.482055664062,-23.077514648438,4.8697509765625
0.02,19.844360351562,-20.835327148438,0.4654541015625
0.0205,22.607055664062,-18.873413085938,-4.3392333984375
0.021,23.327758789062,-15.390014648438,-8.4632568359375
0.0215,23.968383789062,-11.666381835938,-12.787475585938
0.022,23.447875976562,-8.3831787109375,-15.470092773438
0.0225,22.206665039062,-4.5794677734375,-17.912475585938
0.023,19.684204101562,0.1851806640625,-19.914428710938
0.0235,17.962524414062,5.0699462890625,-22.957397460938
0.024,13.478149414062,9.9547119140625,-23.197631835938
0.0245,9.3941650390625,13.838500976562,-23.037475585938
0.025,6.4713134765625,16.240844726562,-22.436889648438
0.0255,1.3062744140625,18.883422851562,-19.834350585938
0.026,-3.3782958984375,21.165649414062,-17.632202148438
0.0265,-8.4632568359375,22.847290039062,-14.268920898438
0.027,-12.787475585938,23.447875976562,-10.745483398438
0.0275,-16.270874023438,22.927368164062,-6.8216552734375
0.028,-18.673217773438,22.046508789062,-3.5784912109375
0.0285,-21.075561523438,19.684204101562,1.2261962890625
0.029,-24.038452148438,17.762329101562,6.0308837890625
0.0295,-23.838256835938,13.398071289062,10.194946289062
0.03,-24.478881835938,10.074829101562,14.078735351562
0.0305,-23.758178710938,6.7916259765625,16.521118164062
0.031,-21.916381835938,2.2672119140625,19.083618164062
0.0315,-19.473999023438,-2.4974365234375,21.165649414062
0.032,-16.791381835938,-7.7825927734375,23.567993164062
0.0325,-12.427124023438,-12.186889648438,23.567993164062
0.033,-8.4632568359375,-15.950561523438,23.207641601562
0.0335,-5.0599365234375,-17.912475585938,21.806274414062
0.034,0.3853759765625,-20.515014648438,19.083618164062
0.0345,5.1099853515625,-23.077514648438,17.041625976562
0.035,10.395141601562,-23.758178710938,12.517211914062
0.0355,14.158813476562,-24.518920898438,9.6343994140625
0.036,17.442016601562,-23.678100585938,5.5504150390625
0.0365,19.844360351562,-22.196655273438,1.8267822265625
0.037,22.046508789062,-19.714233398438,-2.9378662109375
0.0375,24.769165039062,-17.311889648438,-7.9827880859375
0.038,24.048461914062,-12.507202148438,-12.026733398438
0.0385,24.488891601562,-9.3841552734375,-15.510131835938
0.039,23.327758789062,-6.1009521484375,-17.552124023438
0.0395,21.205688476562,-1.2161865234375,-20.234741210938
0.04,18.763305664062,3.6685791015625,-22.516967773438
0.0405,15.039672851562,9.1939697265625,-24.078491210938
0.041,11.035766601562,13.117797851562,-23.958374023438
0.0415,6.9918212890625,16.601196289062,-23.237670898438
0.042,2.9478759765625,18.523071289062,-21.155639648438
0.0425,-2.1771240234375,21.005493164062,-18.633178710938
0.043,-7.4222412109375,23.768188476562,-16.230834960938
0.0435,-12.307006835938,23.407836914062,-11.065795898438
0.044,-15.790405273438,24.128540039062,-8.4232177734375
0.0445,-18.713256835938,22.887329101562,-4.3792724609375
0.045,-21.275756835938,21.045532226562,0.0650634765625
0.0455,-23.357788085938,18.563110351562,4.5093994140625
0.046,-25.319702148438,15.359985351562,9.6343994140625
0.0465,-24.639038085938,10.875610351562,13.358032226562
0.047,-24.719116210938,7.6324462890625,16.681274414062
0.0475,-22.957397460938,3.9088134765625,18.483032226562
0.048,-20.795288085938,-1.1361083984375,21.245727539062
0.0485,-18.192749023438,-6.3411865234375,23.608032226562
0.049,-13.428100585938,-11.546264648438,23.968383789062
0.0495,-10.224975585938,-14.989624023438,24.088500976562
0.05,-5.9007568359375,-18.032592773438,22.767211914062
0.0505,-1.4564208984375,-20.114624023438,20.404907226562
0.051,3.3482666015625,-22.356811523438,18.002563476562
0.0515,8.9937744140625,-24.759155273438,14.879516601562
0.052,13.317993164062,-24.118530273438,9.9547119140625
0.0525,16.801391601562,-24.639038085938,7.1519775390625
0.053,19.203735351562,-22.917358398438,3.1080322265625
0.0535,21.766235351562,-20.995483398438,-1.4163818359375
0.054,23.768188476562,-18.432983398438,-5.9007568359375
0.0545,24.809204101562,-14.308959960938,-10.945678710938
0.055,24.488891601562,-10.585327148438,-14.268920898438
0.0555,24.088500976562,-7.0618896484375,-17.391967773438
0.056,22.046508789062,-3.1781005859375,-19.073608398438
0.0565,19.924438476562,1.6265869140625,-21.716186523438
0.057,17.001586914062,7.0718994140625,-24.038452148438
0.0575,11.836547851562,12.036743164062,-23.678100585938
0.058,9.1138916015625,15.239868164062,-24.038452148438
0.0585,4.3492431640625,17.922485351562,-21.916381835938
0.059,-0.3353271484375,20.164672851562,-19.554077148438
0.0595,-4.7396240234375,22.286743164062,-17.351928710938
0.06,-10.545288085938,24.008422851562,-13.388061523438
0.0605,-14.268920898438,23.407836914062,-9.1839599609375
0.061,-17.792358398438,23.648071289062,-6.0208740234375
0.0615,-19.994506835938,21.646118164062,-1.9368896484375
0.062,-22.597045898438,19.564086914062,2.8277587890625
0.0625,-24.358764648438,16.921508789062,7.1519775390625
0.063,-24.719116210938,12.357055664062,11.996704101562
0.0635,-24.719116210938,9.2740478515625,15.039672851562
0.064,-23.598022460938,5.1500244140625,17.922485351562
0.0645,-21.475952148438,0.9459228515625,19.884399414062
0.065,-19.473999023438,-3.8187255859375,22.406860351562
0.0655,-15.750366210938,-9.2640380859375,24.088500976562
0.066,-10.745483398438,-13.628295898438,23.327758789062
0.0665,-8.1429443359375,-16.671264648438,23.688110351562
0.067,-3.1781005859375,-19.033569335938,21.045532226562
0.0675,1.6666259765625,-21.515991210938,18.843383789062
0.068,6.1510009765625,-23.357788085938,16.280883789062
0.0685,11.796508789062,-24.518920898438,11.876586914062
0.069,15.199829101562,-24.038452148438,8.1929931640625
0.0695,18.442993164062,-23.678100585938,4.6295166015625
0.07,20.484985351562,-21.475952148438,0.4654541015625
0.0705,23.207641601562,-19.473999023438,-4.2991943359375
0.071,24.168579101562,-15.990600585938,-8.6634521484375
0.0715,24.328735351562,-11.506225585938,-13.227905273438
0.072,24.368774414062,-8.9036865234375,-15.950561523438
0.0725,22.607055664062,-4.4193115234375,-18.513061523438
0.073,20.484985351562,0.0250244140625,-20.715209960938
0.0735,18.282836914062,4.8297119140625,-23.037475585938
0.074,14.118774414062,10.234985351562,-24.158569335938
0.0745,9.4342041015625,14.118774414062,-23.317749023438
0.075,6.4713134765625,16.961547851562,-23.077514648438
0.0755,1.3463134765625,19.203735351562,-20.194702148438
0.076,-3.4183349609375,21.846313476562,-18.232788085938
0.0765,-8.2230224609375,23.047485351562,-14.709350585938
0.077,-13.107788085938,23.888305664062,-10.745483398438
0.0775,-16.390991210938,23.487915039062,-7.1820068359375
0.078,-19.273803710938,22.406860351562,-3.2982177734375
0.0785,-21.475952148438,20.084594726562,1.1461181640625
0.079,-24.078491210938,18.082641601562,5.7506103515625
0.0795,-24.318725585938,14.038696289062,9.9947509765625
0.08,-24.358764648438,9.7545166015625,14.118774414062
0.0805,-24.318725585938,7.1920166015625,16.641235351562
0.081,-21.916381835938,2.2672119140625,19.243774414062
0.0815,-20.034545898438,-2.2171630859375,21.485961914062
0.082,-16.991577148438,-7.1019287109375,23.207641601562
0.0825,-12.867553710938,-12.066772460938,23.928344726562
0.083,-8.6634521484375,-15.590209960938,23.127563476562
0.0835,-5.0999755859375,-18.112670898438,22.046508789062
0.084,0.0250244140625,-20.234741210938,19.243774414062
0.0845,4.5494384765625,-23.077514648438,17.562133789062
0.085,9.6343994140625,-23.477905273438,12.997680664062
0.0855,13.918579101562,-24.198608398438,9.5543212890625
0.086,16.921508789062,-23.838256835938,6.3511962890625
0.0865,19.564086914062,-22.236694335938,2.0670166015625
0.087,21.726196289062,-19.874389648438,-2.4173583984375
0.0875,24.008422851562,-17.552124023438,-6.9818115234375
0.088,24.008422851562,-13.388061523438,-11.225952148438
0.0885,23.808227539062,-9.4241943359375,-14.869506835938
0.089,23.567993164062,-6.7015380859375,-17.151733398438
0.0895,21.005493164062,-1.7767333984375,-19.514038085938
0.09,19.283813476562,2.9078369140625,-22.236694335938
0.0905,15.279907226562,7.9127197265625,-23.037475585938
0.091,11.476196289062,12.437133789062,-23.678100585938
0.0915,7.6324462890625,15.600219726562,-22.917358398438
0.092,3.3883056640625,18.082641601562,-21.115600585938
0.0925,-1.2962646484375,20.124633789062,-18.553100585938
0.093,-6.2611083984375,23.047485351562,-16.631225585938
0.0935,-11.025756835938,22.767211914062,-11.706420898438
0.094,-14.909545898438,23.247680664062,-8.3831787109375
0.0945,-17.552124023438,22.727172851562,-5.4202880859375
0.095,-20.274780273438,20.805297851562,-0.8157958984375
0.0955,-22.637084960938,18.563110351562,3.8687744140625
0.096,-23.998413085938,15.400024414062,8.2330322265625
0.0965,-24.278686523438,11.596313476562,12.196899414062
0.097,-23.838256835938,7.7125244140625,15.480102539062
0.0975,-22.797241210938,4.6695556640625,17.602172851562
0.098,-20.474975585938,-0.2952880859375,20.004516601562
0.0985,-18.553100585938,-5.2601318359375,22.967407226562
0.099,-13.708374023438,-9.9847412109375,22.687133789062
0.0995,-10.425170898438,-13.948608398438,23.327758789062
0.1,-6.8216552734375,-16.671264648438,22.366821289062
0.1005,-2.0970458984375,-19.233764648438,20.204711914062
0.101,2.5074462890625,-21.275756835938,17.802368164062
0.1015,7.7525634765625,-23.678100585938,14.999633789062
0.102,11.996704101562,-23.437866210938,10.675415039062
0.1025,15.720336914062,-23.598022460938,7.1119384765625
0.103,17.922485351562,-22.677124023438,4.1490478515625
0.1035,20.484985351562,-20.635131835938,-0.4554443359375
0.104,23.087524414062,-18.432983398438,-5.2601318359375
0.1045,23.327758789062,-14.268920898438,-9.5843505859375
0.105,24.008422851562,-11.185913085938,-13.227905273438
0.1055,23.167602539062,-7.5023193359375,-16.070678710938
0.106,21.766235351562,-3.8587646484375,-18.192749023438
0.1065,19.524047851562,0.8258056640625,-20.434936523438
0.107,17.201782226562,6.1510009765625,-23.277709960938
0.1075,12.196899414062,10.555297851562,-22.597045898438
0.108,9.0338134765625,14.359008789062,-23.077514648438
0.1085,5.3902587890625,16.521118164062,-21.515991210938
0.109,0.4654541015625,19.203735351562,-19.353881835938
0.1095,-4.0589599609375,21.325805664062,-17.151733398438
0.11,-9.4642333984375,22.727172851562,-13.187866210938
0.1105,-13.067749023438,22.927368164062,-9.9447021484375
0.111,-16.671264648438,22.567016601562,-6.1009521484375
0.1115,-18.713256835938,21.285766601562,-2.8177490234375
0.112,-21.195678710938,19.243774414062,1.7066650390625
0.1125,-23.758178710938,16.961547851562,6.5513916015625
0.113,-23.237670898438,12.196899414062,10.595336914062
0.1135,-24.038452148438,9.6343994140625,13.958618164062
0.114,-22.757202148438,5.8306884765625,16.481079101562
0.1145,-21.115600585938,1.6666259765625,18.923461914062
0.115,-19.033569335938,-2.8577880859375,21.085571289062
0.1155,-15.750366210938,-8.3031005859375,23.127563476562
0.116,-11.306030273438,-12.186889648438,22.486938476562
0.1165,-8.0228271484375,-15.710327148438,22.607055664062
0.117,-4.2191162109375,-17.552124023438,20.645141601562
0.1175,0.7056884765625,-20.314819335938,18.563110351562
0.118,5.3502197265625,-22.597045898438,16.280883789062
0.1185,10.515258789062,-23.037475585938,11.636352539062
0.119,13.838500976562,-23.557983398438,8.9937744140625
0.1195,17.041625976562,-22.677124023438,5.0299072265625
0.12,19.163696289062,-21.195678710938,1.4263916015625
0.1205,21.485961914062,-19.193725585938,-2.8978271484375
0.121,23.447875976562,-16.270874023438,-7.8226318359375
0.1215,22.767211914062,-11.586303710938,-11.586303710938
0.122,23.447875976562,-9.1038818359375,-14.749389648438
0.1225,21.846313476562,-5.4202880859375,-16.791381835938
0.123,20.204711914062,-0.9759521484375,-19.433959960938
0.1235,18.002563476562,3.5885009765625,-21.596069335938
0.124,13.958618164062,8.9537353515625,-22.757202148438
0.1245,10.234985351562,12.437133789062,-22.436889648438
0.125,6.5513916015625,15.680297851562,-21.916381835938
0.1255,2.5474853515625,17.482055664062,-19.714233398438
0.126,-1.9368896484375,20.084594726562,-17.952514648438
0.1265,-7.0218505859375,22.126586914062,-15.029663085938
0.127,-11.506225585938,22.046508789062,-10.545288085938
0.1275,-14.789428710938,22.727172851562,-7.9827880859375
0.128,-17.472045898438,21.285766601562,-4.0989990234375
0.1285,-19.874389648438,19.604125976562,0.0250244140625
0.129,-22.036499023438,17.802368164062,3.9088134765625
0.1295,-23.237670898438,14.238891601562,8.7135009765625
0.13,-22.757202148438,10.234985351562,12.196899414062
0.1305,-23.117553710938,7.3922119140625,15.319946289062
0.131,-21.195678710938,3.5484619140625,17.161743164062
0.1315,-19.674194335938,-0.8958740234375,19.844360351562
0.132,-17.031616210938,-5.5804443359375,21.766235351562
0.1325,-12.587280273438,-10.425170898438,22.086547851562
0.133,-9.7044677734375,-13.628295898438,22.286743164062
0.1335,-5.4603271484375,-16.511108398438,20.805297851562
0.134,-1.3363037109375,-18.473022460938,18.723266601562
0.1345,2.8277587890625,-20.915405273438,17.161743164062
0.135,8.1129150390625,-22.516967773438,13.518188476562
0.1355,12.036743164062,-22.196655273438,9.4342041015625
0.136,15.239868164062,-22.917358398438,6.9117431640625
0.1365,17.562133789062,-21.155639648438,2.9879150390625
0.137,20.044555664062,-19.514038085938,-1.2562255859375
0.1375,21.846313476562,-17.311889648438,-5.0999755859375
0.138,22.567016601562,-13.307983398438,-9.7445068359375
0.1385,22.366821289062,-9.9847412109375,-12.787475585938
0.139,22.046508789062,-6.7816162109375,-15.670288085938
0.1395,20.164672851562,-2.9378662109375,-17.472045898438
0.14,18.803344726562,1.3463134765625,-20.194702148438
0.1405,15.520141601562,6.2310791015625,-21.716186523438
0.141,11.035766601562,10.715454101562,-21.556030273438
0.1415,8.5933837890625,13.678344726562,-22.036499023438
0.142,3.9888916015625,16.200805664062,-19.874389648438
0.1425,-0.2152099609375,18.402954101562,-17.992553710938
0.143,-4.2991943359375,20.645141601562,-16.270874023438
0.1435,-9.4642333984375,21.726196289062,-12.226928710938
0.144,-12.907592773438,21.325805664062,-8.5833740234375
0.1445,-15.950561523438,21.566040039062,-5.8607177734375
0.145,-18.192749023438,19.804321289062,-1.9368896484375
0.1455,-20.835327148438,18.242797851562,2.3873291015625
0.146,-21.956420898438,15.520141601562,6.1510009765625
0.1465,-22.436889648438,11.556274414062,10.555297851562
0.147,-22.476928710938,8.7135009765625,13.358032226562
0.1475,-21.435913085938,4.8697509765625,16.080688476562
0.148,-19.674194335938,0.9859619140625,18.122680664062
0.1485,-18.152709960938,-3.4183349609375,20.805297851562
0.149,-14.268920898438,-8.2630615234375,21.646118164062
0.1495,-10.144897460938,-12.186889648438,21.325805664062
0.15,-7.7025146484375,-14.909545898438,21.526000976562
0.1505,-2.9378662109375,-17.311889648438,19.123657226562
0.151,1.3463134765625,-19.794311523438,17.482055664062
0.1515,5.7105712890625,-21.435913085938,14.799438476562
0.152,10.395141601562,-22.356811523438,11.075805664062
0.1525,13.718383789062,-22.076538085938,7.6324462890625
0.153,16.401000976562,-21.636108398438,4.5494384765625
0.1535,18.563110351562,-19.794311523438,0.6656494140625
0.154,21.405883789062,-18.232788085938,-3.7386474609375
0.1545,21.646118164062,-14.589233398438,-7.5823974609375
0.155,22.086547851562,-10.865600585938,-11.626342773438
0.1555,22.166625976562,-8.4632568359375,-14.148803710938
0.156,20.565063476562,-4.2191162109375,-16.631225585938
0.1565,18.923461914062,-0.2552490234375,-18.913452148438
0.157,16.801391601562,4.3892822265625,-21.155639648438
0.1575,12.797485351562,9.0338134765625,-21.756225585938
0.158,8.9136962890625,12.637329101562,-21.315795898438
0.1585,5.9908447265625,15.079711914062,-20.755249023438
0.159,1.3463134765625,17.361938476562,-18.432983398438
0.1595,-2.9378662109375,20.084594726562,-16.951538085938
0.16,-7.5823974609375,20.725219726562,-13.107788085938
0.1605,-11.586303710938,21.606079101562,-10.104858398438
0.161,-14.749389648438,21.325805664062,-6.7816162109375
0.1615,-17.311889648438,20.324829101562,-3.2181396484375
0.162,-19.514038085938,18.442993164062,0.9459228515625
0.1625,-22.116577148438,16.721313476562,5.1099853515625
0.163,-21.956420898438,12.757446289062,8.9537353515625
0.1635,-22.156616210938,9.2740478515625,12.517211914062
0.164,-22.036499023438,6.7916259765625,14.799438476562
0.1645,-20.074584960938,2.2672119140625,17.321899414062
0.165,-18.593139648438,-1.9769287109375,19.884399414062
0.1655,-15.390014648438,-6.5814208984375,21.125610351562
0.166,-11.826538085938,-10.785522460938,21.606079101562
0.1665,-8.1829833984375,-14.028686523438,21.125610351562
0.167,-4.6595458984375,-16.310913085938,19.884399414062
0.1675,-0.2552490234375,-18.553100585938,17.682250976562
0.168,4.3092041015625,-21.475952148438,16.160766601562
0.1685,8.8736572265625,-21.395874023438,11.676391601562
0.169,12.517211914062,-22.156616210938,8.8336181640625
0.1695,15.199829101562,-21.716186523438,5.9107666015625
0.17,17.762329101562,-20.274780273438,1.9468994140625
0.1705,20.044555664062,-18.392944335938,-2.2572021484375
0.171,21.806274414062,-15.910522460938,-6.4212646484375
0.1715,21.806274414062,-12.146850585938,-10.184936523438
0.172,21.726196289062,-8.8236083984375,-13.348022460938
0.1725,21.165649414062,-6.2210693359375,-15.309936523438
0.173,19.203735351562,-1.6566162109375,-17.792358398438
0.1735,17.802368164062,2.8277587890625,-20.635131835938
0.174,13.638305664062,7.3922119140625,-20.955444335938
0.1745,10.475219726562,11.235961914062,-21.515991210938
0.175,7.0718994140625,13.958618164062,-20.795288085938
0.1755,2.9879150390625,16.401000976562,-19.113647460938
0.176,-1.2161865234375,18.483032226562,-17.151733398438
0.1765,-6.1009521484375,21.045532226562,-14.909545898438
0.177,-10.104858398438,20.805297851562,-10.825561523438
0.1775,-13.668334960938,21.285766601562,-7.7425537109375
0.178,-15.870483398438,20.645141601562,-5.0198974609375
