wavelength,x,y,z
0.0,11.771484375,-6.40625,-5.7255859375
0.0005,11.2109375,-7.927734375,-3.7236328125
0.001,10.890625,-9.76953125,-1.6015625
0.0015,9.9296875,-10.650390625,0.560546875
0.002,8.3681640625,-10.2099609375,1.76171875
0.0025,7.3671875,-10.5703125,3.3232421875
0.003,4.564453125,-10.3701171875,6.005859375
0.0035,2.4423828125,-9.76953125,7.5673828125
0.004,0.2001953125,-9.4892578125,9.609375
0.0045,-1.841796875,-7.9677734375,10.08984375
0.005,-2.72265625,-7.0869140625,10.2099609375
0.0055,-5.4052734375,-5.3251953125,10.890625
0.006,-7.3671875,-2.8828125,10.6904296875
0.0065,-9.0888671875,-0.80078125,10.1298828125
0.007,-10.8505859375,1.3212890625,9.7294921875
0.0075,-10.8505859375,3.0029296875,8.1279296875
0.008,-11.3310546875,4.32421875,7.2470703125
0.0085,-11.53125,6.966796875,4.9248046875
0.009,-11.05078125,8.0478515625,2.9228515625
0.0095,-10.6103515625,9.689453125,1.12109375
0.01,-9.4892578125,10.3701171875,-1.0009765625
0.0105,-7.9677734375,9.9697265625,-2.2021484375
0.011,-6.6865234375,10.3701171875,-4.00390625
0.0115,-4.00390625,10.08984375,-6.40625
0.012,-1.9619140625,9.369140625,-7.8876953125
0.0125,0.2802734375,9.12890625,-9.689453125
0.013,2.2021484375,7.52734375,-10.1298828125
0.0135,3.443359375,6.5263671875,-10.330078125
0.014,6.2861328125,4.2041015625,-10.970703125
0.0145,8.1279296875,1.921875,-10.41015625
0.015,9.5693359375,-0.16015625,-9.8095703125
0.0155,10.970703125,-1.9619140625,-9.44921875
0.016,10.970703125,-3.8037109375,-7.607421875
0.0165,11.451171875,-5.0048828125,-6.56640625
0.017,11.5712890625,-7.7275390625,-4.244140625
0.0175,10.6904296875,-8.6083984375,-2.2421875
0.018,10.3701171875,-10.08984375,-0.6005859375
0.0185,8.96875,-10.5302734375,1.521484375
0.019,7.20703125,-10.1298828125,2.9228515625
0.0195,5.525390625,-10.41015625,5.044921875
0.02,3.04296875,-10.08984375,7.287109375
0.0205,1.0009765625,-9.2890625,8.3681640625
0.021,-1.041015625,-8.8486328125,10.1298828125
0.0215,-2.9228515625,-7.0869140625,10.2900390625
0.022,-4.3642578125,-5.8857421875,10.5302734375
0.0225,-7.2470703125,-3.5234375,10.970703125
0.023,-8.8486328125,-1.1611328125,10.2099609375
0.0235,-10.009765625,0.6806640625,9.609375
0.024,-11.2109375,2.40234375,9.0888671875
0.0245,-11.130859375,4.2841796875,7.0869140625
0.025,-11.4111328125,5.765625,5.7255859375
0.0255,-11.53125,8.2880859375,3.443359375
0.026,-10.25,8.9287109375,1.521484375
0.0265,-10.08984375,10.1298828125,0.0
0.027,-8.408203125,10.41015625,-2.1220703125
0.0275,-6.6865234375,10.009765625,-3.5634765625
0.028,-4.6845703125,10.2099609375,-5.9658203125
0.0285,-2.2822265625,9.76953125,-7.84765625
0.029,-0.3603515625,8.8486328125,-8.6884765625
0.0295,1.4013671875,8.408203125,-10.25
0.03,3.443359375,6.4462890625,-10.3701171875
0.0305,5.0849609375,5.044921875,-10.5302734375
0.031,7.927734375,2.6025390625,-10.890625
0.0315,9.2490234375,0.2001953125,-9.76953125
0.032,10.2900390625,-1.44140625,-9.2890625
0.0325,11.2509765625,-3.04296875,-8.5283203125
0.033,11.130859375,-5.0849609375,-6.56640625
0.0335,11.2109375,-6.8466796875,-4.8447265625
0.034,11.3310546875,-8.96875,-2.6025390625
0.0345,9.849609375,-9.2890625,-0.80078125
0.035,9.7294921875,-10.3701171875,0.6005859375
0.0355,7.6875,-10.41015625,2.6826171875
0.036,5.92578125,-10.009765625,4.1240234375
0.0365,3.9638671875,-10.2099609375,6.4462890625
0.037,1.521484375,-9.4892578125,8.2880859375
0.0375,-0.2802734375,-8.5283203125,8.96875
0.038,-1.9619140625,-8.087890625,10.2900390625
0.0385,-4.0439453125,-6.005859375,10.2900390625
0.039,-6.005859375,-4.2041015625,10.41015625
0.0395,-8.6884765625,-1.8818359375,10.73046875
0.04,-9.5693359375,0.4404296875,9.4091796875
0.0405,-10.5703125,1.5615234375,9.1689453125
0.041,-11.1708984375,3.4033203125,8.087890625
0.0415,-11.0908203125,5.0849609375,6.0859375
0.042,-11.2509765625,7.1669921875,4.2841796875
0.0425,-11.0908203125,9.208984375,2.0419921875
0.043,-9.5693359375,9.3291015625,0.2802734375
0.0435,-9.4892578125,10.330078125,-1.0009765625
0.044,-7.2470703125,10.2099609375,-3.203125
0.0445,-5.365234375,9.849609375,-4.96484375
0.045,-3.2431640625,10.08984375,-7.3671875
0.0455,-0.80078125,9.1689453125,-8.80859375
0.046,0.80078125,8.2880859375,-9.44921875
0.0465,2.4423828125,7.6875,-10.5703125
0.047,4.6044921875,5.5654296875,-10.6103515625
0.0475,6.7666015625,3.443359375,-10.6103515625
0.048,9.529296875,0.880859375,-10.73046875
0.0485,10.08984375,-1.4013671875,-9.2490234375
0.049,10.890625,-2.3623046875,-9.0087890625
0.0495,11.53125,-4.404296875,-7.5673828125
0.05,11.3310546875,-6.2861328125,-5.4052734375
0.0505,11.37109375,-8.408203125,-3.283203125
0.051,10.890625,-10.1298828125,-1.041015625
0.0515,9.2490234375,-10.0498046875,0.640625
0.052,9.048828125,-10.7705078125,1.7216796875
0.0525,6.5263671875,-10.6103515625,4.1240234375
0.053,4.3642578125,-10.1298828125,6.005859375
0.0535,2.0419921875,-10.25,8.48828125
0.054,-0.4404296875,-8.96875,9.609375
0.0545,-1.681640625,-8.087890625,10.0498046875
0.055,-3.4033203125,-7.1669921875,10.8505859375
0.0555,-5.765625,-4.8447265625,10.8505859375
0.056,-8.0478515625,-2.642578125,10.73046875
0.0565,-10.3701171875,0.0400390625,10.6103515625
0.057,-10.5703125,2.0419921875,9.048828125
0.0575,-11.37109375,2.802734375,8.8486328125
0.058,-11.8515625,5.1650390625,6.88671875
0.0585,-11.4912109375,7.046875,4.6044921875
0.059,-11.4111328125,9.12890625,2.40234375
0.0595,-10.650390625,10.5703125,0.16015625
0.06,-9.048828125,10.2099609375,-1.28125
0.0605,-8.6083984375,10.810546875,-2.322265625
0.061,-5.92578125,10.5302734375,-4.9248046875
0.0615,-3.603515625,10.009765625,-6.806640625
0.062,-1.28125,10.009765625,-9.2490234375
0.0625,1.12109375,8.5283203125,-10.0498046875
0.063,2.1220703125,7.8076171875,-10.3701171875
0.0635,4.1240234375,6.486328125,-11.05078125
0.064,6.6064453125,3.84375,-11.05078125
0.0645,8.6083984375,1.5615234375,-10.6904296875
0.065,10.8505859375,-1.0009765625,-10.5703125
0.0655,10.9306640625,-2.642578125,-8.728515625
0.066,11.53125,-3.603515625,-8.328125
0.0665,11.8916015625,-6.0859375,-6.2861328125
0.067,11.451171875,-7.7275390625,-4.1240234375
0.0675,11.2109375,-9.7294921875,-1.8017578125
0.068,10.25,-10.890625,0.4404296875
0.0685,8.6083984375,-10.5703125,1.6015625
0.069,7.8076171875,-10.9306640625,3.04296875
0.0695,5.0048828125,-10.5703125,5.7255859375
0.07,2.802734375,-10.009765625,7.447265625
0.0705,0.4404296875,-9.8896484375,9.7294921875
0.071,-1.7216796875,-8.3681640625,10.330078125
0.0715,-2.6826171875,-7.5673828125,10.5302734375
0.072,-5.0048828125,-5.9658203125,11.1708984375
0.0725,-7.4072265625,-3.443359375,11.0107421875
0.073,-9.12890625,-1.0009765625,10.73046875
0.0735,-11.130859375,1.201171875,10.2099609375
0.074,-11.1708984375,2.9228515625,8.48828125
0.0745,-11.6513671875,4.1240234375,7.8076171875
0.075,-12.01171875,6.7666015625,5.4453125
0.0755,-11.37109375,8.16796875,3.4033203125
0.076,-11.05078125,9.9296875,1.2412109375
0.0765,-10.08984375,10.810546875,-1.0009765625
0.077,-8.2880859375,10.4501953125,-2.08203125
0.0775,-7.2470703125,10.7705078125,-3.84375
0.078,-4.3642578125,10.490234375,-6.5263671875
0.0785,-2.2021484375,9.8095703125,-8.0478515625
0.079,0.2001953125,9.529296875,-10.1298828125
0.0795,2.162109375,7.9677734375,-10.5703125
0.08,3.283203125,6.966796875,-10.73046875
0.0805,6.0458984375,4.9248046875,-11.451171875
0.081,8.248046875,2.5224609375,-11.0908203125
0.0815,9.7294921875,0.240234375,-10.330078125
0.082,11.53125,-1.9619140625,-10.009765625
0.0825,11.53125,-3.84375,-8.087890625
0.083,11.8916015625,-5.205078125,-7.126953125
0.0835,12.171875,-7.9677734375,-4.564453125
0.084,11.2509765625,-9.0888671875,-2.5625
0.0845,10.8505859375,-10.6103515625,-0.640625
0.085,9.6494140625,-11.2509765625,1.521484375
0.0855,7.7275390625,-10.73046875,3.04296875
0.086,6.326171875,-11.05078125,4.8447265625
0.0865,3.4033203125,-10.6904296875,7.52734375
0.087,1.3212890625,-9.76953125,8.728515625
0.0875,-1.0009765625,-9.44921875,10.6904296875
0.088,-3.04296875,-7.7275390625,11.0107421875
0.0885,-4.404296875,-6.24609375,11.1708984375
0.089,-7.4072265625,-4.00390625,11.53125
0.0895,-9.369140625,-1.44140625,11.0107421875
0.09,-10.5302734375,0.640625,10.169921875
0.0905,-12.01171875,2.482421875,9.849609375
0.091,-11.8916015625,4.5244140625,7.6474609375
0.0915,-12.1318359375,5.8857421875,6.4462890625
0.092,-12.33203125,8.6484375,3.8837890625
0.0925,-11.0908203125,9.6494140625,1.8818359375
0.093,-10.650390625,10.7705078125,0.0
0.0935,-9.2890625,11.37109375,-2.2421875
0.094,-7.0869140625,10.810546875,-3.9638671875
0.0945,-5.3251953125,10.9306640625,-6.0458984375
0.095,-2.5224609375,10.5703125,-8.5283203125
0.0955,-0.5205078125,9.4091796875,-9.369140625
0.096,1.5615234375,9.048828125,-11.05078125
0.0965,3.763671875,7.0869140625,-11.4111328125
0.097,5.365234375,5.525390625,-11.4111328125
0.0975,8.328125,3.0029296875,-11.771484375
0.098,10.08984375,0.3603515625,-10.8505859375
0.0985,11.0107421875,-1.6416015625,-9.8095703125
0.099,12.2119140625,-3.2431640625,-9.4892578125
0.0995,12.0517578125,-5.4453125,-7.046875
0.1,12.091796875,-7.0869140625,-5.4453125
0.1005,12.2119140625,-9.609375,-2.962890625
0.101,10.6103515625,-10.169921875,-0.6806640625
0.1015,10.2099609375,-11.1708984375,0.80078125
0.102,8.6083984375,-11.4912109375,2.9228515625
0.1025,6.326171875,-10.890625,4.6845703125
0.103,4.32421875,-10.890625,6.7666015625
0.1035,1.6416015625,-10.41015625,9.0888671875
0.104,-0.3603515625,-9.048828125,9.689453125
0.1045,-2.08203125,-8.8486328125,11.130859375
0.105,-4.404296875,-6.6064453125,11.2109375
0.1055,-6.1259765625,-4.7646484375,11.1708984375
0.106,-9.0087890625,-2.2822265625,11.53125
0.1065,-10.330078125,0.2802734375,10.2900390625
0.107,-11.0908203125,1.8818359375,9.529296875
0.1075,-12.091796875,3.443359375,8.9287109375
0.108,-11.8515625,5.60546875,6.486328125
0.1085,-11.7314453125,7.4873046875,4.8046875
0.109,-11.8916015625,9.7294921875,2.2822265625
0.1095,-10.1298828125,9.9296875,0.3203125
0.11,-9.9296875,10.8505859375,-1.0009765625
0.1105,-8.0078125,10.9306640625,-3.1630859375
0.111,-5.8056640625,10.3701171875,-4.8447265625
0.1115,-3.8037109375,10.490234375,-7.0869140625
0.112,-1.2412109375,9.7294921875,-9.0087890625
0.1125,0.640625,8.48828125,-9.4892578125
0.113,2.2021484375,8.16796875,-10.890625
0.1135,4.484375,6.005859375,-10.890625
0.114,6.4462890625,3.9638671875,-10.8505859375
0.1145,9.2490234375,1.44140625,-11.05078125
0.115,10.1298828125,-0.9609375,-9.6494140625
0.1155,10.890625,-2.1220703125,-9.208984375
0.116,11.6513671875,-3.84375,-8.248046875
0.1165,11.37109375,-5.765625,-6.0859375
0.117,11.4111328125,-7.6474609375,-4.1640625
0.1175,11.291015625,-9.76953125,-1.8017578125
0.118,9.609375,-9.76953125,0.0400390625
0.1185,9.44921875,-10.6904296875,1.201171875
0.119,7.20703125,-10.5703125,3.4033203125
0.1195,5.044921875,-10.1298828125,5.1650390625
0.12,3.0029296875,-10.2900390625,7.447265625
0.1205,0.640625,-9.3291015625,8.96875
0.121,-1.0009765625,-8.3681640625,9.4892578125
0.1215,-2.5625,-7.7275390625,10.5302734375
0.122,-4.7646484375,-5.60546875,10.5703125
0.1225,-6.806640625,-3.4833984375,10.5302734375
0.123,-9.44921875,-1.041015625,10.650390625
0.1235,-10.009765625,1.12109375,9.1689453125
0.124,-10.7705078125,2.0419921875,9.0087890625
0.1245,-11.37109375,3.923828125,7.6474609375
0.125,-11.1708984375,5.8857421875,5.4853515625
0.1255,-11.2109375,7.9677734375,3.443359375
0.126,-10.7705078125,9.6494140625,1.2412109375
0.1265,-9.2490234375,9.609375,-0.400390625
0.127,-9.0888671875,10.41015625,-1.4814453125
0.1275,-6.7265625,10.2099609375,-3.763671875
0.128,-4.564453125,9.849609375,-5.60546875
0.1285,-2.40234375,9.9697265625,-8.0078125
0.129,0.0,8.728515625,-9.1689453125
0.1295,1.2412109375,7.9677734375,-9.6494140625
0.13,2.9228515625,7.1669921875,-10.490234375
0.1305,5.2451171875,4.9248046875,-10.5703125
0.131,7.4072265625,2.642578125,-10.4501953125
0.1315,9.8896484375,0.16015625,-10.3701171875
0.132,10.2099609375,-1.76171875,-8.8486328125
0.1325,10.9306640625,-2.6025390625,-8.6884765625
0.133,11.4111328125,-4.8447265625,-6.966796875
0.1335,11.1708984375,-6.7666015625,-4.7646484375
0.134,11.130859375,-8.8486328125,-2.6025390625
0.1345,10.41015625,-10.2099609375,-0.48046875
0.135,8.9287109375,-9.9697265625,0.9609375
0.1355,8.4482421875,-10.5302734375,2.1220703125
0.136,5.9658203125,-10.330078125,4.5244140625
0.1365,3.68359375,-9.9296875,6.40625
0.137,1.361328125,-9.9697265625,8.7685546875
0.1375,-0.9208984375,-8.48828125,9.609375
0.138,-1.9619140625,-7.8076171875,9.9697265625
0.1385,-3.84375,-6.56640625,10.6103515625
0.139,-6.2861328125,-4.1640625,10.6103515625
0.1395,-8.328125,-1.8818359375,10.3701171875
0.14,-10.4501953125,0.5205078125,10.2099609375
0.1405,-10.5703125,2.2021484375,8.6484375
0.141,-11.1708984375,3.123046875,8.2880859375
0.1415,-11.5712890625,5.4853515625,6.326171875
0.142,-11.2109375,7.20703125,4.1640625
0.1425,-11.05078125,9.2490234375,1.9619140625
0.143,-10.1298828125,10.3701171875,-0.2802734375
0.1435,-8.6884765625,10.009765625,-1.4013671875
0.144,-7.8876953125,10.4501953125,-2.802734375
0.1445,-5.125,10.25,-5.4453125
0.145,-2.9228515625,9.6494140625,-7.2470703125
0.1455,-0.640625,9.609375,-9.4892578125
0.146,1.4814453125,8.16796875,-10.0498046875
0.1465,2.40234375,7.4072265625,-10.2900390625
0.147,4.724609375,5.765625,-10.9306640625
0.1475,7.046875,3.3232421875,-10.810546875
0.148,8.9287109375,1.0009765625,-10.2900390625
0.1485,10.8505859375,-1.3212890625,-9.9697265625
0.149,10.8505859375,-2.962890625,-8.328125
0.1495,11.37109375,-4.1640625,-7.6474609375
0.15,11.7314453125,-6.7265625,-5.365234375
0.1505,11.130859375,-8.1279296875,-3.36328125
0.151,10.8505859375,-9.8896484375,-1.2412109375
0.1515,9.76953125,-10.7705078125,0.9208984375
0.152,8.2080078125,-10.2900390625,2.0419921875
0.1525,7.046875,-10.73046875,3.68359375
0.153,4.2041015625,-10.4501953125,6.326171875
0.1535,2.1220703125,-9.76953125,7.8876953125
0.154,-0.2802734375,-9.4892578125,9.9697265625
0.1545,-2.162109375,-7.8876953125,10.330078125
0.155,-3.2431640625,-6.966796875,10.4501953125
0.1555,-5.92578125,-4.884765625,11.05078125
0.156,-8.0078125,-2.5224609375,10.73046875
0.1565,-9.529296875,-0.400390625,10.169921875
0.157,-11.1708984375,1.681640625,9.7294921875
0.1575,-11.0908203125,3.36328125,7.9677734375
0.158,-11.4912109375,4.7646484375,7.0068359375
0.1585,-11.7314453125,7.3671875,4.5244140625
0.159,-10.9306640625,8.48828125,2.6025390625
0.1595,-10.5703125,9.9697265625,0.720703125
0.16,-9.2490234375,10.5703125,-1.28125
0.1605,-7.6875,10.0498046875,-2.6025390625
0.161,-6.2861328125,10.3701171875,-4.5244140625
0.1615,-3.603515625,10.08984375,-6.8466796875
0.162,-1.6015625,9.2890625,-8.16796875
0.1625,0.640625,8.9287109375,-10.0498046875
0.163,2.482421875,7.3671875,-10.2900390625
0.1635,3.84375,6.24609375,-10.4501953125
0.164,6.6865234375,3.8837890625,-10.970703125
0.1645,8.4482421875,1.5615234375,-10.3701171875
0.165,9.76953125,-0.48046875,-9.76953125
0.1655,11.0908203125,-2.2421875,-9.2890625
0.166,11.0107421875,-4.00390625,-7.4072265625
0.1665,11.3310546875,-5.365234375,-6.40625
0.167,11.53125,-7.8876953125,-4.00390625
0.1675,10.490234375,-8.6884765625,-2.08203125
0.168,10.169921875,-10.1298828125,-0.3203125
0.1685,8.6884765625,-10.4501953125,1.6416015625
0.169,7.046875,-10.08984375,3.0029296875
0.1695,5.205078125,-10.2900390625,5.205078125
0.17,2.7626953125,-9.8896484375,7.3271484375
0.1705,0.9609375,-9.048828125,8.3681640625
0.171,-1.12109375,-8.6884765625,10.009765625
0.1715,-2.9228515625,-6.9267578125,10.08984375
0.172,-4.3642578125,-5.7255859375,10.330078125
0.1725,-7.20703125,-3.36328125,10.7705078125
0.173,-8.6484375,-1.0810546875,9.9296875
0.1735,-9.8896484375,0.6806640625,9.44921875
0.174,-10.9306640625,2.40234375,8.80859375
0.1745,-10.810546875,4.1240234375,6.88671875
0.175,-11.130859375,5.7255859375,5.60546875
0.1755,-11.2509765625,8.0478515625,3.3232421875
0.176,-10.009765625,8.6083984375,1.521484375
0.1765,-9.9296875,9.9296875,0.0
0.177,-8.2080078125,10.009765625,-2.0419921875
0.1775,-6.6064453125,9.7294921875,-3.36328125
0.178,-4.64453125,10.009765625,-5.7255859375
0.1785,-2.2822265625,9.44921875,-7.5673828125
0.179,-0.6005859375,8.6484375,-8.5283203125
0.1795,1.4013671875,8.2880859375,-9.9697265625
0.18,3.2431640625,6.40625,-10.0498046875
0.1805,5.0048828125,4.884765625,-10.2900390625
0.181,7.8076171875,2.5224609375,-10.6904296875
0.1815,8.96875,0.240234375,-9.5693359375
0.182,10.1298828125,-1.28125,-9.2890625
0.1825,11.0107421875,-3.04296875,-8.3681640625
0.183,10.8505859375,-4.8447265625,-6.4462890625
0.1835,11.130859375,-6.7265625,-4.7646484375
0.184,11.0908203125,-8.888671875,-2.5224609375
0.1845,9.689453125,-9.1689453125,-0.80078125
0.185,9.609375,-10.41015625,0.6005859375
0.1855,7.52734375,-10.25,2.6826171875
0.186,5.845703125,-9.9296875,4.1640625
0.1865,3.763671875,-10.169921875,6.6064453125
0.187,1.361328125,-9.369140625,8.2880859375
0.1875,-0.400390625,-8.48828125,9.0888671875
0.188,-2.1220703125,-8.0078125,10.3701171875
0.1885,-4.244140625,-5.8857421875,10.3701171875
0.189,-6.326171875,-3.9638671875,10.490234375
0.1895,-8.96875,-1.6015625,10.810546875
0.19,-9.76953125,0.6806640625,9.3291015625
0.1905,-10.7705078125,1.8017578125,9.2490234375
0.191,-11.4111328125,3.68359375,8.0078125
0.1915,-11.2509765625,5.5654296875,5.9658203125
0.192,-11.4111328125,7.6474609375,3.923828125
0.1925,-11.0908203125,9.609375,1.6416015625
0.193,-9.5693359375,9.609375,-0.2001953125
0.1935,-9.44921875,10.6103515625,-1.3212890625
0.194,-7.0869140625,10.41015625,-3.603515625
0.1945,-4.884765625,10.0498046875,-5.4453125
0.195,-2.72265625,10.2099609375,-7.84765625
0.1955,-0.3203125,9.0087890625,-9.3291015625
0.196,1.201171875,8.16796875,-9.849609375
0.1965,2.8828125,7.52734375,-10.8505859375
0.197,5.125,5.28515625,-10.8505859375
0.1975,7.3671875,3.0029296875,-10.7705078125
0.198,10.0498046875,0.400390625,-10.7705078125
0.1985,10.5302734375,-1.8017578125,-9.1689453125
0.199,11.291015625,-2.6826171875,-9.0087890625
0.1995,11.8115234375,-4.8447265625,-7.4072265625
0.2,11.4912109375,-6.9267578125,-5.1650390625
0.2005,11.53125,-8.96875,-2.9228515625
0.201,10.890625,-10.6103515625,-0.640625
0.2015,9.2490234375,-10.330078125,1.0009765625
0.202,8.96875,-11.0908203125,2.1220703125
0.2025,6.3662109375,-10.810546875,4.564453125
0.203,3.9638671875,-10.25,6.4462890625
0.2035,1.76171875,-10.25,9.0087890625
0.204,-0.80078125,-8.96875,9.9697265625
0.2045,-1.9619140625,-8.087890625,10.3701171875
0.205,-3.8037109375,-7.0869140625,11.130859375
0.2055,-6.166015625,-4.6044921875,11.0107421875
0.206,-8.328125,-2.2421875,10.8505859375
0.2065,-10.7705078125,0.3603515625,10.73046875
0.207,-10.9306640625,2.2421875,9.0087890625
0.2075,-11.611328125,3.123046875,8.80859375
0.208,-12.0517578125,5.4453125,6.7265625
0.2085,-11.611328125,7.3671875,4.4443359375
0.209,-11.53125,9.44921875,2.162109375
0.2095,-10.650390625,10.8505859375,-0.16015625
0.21,-9.048828125,10.41015625,-1.44140625
0.2105,-8.48828125,10.970703125,-2.72265625
0.211,-5.765625,10.6904296875,-5.28515625
0.2115,-3.36328125,10.08984375,-7.1669921875
0.212,-1.0009765625,10.08984375,-9.529296875
0.2125,1.4013671875,8.48828125,-10.2900390625
0.213,2.2822265625,7.8076171875,-10.5703125
0.2135,4.484375,6.326171875,-11.2509765625
0.214,6.88671875,3.763671875,-11.05078125
0.2145,8.9287109375,1.361328125,-10.6904296875
0.215,11.0908203125,-1.12109375,-10.41015625
0.2155,11.130859375,-2.8427734375,-8.728515625
0.216,11.6513671875,-4.00390625,-8.328125
0.2165,12.091796875,-6.40625,-6.0859375
0.217,11.4912109375,-8.0078125,-3.923828125
0.2175,11.2509765625,-9.9697265625,-1.6015625
0.218,10.2099609375,-11.0107421875,0.6806640625
0.2185,8.6484375,-10.5703125,1.841796875
0.219,7.6875,-10.970703125,3.36328125
0.2195,4.7646484375,-10.6103515625,6.0458984375
0.22,2.5625,-10.009765625,7.6875
0.2205,0.16015625,-9.76953125,9.9296875
0.221,-1.921875,-8.2080078125,10.3701171875
0.2215,-2.8427734375,-7.447265625,10.5703125
0.222,-5.205078125,-5.7255859375,11.1708984375
0.2225,-7.447265625,-3.203125,10.890625
0.223,-9.2890625,-0.9609375,10.41015625
0.2235,-11.0908203125,1.3212890625,10.0498046875
