wavelength,x,y,z
0.0,-4.754638671875,4.974853515625,0.610595703125
0.0005,-4.194091796875,5.375244140625,-0.350341796875
0.001,-3.633544921875,5.935791015625,-1.351318359375
0.0015,-1.911865234375,5.975830078125,-3.193115234375
0.002,-0.470458984375,5.895751953125,-4.434326171875
0.0025,0.690673828125,5.655517578125,-5.235107421875
0.003,1.291259765625,5.495361328125,-5.795654296875
0.0035,2.252197265625,5.054931640625,-6.436279296875
0.004,3.373291015625,4.414306640625,-7.197021484375
0.0045,4.734619140625,2.652587890625,-7.076904296875
0.005,5.575439453125,1.051025390625,-6.676513671875
0.0055,5.735595703125,0.170166015625,-6.276123046875
0.006,5.735595703125,-0.710693359375,-5.875732421875
0.0065,5.895751953125,-1.631591796875,-5.395263671875
0.007,5.655517578125,-3.193115234375,-3.913818359375
0.0075,5.175048828125,-4.314208984375,-2.552490234375
0.008,4.614501953125,-5.155029296875,-1.311279296875
0.0085,4.134033203125,-5.635498046875,-0.510498046875
0.009,3.533447265625,-6.115966796875,0.490478515625
0.0095,2.932861328125,-6.596435546875,1.531494140625
0.01,1.211181640625,-6.436279296875,3.093017578125
0.0105,-0.310302734375,-6.156005859375,4.334228515625
0.011,-0.990966796875,-6.156005859375,4.974853515625
0.0115,-1.631591796875,-6.035888671875,5.535400390625
0.012,-2.672607421875,-5.595458984375,6.376220703125
0.0125,-3.993896484375,-4.474365234375,6.736572265625
0.013,-4.994873046875,-3.072998046875,6.696533203125
0.0135,-5.675537109375,-1.711669921875,6.336181640625
0.014,-5.795654296875,-0.910888671875,5.975830078125
0.0145,-5.955810546875,0.010009765625,5.615478515625
0.015,-6.236083984375,0.850830078125,5.335205078125
0.0155,-5.755615234375,2.372314453125,3.653564453125
0.016,-5.315185546875,3.533447265625,2.252197265625
0.0165,-4.874755859375,4.214111328125,1.291259765625
0.017,-4.434326171875,4.734619140625,0.490478515625
0.0175,-4.033935546875,5.255126953125,-0.510498046875
0.018,-2.952880859375,5.735595703125,-1.791748046875
0.0185,-1.671630859375,5.735595703125,-3.072998046875
0.019,-0.270263671875,5.455322265625,-4.314208984375
0.0195,0.530517578125,5.455322265625,-4.954833984375
0.02,1.251220703125,5.295166015625,-5.675537109375
0.0205,2.172119140625,5.094970703125,-6.556396484375
0.021,3.733642578125,3.453369140625,-6.676513671875
0.0215,4.694580078125,2.052001953125,-6.556396484375
0.022,5.215087890625,0.970947265625,-6.276123046875
0.0225,5.415283203125,0.250244140625,-6.075927734375
0.023,5.615478515625,-0.790771484375,-5.635498046875
0.0235,5.735595703125,-1.871826171875,-5.034912109375
0.024,5.295166015625,-3.193115234375,-3.553466796875
0.0245,4.774658203125,-4.354248046875,-2.072021484375
0.025,4.414306640625,-4.994873046875,-1.271240234375
0.0255,3.853759765625,-5.595458984375,-0.390380859375
0.026,3.573486328125,-6.156005859375,0.490478515625
0.0265,2.052001953125,-6.156005859375,2.252197265625
0.027,0.730712890625,-6.196044921875,3.373291015625
0.0275,-0.310302734375,-6.035888671875,4.294189453125
0.028,-0.990966796875,-6.075927734375,4.934814453125
0.0285,-1.911865234375,-5.795654296875,5.695556640625
0.029,-2.912841796875,-5.355224609375,6.456298828125
0.0295,-4.314208984375,-3.713623046875,6.456298828125
0.03,-5.155029296875,-2.272216796875,6.216064453125
0.0305,-5.475341796875,-1.391357421875,5.935791015625
0.031,-5.675537109375,-0.630615234375,5.735595703125
0.0315,-5.915771484375,0.290283203125,5.415283203125
0.032,-5.755615234375,1.611572265625,4.174072265625
0.0325,-5.435302734375,2.692626953125,3.012939453125
0.033,-4.954833984375,3.653564453125,1.771728515625
0.0335,-4.674560546875,4.134033203125,0.970947265625
0.034,-4.114013671875,4.814697265625,0.130126953125
0.0345,-3.673583984375,5.535400390625,-0.790771484375
0.035,-2.152099609375,5.415283203125,-2.312255859375
0.0355,-0.790771484375,5.215087890625,-3.593505859375
0.036,0.050048828125,5.255126953125,-4.314208984375
0.0365,0.650634765625,5.255126953125,-4.994873046875
0.037,1.571533203125,5.054931640625,-5.795654296875
0.0375,2.812744140625,4.093994140625,-6.316162109375
0.038,3.853759765625,2.852783203125,-6.356201171875
0.0385,4.614501953125,1.531494140625,-6.115966796875
0.039,4.854736328125,0.770751953125,-5.915771484375
0.0395,5.135009765625,0.010009765625,-5.635498046875
0.04,5.455322265625,-0.910888671875,-5.515380859375
0.0405,5.135009765625,-2.272216796875,-4.114013671875
0.041,4.734619140625,-3.393310546875,-2.832763671875
0.0415,4.494384765625,-4.154052734375,-2.072021484375
0.042,4.134033203125,-4.714599609375,-1.191162109375
0.0425,3.773681640625,-5.395263671875,-0.390380859375
0.043,2.972900390625,-5.795654296875,0.890869140625
0.0435,1.651611328125,-5.835693359375,2.132080078125
0.044,0.570556640625,-5.755615234375,3.213134765625
0.0445,-0.150146484375,-5.875732421875,3.973876953125
0.045,-0.950927734375,-5.835693359375,4.774658203125
0.0455,-1.791748046875,-5.795654296875,5.695556640625
0.046,-3.193115234375,-4.434326171875,5.895751953125
0.0465,-4.194091796875,-3.193115234375,5.895751953125
0.047,-4.794677734375,-2.232177734375,5.775634765625
0.0475,-5.074951171875,-1.551513671875,5.695556640625
0.048,-5.395263671875,-0.710693359375,5.535400390625
0.0485,-5.635498046875,0.290283203125,5.014892578125
0.049,-5.355224609375,1.451416015625,3.853759765625
0.0495,-4.874755859375,2.652587890625,2.572509765625
0.05,-4.674560546875,3.293212890625,1.811767578125
0.0505,-4.434326171875,3.973876953125,1.051025390625
0.051,-4.194091796875,4.694580078125,0.290283203125
0.0515,-2.952880859375,4.974853515625,-1.151123046875
0.052,-1.871826171875,5.014892578125,-2.392333984375
0.0525,-0.990966796875,5.054931640625,-3.273193359375
0.053,-0.350341796875,5.175048828125,-4.033935546875
0.0535,0.610595703125,5.135009765625,-4.874755859375
0.054,1.571533203125,4.894775390625,-5.755615234375
0.0545,2.772705078125,3.613525390625,-5.835693359375
0.055,3.733642578125,2.292236328125,-5.755615234375
0.0555,4.214111328125,1.491455078125,-5.715576171875
0.056,4.574462890625,0.810791015625,-5.635498046875
0.0565,5.014892578125,0.050048828125,-5.595458984375
0.057,4.974853515625,-1.231201171875,-4.674560546875
0.0575,4.694580078125,-2.272216796875,-3.553466796875
0.058,4.494384765625,-3.193115234375,-2.672607421875
0.0585,4.294189453125,-3.913818359375,-1.951904296875
0.059,4.013916015625,-4.634521484375,-1.111083984375
0.0595,3.813720703125,-5.395263671875,-0.310302734375
0.06,2.492431640625,-5.515380859375,1.171142578125
0.0605,1.331298828125,-5.595458984375,2.372314453125
0.061,0.610595703125,-5.755615234375,3.213134765625
0.0615,-0.150146484375,-5.875732421875,4.013916015625
0.062,-1.071044921875,-5.835693359375,4.974853515625
0.0625,-2.312255859375,-5.074951171875,5.615478515625
0.063,-3.393310546875,-3.953857421875,5.735595703125
0.0635,-4.194091796875,-2.792724609375,5.695556640625
0.064,-4.634521484375,-2.072021484375,5.615478515625
0.0645,-5.074951171875,-1.311279296875,5.535400390625
0.065,-5.475341796875,-0.590576171875,5.495361328125
0.0655,-5.395263671875,0.810791015625,4.414306640625
0.066,-5.034912109375,1.971923828125,3.052978515625
0.0665,-4.794677734375,2.852783203125,2.252197265625
0.067,-4.554443359375,3.533447265625,1.491455078125
0.0675,-4.234130859375,4.294189453125,0.610595703125
0.068,-3.553466796875,4.814697265625,-0.630615234375
0.0685,-2.432373046875,5.014892578125,-1.871826171875
0.069,-1.311279296875,4.974853515625,-2.952880859375
0.0695,-0.630615234375,5.135009765625,-3.753662109375
0.07,0.290283203125,5.175048828125,-4.634521484375
0.0705,1.131103515625,5.175048828125,-5.555419921875
0.071,2.532470703125,3.853759765625,-5.795654296875
0.0715,3.533447265625,2.612548828125,-5.835693359375
0.072,4.174072265625,1.611572265625,-5.795654296875
0.0725,4.494384765625,0.930908203125,-5.755615234375
0.073,4.934814453125,0.130126953125,-5.595458984375
0.0735,4.974853515625,-1.151123046875,-5.074951171875
0.074,4.894775390625,-2.112060546875,-3.913818359375
0.0745,4.574462890625,-3.233154296875,-2.712646484375
0.075,4.294189453125,-3.953857421875,-1.911865234375
0.0755,4.053955078125,-4.634521484375,-1.151123046875
0.076,3.853759765625,-5.395263671875,-0.350341796875
0.0765,2.572509765625,-5.635498046875,1.131103515625
0.077,1.411376953125,-5.675537109375,2.372314453125
0.0775,0.570556640625,-5.755615234375,3.253173828125
0.078,-0.270263671875,-5.915771484375,4.093994140625
0.0785,-1.111083984375,-5.755615234375,4.934814453125
0.079,-2.192138671875,-5.395263671875,5.735595703125
0.0795,-3.393310546875,-4.073974609375,5.895751953125
0.08,-4.354248046875,-2.712646484375,5.775634765625
0.0805,-4.834716796875,-1.991943359375,5.655517578125
0.081,-5.114990234375,-1.271240234375,5.575439453125
0.0815,-5.515380859375,-0.630615234375,5.335205078125
0.082,-5.395263671875,0.930908203125,4.334228515625
0.0825,-5.155029296875,2.011962890625,3.293212890625
0.083,-4.874755859375,2.932861328125,2.252197265625
0.0835,-4.554443359375,3.653564453125,1.451416015625
0.084,-4.194091796875,4.254150390625,0.610595703125
0.0845,-3.833740234375,4.974853515625,-0.430419921875
0.085,-2.552490234375,5.094970703125,-1.751708984375
0.0855,-1.271240234375,5.054931640625,-2.992919921875
0.086,-0.630615234375,5.094970703125,-3.793701171875
0.0865,0.170166015625,5.215087890625,-4.514404296875
0.087,1.131103515625,5.094970703125,-5.395263671875
0.0875,2.452392578125,4.093994140625,-5.955810546875
0.088,3.533447265625,2.932861328125,-6.115966796875
0.0885,4.334228515625,1.691650390625,-5.915771484375
0.089,4.614501953125,0.930908203125,-5.795654296875
0.0895,5.054931640625,0.250244140625,-5.635498046875
0.09,5.255126953125,-0.790771484375,-5.435302734375
0.0905,5.054931640625,-2.112060546875,-4.033935546875
0.091,4.734619140625,-3.273193359375,-2.752685546875
0.0915,4.454345703125,-4.033935546875,-1.951904296875
0.092,4.134033203125,-4.674560546875,-1.231201171875
0.0925,3.773681640625,-5.355224609375,-0.310302734375
0.093,2.852783203125,-5.795654296875,1.051025390625
0.0935,1.571533203125,-5.915771484375,2.332275390625
0.094,0.530517578125,-5.835693359375,3.453369140625
0.0945,-0.270263671875,-5.955810546875,4.174072265625
0.095,-1.111083984375,-5.915771484375,4.934814453125
0.0955,-2.072021484375,-5.715576171875,5.895751953125
0.096,-3.553466796875,-4.154052734375,6.095947265625
0.0965,-4.554443359375,-2.832763671875,6.095947265625
0.097,-5.114990234375,-1.951904296875,5.895751953125
0.0975,-5.475341796875,-1.231201171875,5.815673828125
0.098,-5.635498046875,-0.310302734375,5.415283203125
0.0985,-5.755615234375,1.010986328125,4.654541015625
0.099,-5.435302734375,2.252197265625,3.413330078125
0.0995,-5.034912109375,3.333251953125,2.092041015625
0.1,-4.634521484375,3.973876953125,1.251220703125
0.1005,-4.274169921875,4.534423828125,0.490478515625
0.101,-3.913818359375,5.215087890625,-0.510498046875
0.1015,-2.392333984375,5.375244140625,-2.112060546875
0.102,-0.990966796875,5.415283203125,-3.353271484375
0.1025,-0.310302734375,5.335205078125,-4.234130859375
0.103,0.490478515625,5.415283203125,-4.794677734375
0.1035,1.411376953125,5.054931640625,-5.755615234375
0.104,2.572509765625,4.494384765625,-6.476318359375
0.1045,3.853759765625,2.852783203125,-6.516357421875
0.105,4.814697265625,1.451416015625,-6.276123046875
0.1055,5.175048828125,0.570556640625,-6.156005859375
0.106,5.335205078125,-0.270263671875,-5.755615234375
0.1065,5.615478515625,-1.151123046875,-5.435302734375
0.107,5.415283203125,-2.632568359375,-3.993896484375
0.1075,5.094970703125,-3.793701171875,-2.752685546875
0.108,4.654541015625,-4.674560546875,-1.631591796875
0.1085,4.214111328125,-5.235107421875,-0.830810546875
0.109,3.653564453125,-5.755615234375,0.130126953125
0.1095,3.052978515625,-6.356201171875,1.251220703125
0.11,1.491455078125,-6.196044921875,2.852783203125
0.1105,0.050048828125,-6.115966796875,4.053955078125
0.111,-0.790771484375,-6.196044921875,4.734619140625
0.1115,-1.471435546875,-5.955810546875,5.415283203125
0.112,-2.592529296875,-5.515380859375,6.256103515625
0.1125,-4.114013671875,-4.274169921875,6.616455078125
0.113,-5.074951171875,-2.872802734375,6.616455078125
0.1135,-5.635498046875,-1.591552734375,6.135986328125
0.114,-5.835693359375,-0.750732421875,5.935791015625
0.1145,-6.035888671875,0.250244140625,5.495361328125
0.115,-6.236083984375,1.291259765625,5.014892578125
0.1155,-5.755615234375,2.812744140625,3.253173828125
0.116,-5.275146484375,3.973876953125,1.891845703125
0.1165,-4.834716796875,4.614501953125,0.970947265625
0.117,-4.354248046875,5.054931640625,0.130126953125
0.1175,-3.713623046875,5.575439453125,-0.990966796875
0.118,-2.392333984375,6.015869140625,-2.432373046875
0.1185,-0.990966796875,5.815673828125,-3.873779296875
0.119,0.170166015625,5.535400390625,-4.794677734375
0.1195,0.930908203125,5.495361328125,-5.435302734375
0.12,1.771728515625,5.175048828125,-6.115966796875
0.1205,2.852783203125,4.654541015625,-6.996826171875
0.121,4.374267578125,2.852783203125,-6.916748046875
0.1215,5.375244140625,1.451416015625,-6.756591796875
0.122,5.615478515625,0.450439453125,-6.356201171875
0.1225,5.695556640625,-0.390380859375,-5.955810546875
0.123,5.775634765625,-1.431396484375,-5.435302734375
0.1235,5.775634765625,-2.712646484375,-4.434326171875
0.124,5.335205078125,-3.993896484375,-2.912841796875
0.1245,4.814697265625,-5.034912109375,-1.551513671875
0.125,4.254150390625,-5.475341796875,-0.670654296875
0.1255,3.733642578125,-5.955810546875,0.250244140625
0.126,3.253173828125,-6.556396484375,1.051025390625
0.1265,1.411376953125,-6.556396484375,2.932861328125
0.127,0.090087890625,-6.276123046875,4.254150390625
0.1275,-0.950927734375,-6.236083984375,4.974853515625
0.128,-1.551513671875,-6.115966796875,5.575439453125
0.1285,-2.552490234375,-5.755615234375,6.256103515625
0.129,-3.833740234375,-4.954833984375,6.976806640625
0.1295,-4.994873046875,-3.193115234375,6.776611328125
0.13,-5.835693359375,-1.711669921875,6.496337890625
0.1305,-6.035888671875,-0.830810546875,6.135986328125
0.131,-6.115966796875,0.010009765625,5.735595703125
0.1315,-6.316162109375,1.010986328125,5.295166015625
0.132,-5.995849609375,2.572509765625,3.693603515625
0.1325,-5.555419921875,3.733642578125,2.332275390625
0.133,-5.034912109375,4.534423828125,1.171142578125
0.1335,-4.514404296875,4.974853515625,0.330322265625
0.134,-3.873779296875,5.415283203125,-0.750732421875
0.1345,-3.113037109375,5.975830078125,-1.831787109375
0.135,-1.271240234375,5.895751953125,-3.553466796875
0.1355,0.090087890625,5.615478515625,-4.674560546875
0.136,0.770751953125,5.495361328125,-5.275146484375
0.1365,1.531494140625,5.335205078125,-5.915771484375
0.137,2.532470703125,4.854736328125,-6.676513671875
0.1375,3.973876953125,3.493408203125,-7.076904296875
0.138,4.974853515625,2.052001953125,-6.916748046875
0.1385,5.575439453125,0.770751953125,-6.476318359375
0.139,5.655517578125,0.010009765625,-6.156005859375
0.1395,5.775634765625,-0.990966796875,-5.715576171875
0.14,5.975830078125,-2.072021484375,-5.155029296875
0.1405,5.495361328125,-3.593505859375,-3.433349609375
0.141,4.974853515625,-4.754638671875,-1.951904296875
0.1415,4.494384765625,-5.395263671875,-0.990966796875
0.142,3.973876953125,-5.875732421875,-0.190185546875
0.1425,3.373291015625,-6.396240234375,0.890869140625
0.143,1.931884765625,-6.716552734375,2.492431640625
0.1435,0.610595703125,-6.556396484375,3.813720703125
0.144,-0.710693359375,-6.316162109375,4.814697265625
0.1445,-1.271240234375,-6.276123046875,5.375244140625
0.145,-2.192138671875,-5.955810546875,6.095947265625
0.1455,-3.193115234375,-5.435302734375,6.896728515625
0.146,-4.834716796875,-3.673583984375,6.976806640625
0.1465,-5.715576171875,-2.112060546875,6.696533203125
0.147,-6.075927734375,-1.111083984375,6.376220703125
0.1475,-6.156005859375,-0.350341796875,5.975830078125
0.148,-6.276123046875,0.730712890625,5.495361328125
0.1485,-6.276123046875,2.092041015625,4.334228515625
0.149,-5.795654296875,3.413330078125,2.892822265625
0.1495,-5.195068359375,4.494384765625,1.411376953125
0.15,-4.674560546875,4.974853515625,0.570556640625
0.1505,-4.114013671875,5.455322265625,-0.470458984375
0.151,-3.553466796875,6.055908203125,-1.471435546875
0.1515,-1.791748046875,6.055908203125,-3.193115234375
0.152,-0.310302734375,5.855712890625,-4.514404296875
0.1525,0.730712890625,5.655517578125,-5.315185546875
0.153,1.291259765625,5.495361328125,-5.835693359375
0.1535,2.372314453125,5.014892578125,-6.636474609375
0.154,3.573486328125,4.214111328125,-7.197021484375
0.1545,4.814697265625,2.532470703125,-7.116943359375
0.155,5.615478515625,0.970947265625,-6.676513671875
0.1555,5.775634765625,0.050048828125,-6.316162109375
0.156,5.855712890625,-0.910888671875,-5.835693359375
0.1565,6.055908203125,-1.791748046875,-5.435302734375
0.157,5.695556640625,-3.393310546875,-3.753662109375
0.1575,5.175048828125,-4.594482421875,-2.312255859375
0.158,4.654541015625,-5.355224609375,-1.191162109375
0.1585,4.134033203125,-5.755615234375,-0.390380859375
0.159,3.453369140625,-6.156005859375,0.650634765625
0.1595,2.692626953125,-6.716552734375,1.851806640625
0.16,0.930908203125,-6.556396484375,3.453369140625
0.1605,-0.510498046875,-6.356201171875,4.534423828125
0.161,-1.191162109375,-6.236083984375,5.215087890625
0.1615,-1.791748046875,-6.115966796875,5.655517578125
0.162,-2.952880859375,-5.555419921875,6.616455078125
0.1625,-4.434326171875,-4.073974609375,6.936767578125
0.163,-5.355224609375,-2.712646484375,6.736572265625
0.1635,-5.915771484375,-1.431396484375,6.336181640625
0.164,-5.995849609375,-0.670654296875,6.015869140625
0.1645,-6.115966796875,0.330322265625,5.535400390625
0.165,-6.276123046875,1.291259765625,5.054931640625
0.1655,-5.795654296875,2.732666015625,3.413330078125
0.166,-5.275146484375,3.893798828125,1.931884765625
0.1665,-4.754638671875,4.534423828125,0.970947265625
0.167,-4.274169921875,4.974853515625,0.210205078125
0.1675,-3.793701171875,5.575439453125,-0.830810546875
0.168,-2.552490234375,5.815673828125,-2.272216796875
0.1685,-1.071044921875,5.695556640625,-3.673583984375
0.169,0.130126953125,5.455322265625,-4.554443359375
0.1695,0.930908203125,5.455322265625,-5.435302734375
0.17,1.531494140625,5.255126953125,-5.915771484375
0.1705,2.452392578125,4.974853515625,-6.756591796875
0.171,3.933837890625,3.253173828125,-6.756591796875
0.1715,4.854736328125,1.771728515625,-6.516357421875
0.172,5.295166015625,0.770751953125,-6.276123046875
0.1725,5.455322265625,0.050048828125,-5.995849609375
0.173,5.695556640625,-0.950927734375,-5.635498046875
0.1735,5.655517578125,-2.192138671875,-4.674560546875
0.174,5.255126953125,-3.393310546875,-3.353271484375
0.1745,4.774658203125,-4.474365234375,-1.991943359375
0.175,4.334228515625,-4.994873046875,-1.111083984375
0.1755,3.893798828125,-5.595458984375,-0.310302734375
0.176,3.573486328125,-6.236083984375,0.610595703125
0.1765,1.971923828125,-6.276123046875,2.212158203125
0.177,0.570556640625,-6.196044921875,3.493408203125
0.1775,-0.350341796875,-6.115966796875,4.214111328125
0.178,-1.031005859375,-6.075927734375,5.014892578125
0.1785,-1.991943359375,-5.755615234375,5.895751953125
0.179,-3.153076171875,-5.114990234375,6.416259765625
0.1795,-4.354248046875,-3.673583984375,6.456298828125
0.18,-5.155029296875,-2.232177734375,6.176025390625
0.1805,-5.475341796875,-1.351318359375,5.895751953125
0.181,-5.635498046875,-0.630615234375,5.695556640625
0.1815,-5.955810546875,0.290283203125,5.455322265625
0.182,-5.675537109375,1.731689453125,4.013916015625
0.1825,-5.315185546875,2.812744140625,2.812744140625
0.183,-4.874755859375,3.653564453125,1.691650390625
0.1835,-4.514404296875,4.214111328125,0.970947265625
0.184,-4.073974609375,4.814697265625,0.090087890625
0.1845,-3.513427734375,5.335205078125,-1.031005859375
0.185,-2.112060546875,5.375244140625,-2.392333984375
0.1855,-0.710693359375,5.215087890625,-3.793701171875
0.186,0.010009765625,5.215087890625,-4.314208984375
0.1865,0.650634765625,5.175048828125,-5.114990234375
0.187,1.611572265625,5.094970703125,-5.915771484375
0.1875,2.932861328125,3.853759765625,-6.276123046875
0.188,3.893798828125,2.652587890625,-6.276123046875
