wavelength,x,y,z
0.0,-1.031005859375,6.816650390625,-5.835693359375
0.0005,-2.232177734375,7.417236328125,-5.275146484375
0.001,-4.114013671875,7.697509765625,-3.713623046875
0.0015,-5.355224609375,7.977783203125,-2.672607421875
0.002,-5.955810546875,7.377197265625,-1.431396484375
0.0025,-6.796630859375,7.177001953125,-0.310302734375
0.003,-6.876708984375,6.055908203125,1.010986328125
0.0035,-7.317138671875,5.535400390625,1.971923828125
0.004,-7.397216796875,3.773681640625,3.853759765625
0.0045,-7.397216796875,3.133056640625,4.494384765625
0.005,-6.756591796875,1.411376953125,5.535400390625
0.0055,-6.115966796875,0.130126953125,6.135986328125
0.006,-5.114990234375,-1.591552734375,6.696533203125
0.0065,-4.073974609375,-2.952880859375,7.056884765625
0.007,-2.832763671875,-4.634521484375,7.457275390625
0.0075,-1.911865234375,-5.114990234375,6.896728515625
0.008,-0.510498046875,-6.276123046875,6.656494140625
0.0085,0.890869140625,-6.636474609375,5.655517578125
0.009,2.172119140625,-7.397216796875,5.094970703125
0.0095,4.134033203125,-7.597412109375,3.333251953125
0.01,5.135009765625,-7.877685546875,2.572509765625
0.0105,5.815673828125,-7.076904296875,1.051025390625
0.011,6.496337890625,-6.876708984375,0.170166015625
0.0115,6.696533203125,-5.715576171875,-1.311279296875
0.012,7.056884765625,-5.034912109375,-2.352294921875
0.0125,7.257080078125,-3.393310546875,-4.194091796875
0.013,6.936767578125,-2.592529296875,-4.674560546875
0.0135,6.416259765625,-0.950927734375,-5.795654296875
0.014,5.415283203125,0.610595703125,-6.276123046875
0.0145,4.534423828125,2.172119140625,-6.876708984375
0.015,3.293212890625,3.693603515625,-7.116943359375
0.0155,2.292236328125,5.175048828125,-7.557373046875
0.016,1.010986328125,5.615478515625,-6.676513671875
0.0165,-0.310302734375,6.656494140625,-6.556396484375
0.017,-1.631591796875,6.896728515625,-5.355224609375
0.0175,-2.952880859375,7.657470703125,-4.714599609375
0.018,-4.954833984375,7.857666015625,-2.872802734375
0.0185,-5.715576171875,7.857666015625,-2.112060546875
0.019,-6.396240234375,6.976806640625,-0.550537109375
0.0195,-6.916748046875,6.696533203125,0.370361328125
0.02,-7.076904296875,5.495361328125,1.771728515625
0.0205,-7.237060546875,4.534423828125,2.892822265625
0.021,-7.597412109375,3.213134765625,4.574462890625
0.0215,-6.796630859375,2.052001953125,5.014892578125
0.022,-6.476318359375,0.610595703125,6.095947265625
0.0225,-5.275146484375,-1.071044921875,6.456298828125
0.023,-4.514404296875,-2.432373046875,6.976806640625
0.0235,-3.113037109375,-4.073974609375,7.177001953125
0.024,-2.192138671875,-5.275146484375,7.377197265625
0.0245,-0.710693359375,-5.755615234375,6.336181640625
0.025,0.330322265625,-6.756591796875,6.336181640625
0.0255,1.931884765625,-6.956787109375,4.974853515625
0.026,3.173095703125,-7.517333984375,4.214111328125
0.0265,5.175048828125,-7.837646484375,2.532470703125
0.027,5.735595703125,-7.397216796875,1.491455078125
0.0275,6.416259765625,-6.716552734375,0.130126953125
0.028,6.736572265625,-6.236083984375,-0.870849609375
0.0285,6.936767578125,-5.074951171875,-2.192138671875
0.029,7.016845703125,-3.873779296875,-3.473388671875
0.0295,7.377197265625,-2.792724609375,-4.954833984375
0.03,6.256103515625,-1.271240234375,-5.355224609375
0.0305,6.055908203125,0.130126953125,-6.396240234375
0.031,4.574462890625,1.811767578125,-6.556396484375
0.0315,3.893798828125,3.052978515625,-7.076904296875
0.032,2.452392578125,4.734619140625,-7.277099609375
0.0325,1.531494140625,5.615478515625,-7.237060546875
0.033,-0.110107421875,6.135986328125,-6.156005859375
0.0335,-0.990966796875,7.016845703125,-6.075927734375
0.034,-2.632568359375,7.217041015625,-4.594482421875
0.0345,-3.833740234375,7.657470703125,-3.793701171875
0.035,-5.635498046875,7.977783203125,-2.272216796875
0.0355,-6.035888671875,7.177001953125,-1.111083984375
0.036,-6.716552734375,6.776611328125,0.090087890625
0.0365,-6.916748046875,5.935791015625,1.131103515625
0.037,-7.116943359375,4.974853515625,2.332275390625
0.0375,-7.197021484375,3.693603515625,3.653564453125
0.038,-7.357177734375,2.692626953125,4.854736328125
0.0385,-6.156005859375,1.131103515625,5.255126953125
0.039,-6.075927734375,-0.150146484375,6.336181640625
0.0395,-4.514404296875,-1.791748046875,6.416259765625
0.04,-4.033935546875,-2.952880859375,7.056884765625
0.0405,-2.592529296875,-4.634521484375,7.177001953125
0.041,-1.511474609375,-5.315185546875,6.696533203125
0.0415,-0.270263671875,-5.915771484375,6.095947265625
0.042,0.890869140625,-6.636474609375,5.695556640625
0.0425,2.532470703125,-6.996826171875,4.334228515625
0.043,3.773681640625,-7.357177734375,3.453369140625
0.0435,5.375244140625,-7.677490234375,2.172119140625
0.044,5.615478515625,-6.676513671875,0.850830078125
0.0445,6.416259765625,-6.596435546875,0.010009765625
0.045,6.456298828125,-5.395263671875,-1.391357421875
0.0455,6.816650390625,-4.634521484375,-2.552490234375
0.046,6.896728515625,-3.273193359375,-3.953857421875
0.0465,6.896728515625,-2.272216796875,-4.914794921875
0.047,5.735595703125,-0.590576171875,-5.475341796875
0.0475,5.495361328125,0.690673828125,-6.396240234375
0.048,3.973876953125,2.492431640625,-6.476318359375
0.0485,3.373291015625,3.493408203125,-7.076904296875
0.049,2.092041015625,5.094970703125,-7.317138671875
0.0495,0.730712890625,5.695556640625,-6.436279296875
0.05,-0.430419921875,6.496337890625,-6.115966796875
0.0505,-1.831787109375,7.016845703125,-5.235107421875
0.051,-3.393310546875,7.417236328125,-3.993896484375
0.0515,-4.594482421875,7.617431640625,-3.032958984375
0.052,-5.915771484375,7.737548828125,-1.751708984375
0.0525,-6.115966796875,6.616455078125,-0.430419921875
0.053,-6.916748046875,6.616455078125,0.490478515625
0.0535,-6.916748046875,5.094970703125,1.971923828125
0.054,-7.156982421875,4.334228515625,3.052978515625
0.0545,-7.237060546875,3.012939453125,4.454345703125
0.055,-6.756591796875,1.771728515625,5.255126953125
0.0555,-5.755615234375,0.130126953125,5.855712890625
0.056,-5.275146484375,-1.151123046875,6.576416015625
0.0565,-3.793701171875,-3.032958984375,6.736572265625
0.057,-3.193115234375,-4.033935546875,6.976806640625
0.0575,-1.831787109375,-5.355224609375,7.056884765625
0.058,-0.470458984375,-5.755615234375,6.055908203125
0.0585,0.610595703125,-6.596435546875,5.935791015625
0.059,2.412353515625,-6.996826171875,4.494384765625
0.0595,3.693603515625,-7.357177734375,3.533447265625
0.06,4.854736328125,-7.437255859375,2.412353515625
0.0605,5.855712890625,-7.237060546875,1.251220703125
0.061,6.055908203125,-6.276123046875,0.010009765625
0.0615,6.696533203125,-6.115966796875,-0.910888671875
0.062,6.696533203125,-4.474365234375,-2.592529296875
0.0625,6.896728515625,-3.753662109375,-3.513427734375
0.063,6.936767578125,-2.392333984375,-4.874755859375
0.0635,6.216064453125,-1.031005859375,-5.475341796875
0.064,5.415283203125,0.490478515625,-6.196044921875
0.0645,4.494384765625,1.971923828125,-6.716552734375
0.065,3.173095703125,3.733642578125,-7.076904296875
0.0655,2.532470703125,4.614501953125,-7.197021484375
0.066,1.131103515625,5.895751953125,-7.076904296875
0.0665,-0.350341796875,6.256103515625,-6.035888671875
0.067,-1.351318359375,7.217041015625,-5.875732421875
0.0675,-3.473388671875,7.537353515625,-4.114013671875
0.068,-4.554443359375,7.857666015625,-3.273193359375
0.0685,-5.675537109375,7.697509765625,-1.991943359375
0.069,-6.476318359375,7.377197265625,-0.790771484375
0.0695,-6.716552734375,6.416259765625,0.490478515625
0.07,-7.317138671875,5.975830078125,1.531494140625
0.0705,-7.397216796875,4.174072265625,3.373291015625
0.071,-7.397216796875,3.493408203125,4.134033203125
0.0715,-7.197021484375,1.931884765625,5.495361328125
0.072,-6.276123046875,0.450439453125,6.015869140625
0.0725,-5.555419921875,-1.191162109375,6.776611328125
0.073,-4.234130859375,-2.872802734375,7.056884765625
0.0735,-2.992919921875,-4.434326171875,7.417236328125
0.074,-2.031982421875,-5.155029296875,7.136962890625
0.0745,-0.630615234375,-6.356201171875,6.856689453125
0.075,0.810791015625,-6.556396484375,5.735595703125
0.0755,1.971923828125,-7.397216796875,5.335205078125
0.076,4.174072265625,-7.677490234375,3.373291015625
0.0765,5.094970703125,-7.837646484375,2.612548828125
0.077,6.055908203125,-7.397216796875,1.171142578125
0.0775,6.576416015625,-6.876708984375,0.050048828125
0.078,6.776611328125,-5.915771484375,-1.191162109375
0.0785,7.136962890625,-5.074951171875,-2.432373046875
0.079,7.297119140625,-3.473388671875,-4.154052734375
0.0795,6.976806640625,-2.592529296875,-4.714599609375
0.08,6.696533203125,-1.111083984375,-5.955810546875
0.0805,5.455322265625,0.570556640625,-6.276123046875
0.081,4.814697265625,1.931884765625,-6.996826171875
0.0815,3.293212890625,3.773681640625,-7.197021484375
0.082,2.372314453125,5.094970703125,-7.557373046875
0.0825,1.251220703125,5.735595703125,-6.996826171875
0.083,-0.230224609375,6.776611328125,-6.676513671875
0.0835,-1.551513671875,7.056884765625,-5.555419921875
0.084,-2.832763671875,7.777587890625,-4.994873046875
0.0845,-4.954833984375,7.977783203125,-3.072998046875
0.085,-5.635498046875,8.017822265625,-2.392333984375
0.0855,-6.556396484375,7.377197265625,-0.790771484375
0.086,-6.996826171875,6.896728515625,0.290283203125
0.0865,-7.277099609375,5.895751953125,1.571533203125
0.087,-7.517333984375,4.854736328125,2.852783203125
0.0875,-7.757568359375,3.493408203125,4.494384765625
0.088,-7.197021484375,2.332275390625,5.014892578125
0.0885,-6.916748046875,0.810791015625,6.256103515625
0.089,-5.555419921875,-0.990966796875,6.536376953125
0.0895,-4.954833984375,-2.272216796875,7.217041015625
0.09,-3.233154296875,-4.154052734375,7.417236328125
0.0905,-2.432373046875,-5.275146484375,7.657470703125
0.091,-0.950927734375,-5.915771484375,6.776611328125
0.0915,0.330322265625,-6.916748046875,6.536376953125
0.092,1.771728515625,-7.156982421875,5.295166015625
0.0925,3.173095703125,-7.797607421875,4.494384765625
0.093,5.295166015625,-8.077880859375,2.652587890625
0.0935,5.855712890625,-7.757568359375,1.731689453125
0.094,6.696533203125,-7.116943359375,0.250244140625
0.0945,7.056884765625,-6.396240234375,-0.910888671875
0.095,7.217041015625,-5.435302734375,-2.152099609375
0.0955,7.337158203125,-4.033935546875,-3.633544921875
0.096,7.657470703125,-2.912841796875,-5.114990234375
0.0965,6.616455078125,-1.471435546875,-5.555419921875
0.097,6.376220703125,0.010009765625,-6.676513671875
0.0975,4.814697265625,1.811767578125,-6.796630859375
0.098,4.134033203125,3.093017578125,-7.397216796875
0.0985,2.492431640625,5.014892578125,-7.597412109375
0.099,1.611572265625,5.935791015625,-7.557373046875
0.0995,0.010009765625,6.576416015625,-6.556396484375
0.1,-1.151123046875,7.377197265625,-6.276123046875
0.1005,-2.712646484375,7.617431640625,-4.954833984375
0.101,-4.114013671875,8.057861328125,-3.953857421875
0.1015,-6.075927734375,8.378173828125,-2.312255859375
0.102,-6.396240234375,7.657470703125,-1.151123046875
0.1025,-7.237060546875,7.177001953125,0.250244140625
0.103,-7.397216796875,6.256103515625,1.371337890625
0.1035,-7.637451171875,5.255126953125,2.532470703125
0.104,-7.637451171875,3.773681640625,4.134033203125
0.1045,-7.837646484375,2.732666015625,5.295166015625
0.105,-6.596435546875,1.010986328125,5.735595703125
0.1055,-6.396240234375,-0.310302734375,6.856689453125
0.106,-4.834716796875,-2.072021484375,6.976806640625
0.1065,-4.154052734375,-3.273193359375,7.417236328125
0.107,-2.552490234375,-5.114990234375,7.617431640625
0.1075,-1.431396484375,-5.835693359375,7.177001953125
0.108,0.050048828125,-6.516357421875,6.416259765625
0.1085,1.211181640625,-7.197021484375,5.935791015625
0.109,2.732666015625,-7.477294921875,4.614501953125
0.1095,4.214111328125,-7.837646484375,3.453369140625
0.11,5.895751953125,-8.197998046875,2.092041015625
0.1105,6.176025390625,-7.076904296875,0.690673828125
0.111,6.976806640625,-6.916748046875,-0.350341796875
0.1115,7.016845703125,-5.675537109375,-1.671630859375
0.112,7.297119140625,-4.834716796875,-2.792724609375
0.1125,7.297119140625,-3.313232421875,-4.394287109375
0.113,7.297119140625,-2.312255859375,-5.395263671875
0.1135,6.055908203125,-0.510498046875,-5.875732421875
0.114,5.735595703125,0.810791015625,-6.796630859375
0.1145,4.174072265625,2.532470703125,-6.916748046875
0.115,3.533447265625,3.733642578125,-7.397216796875
0.1155,2.052001953125,5.535400390625,-7.677490234375
0.116,0.770751953125,6.055908203125,-6.876708984375
0.1165,-0.550537109375,6.856689453125,-6.396240234375
0.117,-1.831787109375,7.377197265625,-5.635498046875
0.1175,-3.393310546875,7.777587890625,-4.354248046875
0.118,-4.834716796875,8.017822265625,-3.193115234375
0.1185,-6.356201171875,8.258056640625,-1.871826171875
0.119,-6.556396484375,7.016845703125,-0.390380859375
0.1195,-7.397216796875,7.056884765625,0.570556640625
0.12,-7.357177734375,5.495361328125,1.971923828125
0.1205,-7.597412109375,4.654541015625,3.173095703125
0.121,-7.757568359375,3.133056640625,4.774658203125
0.1215,-7.357177734375,1.931884765625,5.695556640625
0.122,-6.276123046875,0.210205078125,6.256103515625
0.1225,-5.835693359375,-1.231201171875,7.136962890625
0.123,-4.154052734375,-2.992919921875,7.177001953125
0.1235,-3.353271484375,-4.154052734375,7.537353515625
0.124,-1.911865234375,-5.835693359375,7.697509765625
0.1245,-0.390380859375,-6.276123046875,6.576416015625
0.125,0.730712890625,-7.116943359375,6.336181640625
0.1255,2.492431640625,-7.557373046875,4.974853515625
0.126,3.973876953125,-7.837646484375,3.773681640625
0.1265,5.295166015625,-7.997802734375,2.532470703125
0.127,6.496337890625,-7.877685546875,1.211181640625
0.1275,6.616455078125,-6.636474609375,-0.270263671875
0.128,7.337158203125,-6.556396484375,-1.151123046875
0.1285,7.217041015625,-4.794677734375,-2.832763671875
0.129,7.337158203125,-3.913818359375,-3.873779296875
0.1295,7.377197265625,-2.432373046875,-5.315185546875
0.13,6.656494140625,-0.990966796875,-5.995849609375
0.1305,5.655517578125,0.690673828125,-6.556396484375
0.131,4.814697265625,2.092041015625,-7.116943359375
0.1315,3.293212890625,3.853759765625,-7.317138671875
0.132,2.532470703125,4.814697265625,-7.437255859375
0.1325,1.171142578125,6.296142578125,-7.477294921875
0.133,-0.430419921875,6.576416015625,-6.196044921875
0.1335,-1.351318359375,7.497314453125,-6.115966796875
0.134,-3.353271484375,7.737548828125,-4.354248046875
0.1345,-4.514404296875,8.017822265625,-3.513427734375
0.135,-5.755615234375,7.977783203125,-2.192138671875
0.1355,-6.676513671875,7.657470703125,-0.950927734375
0.136,-6.876708984375,6.616455078125,0.370361328125
0.1365,-7.477294921875,6.336181640625,1.291259765625
0.137,-7.517333984375,4.574462890625,3.052978515625
0.1375,-7.597412109375,3.853759765625,3.933837890625
0.138,-7.597412109375,2.372314453125,5.415283203125
0.1385,-6.636474609375,0.890869140625,5.975830078125
0.139,-5.955810546875,-0.710693359375,6.776611328125
0.1395,-4.834716796875,-2.312255859375,7.177001953125
0.14,-3.553466796875,-3.993896484375,7.537353515625
0.1405,-2.632568359375,-4.954833984375,7.537353515625
0.141,-1.151123046875,-6.276123046875,7.337158203125
0.1415,0.370361328125,-6.596435546875,6.176025390625
0.142,1.531494140625,-7.597412109375,5.975830078125
0.1425,3.813720703125,-7.877685546875,3.973876953125
0.143,4.814697265625,-8.117919921875,3.133056640625
0.1435,6.015869140625,-7.917724609375,1.731689453125
0.144,6.776611328125,-7.397216796875,0.410400390625
0.1445,7.056884765625,-6.436279296875,-0.910888671875
0.145,7.497314453125,-5.755615234375,-2.192138671875
0.1455,7.537353515625,-3.873779296875,-3.993896484375
0.146,7.417236328125,-3.072998046875,-4.754638671875
0.1465,7.177001953125,-1.431396484375,-6.115966796875
0.147,6.015869140625,0.250244140625,-6.516357421875
0.1475,5.255126953125,1.771728515625,-7.197021484375
0.148,3.733642578125,3.613525390625,-7.517333984375
0.1485,2.532470703125,5.135009765625,-7.757568359375
0.149,1.491455078125,5.855712890625,-7.397216796875
0.1495,-0.110107421875,7.056884765625,-6.996826171875
0.15,-1.511474609375,7.297119140625,-5.755615234375
0.1505,-2.712646484375,8.017822265625,-5.315185546875
0.151,-4.914794921875,8.177978515625,-3.233154296875
0.1515,-5.675537109375,8.218017578125,-2.512451171875
0.152,-6.676513671875,7.657470703125,-0.990966796875
0.1525,-7.197021484375,7.056884765625,0.250244140625
0.153,-7.397216796875,6.095947265625,1.411376953125
0.1535,-7.677490234375,5.175048828125,2.692626953125
0.154,-7.757568359375,3.573486328125,4.414306640625
0.1545,-7.397216796875,2.692626953125,4.974853515625
0.155,-7.076904296875,1.131103515625,6.216064453125
0.1555,-5.755615234375,-0.590576171875,6.456298828125
0.156,-5.275146484375,-1.951904296875,7.257080078125
0.1565,-3.553466796875,-3.793701171875,7.377197265625
0.157,-2.712646484375,-4.994873046875,7.657470703125
0.1575,-1.391357421875,-5.715576171875,7.056884765625
0.158,0.010009765625,-6.716552734375,6.656494140625
0.1585,1.371337890625,-7.036865234375,5.575439453125
0.159,2.692626953125,-7.757568359375,4.894775390625
0.1595,4.814697265625,-7.957763671875,3.012939453125
0.16,5.415283203125,-7.957763671875,2.372314453125
0.1605,6.416259765625,-7.397216796875,0.730712890625
0.161,6.736572265625,-6.716552734375,-0.390380859375
0.1615,7.096923828125,-5.795654296875,-1.591552734375
0.162,7.297119140625,-4.594482421875,-3.032958984375
0.1625,7.537353515625,-3.353271484375,-4.514404296875
0.163,6.896728515625,-2.192138671875,-5.074951171875
0.1635,6.656494140625,-0.710693359375,-6.276123046875
0.164,5.175048828125,1.131103515625,-6.556396484375
0.1645,4.614501953125,2.412353515625,-7.237060546875
0.165,2.932861328125,4.334228515625,-7.397216796875
0.1655,2.252197265625,5.295166015625,-7.637451171875
0.166,0.690673828125,6.055908203125,-6.796630859375
0.1665,-0.630615234375,7.016845703125,-6.436279296875
0.167,-1.991943359375,7.297119140625,-5.315185546875
0.1675,-3.473388671875,7.897705078125,-4.474365234375
0.168,-5.355224609375,8.097900390625,-2.792724609375
0.1685,-5.835693359375,7.697509765625,-1.911865234375
0.169,-6.796630859375,7.217041015625,-0.470458984375
0.1695,-7.036865234375,6.456298828125,0.730712890625
0.17,-7.397216796875,5.615478515625,1.931884765625
0.1705,-7.437255859375,4.214111328125,3.453369140625
0.171,-7.717529296875,3.213134765625,4.734619140625
0.1715,-6.796630859375,1.771728515625,5.255126953125
0.172,-6.596435546875,0.410400390625,6.416259765625
0.1725,-5.114990234375,-1.471435546875,6.696533203125
0.173,-4.514404296875,-2.712646484375,7.257080078125
0.1735,-2.872802734375,-4.594482421875,7.457275390625
0.174,-2.072021484375,-5.395263671875,7.337158203125
0.1745,-0.510498046875,-6.156005859375,6.536376953125
0.175,0.730712890625,-6.916748046875,6.135986328125
0.1755,2.212158203125,-7.277099609375,4.974853515625
0.176,3.773681640625,-7.797607421875,3.853759765625
0.1765,5.575439453125,-8.197998046875,2.412353515625
0.177,5.935791015625,-7.397216796875,1.211181640625
0.1775,6.856689453125,-7.076904296875,0.010009765625
0.178,6.976806640625,-5.955810546875,-1.311279296875
0.1785,7.297119140625,-5.155029296875,-2.472412109375
0.179,7.337158203125,-3.553466796875,-4.154052734375
0.1795,7.417236328125,-2.592529296875,-5.195068359375
0.18,6.296142578125,-0.910888671875,-5.755615234375
0.1805,6.015869140625,0.530517578125,-6.756591796875
0.181,4.414306640625,2.252197265625,-6.876708984375
0.1815,3.773681640625,3.533447265625,-7.397216796875
0.182,2.172119140625,5.375244140625,-7.677490234375
0.1825,1.131103515625,5.935791015625,-7.116943359375
0.183,-0.390380859375,6.736572265625,-6.396240234375
0.1835,-1.551513671875,7.297119140625,-5.755615234375
0.184,-3.072998046875,7.577392578125,-4.554443359375
0.1845,-4.554443359375,7.897705078125,-3.353271484375
0.185,-6.115966796875,8.137939453125,-2.031982421875
0.1855,-6.356201171875,7.056884765625,-0.630615234375
0.186,-7.156982421875,6.976806640625,0.370361328125
0.1865,-7.116943359375,5.615478515625,1.651611328125
0.187,-7.397216796875,4.854736328125,2.732666015625
0.1875,-7.477294921875,3.373291015625,4.334228515625
0.188,-7.237060546875,2.332275390625,5.135009765625
