wavelength,x,y,z
0.0,3.653564453125,3.613525390625,-6.636474609375
0.0005,4.734619140625,2.252197265625,-6.756591796875
0.001,5.535400390625,1.051025390625,-6.756591796875
0.0015,5.855712890625,0.370361328125,-6.756591796875
0.002,5.695556640625,-0.550537109375,-6.035888671875
0.0025,5.295166015625,-1.591552734375,-4.874755859375
0.003,5.094970703125,-2.872802734375,-3.673583984375
0.0035,4.854736328125,-4.234130859375,-2.312255859375
0.004,4.734619140625,-5.195068359375,-1.391357421875
0.0045,4.334228515625,-5.835693359375,-0.630615234375
0.005,3.413330078125,-5.955810546875,0.450439453125
0.0055,2.092041015625,-6.075927734375,1.771728515625
0.006,0.770751953125,-6.236083984375,3.253173828125
0.0065,-0.390380859375,-6.436279296875,4.534423828125
0.007,-0.990966796875,-6.676513671875,5.415283203125
0.0075,-1.791748046875,-6.276123046875,5.935791015625
0.008,-2.952880859375,-5.114990234375,6.176025390625
0.0085,-4.154052734375,-3.913818359375,6.416259765625
0.009,-5.195068359375,-2.632568359375,6.456298828125
0.0095,-5.875732421875,-1.711669921875,6.456298828125
0.01,-5.995849609375,-0.950927734375,6.296142578125
0.0105,-5.755615234375,0.010009765625,5.455322265625
0.011,-5.395263671875,1.131103515625,4.334228515625
0.0115,-5.195068359375,2.412353515625,3.093017578125
0.012,-5.074951171875,3.653564453125,1.931884765625
0.0125,-4.954833984375,4.494384765625,1.171142578125
0.013,-4.354248046875,4.934814453125,0.370361328125
0.0135,-3.393310546875,5.054931640625,-0.710693359375
0.014,-2.192138671875,5.255126953125,-2.031982421875
0.0145,-0.990966796875,5.415283203125,-3.473388671875
0.015,-0.190185546875,5.735595703125,-4.554443359375
0.0155,0.570556640625,5.935791015625,-5.435302734375
0.016,1.451416015625,5.295166015625,-5.835693359375
0.0165,2.612548828125,4.134033203125,-6.115966796875
0.017,3.773681640625,3.012939453125,-6.316162109375
0.0175,4.734619140625,1.771728515625,-6.436279296875
0.018,5.295166015625,1.091064453125,-6.516357421875
0.0185,5.375244140625,0.290283203125,-6.196044921875
0.019,5.094970703125,-0.630615234375,-5.355224609375
0.0195,4.894775390625,-1.791748046875,-4.314208984375
0.02,4.734619140625,-3.072998046875,-3.153076171875
0.0205,4.614501953125,-4.194091796875,-2.112060546875
0.021,4.534423828125,-5.034912109375,-1.391357421875
0.0215,3.853759765625,-5.315185546875,-0.590576171875
0.022,2.852783203125,-5.515380859375,0.610595703125
0.0225,1.731689453125,-5.755615234375,1.931884765625
0.023,0.610595703125,-6.035888671875,3.293212890625
0.0235,-0.150146484375,-6.396240234375,4.334228515625
0.024,-0.830810546875,-6.396240234375,5.094970703125
0.0245,-1.831787109375,-5.715576171875,5.455322265625
0.025,-2.952880859375,-4.714599609375,5.775634765625
0.0255,-4.114013671875,-3.553466796875,6.015869140625
0.026,-4.994873046875,-2.432373046875,6.176025390625
0.0265,-5.435302734375,-1.791748046875,6.296142578125
0.027,-5.435302734375,-0.990966796875,5.775634765625
0.0275,-5.195068359375,0.010009765625,4.934814453125
0.028,-5.074951171875,1.131103515625,3.973876953125
0.0285,-4.994873046875,2.412353515625,2.852783203125
0.029,-4.994873046875,3.453369140625,2.052001953125
0.0295,-4.794677734375,4.134033203125,1.291259765625
0.03,-4.033935546875,4.494384765625,0.410400390625
0.0305,-3.072998046875,4.734619140625,-0.830810546875
0.031,-1.991943359375,5.094970703125,-2.152099609375
0.0315,-1.071044921875,5.415283203125,-3.433349609375
0.032,-0.470458984375,5.735595703125,-4.434326171875
0.0325,0.490478515625,5.495361328125,-5.114990234375
0.033,1.531494140625,4.734619140625,-5.475341796875
0.0335,2.692626953125,3.693603515625,-5.875732421875
0.034,3.813720703125,2.612548828125,-6.115966796875
0.0345,4.614501953125,1.731689453125,-6.276123046875
0.035,4.974853515625,1.091064453125,-6.276123046875
0.0355,4.854736328125,0.290283203125,-5.715576171875
0.036,4.734619140625,-0.790771484375,-4.834716796875
0.0365,4.614501953125,-1.951904296875,-3.833740234375
0.037,4.614501953125,-3.233154296875,-2.792724609375
0.0375,4.614501953125,-4.194091796875,-2.072021484375
0.038,4.214111328125,-4.794677734375,-1.271240234375
0.0385,3.453369140625,-5.074951171875,-0.350341796875
0.039,2.452392578125,-5.395263671875,0.970947265625
0.0395,1.331298828125,-5.675537109375,2.332275390625
0.04,0.570556640625,-6.075927734375,3.493408203125
0.0405,0.010009765625,-6.396240234375,4.414306640625
0.041,-1.031005859375,-5.955810546875,4.934814453125
0.0415,-2.112060546875,-5.114990234375,5.255126953125
0.042,-3.233154296875,-4.114013671875,5.655517578125
0.0425,-4.274169921875,-2.992919921875,5.855712890625
0.043,-4.914794921875,-2.312255859375,6.095947265625
0.0435,-5.114990234375,-1.631591796875,5.895751953125
0.044,-5.034912109375,-0.790771484375,5.255126953125
0.0445,-4.994873046875,0.290283203125,4.454345703125
0.045,-4.914794921875,1.531494140625,3.453369140625
0.0455,-4.914794921875,2.692626953125,2.572509765625
0.046,-4.914794921875,3.573486328125,1.931884765625
0.0465,-4.394287109375,4.013916015625,1.051025390625
0.047,-3.553466796875,4.334228515625,0.050048828125
0.0475,-2.712646484375,4.774658203125,-1.271240234375
0.048,-1.631591796875,5.094970703125,-2.592529296875
0.0485,-0.990966796875,5.535400390625,-3.713623046875
0.049,-0.270263671875,5.615478515625,-4.594482421875
0.0495,0.810791015625,5.054931640625,-5.114990234375
0.05,2.011962890625,4.214111328125,-5.475341796875
0.0505,3.173095703125,3.173095703125,-5.835693359375
0.051,4.134033203125,2.172119140625,-6.115966796875
0.0515,4.734619140625,1.531494140625,-6.316162109375
0.052,4.774658203125,0.770751953125,-5.915771484375
0.0525,4.654541015625,-0.270263671875,-5.155029296875
0.053,4.614501953125,-1.351318359375,-4.354248046875
0.0535,4.614501953125,-2.632568359375,-3.273193359375
0.054,4.614501953125,-3.713623046875,-2.432373046875
0.0545,4.494384765625,-4.514404296875,-1.711669921875
0.055,3.813720703125,-4.874755859375,-0.790771484375
0.0555,2.852783203125,-5.155029296875,0.450439453125
0.056,1.811767578125,-5.595458984375,1.811767578125
0.0565,0.890869140625,-5.955810546875,3.052978515625
0.057,0.250244140625,-6.396240234375,4.093994140625
0.0575,-0.710693359375,-6.236083984375,4.774658203125
0.058,-1.751708984375,-5.355224609375,5.175048828125
0.0585,-2.912841796875,-4.394287109375,5.615478515625
0.059,-4.073974609375,-3.233154296875,5.855712890625
0.0595,-4.834716796875,-2.392333984375,6.055908203125
0.06,-5.195068359375,-1.751708984375,6.095947265625
0.0605,-5.155029296875,-0.950927734375,5.455322265625
0.061,-4.994873046875,0.170166015625,4.614501953125
0.0615,-4.954833984375,1.371337890625,3.613525390625
0.062,-4.954833984375,2.612548828125,2.572509765625
0.0625,-4.914794921875,3.573486328125,1.851806640625
0.063,-4.514404296875,4.134033203125,1.091064453125
0.0635,-3.713623046875,4.414306640625,0.090087890625
0.064,-2.712646484375,4.774658203125,-1.231201171875
0.0645,-1.631591796875,5.094970703125,-2.592529296875
0.065,-0.870849609375,5.455322265625,-3.793701171875
0.0655,-0.270263671875,5.735595703125,-4.754638671875
0.066,0.850830078125,5.255126953125,-5.275146484375
0.0665,2.052001953125,4.294189453125,-5.635498046875
0.067,3.173095703125,3.173095703125,-5.955810546875
0.0675,4.254150390625,2.092041015625,-6.156005859375
0.068,4.854736328125,1.331298828125,-6.356201171875
0.0685,5.054931640625,0.610595703125,-6.075927734375
0.069,4.854736328125,-0.350341796875,-5.315185546875
0.0695,4.734619140625,-1.471435546875,-4.354248046875
0.07,4.654541015625,-2.752685546875,-3.233154296875
0.0705,4.614501953125,-3.953857421875,-2.272216796875
0.071,4.534423828125,-4.794677734375,-1.551513671875
0.0715,3.853759765625,-5.114990234375,-0.670654296875
0.072,2.852783203125,-5.355224609375,0.490478515625
0.0725,1.771728515625,-5.715576171875,1.891845703125
0.073,0.690673828125,-5.995849609375,3.213134765625
0.0735,0.010009765625,-6.396240234375,4.294189453125
0.074,-0.790771484375,-6.316162109375,5.054931640625
0.0745,-1.871826171875,-5.515380859375,5.455322265625
0.075,-3.072998046875,-4.474365234375,5.815673828125
0.0755,-4.234130859375,-3.273193359375,6.055908203125
0.076,-5.114990234375,-2.232177734375,6.176025390625
0.0765,-5.475341796875,-1.591552734375,6.256103515625
0.077,-5.435302734375,-0.790771484375,5.695556640625
0.0775,-5.195068359375,0.290283203125,4.734619140625
0.078,-5.074951171875,1.451416015625,3.653564453125
0.0785,-4.994873046875,2.772705078125,2.572509765625
0.079,-4.954833984375,3.813720703125,1.691650390625
0.0795,-4.674560546875,4.454345703125,0.970947265625
0.08,-3.833740234375,4.654541015625,0.050048828125
0.0805,-2.712646484375,4.854736328125,-1.271240234375
0.081,-1.631591796875,5.175048828125,-2.712646484375
0.0815,-0.670654296875,5.455322265625,-3.953857421875
0.082,0.050048828125,5.895751953125,-4.914794921875
0.0825,0.930908203125,5.495361328125,-5.515380859375
0.083,2.052001953125,4.494384765625,-5.835693359375
0.0835,3.333251953125,3.373291015625,-6.196044921875
0.084,4.454345703125,2.172119140625,-6.396240234375
0.0845,5.094970703125,1.211181640625,-6.436279296875
0.085,5.375244140625,0.530517578125,-6.396240234375
0.0855,5.175048828125,-0.470458984375,-5.595458984375
0.086,4.974853515625,-1.591552734375,-4.514404296875
0.0865,4.814697265625,-2.872802734375,-3.273193359375
0.087,4.734619140625,-4.194091796875,-2.192138671875
0.0875,4.614501953125,-5.074951171875,-1.391357421875
0.088,4.093994140625,-5.515380859375,-0.590576171875
0.0885,3.052978515625,-5.755615234375,0.610595703125
0.089,1.771728515625,-5.955810546875,2.092041015625
0.0895,0.490478515625,-6.276123046875,3.533447265625
0.09,-0.350341796875,-6.436279296875,4.654541015625
0.0905,-1.031005859375,-6.596435546875,5.535400390625
0.091,-2.072021484375,-5.835693359375,5.935791015625
0.0915,-3.353271484375,-4.594482421875,6.256103515625
0.092,-4.594482421875,-3.313232421875,6.456298828125
0.0925,-5.555419921875,-2.072021484375,6.496337890625
0.093,-6.035888671875,-1.271240234375,6.536376953125
0.0935,-5.955810546875,-0.510498046875,6.015869140625
0.094,-5.635498046875,0.650634765625,4.934814453125
0.0945,-5.435302734375,1.931884765625,3.693603515625
0.095,-5.235107421875,3.333251953125,2.372314453125
0.0955,-5.074951171875,4.494384765625,1.291259765625
0.096,-4.834716796875,5.094970703125,0.570556640625
0.0965,-3.873779296875,5.255126953125,-0.510498046875
0.097,-2.592529296875,5.375244140625,-1.791748046875
0.0975,-1.311279296875,5.575439453125,-3.353271484375
0.098,0.010009765625,5.815673828125,-4.674560546875
0.0985,0.650634765625,6.015869140625,-5.635498046875
0.099,1.411376953125,5.735595703125,-6.276123046875
0.0995,2.652587890625,4.614501953125,-6.556396484375
0.1,3.973876953125,3.253173828125,-6.756591796875
0.1005,5.094970703125,1.891845703125,-6.836669921875
0.101,5.775634765625,0.730712890625,-6.756591796875
0.1015,6.015869140625,0.010009765625,-6.676513671875
0.102,5.775634765625,-0.990966796875,-5.795654296875
0.1025,5.375244140625,-2.192138671875,-4.514404296875
0.103,5.094970703125,-3.553466796875,-3.153076171875
0.1035,4.854736328125,-4.834716796875,-1.791748046875
0.104,4.614501953125,-5.755615234375,-0.910888671875
0.1045,4.134033203125,-6.236083984375,0.010009765625
0.105,3.012939453125,-6.276123046875,1.010986328125
0.1055,1.531494140625,-6.356201171875,2.492431640625
0.106,0.130126953125,-6.436279296875,4.013916015625
0.1065,-0.950927734375,-6.516357421875,5.175048828125
0.107,-1.471435546875,-6.716552734375,6.015869140625
0.1075,-2.432373046875,-6.075927734375,6.456298828125
0.108,-3.673583984375,-4.754638671875,6.576416015625
0.1085,-4.834716796875,-3.393310546875,6.776611328125
0.109,-5.835693359375,-2.031982421875,6.736572265625
0.1095,-6.396240234375,-1.111083984375,6.696533203125
0.11,-6.396240234375,-0.350341796875,6.296142578125
0.1105,-5.995849609375,0.650634765625,5.295166015625
0.111,-5.635498046875,1.931884765625,3.933837890625
0.1115,-5.315185546875,3.293212890625,2.572509765625
0.112,-5.155029296875,4.494384765625,1.411376953125
0.1125,-4.914794921875,5.215087890625,0.610595703125
0.113,-4.154052734375,5.495361328125,-0.350341796875
0.1135,-2.992919921875,5.495361328125,-1.471435546875
0.114,-1.591552734375,5.695556640625,-2.952880859375
0.1145,-0.270263671875,5.815673828125,-4.474365234375
0.115,0.610595703125,6.055908203125,-5.475341796875
0.1155,1.251220703125,6.095947265625,-6.276123046875
0.116,2.292236328125,5.175048828125,-6.596435546875
0.1165,3.613525390625,3.813720703125,-6.756591796875
0.117,4.774658203125,2.492431640625,-6.916748046875
0.1175,5.695556640625,1.131103515625,-6.916748046875
0.118,6.095947265625,0.330322265625,-6.836669921875
0.1185,5.975830078125,-0.590576171875,-6.276123046875
0.119,5.575439453125,-1.631591796875,-5.155029296875
0.1195,5.255126953125,-2.952880859375,-3.833740234375
0.12,5.014892578125,-4.354248046875,-2.392333984375
0.1205,4.814697265625,-5.435302734375,-1.311279296875
0.121,4.494384765625,-6.156005859375,-0.510498046875
0.1215,3.533447265625,-6.316162109375,0.490478515625
0.122,2.212158203125,-6.316162109375,1.851806640625
0.1225,0.770751953125,-6.436279296875,3.413330078125
0.123,-0.590576171875,-6.556396484375,4.814697265625
0.1235,-1.231201171875,-6.756591796875,5.735595703125
0.124,-1.951904296875,-6.476318359375,6.376220703125
0.1245,-3.153076171875,-5.395263671875,6.576416015625
0.125,-4.434326171875,-3.993896484375,6.776611328125
0.1255,-5.595458984375,-2.592529296875,6.896728515625
0.126,-6.276123046875,-1.431396484375,6.776611328125
0.1265,-6.516357421875,-0.670654296875,6.656494140625
0.127,-6.236083984375,0.290283203125,5.815673828125
0.1275,-5.795654296875,1.451416015625,4.494384765625
0.128,-5.515380859375,2.852783203125,3.133056640625
0.1285,-5.315185546875,4.134033203125,1.771728515625
0.129,-5.074951171875,5.094970703125,0.810791015625
0.1295,-4.554443359375,5.575439453125,0.010009765625
0.13,-3.473388671875,5.695556640625,-1.151123046875
0.1305,-1.991943359375,5.735595703125,-2.632568359375
0.131,-0.630615234375,5.895751953125,-4.154052734375
0.1315,0.490478515625,6.055908203125,-5.395263671875
0.132,1.131103515625,6.216064453125,-6.276123046875
0.1325,2.092041015625,5.575439453125,-6.716552734375
0.133,3.333251953125,4.214111328125,-6.916748046875
0.1335,4.614501953125,2.852783203125,-7.076904296875
0.134,5.695556640625,1.371337890625,-7.076904296875
0.1345,6.216064453125,0.370361328125,-6.996826171875
0.135,6.256103515625,-0.510498046875,-6.596435546875
0.1355,5.815673828125,-1.431396484375,-5.595458984375
0.136,5.455322265625,-2.792724609375,-4.154052734375
0.1365,5.135009765625,-4.234130859375,-2.712646484375
0.137,4.854736328125,-5.435302734375,-1.431396484375
0.1375,4.534423828125,-6.236083984375,-0.590576171875
0.138,3.813720703125,-6.436279296875,0.410400390625
0.1385,2.532470703125,-6.436279296875,1.611572265625
0.139,1.010986328125,-6.476318359375,3.173095703125
0.1395,-0.470458984375,-6.596435546875,4.654541015625
0.14,-1.271240234375,-6.716552734375,5.655517578125
0.1405,-1.871826171875,-6.716552734375,6.376220703125
0.141,-2.912841796875,-5.755615234375,6.656494140625
0.1415,-4.154052734375,-4.354248046875,6.776611328125
0.142,-5.315185546875,-2.912841796875,6.856689453125
0.1425,-6.196044921875,-1.631591796875,6.776611328125
0.143,-6.476318359375,-0.830810546875,6.696533203125
0.1435,-6.356201171875,0.050048828125,6.055908203125
0.144,-5.875732421875,1.010986328125,4.934814453125
0.1445,-5.515380859375,2.292236328125,3.533447265625
0.145,-5.275146484375,3.613525390625,2.252197265625
0.1455,-5.074951171875,4.694580078125,1.091064453125
0.146,-4.754638671875,5.375244140625,0.370361328125
0.1465,-3.833740234375,5.455322265625,-0.630615234375
0.147,-2.592529296875,5.495361328125,-1.791748046875
0.1475,-1.271240234375,5.695556640625,-3.233154296875
0.148,0.050048828125,5.775634765625,-4.634521484375
0.1485,0.690673828125,6.015869140625,-5.595458984375
0.149,1.371337890625,5.855712890625,-6.196044921875
0.1495,2.452392578125,4.854736328125,-6.436279296875
0.15,3.693603515625,3.573486328125,-6.676513671875
0.1505,4.814697265625,2.252197265625,-6.796630859375
0.151,5.615478515625,1.051025390625,-6.756591796875
0.1515,5.895751953125,0.410400390625,-6.716552734375
0.152,5.695556640625,-0.510498046875,-6.035888671875
0.1525,5.295166015625,-1.591552734375,-4.914794921875
0.153,5.094970703125,-2.912841796875,-3.673583984375
0.1535,4.854736328125,-4.274169921875,-2.392333984375
0.154,4.734619140625,-5.195068359375,-1.431396484375
0.1545,4.414306640625,-5.795654296875,-0.630615234375
0.155,3.453369140625,-5.915771484375,0.370361328125
0.1555,2.132080078125,-6.075927734375,1.731689453125
0.156,0.810791015625,-6.276123046875,3.213134765625
0.1565,-0.310302734375,-6.436279296875,4.494384765625
0.157,-0.950927734375,-6.716552734375,5.415283203125
0.1575,-1.791748046875,-6.276123046875,5.935791015625
0.158,-2.952880859375,-5.155029296875,6.176025390625
0.1585,-4.154052734375,-3.953857421875,6.416259765625
0.159,-5.235107421875,-2.632568359375,6.536376953125
0.1595,-5.875732421875,-1.711669921875,6.576416015625
0.16,-6.035888671875,-0.990966796875,6.376220703125
0.1605,-5.755615234375,0.010009765625,5.535400390625
0.161,-5.435302734375,1.131103515625,4.374267578125
0.1615,-5.275146484375,2.412353515625,3.093017578125
0.162,-5.155029296875,3.733642578125,1.931884765625
0.1625,-4.994873046875,4.574462890625,1.171142578125
0.163,-4.394287109375,4.974853515625,0.290283203125
0.1635,-3.353271484375,5.094970703125,-0.790771484375
0.164,-2.112060546875,5.335205078125,-2.192138671875
0.1645,-0.910888671875,5.495361328125,-3.633544921875
0.165,0.010009765625,5.775634765625,-4.754638671875
0.1655,0.610595703125,5.935791015625,-5.595458984375
0.166,1.571533203125,5.255126953125,-5.955810546875
0.1665,2.772705078125,4.093994140625,-6.236083984375
0.167,3.973876953125,2.852783203125,-6.436279296875
0.1675,4.934814453125,1.611572265625,-6.516357421875
0.168,5.415283203125,0.890869140625,-6.596435546875
0.1685,5.455322265625,0.130126953125,-6.196044921875
0.169,5.135009765625,-0.910888671875,-5.275146484375
0.1695,4.894775390625,-2.031982421875,-4.194091796875
0.17,4.774658203125,-3.353271484375,-2.912841796875
0.1705,4.654541015625,-4.474365234375,-1.951904296875
0.171,4.494384765625,-5.195068359375,-1.231201171875
0.1715,3.773681640625,-5.475341796875,-0.350341796875
0.172,2.692626953125,-5.635498046875,0.850830078125
0.1725,1.531494140625,-5.835693359375,2.212158203125
0.173,0.370361328125,-6.075927734375,3.573486328125
0.1735,-0.350341796875,-6.396240234375,4.574462890625
0.174,-1.031005859375,-6.396240234375,5.295166015625
0.1745,-2.031982421875,-5.595458984375,5.615478515625
0.175,-3.193115234375,-4.514404296875,5.895751953125
0.1755,-4.314208984375,-3.353271484375,6.135986328125
0.176,-5.155029296875,-2.312255859375,6.256103515625
0.1765,-5.555419921875,-1.671630859375,6.296142578125
0.177,-5.475341796875,-0.950927734375,5.735595703125
0.1775,-5.275146484375,0.090087890625,4.854736328125
0.178,-5.114990234375,1.291259765625,3.853759765625
0.1785,-5.074951171875,2.572509765625,2.732666015625
0.179,-4.994873046875,3.613525390625,1.931884765625
0.1795,-4.754638671875,4.254150390625,1.211181640625
0.18,-3.993896484375,4.534423828125,0.290283203125
0.1805,-2.952880859375,4.814697265625,-0.990966796875
0.181,-1.951904296875,5.135009765625,-2.312255859375
0.1815,-0.950927734375,5.455322265625,-3.553466796875
0.182,-0.310302734375,5.815673828125,-4.594482421875
0.1825,0.570556640625,5.615478515625,-5.195068359375
0.183,1.651611328125,4.774658203125,-5.555419921875
0.1835,2.852783203125,3.733642578125,-5.915771484375
0.184,3.933837890625,2.532470703125,-6.156005859375
0.1845,4.734619140625,1.571533203125,-6.356201171875
0.185,5.054931640625,0.970947265625,-6.356201171875
0.1855,4.934814453125,0.170166015625,-5.755615234375
0.186,4.774658203125,-0.910888671875,-4.834716796875
0.1865,4.694580078125,-2.112060546875,-3.793701171875
0.187,4.654541015625,-3.353271484375,-2.752685546875
0.1875,4.614501953125,-4.314208984375,-1.991943359375
0.188,4.214111328125,-4.874755859375,-1.231201171875
