wavelength,x,y,z
0.0,9.4141845703125,17.782348632812,-26.941284179688
0.0005,6.0909423828125,20.745239257812,-26.661010742188
0.001,-0.3153076171875,23.868286132812,-23.578002929688
0.0015,-4.9598388671875,26.030395507812,-21.215698242188
0.002,-9.9647216796875,26.831176757812,-17.131713867188
0.0025,-15.890502929688,27.511840820312,-12.046752929688
0.003,-19.213745117188,25.950317382812,-7.3221435546875
0.0035,-22.777221679688,25.509887695312,-3.3582763671875
0.004,-25.139526367188,22.587036132812,1.9268798828125
0.0045,-27.501831054688,19.904418945312,6.8917236328125
0.005,-27.221557617188,14.739379882812,11.816528320312
0.0055,-27.341674804688,9.8145751953125,16.821411132812
0.006,-26.420776367188,6.1710205078125,19.584106445312
0.0065,-24.498901367188,0.6456298828125,23.147583007812
0.007,-22.256713867188,-3.7586669921875,25.149536132812
0.0075,-18.933471679688,-9.1239013671875,27.071411132812
0.008,-13.528198242188,-14.729370117188,27.311645507812
0.0085,-8.3631591796875,-18.653198242188,26.070434570312
0.009,-4.9598388671875,-21.616088867188,25.589965820312
0.0095,1.2061767578125,-24.338745117188,22.346801757812
0.01,5.8106689453125,-26.420776367188,19.984497070312
0.0105,11.255981445312,-26.661010742188,14.899536132812
0.011,16.581176757812,-27.301635742188,10.375122070312
0.0115,19.784301757812,-25.980346679688,6.0509033203125
0.012,23.267700195312,-24.819213867188,1.4063720703125
0.0125,25.429809570312,-22.056518554688,-3.5184326171875
0.013,27.511840820312,-18.893432617188,-8.6834716796875
0.0135,26.871215820312,-13.448120117188,-13.488159179688
0.014,26.751098632812,-8.9237060546875,-17.932495117188
0.0145,25.910278320312,-5.4002685546875,-20.615112304688
0.015,23.668090820312,0.3653564453125,-24.018432617188
0.0155,21.225708007812,4.8897705078125,-26.020385742188
0.016,16.821411132812,10.655395507812,-27.301635742188
0.0165,12.016723632812,15.620239257812,-27.501831054688
0.017,6.8917236328125,19.383911132812,-26.140502929688
0.0175,2.8477783203125,22.146606445312,-24.939331054688
0.018,-3.1981201171875,24.989379882812,-21.816284179688
0.0185,-8.1629638671875,26.991333007812,-19.053588867188
0.019,-13.728393554688,26.550903320312,-13.207885742188
0.0195,-17.972534179688,26.871215820312,-9.4041748046875
0.02,-21.175659179688,25.630004882812,-5.1199951171875
0.0205,-24.378784179688,23.788208007812,0.0050048828125
0.021,-26.420776367188,20.625122070312,5.0899658203125
0.0215,-28.142456054688,16.781372070312,10.695434570312
0.022,-27.221557617188,11.255981445312,15.259887695312
0.0225,-26.901245117188,7.0118408203125,19.183715820312
0.023,-25.619995117188,3.1680908203125,21.706176757812
0.0235,-23.217651367188,-2.7576904296875,25.109497070312
0.024,-20.214721679688,-7.7225341796875,27.031372070312
0.0245,-14.729370117188,-13.768432617188,27.471801757812
0.025,-10.525268554688,-17.852416992188,27.391723632812
0.0255,-5.4803466796875,-21.415893554688,25.910278320312
0.026,-0.9959716796875,-23.658081054688,23.828247070312
0.0265,4.8096923828125,-26.180541992188,20.745239257812
0.027,10.495239257812,-28.062377929688,17.021606445312
0.0275,15.820434570312,-27.061401367188,10.895629882812
0.028,19.463989257812,-27.221557617188,7.5323486328125
0.0285,22.627075195312,-25.539916992188,2.8077392578125
0.029,25.549926757812,-23.377807617188,-2.2772216796875
0.0295,27.191528320312,-19.814331054688,-7.4422607421875
0.03,28.232543945312,-15.209838867188,-13.127807617188
0.0305,27.191528320312,-10.124877929688,-17.171752929688
0.031,26.550903320312,-5.8807373046875,-20.775268554688
0.0315,24.629028320312,-1.8367919921875,-22.817260742188
0.032,22.266723632812,3.9688720703125,-26.140502929688
0.0325,18.463012695312,9.3341064453125,-27.782104492188
0.033,12.697387695312,15.019653320312,-27.581909179688
0.0335,8.9737548828125,18.503051757812,-27.261596679688
0.034,3.7686767578125,21.946411132812,-25.579956054688
0.0345,-1.1961669921875,24.188598632812,-23.017456054688
0.035,-6.3612060546875,26.190551757812,-19.974487304688
0.0355,-12.647338867188,27.671997070312,-15.410034179688
0.036,-16.971557617188,26.390747070312,-9.9246826171875
0.0365,-20.294799804688,26.390747070312,-6.7215576171875
0.037,-23.097534179688,24.228637695312,-1.8367919921875
0.0375,-25.980346679688,22.026489257812,3.3282470703125
0.038,-27.101440429688,17.942504882812,8.4532470703125
0.0385,-27.661987304688,12.937622070312,14.018676757812
0.039,-26.781127929688,8.6534423828125,17.462036132812
0.0395,-25.940307617188,4.2891845703125,20.985473632812
0.04,-23.658081054688,-0.0750732421875,22.987426757812
0.0405,-21.455932617188,-5.3201904296875,25.910278320312
0.041,-16.811401367188,-11.366088867188,27.191528320312
0.0415,-11.286010742188,-16.170776367188,26.470825195312
0.042,-8.0428466796875,-19.213745117188,26.310668945312
0.0425,-2.7176513671875,-22.216674804688,24.028442382812
0.043,2.2471923828125,-24.619018554688,21.626098632812
0.0435,7.0518798828125,-26.060424804688,18.382934570312
0.044,13.578247070312,-27.301635742188,13.297973632812
0.0445,17.261840820312,-26.020385742188,8.4932861328125
0.045,20.785278320312,-25.980346679688,5.0899658203125
0.0455,23.187622070312,-23.457885742188,0.1651611328125
0.046,25.950317382812,-21.255737304688,-4.8397216796875
0.0465,26.671020507812,-16.811401367188,-9.9647216796875
0.047,26.871215820312,-11.806518554688,-15.169799804688
0.0475,26.190551757812,-8.1629638671875,-18.132690429688
0.048,24.989379882812,-3.3983154296875,-21.656127929688
0.0485,22.667114257812,1.0460205078125,-23.738159179688
0.049,20.224731445312,6.0108642578125,-26.220581054688
0.0495,15.139770507812,12.377075195312,-27.421752929688
0.05,9.8546142578125,16.661254882812,-26.300659179688
0.0505,6.6915283203125,19.864379882812,-26.340698242188
0.051,0.7657470703125,22.667114257812,-23.377807617188
0.0515,-4.1190185546875,25.189575195312,-21.135620117188
0.052,-9.1639404296875,26.110473632812,-17.171752929688
0.0525,-15.289916992188,27.071411132812,-12.206909179688
0.053,-18.493041992188,25.790161132812,-7.8426513671875
0.0535,-22.176635742188,25.429809570312,-3.8787841796875
0.054,-24.498901367188,22.506958007812,1.3262939453125
0.0545,-26.981323242188,19.864379882812,6.4512939453125
0.055,-27.221557617188,14.819458007812,11.736450195312
0.0555,-27.221557617188,9.8546142578125,16.661254882812
0.056,-26.580932617188,6.4112548828125,19.463989257812
0.0565,-24.619018554688,0.8858642578125,22.987426757812
0.057,-22.176635742188,-3.8787841796875,25.149536132812
0.0575,-18.773315429688,-9.2440185546875,27.031372070312
0.058,-13.488159179688,-15.129760742188,27.671997070312
0.0585,-8.3231201171875,-18.893432617188,26.230590820312
0.059,-4.8397216796875,-21.896362304688,25.790161132812
0.0595,1.3663330078125,-24.538940429688,22.426879882812
0.06,6.3311767578125,-26.821166992188,19.864379882812
0.0605,11.816528320312,-27.021362304688,14.739379882812
0.061,17.301879882812,-27.661987304688,10.094848632812
0.0615,20.304809570312,-26.260620117188,5.8106689453125
0.062,23.748168945312,-25.019409179688,1.0860595703125
0.0625,25.830200195312,-21.936401367188,-4.0389404296875
0.063,27.872192382812,-18.653198242188,-9.2840576171875
0.0635,27.271606445312,-13.207885742188,-14.208862304688
0.064,26.951293945312,-8.5633544921875,-18.533081054688
0.0645,26.110473632812,-5.2000732421875,-21.095581054688
0.065,23.628051757812,0.6055908203125,-24.258666992188
0.0655,20.985473632812,5.3702392578125,-26.260620117188
0.066,16.541137695312,11.015747070312,-27.421752929688
0.0665,11.696411132812,16.140747070312,-27.702026367188
0.067,6.6915283203125,19.664184570312,-26.220581054688
0.0675,2.6475830078125,22.426879882812,-24.939331054688
0.068,-3.2381591796875,24.909301757812,-21.696166992188
0.0685,-8.2030029296875,26.911254882812,-18.933471679688
0.069,-13.648315429688,26.390747070312,-13.087768554688
0.0695,-18.012573242188,26.751098632812,-9.2840576171875
0.07,-20.975463867188,25.589965820312,-5.2401123046875
0.0705,-24.058471679688,23.668090820312,-0.2752685546875
0.071,-25.940307617188,20.424926757812,4.8497314453125
0.0715,-27.541870117188,16.621215820312,10.214965820312
0.072,-26.941284179688,11.416137695312,14.859497070312
0.0725,-26.420776367188,7.0518798828125,18.623168945312
0.073,-25.419799804688,3.5684814453125,21.105590820312
0.0735,-22.897338867188,-2.1971435546875,24.268676757812
0.074,-20.134643554688,-7.0418701171875,26.310668945312
0.0745,-14.729370117188,-12.767456054688,26.550903320312
0.075,-10.725463867188,-17.091674804688,26.871215820312
0.0755,-5.9608154296875,-20.374877929688,25.389770507812
0.076,-1.5965576171875,-22.777221679688,23.507934570312
0.0765,3.9688720703125,-25.099487304688,20.424926757812
0.077,9.4542236328125,-27.061401367188,17.021606445312
0.0775,14.739379882812,-26.260620117188,11.175903320312
0.078,18.503051757812,-26.500854492188,7.7325439453125
0.0785,21.425903320312,-25.219604492188,3.6885986328125
0.079,24.428833007812,-23.137573242188,-1.4364013671875
0.0795,26.110473632812,-19.654174804688,-6.5614013671875
0.08,27.151489257812,-15.209838867188,-12.046752929688
0.0805,26.630981445312,-10.605346679688,-16.170776367188
0.081,25.910278320312,-6.3612060546875,-19.694213867188
0.0815,24.348754882812,-2.5574951171875,-21.896362304688
0.082,22.026489257812,3.1280517578125,-25.059448242188
0.0825,18.583129882812,8.5733642578125,-27.021362304688
0.083,12.857543945312,14.098754882812,-26.781127929688
0.0835,9.2540283203125,17.822387695312,-26.901245117188
0.084,4.3292236328125,21.105590820312,-25.299682617188
0.0845,-0.6756591796875,23.588012695312,-22.937377929688
0.085,-5.9207763671875,25.589965820312,-19.814331054688
0.0855,-12.086791992188,27.191528320312,-15.410034179688
0.086,-16.531127929688,26.190551757812,-10.164916992188
0.0865,-20.014526367188,26.230590820312,-6.7615966796875
0.087,-22.737182617188,24.308715820312,-2.2371826171875
0.0875,-25.700073242188,22.066528320312,3.0079345703125
0.088,-27.021362304688,17.942504882812,8.3731689453125
0.0885,-27.501831054688,12.777465820312,13.978637695312
0.089,-26.981323242188,8.7735595703125,17.542114257812
0.0895,-26.020385742188,4.2891845703125,21.065551757812
0.09,-23.818237304688,-0.1151123046875,23.187622070312
0.0905,-21.455932617188,-5.4403076171875,25.990356445312
0.091,-16.771362304688,-11.686401367188,27.551879882812
0.0915,-11.085815429688,-16.611206054688,26.751098632812
0.092,-7.8826904296875,-19.814331054688,26.711059570312
0.0925,-2.5574951171875,-22.737182617188,24.388793945312
0.093,2.5675048828125,-25.179565429688,21.866333007812
0.0935,7.6925048828125,-26.580932617188,18.262817382812
0.094,14.379028320312,-27.902221679688,13.097778320312
0.0945,18.022583007812,-26.620971679688,8.3331298828125
0.095,21.626098632812,-26.420776367188,4.6495361328125
0.0955,23.988403320312,-23.738159179688,-0.3553466796875
0.096,26.671020507812,-21.415893554688,-5.4002685546875
0.0965,27.391723632812,-16.691284179688,-10.805541992188
0.097,27.351684570312,-11.446166992188,-16.010620117188
0.0975,26.791137695312,-7.9227294921875,-18.973510742188
0.098,25.309692382812,-2.9979248046875,-22.416870117188
0.0985,22.827270507812,1.6466064453125,-24.458862304688
0.099,20.144653320312,6.7315673828125,-26.781127929688
0.0995,14.859497070312,13.177856445312,-27.902221679688
0.1,9.4141845703125,17.341918945312,-26.620971679688
0.1005,6.2510986328125,20.505004882812,-26.620971679688
0.101,0.4454345703125,23.147583007812,-23.497924804688
0.1015,-4.5194091796875,25.589965820312,-21.175659179688
0.102,-9.6844482421875,26.390747070312,-16.931518554688
0.1025,-15.730346679688,27.191528320312,-11.886596679688
0.103,-18.733276367188,25.990356445312,-7.8026123046875
0.1035,-22.416870117188,25.349731445312,-3.5985107421875
0.104,-24.498901367188,22.506958007812,1.3262939453125
0.1045,-26.861206054688,19.784301757812,6.4112548828125
0.105,-27.181518554688,14.579223632812,11.856567382812
0.1055,-26.901245117188,9.5743408203125,16.581176757812
0.106,-26.540893554688,6.5313720703125,19.263793945312
0.1065,-24.378784179688,1.1260986328125,22.546997070312
0.107,-22.136596679688,-3.3983154296875,24.709106445312
0.1075,-18.653198242188,-8.6834716796875,26.430786132812
0.108,-13.488159179688,-14.769409179688,27.311645507812
0.1085,-8.4432373046875,-18.292846679688,25.790161132812
0.109,-5.0799560546875,-21.415893554688,25.549926757812
0.1095,0.6856689453125,-23.698120117188,22.226684570312
0.11,5.4503173828125,-26.060424804688,19.904418945312
0.1105,11.055786132812,-26.340698242188,14.779418945312
0.111,16.501098632812,-26.941284179688,10.134887695312
0.1115,19.343872070312,-26.020385742188,6.4913330078125
0.112,22.947387695312,-24.659057617188,1.6065673828125
0.1125,24.909301757812,-21.936401367188,-3.0780029296875
0.113,26.871215820312,-18.773315429688,-8.2430419921875
0.1135,26.831176757812,-13.488159179688,-13.448120117188
0.114,26.270629882812,-8.7635498046875,-17.652221679688
0.1145,25.990356445312,-5.8006591796875,-20.334838867188
0.115,23.427856445312,0.0050048828125,-23.377807617188
0.1155,21.225708007812,4.4893798828125,-25.660034179688
0.116,16.621215820312,10.174926757812,-26.661010742188
0.1165,12.016723632812,15.580200195312,-27.421752929688
0.117,7.0919189453125,18.943481445312,-25.940307617188
0.1175,3.0479736328125,22.066528320312,-25.019409179688
0.118,-2.7176513671875,24.348754882812,-21.696166992188
0.1185,-7.6824951171875,26.630981445312,-19.133666992188
0.119,-13.408081054688,26.270629882812,-13.207885742188
0.1195,-17.892456054688,26.630981445312,-9.2840576171875
0.12,-20.815307617188,25.790161132812,-5.6405029296875
0.1205,-24.178588867188,23.828247070312,-0.3153076171875
0.121,-26.020385742188,20.545043945312,4.7696533203125
0.1215,-27.581909179688,16.661254882812,10.214965820312
0.122,-27.261596679688,11.496215820312,15.099731445312
0.1225,-26.540893554688,6.8917236328125,18.943481445312
0.123,-25.820190429688,3.5284423828125,21.586059570312
0.1235,-23.057495117188,-2.4373779296875,24.669067382812
0.124,-20.334838867188,-7.4422607421875,26.831176757812
0.1245,-14.529174804688,-13.328002929688,26.911254882812
0.125,-10.565307617188,-17.772338867188,27.391723632812
0.1255,-5.7205810546875,-21.015502929688,25.790161132812
0.126,-1.1561279296875,-23.658081054688,23.948364257812
0.1265,4.5294189453125,-25.700073242188,20.505004882812
0.127,10.174926757812,-27.742065429688,17.061645507812
0.1275,15.620239257812,-26.901245117188,10.895629882812
0.128,19.383911132812,-26.901245117188,7.2520751953125
0.1285,22.386840820312,-25.660034179688,3.2081298828125
0.129,25.309692382812,-23.457885742188,-2.0770263671875
0.1295,26.871215820312,-19.614135742188,-7.3221435546875
0.13,27.671997070312,-14.969604492188,-12.807495117188
0.1305,27.191528320312,-10.285034179688,-17.051635742188
0.131,26.150512695312,-5.8006591796875,-20.454956054688
0.1315,24.709106445312,-2.0770263671875,-22.697143554688
0.132,22.026489257812,3.5684814453125,-25.579956054688
0.1325,18.543090820312,9.0938720703125,-27.541870117188
0.133,12.497192382812,14.659301757812,-26.941284179688
0.1335,8.9337158203125,18.422973632812,-27.101440429688
0.134,4.0889892578125,21.505981445312,-25.459838867188
0.1345,-1.0360107421875,24.068481445312,-23.057495117188
0.135,-6.1209716796875,25.670043945312,-19.734252929688
0.1355,-12.206909179688,27.391723632812,-15.410034179688
0.136,-16.611206054688,26.270629882812,-10.124877929688
0.1365,-20.174682617188,26.070434570312,-6.5213623046875
0.137,-22.737182617188,24.388793945312,-2.3572998046875
0.1375,-25.619995117188,22.106567382812,2.8477783203125
0.138,-26.861206054688,17.942504882812,8.2130126953125
0.1385,-27.181518554688,12.817504882812,13.618286132812
0.139,-26.941284179688,8.9737548828125,17.301879882812
0.1395,-25.780151367188,4.4093017578125,20.745239257812
0.14,-23.978393554688,0.2452392578125,22.987426757812
0.1405,-21.495971679688,-4.9998779296875,25.589965820312
0.141,-17.011596679688,-11.205932617188,27.271606445312
0.1415,-11.245971679688,-16.050659179688,26.350708007812
0.142,-8.0028076171875,-19.453979492188,26.550903320312
0.1425,-3.0780029296875,-22.296752929688,24.428833007812
0.143,2.2471923828125,-25.019409179688,22.066528320312
0.1435,7.1719970703125,-26.220581054688,18.422973632812
0.144,13.778442382812,-27.581909179688,13.338012695312
0.1445,17.542114257812,-26.580932617188,8.7335205078125
0.145,21.385864257812,-26.300659179688,4.7296142578125
0.1455,23.748168945312,-24.058471679688,0.1651611328125
0.146,26.430786132812,-21.656127929688,-4.9598388671875
0.1465,27.271606445312,-16.931518554688,-10.525268554688
0.147,27.151489257812,-11.566284179688,-15.690307617188
0.1475,26.911254882812,-8.2030029296875,-18.853393554688
0.148,25.349731445312,-3.0780029296875,-22.376831054688
0.1485,23.187622070312,1.5665283203125,-24.699096679688
0.149,20.344848632812,6.5313720703125,-26.781127929688
0.1495,15.179809570312,13.137817382812,-28.182495117188
0.15,9.5343017578125,17.421997070312,-26.741088867188
0.1505,6.1710205078125,20.865356445312,-26.901245117188
0.151,0.3253173828125,23.547973632812,-23.818237304688
0.1515,-4.7596435546875,26.190551757812,-21.536010742188
0.152,-9.9647216796875,26.791137695312,-17.091674804688
0.1525,-16.170776367188,27.591918945312,-11.926635742188
0.153,-19.333862304688,26.390747070312,-7.7225341796875
0.1535,-23.297729492188,25.710083007812,-3.1180419921875
0.154,-25.339721679688,22.907348632812,1.7667236328125
0.1545,-27.581909179688,20.064575195312,6.8917236328125
0.155,-27.902221679688,14.739379882812,12.497192382812
0.1555,-27.421752929688,9.3341064453125,17.341918945312
0.156,-27.101440429688,6.2510986328125,20.184692382812
0.1565,-24.819213867188,0.4854736328125,23.547973632812
0.157,-22.536987304688,-4.1590576171875,25.790161132812
0.1575,-18.733276367188,-9.3641357421875,27.191528320312
0.158,-13.448120117188,-15.530151367188,28.032348632812
0.1585,-8.0828857421875,-19.173706054688,26.310668945312
0.159,-4.5194091796875,-22.456909179688,26.030395507812
0.1595,1.2862548828125,-24.699096679688,22.627075195312
0.16,6.2110595703125,-27.061401367188,20.184692382812
0.1605,11.816528320312,-27.101440429688,14.779418945312
0.161,17.381958007812,-27.621948242188,9.8946533203125
0.1615,20.264770507812,-26.580932617188,6.0909423828125
0.162,24.028442382812,-25.059448242188,0.9659423828125
0.1625,25.870239257812,-22.256713867188,-3.7586669921875
0.163,27.551879882812,-18.893432617188,-8.8035888671875
0.1635,27.511840820312,-13.448120117188,-14.128784179688
0.164,26.711059570312,-8.4432373046875,-18.332885742188
0.1645,26.430786132812,-5.4002685546875,-21.135620117188
0.165,23.748168945312,0.3653564453125,-24.098510742188
0.1655,21.505981445312,4.9698486328125,-26.340698242188
0.166,16.741333007812,10.415161132812,-27.021362304688
0.1665,12.016723632812,15.980590820312,-27.782104492188
0.167,7.0118408203125,19.343872070312,-26.180541992188
0.1675,2.6876220703125,22.587036132812,-25.139526367188
0.168,-2.8778076171875,24.709106445312,-21.936401367188
0.1685,-7.8026123046875,26.871215820312,-19.293823242188
0.169,-13.408081054688,26.390747070312,-13.328002929688
0.1695,-17.972534179688,26.590942382812,-9.1239013671875
0.17,-20.895385742188,25.910278320312,-5.6405029296875
0.1705,-24.338745117188,23.828247070312,-0.1951904296875
0.171,-26.140502929688,20.785278320312,4.6895751953125
0.1715,-27.421752929688,16.821411132812,9.9346923828125
0.172,-27.221557617188,11.656372070312,14.899536132812
0.1725,-26.340698242188,6.9718017578125,18.703247070312
0.173,-25.780151367188,3.5684814453125,21.546020507812
0.1735,-23.097534179688,-2.1971435546875,24.468872070312
0.174,-20.615112304688,-7.0819091796875,26.831176757812
0.1745,-14.809448242188,-12.807495117188,26.630981445312
0.175,-10.765502929688,-17.452026367188,27.231567382812
0.1755,-6.0008544921875,-20.655151367188,25.750122070312
0.176,-1.1961669921875,-23.578002929688,23.948364257812
0.1765,4.2491455078125,-25.619995117188,20.665161132812
0.177,9.7344970703125,-27.702026367188,17.381958007812
0.1775,15.219848632812,-26.821166992188,11.215942382812
0.178,19.183715820312,-26.781127929688,7.3721923828125
