wavelength,x,y,z
0.0,4.64453125,-2.3623046875,-2.6826171875
0.0005,4.564453125,-1.8017578125,-3.2431640625
0.001,4.0439453125,-0.640625,-5.125
0.0015,3.8037109375,0.16015625,-4.404296875
0.002,2.802734375,1.3212890625,-4.404296875
0.0025,2.3623046875,2.001953125,-4.64453125
0.003,1.3212890625,3.2431640625,-4.8046875
0.0035,0.5205078125,3.603515625,-4.3642578125
0.004,-0.3603515625,4.2841796875,-4.1640625
0.0045,-1.2412109375,4.484375,-3.5234375
0.005,-2.0419921875,4.6845703125,-2.9228515625
0.0055,-3.1630859375,4.8447265625,-1.9619140625
0.006,-4.083984375,4.884765625,-1.1611328125
0.0065,-4.32421875,4.1640625,-0.2001953125
0.007,-4.8447265625,4.1640625,0.3603515625
0.0075,-4.7646484375,3.203125,1.2412109375
0.008,-4.884765625,2.6826171875,1.841796875
0.0085,-5.0048828125,1.6015625,2.962890625
0.009,-4.6845703125,0.880859375,3.36328125
0.0095,-4.244140625,-0.240234375,3.923828125
0.01,-3.8037109375,-1.0009765625,4.3642578125
0.0105,-2.9228515625,-1.9619140625,4.4443359375
0.011,-2.3623046875,-2.802734375,4.564453125
0.0115,-1.44140625,-5.125,4.724609375
0.012,-0.560546875,-4.083984375,4.0439453125
0.0125,0.080078125,-4.724609375,4.0439453125
0.013,1.041015625,-4.8046875,3.203125
0.0135,1.8017578125,-5.044921875,2.7626953125
0.014,2.8828125,-5.1650390625,1.76171875
0.0145,3.5634765625,-5.0849609375,1.041015625
0.015,3.8837890625,-4.484375,0.16015625
0.0155,4.244140625,-4.404296875,-0.3603515625
0.016,4.2041015625,-3.443359375,-1.2412109375
0.0165,4.3642578125,-3.04296875,-1.8818359375
0.017,4.5244140625,-2.08203125,-2.9228515625
0.0175,4.083984375,-2.5625,-3.2431640625
0.018,2.5625,-0.2802734375,-3.923828125
0.0185,3.1630859375,0.640625,-4.083984375
0.019,1.28125,1.44140625,-4.32421875
0.0195,1.841796875,2.322265625,-4.484375
0.02,1.12109375,3.203125,-4.564453125
0.0205,0.1201171875,3.5234375,-3.8837890625
0.021,-0.4404296875,4.1640625,-3.9638671875
0.0215,-1.521484375,4.2041015625,-3.0029296875
0.022,-2.2021484375,4.5244140625,-2.6025390625
0.0225,-3.3232421875,4.64453125,-1.6015625
0.023,-3.8037109375,4.404296875,-0.9208984375
0.0235,-4.2041015625,4.00390625,-0.1201171875
0.024,-4.484375,3.68359375,0.48046875
0.0245,-4.484375,2.8427734375,1.3212890625
0.025,-4.6044921875,2.2421875,1.9619140625
0.0255,-4.8046875,1.44140625,2.9228515625
0.026,-4.1240234375,0.5205078125,3.2431640625
0.0265,-4.1240234375,-0.2802734375,3.923828125
0.027,-3.1630859375,-2.5625,4.00390625
0.0275,-2.802734375,-2.0419921875,4.32421875
0.028,-1.921875,-2.962890625,4.3642578125
0.0285,-1.2412109375,-3.6435546875,4.32421875
0.029,-0.3603515625,-3.9638671875,3.763671875
0.0295,0.2001953125,-4.484375,3.7236328125
0.03,0.0,-4.564453125,2.72265625
0.0305,1.921875,-4.8046875,2.40234375
0.031,2.962890625,-4.96484375,1.4814453125
0.0315,3.2431640625,-4.484375,0.7607421875
0.032,3.7236328125,-4.32421875,0.1201171875
0.0325,3.8037109375,-3.8037109375,-0.560546875
0.033,4.00390625,-3.203125,-2.5625
0.0335,4.0439453125,-2.5224609375,-2.0419921875
0.034,4.2041015625,-1.841796875,-2.802734375
0.0345,3.5234375,-0.80078125,-3.123046875
0.035,3.5634765625,-0.16015625,-3.763671875
0.0355,1.28125,0.8408203125,-3.763671875
0.036,2.322265625,1.4814453125,-4.1240234375
0.0365,1.4814453125,2.482421875,-4.2041015625
0.037,0.80078125,2.962890625,-3.9638671875
0.0375,0.0400390625,3.4033203125,-3.68359375
0.038,-0.640625,3.8037109375,-3.36328125
0.0385,-1.6015625,3.9638671875,-2.6025390625
0.039,-2.2822265625,4.1640625,-2.162109375
0.0395,-3.203125,4.32421875,-1.4013671875
0.04,-3.443359375,3.8037109375,-0.6806640625
0.0405,-3.9638671875,3.8037109375,-0.240234375
0.041,-3.9638671875,3.0029296875,0.6005859375
0.0415,-4.244140625,2.6025390625,1.201171875
0.042,-4.32421875,1.8818359375,2.0419921875
0.0425,-4.32421875,1.3212890625,2.642578125
0.043,-3.763671875,0.2802734375,3.0830078125
0.0435,-3.68359375,-0.3603515625,3.603515625
0.044,-2.802734375,-1.4013671875,3.7236328125
0.0445,-3.84375,-2.0419921875,4.0439453125
0.045,-1.76171875,-2.9228515625,4.1240234375
0.0455,-1.0009765625,-3.3232421875,3.8037109375
0.046,-0.4404296875,-5.125,3.7236328125
0.0465,0.48046875,-4.1240234375,3.0830078125
0.047,1.3212890625,-4.404296875,2.6025390625
0.0475,2.0419921875,-4.5244140625,1.9619140625
0.048,2.72265625,-4.6044921875,1.361328125
0.0485,2.962890625,-4.1240234375,0.640625
0.049,3.443359375,-4.1640625,0.2001953125
0.0495,3.4833984375,-3.283203125,-0.7607421875
0.05,3.8037109375,-3.0029296875,-1.2412109375
0.0505,3.8837890625,-2.162109375,-2.162109375
0.051,3.7236328125,-1.521484375,-2.6025390625
0.0515,3.3232421875,-0.560546875,-3.1630859375
0.052,3.0029296875,0.16015625,-3.4833984375
0.0525,2.322265625,1.0810546875,-3.7236328125
0.053,1.9619140625,1.7216796875,-3.9638671875
0.0535,1.2412109375,1.28125,-4.00390625
0.054,0.4404296875,2.8828125,-3.5634765625
0.0545,-0.1201171875,3.4833984375,-3.603515625
0.055,-1.201171875,3.68359375,-2.72265625
0.0555,-1.841796875,3.9638671875,-2.40234375
0.056,-2.642578125,4.00390625,-1.681640625
0.0565,-3.1630859375,3.923828125,-1.12109375
0.057,-3.4833984375,3.5234375,-0.48046875
0.0575,-3.8037109375,3.36328125,0.0400390625
0.058,-3.923828125,1.28125,1.0009765625
0.0585,-4.1240234375,2.2822265625,1.4814453125
0.059,-4.244140625,1.521484375,2.322265625
0.0595,-5.125,0.6806640625,2.72265625
0.06,-3.68359375,-0.1201171875,3.36328125
0.0605,-3.04296875,-1.0009765625,3.5634765625
0.061,-3.84375,-1.76171875,3.8837890625
0.0615,-2.001953125,-2.482421875,3.9638671875
0.062,-1.3212890625,-3.1630859375,3.9638671875
0.0625,-0.6005859375,-3.5234375,3.5234375
0.063,0.0400390625,-4.083984375,3.5234375
0.0635,1.1611328125,-4.2041015625,1.28125
0.064,1.7216796875,-4.5244140625,2.2822265625
0.0645,1.28125,-4.6044921875,1.44140625
0.065,2.9228515625,-4.3642578125,0.880859375
0.0655,3.283203125,-4.083984375,0.240234375
0.066,3.5234375,-3.603515625,-0.3603515625
0.0665,3.7236328125,-2.9228515625,-1.2412109375
0.067,3.8037109375,-2.4423828125,-1.841796875
0.0675,3.923828125,-1.6416015625,-2.6826171875
0.068,3.3232421875,-0.6806640625,-3.0029296875
0.0685,3.2431640625,0.0400390625,-3.5634765625
0.069,2.322265625,1.0009765625,-3.68359375
0.0695,2.08203125,1.681640625,-4.0439453125
0.07,0.0,2.40234375,-3.9638671875
0.0705,0.5205078125,3.04296875,-5.125
0.071,-0.240234375,3.3232421875,-3.36328125
0.0715,-0.9609375,3.8037109375,-3.123046875
0.072,-2.0419921875,3.9638671875,-2.2021484375
0.0725,-3.84375,4.083984375,-1.8818359375
0.073,-3.2431640625,4.00390625,-1.12109375
0.0735,-3.5234375,3.603515625,-0.48046875
0.074,-3.8837890625,3.4033203125,0.1201171875
0.0745,-3.9638671875,2.72265625,0.9208984375
0.075,-4.2041015625,2.2421875,1.6416015625
0.0755,-4.1240234375,1.521484375,2.2421875
0.076,-4.1640625,0.8408203125,2.9228515625
0.0765,-3.4833984375,-0.16015625,3.203125
0.077,-3.36328125,-0.80078125,3.7236328125
0.0775,-2.40234375,-1.921875,2.5625
0.078,-2.1220703125,-2.482421875,4.1240234375
0.0785,-2.5625,-3.203125,3.923828125
0.079,-0.6005859375,-3.68359375,3.7236328125
0.0795,0.080078125,-4.00390625,3.36328125
0.08,1.0009765625,-4.404296875,2.8427734375
0.0805,1.9619140625,-4.6845703125,2.08203125
0.081,2.482421875,-4.64453125,1.6015625
0.0815,3.2431640625,-4.64453125,0.880859375
0.082,3.36328125,-4.0439453125,0.2001953125
0.0825,3.763671875,-3.8837890625,-0.3603515625
0.083,2.5625,-2.9228515625,-1.361328125
0.0835,4.1240234375,-3.84375,-2.001953125
0.084,3.8837890625,-1.6416015625,-2.6826171875
0.0845,2.5625,-0.9208984375,-3.3232421875
0.085,3.04296875,0.16015625,-3.5234375
0.0855,2.8427734375,0.8408203125,-3.9638671875
0.086,1.841796875,2.001953125,-4.1240234375
0.0865,1.44140625,1.28125,-4.2041015625
0.087,0.48046875,3.2431640625,-3.9638671875
0.0875,-0.2802734375,3.603515625,-3.6435546875
0.088,-1.0009765625,3.9638671875,-3.203125
0.0885,-2.0419921875,4.1640625,-2.4423828125
0.089,-3.04296875,4.404296875,-1.7216796875
0.0895,-3.4033203125,4.083984375,-1.041015625
0.09,-4.0439453125,4.0439453125,-0.3603515625
0.0905,-4.1240234375,3.36328125,0.3603515625
0.091,-4.3642578125,3.0830078125,0.9208984375
0.0915,-4.484375,2.08203125,2.001953125
0.092,-4.484375,1.6015625,2.5224609375
0.0925,-4.1640625,0.640625,3.1630859375
0.093,-3.8837890625,-0.16015625,3.6435546875
0.0935,-3.203125,-1.12109375,3.8837890625
0.094,-2.72265625,-1.921875,4.1640625
0.0945,-1.921875,-2.962890625,4.3642578125
0.095,-2.5625,-3.3232421875,4.083984375
0.0955,-0.48046875,-4.0439453125,4.00390625
0.096,0.2802734375,-4.2841796875,3.4833984375
0.0965,1.0009765625,-4.64453125,3.123046875
0.097,2.1220703125,-4.884765625,2.1220703125
0.0975,2.9228515625,-5.044921875,1.4814453125
0.098,3.36328125,-4.564453125,0.720703125
0.0985,3.8837890625,-4.484375,0.16015625
0.099,3.923828125,-3.763671875,-0.640625
0.0995,4.1640625,-3.4033203125,-1.2412109375
0.1,4.3642578125,-2.40234375,-2.3623046875
0.1005,4.2041015625,-1.841796875,-2.802734375
0.101,3.923828125,-0.7607421875,-3.5634765625
0.1015,3.5234375,0.080078125,-3.9638671875
0.102,2.802734375,1.0009765625,-4.1640625
0.1025,2.2021484375,1.921875,-4.404296875
0.103,1.4013671875,3.0029296875,-4.6044921875
0.1035,0.5205078125,3.36328125,-4.1240234375
0.104,-0.240234375,4.083984375,-4.083984375
0.1045,-1.12109375,4.1640625,-3.3232421875
0.105,-1.921875,4.484375,-2.8828125
0.1055,-3.1630859375,4.64453125,-1.8818359375
0.106,-3.8837890625,4.6845703125,-1.12109375
0.1065,-4.2041015625,4.1240234375,-0.2001953125
0.107,-4.724609375,4.00390625,0.400390625
0.1075,-4.64453125,3.0830078125,1.2412109375
0.108,-4.7646484375,2.5224609375,1.8818359375
0.1085,-4.96484375,1.5615234375,3.04296875
0.109,-4.484375,0.720703125,3.36328125
0.1095,-4.244140625,-0.240234375,4.00390625
0.11,-3.5634765625,-1.201171875,4.244140625
0.1105,-2.8828125,-2.0419921875,4.404296875
0.111,-2.08203125,-3.0029296875,4.5244140625
0.1115,-2.5625,-3.8837890625,4.64453125
0.112,-0.3203125,-4.1640625,3.923828125
0.1125,0.240234375,-4.8046875,3.923828125
0.113,1.2412109375,-4.8447265625,3.0029296875
0.1135,1.9619140625,-5.0849609375,1.28125
0.114,3.203125,-5.2451171875,1.521484375
0.1145,3.68359375,-4.96484375,0.80078125
0.115,4.1240234375,-4.5244140625,0.0400390625
0.1155,4.3642578125,-4.2041015625,-0.6005859375
0.116,4.3642578125,-3.36328125,-1.4013671875
0.1165,4.4443359375,-2.7626953125,-2.1220703125
0.117,4.64453125,-1.8818359375,-3.203125
0.1175,4.00390625,-0.9208984375,-3.5234375
0.118,3.923828125,-0.0400390625,-4.244140625
0.1185,3.0029296875,1.0009765625,-4.2841796875
0.119,2.5224609375,1.76171875,-4.5244140625
0.1195,1.6015625,2.802734375,-4.64453125
0.12,0.80078125,3.603515625,-4.64453125
0.1205,-0.240234375,3.923828125,-3.9638671875
0.121,-0.8408203125,4.5244140625,-3.9638671875
0.1215,-2.001953125,4.5244140625,-2.8427734375
0.122,-2.6826171875,4.8046875,-2.40234375
0.1225,-3.9638671875,5.0048828125,-2.5625
0.123,-4.32421875,4.5244140625,-0.48046875
0.1235,-4.7646484375,4.1640625,0.3203125
0.124,-4.9248046875,3.603515625,1.0009765625
0.1245,-4.96484375,2.72265625,1.8818359375
0.125,-4.96484375,1.9619140625,2.6025390625
0.1255,-5.0849609375,1.12109375,3.603515625
0.126,-4.244140625,-0.0400390625,3.8837890625
0.1265,-4.1640625,-0.80078125,4.5244140625
0.127,-3.04296875,-1.9619140625,4.5244140625
0.1275,-2.5224609375,-2.6826171875,4.6845703125
0.128,-1.5615234375,-3.763671875,4.724609375
0.1285,-0.640625,-4.4443359375,4.484375
0.129,0.240234375,-4.6845703125,3.8837890625
0.1295,0.9208984375,-5.1650390625,3.603515625
0.13,2.1220703125,-5.1650390625,2.482421875
0.1305,2.6826171875,-5.2451171875,2.001953125
0.131,2.5625,-5.365234375,1.041015625
0.1315,4.00390625,-4.6845703125,0.2001953125
0.132,4.4443359375,-4.484375,-0.400390625
0.1325,4.484375,-3.68359375,-1.2412109375
0.133,4.5244140625,-2.962890625,-2.001953125
0.1335,4.5244140625,-2.162109375,-2.802734375
0.134,4.564453125,-2.5625,-3.6435546875
0.1345,3.7236328125,-0.16015625,-3.923828125
0.135,3.603515625,0.5205078125,-4.484375
0.1355,2.4423828125,1.681640625,-4.4443359375
0.136,2.08203125,2.322265625,-4.64453125
0.1365,1.041015625,3.36328125,-4.724609375
0.137,0.080078125,3.8837890625,-4.32421875
0.1375,-0.640625,4.244140625,-3.8837890625
0.138,-1.5615234375,4.6845703125,-3.36328125
0.1385,-2.72265625,4.8046875,-2.322265625
0.139,-3.3232421875,4.8447265625,-1.841796875
0.1395,-4.32421875,4.9248046875,-0.9208984375
0.14,-4.484375,4.1640625,0.0400390625
0.1405,-4.9248046875,4.00390625,0.6005859375
0.141,-4.9248046875,2.9228515625,1.6416015625
0.1415,-5.044921875,2.3623046875,2.322265625
0.142,-4.96484375,1.4013671875,3.123046875
0.1425,-4.8046875,0.560546875,3.8837890625
0.143,-3.9638671875,-0.6005859375,4.083984375
0.1435,-3.763671875,-1.3212890625,4.564453125
0.144,-2.482421875,-2.642578125,4.564453125
0.1445,-2.0419921875,-3.203125,4.6845703125
0.145,-1.041015625,-4.1640625,4.564453125
0.1455,-0.1201171875,-4.484375,4.0439453125
0.146,0.6005859375,-4.8447265625,3.7236328125
0.1465,1.6416015625,-6.40625,2.9228515625
0.147,2.6025390625,-5.205078125,2.08203125
0.1475,3.203125,-6.40625,1.44140625
0.148,3.923828125,-5.0849609375,0.640625
0.1485,4.00390625,-4.2841796875,-0.240234375
0.149,4.3642578125,-4.1640625,-0.6806640625
0.1495,4.3642578125,-2.962890625,-1.8017578125
0.15,4.484375,-3.84375,-2.322265625
0.1505,4.3642578125,-1.5615234375,-3.1630859375
0.151,4.0439453125,-0.7607421875,-3.68359375
0.1515,3.36328125,0.2802734375,-3.9638671875
0.152,3.0029296875,1.0009765625,-4.2841796875
0.1525,1.9619140625,2.08203125,-4.4443359375
0.153,1.6015625,2.6025390625,-4.484375
0.1535,0.640625,3.5634765625,-4.404296875
0.154,-0.3203125,3.8837890625,-3.8037109375
0.1545,-0.9609375,4.32421875,-3.603515625
0.155,-2.1220703125,4.5244140625,-2.642578125
0.1555,-2.8427734375,4.64453125,-2.08203125
0.156,-3.5234375,4.5244140625,-2.5625
0.1565,-4.1240234375,4.4443359375,-0.6005859375
0.157,-4.32421875,3.763671875,0.240234375
0.1575,-4.64453125,3.5634765625,0.720703125
0.158,-4.6845703125,2.4423828125,1.8818359375
0.1585,-4.7646484375,2.0419921875,2.322265625
0.159,-4.64453125,1.041015625,3.2431640625
0.1595,-4.2041015625,0.16015625,3.6435546875
0.16,-3.68359375,-0.8408203125,4.0439453125
0.1605,-3.04296875,-1.76171875,4.244140625
0.161,-2.2822265625,-2.802734375,4.484375
0.1615,-1.6416015625,-3.2431640625,4.3642578125
0.162,-0.80078125,-4.083984375,4.2841796875
0.1625,0.080078125,-4.2841796875,3.6435546875
0.163,0.6806640625,-4.724609375,3.4833984375
0.1635,1.9619140625,-4.8447265625,2.322265625
0.164,1.28125,-5.0048828125,1.9619140625
0.1645,3.203125,-4.8046875,1.0810546875
0.165,3.68359375,-4.6044921875,0.4404296875
0.1655,3.8037109375,-3.9638671875,-0.2802734375
0.166,4.00390625,-3.603515625,-0.880859375
0.1665,4.1640625,-2.6826171875,-1.921875
0.167,4.083984375,-2.2421875,-2.322265625
0.1675,4.0439453125,-1.2412109375,-3.1630859375
0.168,3.443359375,-0.3603515625,-3.4833984375
0.1685,3.1630859375,0.400390625,-3.8837890625
0.169,2.322265625,1.361328125,-4.00390625
0.1695,1.8818359375,2.2021484375,-4.32421875
0.17,1.12109375,2.72265625,-4.083984375
0.1705,0.3603515625,3.4033203125,-4.00390625
0.171,-0.48046875,3.6435546875,-3.443359375
0.1715,-1.1611328125,4.1240234375,-3.203125
0.172,-2.3623046875,4.244140625,-2.162109375
0.1725,-2.802734375,4.3642578125,-1.841796875
0.173,-3.5234375,4.1640625,-0.9609375
0.1735,-3.8037109375,3.8837890625,-0.3603515625
0.174,-4.1240234375,3.4833984375,0.3203125
0.1745,-4.2041015625,2.8427734375,1.0009765625
0.175,-4.484375,2.2421875,1.8818359375
0.1755,-4.2841796875,1.5615234375,2.322265625
0.176,-4.32421875,0.80078125,3.123046875
0.1765,-3.603515625,-0.2802734375,3.36328125
0.177,-3.443359375,-1.0009765625,3.8837890625
0.1775,-2.482421875,-2.001953125,4.00390625
0.178,-2.162109375,-2.6025390625,4.2041015625
0.1785,-2.5625,-3.203125,3.923828125
0.179,-0.6005859375,-3.8037109375,3.8837890625
0.1795,0.16015625,-4.00390625,3.36328125
0.18,0.9208984375,-4.404296875,2.962890625
0.1805,1.9619140625,-4.6044921875,2.08203125
0.181,2.40234375,-4.6044921875,1.681640625
0.1815,3.0830078125,-4.484375,0.9609375
0.182,3.203125,-4.00390625,0.3203125
0.1825,3.603515625,-3.8037109375,-0.2802734375
0.183,3.6435546875,-3.04296875,-1.12109375
0.1835,3.9638671875,-2.642578125,-1.76171875
0.184,3.7236328125,-1.8017578125,-2.322265625
0.1845,3.7236328125,-1.201171875,-3.04296875
0.185,2.962890625,-0.16015625,-3.2431640625
0.1855,2.8828125,0.5205078125,-3.7236328125
0.186,1.9619140625,1.6015625,-5.125
0.1865,1.681640625,2.08203125,-4.083984375
0.187,0.80078125,2.7626953125,-5.125
0.1875,0.16015625,3.203125,-3.6435546875
0.188,-0.6005859375,3.5634765625,-3.2431640625
0.1885,-1.521484375,3.8837890625,-2.642578125
0.189,-2.40234375,4.1640625,-2.0419921875
0.1895,-2.8427734375,3.923828125,-1.44140625
0.19,-3.443359375,4.00390625,-0.880859375
0.1905,-3.6435546875,3.4033203125,-0.1201171875
0.191,-3.9638671875,3.203125,0.4404296875
0.1915,-4.083984375,2.322265625,1.361328125
0.192,-4.32421875,1.8818359375,1.841796875
0.1925,-4.00390625,1.0009765625,2.5224609375
0.193,-3.8837890625,0.3203125,3.0830078125
0.1935,-3.203125,-0.640625,3.4033203125
0.194,-2.9228515625,-1.3212890625,3.8037109375
0.1945,-2.2021484375,-2.322265625,4.00390625
0.195,-1.681640625,-2.7626953125,3.8837890625
0.1955,-0.9609375,-3.443359375,2.5625
0.196,-0.240234375,-3.763671875,3.443359375
0.1965,0.48046875,-4.1240234375,3.1630859375
0.197,1.4814453125,-4.32421875,2.322265625
0.1975,2.2421875,-4.6044921875,1.8818359375
0.198,2.642578125,-4.2841796875,1.1611328125
0.1985,3.1630859375,-4.32421875,0.6806640625
0.199,3.2431640625,-3.6435546875,-0.080078125
0.1995,3.5634765625,-3.443359375,-0.6005859375
0.2,3.8837890625,-2.6025390625,-1.681640625
0.2005,2.5625,-2.2421875,-2.0419921875
0.201,3.68359375,-2.5625,-2.7626953125
0.2015,3.3232421875,-0.5205078125,-3.1630859375
0.202,2.802734375,0.3603515625,-3.5234375
0.2025,2.2822265625,1.201171875,-3.8037109375
0.203,1.76171875,2.08203125,-4.1240234375
0.2035,1.041015625,2.5224609375,-3.8037109375
0.204,0.3603515625,3.2431640625,-5.125
0.2045,-0.4404296875,3.4833984375,-3.2431640625
0.205,-1.1611328125,3.8837890625,-3.0029296875
0.2055,-2.2822265625,4.1240234375,-2.08203125
0.206,-2.9228515625,4.1640625,-1.5615234375
0.2065,-3.36328125,2.5625,-0.7607421875
0.207,-3.8037109375,3.763671875,-0.2802734375
0.2075,-3.8837890625,3.0830078125,0.48046875
0.208,-4.1240234375,2.642578125,1.1611328125
0.2085,-4.3642578125,1.921875,2.0419921875
0.209,-4.00390625,1.3212890625,2.4423828125
0.2095,-4.00390625,0.400390625,3.203125
0.21,-3.4033203125,-0.48046875,3.443359375
0.2105,-3.0029296875,-2.5625,3.8037109375
0.211,-2.2822265625,-2.2021484375,3.9638671875
0.2115,-1.7216796875,-2.962890625,4.1240234375
0.212,-0.9208984375,-3.3232421875,3.68359375
0.2125,-0.400390625,-3.923828125,3.7236328125
0.213,0.5205078125,-4.083984375,3.04296875
0.2135,1.2412109375,-4.4443359375,2.6826171875
0.214,2.322265625,-4.64453125,1.8017578125
0.2145,2.7626953125,-4.484375,1.2412109375
0.215,3.2431640625,-4.2841796875,0.5205078125
0.2155,3.4833984375,-3.9638671875,0.0400390625
0.216,3.603515625,-3.443359375,-0.7607421875
0.2165,3.8037109375,-2.8427734375,-1.44140625
0.217,4.083984375,-2.162109375,-2.2822265625
0.2175,3.603515625,-1.3212890625,-2.6826171875
0.218,3.6435546875,-0.6005859375,-3.443359375
0.2185,2.802734375,0.3603515625,-3.5234375
0.219,1.28125,1.041015625,-3.9638671875
0.2195,1.76171875,2.08203125,-4.1240234375
0.22,1.1611328125,2.72265625,-4.1640625
0.2205,0.2802734375,3.203125,-3.763671875
0.221,-0.3203125,3.8037109375,-3.68359375
0.2215,-1.3212890625,3.923828125,-2.8828125
0.222,-2.08203125,4.244140625,-2.4423828125
0.2225,-3.2431640625,4.5244140625,-1.5615234375
0.223,-3.5634765625,4.083984375,-0.80078125
0.2235,-4.083984375,3.9638671875,-0.2001953125
0.224,-4.2041015625,3.283203125,0.48046875
0.2245,-4.404296875,2.72265625,1.2412109375
0.225,-4.484375,1.9619140625,2.08203125
0.2255,-4.64453125,1.3212890625,2.9228515625
0.226,-3.9638671875,0.2802734375,3.283203125
0.2265,-3.9638671875,-0.48046875,3.923828125
0.227,-2.8828125,-1.4814453125,3.923828125
0.2275,-3.84375,-2.2021484375,4.244140625
0.228,-1.6416015625,-3.2431640625,4.3642578125
