wavelength,x,y,z
0.0,5.5654296875,-0.80078125,-5.7255859375
0.0005,5.365234375,-2.001953125,-4.6044921875
0.001,5.2451171875,-3.36328125,-3.36328125
0.0015,5.0048828125,-4.564453125,-2.2421875
0.002,4.7646484375,-5.28515625,-1.3212890625
0.0025,4.083984375,-5.6455078125,-0.5205078125
0.003,3.04296875,-5.8056640625,0.720703125
0.0035,1.921875,-6.1259765625,2.08203125
0.004,0.640625,-6.2861328125,3.5234375
0.0045,-0.2802734375,-6.486328125,4.564453125
0.005,-1.0009765625,-6.56640625,5.365234375
0.0055,-2.0419921875,-5.845703125,5.8857421875
0.006,-3.36328125,-4.7646484375,6.24609375
0.0065,-4.564453125,-3.5634765625,6.56640625
0.007,-5.4052734375,-2.40234375,6.56640625
0.0075,-5.8056640625,-1.6015625,6.5263671875
0.008,-5.845703125,-0.8408203125,6.0859375
0.0085,-5.6455078125,0.16015625,5.205078125
0.009,-5.60546875,1.28125,4.2841796875
0.0095,-5.4853515625,2.642578125,3.04296875
0.01,-5.205078125,3.7236328125,2.001953125
0.0105,-4.96484375,4.4443359375,1.201171875
0.011,-4.244140625,4.7646484375,0.2802734375
0.0115,-3.203125,5.0048828125,-1.0009765625
0.012,-2.08203125,5.365234375,-2.40234375
0.0125,-1.0009765625,5.5654296875,-3.68359375
0.013,-0.2802734375,5.8056640625,-4.64453125
0.0135,0.6005859375,5.7255859375,-5.4453125
0.014,1.7216796875,4.9248046875,-5.845703125
0.0145,2.962890625,3.8837890625,-6.2861328125
0.015,4.1240234375,2.6826171875,-6.5263671875
0.0155,4.884765625,1.681640625,-6.56640625
0.016,5.2451171875,0.9609375,-6.5263671875
0.0165,5.2451171875,0.1201171875,-5.9658203125
0.017,5.0849609375,-0.9609375,-5.1650390625
0.0175,5.0849609375,-2.2021484375,-4.2041015625
0.018,4.96484375,-3.36328125,-3.04296875
0.0185,4.8046875,-4.32421875,-2.1220703125
0.019,4.484375,-4.96484375,-1.3212890625
0.0195,3.7236328125,-5.28515625,-0.400390625
0.02,2.72265625,-5.6455078125,0.9208984375
0.0205,1.6015625,-5.92578125,2.322265625
0.021,0.6806640625,-6.2060546875,3.4833984375
0.0215,0.0,-6.486328125,4.4443359375
0.022,-1.0009765625,-6.2060546875,5.0849609375
0.0225,-2.2021484375,-5.3251953125,5.60546875
0.023,-3.4833984375,-4.3642578125,6.0458984375
0.0235,-4.5244140625,-3.203125,6.24609375
0.024,-5.1650390625,-2.322265625,6.3662109375
0.0245,-5.4453125,-1.681640625,6.2060546875
0.025,-5.4453125,-0.8408203125,5.60546875
0.0255,-5.365234375,0.240234375,4.8046875
0.026,-5.4052734375,1.5615234375,3.84375
0.0265,-5.2451171875,2.72265625,2.7626953125
0.027,-5.0849609375,3.603515625,1.9619140625
0.0275,-4.64453125,4.1240234375,1.12109375
0.028,-3.84375,4.484375,0.1201171875
0.0285,-2.9228515625,4.9248046875,-1.2412109375
0.029,-1.841796875,5.2451171875,-2.6025390625
0.0295,-1.041015625,5.5654296875,-3.7236328125
0.03,-0.3603515625,5.765625,-4.6044921875
0.0305,0.7607421875,5.3251953125,-5.205078125
0.031,1.921875,4.4443359375,-5.7255859375
0.0315,3.1630859375,3.4033203125,-6.1259765625
0.032,4.1240234375,2.3623046875,-6.2861328125
0.0325,4.724609375,1.5615234375,-6.40625
0.033,4.9248046875,0.80078125,-6.1259765625
0.0335,4.8046875,0.0,-5.4853515625
0.034,4.8447265625,-1.1611328125,-4.724609375
0.0345,4.884765625,-2.4423828125,-3.7236328125
0.035,4.8046875,-3.4833984375,-2.7626953125
0.0355,4.64453125,-4.32421875,-2.001953125
0.036,4.1240234375,-4.7646484375,-1.1611328125
0.0365,3.3232421875,-5.1650390625,0.0
0.037,2.3623046875,-5.6455078125,1.3212890625
0.0375,1.361328125,-5.92578125,2.6025390625
0.038,0.640625,-6.2861328125,3.68359375
0.0385,-0.2802734375,-6.3662109375,4.5244140625
0.039,-1.361328125,-5.7255859375,5.0849609375
0.0395,-2.6025390625,-4.8447265625,5.6455078125
0.04,-3.84375,-3.8037109375,6.0458984375
0.0405,-4.6845703125,-2.8427734375,6.2060546875
0.041,-5.205078125,-2.1220703125,6.24609375
0.0415,-5.3251953125,-1.4013671875,5.845703125
0.042,-5.2451171875,-0.3603515625,5.1650390625
0.0425,-5.3251953125,0.880859375,4.32421875
0.043,-5.28515625,2.2021484375,3.2431640625
0.0435,-5.1650390625,3.1630859375,2.3623046875
0.044,-4.884765625,3.8837890625,1.5615234375
0.0445,-4.244140625,4.2841796875,0.6005859375
0.045,-3.36328125,4.724609375,-0.6806640625
0.0455,-2.2822265625,5.125,-2.1220703125
0.046,-1.361328125,5.4453125,-3.3232421875
0.0465,-0.6806640625,5.7255859375,-4.32421875
0.047,0.3603515625,5.4853515625,-5.044921875
0.0475,1.5615234375,4.6845703125,-5.5654296875
0.048,2.8427734375,3.68359375,-6.0859375
0.0485,3.9638671875,2.5224609375,-6.2861328125
0.049,4.64453125,1.6416015625,-6.40625
0.0495,4.96484375,0.9208984375,-6.2861328125
0.05,4.9248046875,0.1201171875,-5.6455078125
0.0505,4.9248046875,-1.0009765625,-4.8447265625
0.051,4.96484375,-2.322265625,-3.84375
0.0515,4.8046875,-3.4833984375,-2.802734375
0.052,4.6845703125,-4.3642578125,-1.9619140625
0.0525,4.2041015625,-4.8447265625,-1.1611328125
0.053,3.36328125,-5.1650390625,0.0
0.0535,2.40234375,-5.60546875,1.2412109375
0.054,1.3212890625,-5.92578125,2.6025390625
0.0545,0.560546875,-6.2861328125,3.7236328125
0.055,-0.2802734375,-6.40625,4.6044921875
0.0555,-1.28125,-5.8857421875,5.1650390625
0.056,-2.6025390625,-4.9248046875,5.685546875
0.0565,-3.84375,-3.84375,6.0859375
0.057,-4.8046875,-2.7626953125,6.24609375
0.0575,-5.3251953125,-2.0419921875,6.2861328125
0.058,-5.4453125,-1.28125,6.005859375
0.0585,-5.365234375,-0.3203125,5.205078125
0.059,-5.3251953125,0.880859375,4.3642578125
0.0595,-5.3251953125,2.2021484375,3.283203125
0.06,-5.1650390625,3.2431640625,2.2822265625
0.0605,-4.96484375,4.00390625,1.521484375
0.061,-4.32421875,4.404296875,0.6005859375
0.0615,-3.36328125,4.724609375,-0.640625
0.062,-2.3623046875,5.1650390625,-2.001953125
0.0625,-1.3212890625,5.4052734375,-3.283203125
0.063,-0.6005859375,5.7255859375,-4.3642578125
0.0635,0.2802734375,5.685546875,-5.125
0.064,1.4814453125,4.9248046875,-5.6455078125
0.0645,2.7626953125,3.84375,-6.1259765625
0.065,3.9638671875,2.6826171875,-6.40625
0.0655,4.7646484375,1.6416015625,-6.5263671875
0.066,5.125,1.0009765625,-6.4462890625
0.0665,5.125,0.16015625,-5.92578125
0.067,5.044921875,-0.9609375,-5.044921875
0.0675,5.044921875,-2.2021484375,-4.0439453125
0.068,4.96484375,-3.5234375,-2.8828125
0.0685,4.8046875,-4.4443359375,-1.9619140625
0.069,4.4443359375,-5.0849609375,-1.2412109375
0.0695,3.603515625,-5.365234375,-0.2001953125
0.07,2.5625,-5.6455078125,1.1611328125
0.0705,1.4013671875,-6.0458984375,2.6025390625
0.071,0.48046875,-6.2861328125,3.8037109375
0.0715,-0.3203125,-6.56640625,4.724609375
0.072,-1.28125,-6.166015625,5.4052734375
0.0725,-2.6025390625,-5.1650390625,5.8857421875
0.073,-3.8837890625,-4.0439453125,6.326171875
0.0735,-5.0048828125,-2.8828125,6.4462890625
0.074,-5.60546875,-1.921875,6.5263671875
0.0745,-5.8056640625,-1.201171875,6.24609375
0.075,-5.685546875,-0.2802734375,5.4853515625
0.0755,-5.5654296875,1.0009765625,4.484375
0.076,-5.525390625,2.40234375,3.3232421875
0.0765,-5.365234375,3.603515625,2.162109375
0.077,-5.125,4.4443359375,1.28125
0.0775,-4.484375,4.8046875,0.4404296875
0.078,-3.443359375,5.0849609375,-0.80078125
0.0785,-2.2822265625,5.4052734375,-2.2822265625
0.079,-1.041015625,5.7255859375,-3.8037109375
0.0795,-0.240234375,5.8857421875,-4.8447265625
0.08,0.640625,5.92578125,-5.6455078125
0.0805,1.76171875,5.0849609375,-6.1259765625
0.081,3.1630859375,3.84375,-6.56640625
0.0815,4.484375,2.5625,-6.9267578125
0.082,5.365234375,1.4013671875,-6.8466796875
0.0825,5.7255859375,0.6005859375,-6.7265625
0.083,5.7255859375,-0.3603515625,-6.166015625
0.0835,5.4453125,-1.44140625,-5.125
0.084,5.3251953125,-2.7626953125,-3.923828125
0.0845,5.205078125,-4.2041015625,-2.6025390625
0.085,4.9248046875,-5.1650390625,-1.5615234375
0.0855,4.484375,-5.765625,-0.720703125
0.086,3.603515625,-5.9658203125,0.3203125
0.0865,2.322265625,-6.1259765625,1.7216796875
0.087,1.0009765625,-6.4462890625,3.283203125
0.0875,-0.2001953125,-6.56640625,4.5244140625
0.088,-0.9208984375,-6.7265625,5.4853515625
0.0885,-1.841796875,-6.40625,6.0859375
0.089,-3.203125,-5.2451171875,6.5263671875
0.0895,-4.564453125,-3.923828125,6.8466796875
0.09,-5.6455078125,-2.5625,7.0068359375
0.0905,-6.2861328125,-1.44140625,6.806640625
0.091,-6.4462890625,-0.6806640625,6.5263671875
0.0915,-6.24609375,0.3603515625,5.7255859375
0.092,-5.92578125,1.5615234375,4.484375
0.0925,-5.765625,2.9228515625,3.203125
0.093,-5.525390625,4.244140625,1.921875
0.0935,-5.125,5.044921875,0.9208984375
0.094,-4.5244140625,5.4453125,0.0400390625
0.0945,-3.4833984375,5.5654296875,-1.1611328125
0.095,-2.08203125,5.7255859375,-2.642578125
0.0955,-0.720703125,5.9658203125,-4.2041015625
0.096,0.3203125,6.0458984375,-5.3251953125
0.0965,1.0009765625,6.0859375,-6.1259765625
0.097,2.0419921875,5.4052734375,-6.646484375
0.0975,3.443359375,4.00390625,-7.0068359375
0.098,4.7646484375,2.7626953125,-7.20703125
0.0985,5.7255859375,1.4013671875,-7.20703125
0.099,6.1259765625,0.4404296875,-7.0068359375
0.0995,6.166015625,-0.5205078125,-6.5263671875
0.1,5.8857421875,-1.4814453125,-5.525390625
0.1005,5.5654296875,-2.7626953125,-4.2041015625
0.101,5.4052734375,-4.2041015625,-2.8427734375
0.1015,5.0849609375,-5.365234375,-1.6015625
0.102,4.6845703125,-6.005859375,-0.720703125
0.1025,3.8837890625,-6.2861328125,0.2802734375
0.103,2.642578125,-6.40625,1.521484375
0.1035,1.2412109375,-6.56640625,3.0830078125
0.104,-0.16015625,-6.7265625,4.5244140625
0.1045,-1.0009765625,-6.8466796875,5.5654296875
0.105,-1.7216796875,-6.7265625,6.24609375
0.1055,-2.9228515625,-5.8056640625,6.646484375
0.106,-4.3642578125,-4.3642578125,6.966796875
0.1065,-5.60546875,-3.0029296875,7.1669921875
0.107,-6.40625,-1.681640625,7.046875
0.1075,-6.646484375,-0.8408203125,6.8466796875
0.108,-6.486328125,0.1201171875,6.166015625
0.1085,-6.2060546875,1.28125,5.0048828125
0.109,-5.9658203125,2.5625,3.68359375
0.1095,-5.765625,4.00390625,2.2822265625
0.11,-5.3251953125,4.96484375,1.12109375
0.1105,-4.8447265625,5.5654296875,0.2802734375
0.111,-3.8837890625,5.7255859375,-0.80078125
0.1115,-2.5625,5.8056640625,-2.2421875
0.112,-1.1611328125,6.0859375,-3.8837890625
0.1125,0.16015625,6.0458984375,-5.1650390625
0.113,0.880859375,6.1259765625,-6.0458984375
0.1135,1.7216796875,5.765625,-6.6865234375
0.114,3.0830078125,4.6044921875,-7.0068359375
0.1145,4.4443359375,3.203125,-7.2470703125
0.115,5.60546875,1.841796875,-7.3671875
0.1155,6.166015625,0.640625,-7.126953125
0.116,6.326171875,-0.240234375,-6.806640625
0.1165,6.0859375,-1.1611328125,-5.9658203125
0.117,5.7255859375,-2.4423828125,-4.64453125
0.1175,5.525390625,-3.84375,-3.283203125
0.118,5.2451171875,-5.125,-1.9619140625
0.1185,4.8046875,-5.92578125,-0.9609375
0.119,4.2041015625,-6.326171875,0.0
0.1195,3.123046875,-6.4462890625,1.12109375
0.12,1.7216796875,-6.56640625,2.5625
0.1205,0.2802734375,-6.7666015625,4.1640625
0.121,-0.80078125,-6.806640625,5.2451171875
0.1215,-1.521484375,-6.88671875,6.0859375
0.122,-2.5224609375,-6.166015625,6.6064453125
0.1225,-3.923828125,-4.8046875,6.9267578125
0.123,-5.205078125,-3.4833984375,7.1669921875
0.1235,-6.166015625,-2.1220703125,7.1669921875
0.124,-6.646484375,-1.1611328125,6.966796875
0.1245,-6.646484375,-0.3203125,6.5263671875
0.125,-6.3662109375,0.7607421875,5.4853515625
0.1255,-6.0859375,2.0419921875,4.2041015625
0.126,-5.8857421875,3.5634765625,2.8427734375
0.1265,-5.525390625,4.724609375,1.521484375
0.127,-5.0849609375,5.4052734375,0.6005859375
0.1275,-4.32421875,5.685546875,-0.400390625
0.128,-3.0830078125,5.765625,-1.6416015625
0.1285,-1.681640625,5.9658203125,-3.2431640625
0.129,-0.3203125,6.0458984375,-4.7646484375
0.1295,0.6005859375,6.1259765625,-5.765625
0.13,1.361328125,6.0859375,-6.40625
0.1305,2.5224609375,5.125,-6.806640625
0.131,3.923828125,3.763671875,-7.126953125
0.1315,5.1650390625,2.3623046875,-7.3271484375
0.132,5.92578125,1.12109375,-7.20703125
0.1325,6.24609375,0.240234375,-6.966796875
0.133,6.0859375,-0.720703125,-6.326171875
0.1335,5.765625,-1.8017578125,-5.1650390625
0.134,5.525390625,-3.123046875,-3.8837890625
0.1345,5.3251953125,-4.5244140625,-2.5224609375
0.135,4.9248046875,-5.4853515625,-1.361328125
0.1355,4.484375,-6.0859375,-0.560546875
0.136,3.5634765625,-6.24609375,0.48046875
0.1365,2.322265625,-6.3662109375,1.76171875
0.137,0.9609375,-6.6064453125,3.36328125
0.1375,-0.3203125,-6.6865234375,4.6044921875
0.138,-1.041015625,-6.7265625,5.525390625
0.1385,-1.8818359375,-6.4462890625,6.2060546875
0.139,-3.0830078125,-5.4052734375,6.5263671875
0.1395,-4.404296875,-4.1240234375,6.8466796875
0.14,-5.525390625,-2.802734375,7.0068359375
0.1405,-6.166015625,-1.681640625,6.8466796875
0.141,-6.40625,-0.9208984375,6.646484375
0.1415,-6.2060546875,0.0,5.8857421875
0.142,-5.92578125,1.1611328125,4.8046875
0.1425,-5.765625,2.482421875,3.5634765625
0.143,-5.525390625,3.8037109375,2.2822265625
0.1435,-5.205078125,4.64453125,1.28125
0.144,-4.724609375,5.1650390625,0.4404296875
0.1445,-3.8037109375,5.365234375,-0.6806640625
0.145,-2.5625,5.525390625,-2.0419921875
0.1455,-1.2412109375,5.765625,-3.6435546875
0.146,-0.16015625,5.8857421875,-4.8046875
0.1465,0.6005859375,6.0859375,-5.6455078125
0.147,1.521484375,5.60546875,-6.24609375
0.1475,2.8427734375,4.484375,-6.6064453125
0.148,4.1240234375,3.2431640625,-6.9267578125
0.1485,5.1650390625,1.921875,-7.046875
0.149,5.7255859375,0.9609375,-6.88671875
0.1495,5.8857421875,0.2001953125,-6.56640625
0.15,5.6455078125,-0.8408203125,-5.765625
0.1505,5.4052734375,-2.001953125,-4.64453125
0.151,5.28515625,-3.443359375,-3.36328125
0.1515,5.0849609375,-4.6044921875,-2.162109375
0.152,4.7646484375,-5.4052734375,-1.28125
0.1525,4.1240234375,-5.765625,-0.400390625
0.153,3.04296875,-5.9658203125,0.80078125
0.1535,1.841796875,-6.24609375,2.162109375
0.154,0.6005859375,-6.40625,3.68359375
0.1545,-0.3603515625,-6.56640625,4.724609375
0.155,-1.041015625,-6.6064453125,5.4853515625
0.1555,-2.08203125,-5.92578125,6.005859375
0.156,-3.443359375,-4.6845703125,6.3662109375
0.1565,-4.6845703125,-3.5234375,6.6865234375
0.157,-5.5654296875,-2.322265625,6.6865234375
0.1575,-5.9658203125,-1.521484375,6.56640625
0.158,-5.9658203125,-0.7607421875,6.1259765625
0.1585,-5.765625,0.3203125,5.205078125
0.159,-5.6455078125,1.4814453125,4.2041015625
0.1595,-5.525390625,2.8828125,2.962890625
0.16,-5.2451171875,3.8837890625,1.921875
0.1605,-4.9248046875,4.5244140625,1.0810546875
0.161,-4.2041015625,4.8447265625,0.16015625
0.1615,-3.203125,5.044921875,-1.12109375
0.162,-2.001953125,5.4453125,-2.5224609375
0.1625,-0.880859375,5.60546875,-3.84375
0.163,-0.16015625,5.845703125,-4.8447265625
0.1635,0.720703125,5.7255859375,-5.525390625
0.164,1.841796875,4.96484375,-5.9658203125
0.1645,3.123046875,3.84375,-6.40625
0.165,4.2841796875,2.6826171875,-6.6064453125
0.1655,5.0048828125,1.6015625,-6.6064453125
0.166,5.365234375,0.880859375,-6.5263671875
0.1665,5.3251953125,0.1201171875,-6.0458984375
0.167,5.1650390625,-1.0009765625,-5.125
0.1675,5.0849609375,-2.2021484375,-4.1640625
0.168,4.96484375,-3.5234375,-2.962890625
0.1685,4.7646484375,-4.484375,-2.0419921875
0.169,4.484375,-5.0849609375,-1.28125
0.1695,3.68359375,-5.4453125,-0.3603515625
0.17,2.72265625,-5.6455078125,0.9609375
0.1705,1.5615234375,-6.005859375,2.40234375
0.171,0.6005859375,-6.2060546875,3.5634765625
0.1715,-0.2001953125,-6.486328125,4.5244140625
0.172,-1.041015625,-6.24609375,5.205078125
0.1725,-2.2421875,-5.365234375,5.685546875
0.173,-3.5234375,-4.3642578125,6.1259765625
0.1735,-4.6044921875,-3.203125,6.3662109375
0.174,-5.28515625,-2.2822265625,6.40625
0.1745,-5.525390625,-1.6015625,6.2861328125
0.175,-5.4853515625,-0.7607421875,5.685546875
0.1755,-5.4453125,0.3603515625,4.8447265625
0.176,-5.4453125,1.6416015625,3.84375
0.1765,-5.28515625,2.802734375,2.72265625
0.177,-5.125,3.68359375,1.921875
0.1775,-4.6845703125,4.1640625,1.0810546875
0.178,-3.84375,4.5244140625,0.0400390625
0.1785,-2.8828125,4.96484375,-1.3212890625
0.179,-1.8017578125,5.28515625,-2.72265625
0.1795,-1.0009765625,5.5654296875,-3.8037109375
0.18,-0.2802734375,5.7255859375,-4.6845703125
0.1805,0.7607421875,5.3251953125,-5.28515625
0.181,2.0419921875,4.4443359375,-5.765625
0.1815,3.2431640625,3.36328125,-6.166015625
0.182,4.2041015625,2.2822265625,-6.3662109375
0.1825,4.8046875,1.5615234375,-6.40625
0.183,4.96484375,0.80078125,-6.1259765625
0.1835,4.9248046875,0.0,-5.4853515625
0.184,4.9248046875,-1.201171875,-4.6845703125
0.1845,4.884765625,-2.5224609375,-3.7236328125
0.185,4.8046875,-3.5634765625,-2.72265625
0.1855,4.6044921875,-4.404296875,-1.9619140625
0.186,4.1240234375,-4.8046875,-1.12109375
0.1865,3.2431640625,-5.1650390625,0.0400390625
0.187,2.3623046875,-5.6455078125,1.361328125
0.1875,1.3212890625,-5.92578125,2.642578125
0.188,0.6005859375,-6.2861328125,3.68359375
0.1885,-0.2802734375,-6.3662109375,4.484375
0.189,-1.3212890625,-5.7255859375,5.0849609375
0.1895,-2.5625,-4.884765625,5.60546875
0.19,-3.8037109375,-3.84375,6.005859375
0.1905,-4.6845703125,-2.8427734375,6.1259765625
0.191,-5.125,-2.162109375,6.24609375
0.1915,-5.2451171875,-1.44140625,5.8857421875
0.192,-5.205078125,-0.5205078125,5.1650390625
0.1925,-5.3251953125,0.720703125,4.4443359375
0.193,-5.28515625,2.0419921875,3.3232421875
0.1935,-5.1650390625,2.962890625,2.4423828125
0.194,-4.9248046875,3.763671875,1.681640625
0.1945,-4.32421875,4.1640625,0.7607421875
0.195,-3.443359375,4.6044921875,-0.5205078125
0.1955,-2.4423828125,5.0849609375,-1.921875
0.196,-1.521484375,5.4052734375,-3.123046875
0.1965,-0.80078125,5.7255859375,-4.1240234375
0.197,0.16015625,5.525390625,-4.884765625
0.1975,1.3212890625,4.8046875,-5.4052734375
0.198,2.642578125,3.84375,-5.9658203125
0.1985,3.763671875,2.72265625,-6.24609375
0.199,4.484375,1.921875,-6.40625
0.1995,4.8447265625,1.201171875,-6.2861328125
0.2,4.884765625,0.3603515625,-5.765625
0.2005,4.8447265625,-0.80078125,-5.0048828125
0.201,4.9248046875,-2.08203125,-4.0439453125
0.2015,4.8046875,-3.2431640625,-3.0830078125
0.202,4.7646484375,-4.1240234375,-2.2421875
0.2025,4.32421875,-4.6845703125,-1.44140625
0.203,3.5634765625,-5.044921875,-0.400390625
0.2035,2.642578125,-5.4853515625,0.9609375
0.204,1.5615234375,-5.8857421875,2.3623046875
0.2045,0.7607421875,-6.2060546875,3.4833984375
0.205,0.0400390625,-6.40625,4.404296875
0.2055,-1.0810546875,-5.9658203125,5.044921875
0.206,-2.322265625,-5.044921875,5.5654296875
0.2065,-3.603515625,-4.00390625,6.005859375
0.207,-4.6044921875,-2.9228515625,6.2060546875
0.2075,-5.1650390625,-2.2021484375,6.2861328125
0.208,-5.365234375,-1.44140625,6.005859375
0.2085,-5.3251953125,-0.6005859375,5.28515625
0.209,-5.3251953125,0.6005859375,4.484375
0.2095,-5.365234375,1.9619140625,3.443359375
0.21,-5.205078125,3.0830078125,2.40234375
0.2105,-5.0048828125,3.84375,1.6015625
0.211,-4.4443359375,4.2841796875,0.7607421875
0.2115,-3.4833984375,4.6044921875,-0.48046875
0.212,-2.482421875,5.0849609375,-1.8818359375
0.2125,-1.44140625,5.4052734375,-3.203125
0.213,-0.6806640625,5.7255859375,-4.244140625
0.2135,0.240234375,5.685546875,-5.0849609375
0.214,1.3212890625,4.96484375,-5.5654296875
0.2145,2.6826171875,3.9638671875,-6.0859375
0.215,3.8837890625,2.7626953125,-6.40625
0.2155,4.724609375,1.76171875,-6.4462890625
0.216,5.0849609375,1.041015625,-6.4462890625
0.2165,5.125,0.2001953125,-5.92578125
0.217,5.0048828125,-0.9208984375,-5.0849609375
0.2175,5.0048828125,-2.2021484375,-4.1240234375
0.218,4.96484375,-3.443359375,-2.962890625
0.2185,4.7646484375,-4.3642578125,-2.0419921875
0.219,4.4443359375,-5.0048828125,-1.2412109375
0.2195,3.6435546875,-5.28515625,-0.2802734375
0.22,2.6025390625,-5.60546875,1.041015625
0.2205,1.4814453125,-6.005859375,2.5224609375
0.221,0.5205078125,-6.2861328125,3.68359375
0.2215,-0.2802734375,-6.486328125,4.64453125
0.222,-1.201171875,-6.1259765625,5.3251953125
0.2225,-2.5224609375,-5.125,5.765625
0.223,-3.84375,-4.0439453125,6.24609375
0.2235,-4.884765625,-2.8828125,6.40625
0.224,-5.4853515625,-1.9619140625,6.4462890625
0.2245,-5.7255859375,-1.3212890625,6.2060546875
0.225,-5.6455078125,-0.400390625,5.4853515625
0.2255,-5.525390625,0.80078125,4.484375
0.226,-5.4853515625,2.2421875,3.443359375
0.2265,-5.3251953125,3.443359375,2.2822265625
0.227,-5.0849609375,4.2041015625,1.4013671875
0.2275,-4.5244140625,4.64453125,0.6005859375
0.228,-3.5634765625,4.9248046875,-0.6005859375
