wavelength,x,y,z
0.0,-0.9459228515625,3.2581787109375,-2.7076416015625
0.0005,-0.5455322265625,3.1380615234375,-3.0279541015625
0.001,0.0550537109375,2.6976318359375,-3.1881103515625
0.0015,0.7757568359375,2.2171630859375,-3.4683837890625
0.002,1.6566162109375,1.5765380859375,-3.6685791015625
0.0025,2.2171630859375,1.1761474609375,-3.7086181640625
0.003,2.5374755859375,0.7757568359375,-3.7086181640625
0.0035,2.6976318359375,0.3753662109375,-3.4683837890625
0.004,2.6976318359375,-0.2652587890625,-2.9078369140625
0.0045,2.8577880859375,-0.9859619140625,-2.3072509765625
0.005,3.0579833984375,-1.7066650390625,-1.8267822265625
0.0055,3.1781005859375,-2.2672119140625,-1.3463134765625
0.006,3.0579833984375,-2.5875244140625,-0.9859619140625
0.0065,2.6575927734375,-2.7076416015625,-0.4254150390625
0.007,2.1771240234375,-2.9078369140625,0.2952880859375
0.0075,1.4564208984375,-3.1080322265625,1.1361083984375
0.008,1.0560302734375,-3.2281494140625,1.7366943359375
0.0085,0.6156005859375,-3.3482666015625,2.1771240234375
0.009,0.2552490234375,-3.1881103515625,2.4173583984375
0.0095,-0.3853759765625,-2.7476806640625,2.5374755859375
0.01,-1.1060791015625,-2.2271728515625,2.8177490234375
0.0105,-1.8668212890625,-1.6666259765625,2.9779052734375
0.011,-2.3472900390625,-1.3062744140625,3.1380615234375
0.0115,-2.5875244140625,-0.9859619140625,3.0179443359375
0.012,-2.7476806640625,-0.5054931640625,2.7376708984375
0.0125,-2.8677978515625,0.0950927734375,2.2972412109375
0.013,-3.0279541015625,0.8157958984375,1.7767333984375
0.0135,-3.1881103515625,1.4564208984375,1.2962646484375
0.014,-3.2681884765625,2.0570068359375,0.8558349609375
0.0145,-3.1881103515625,2.3372802734375,0.4554443359375
0.015,-2.7476806640625,2.5374755859375,-0.1451416015625
0.0155,-2.2672119140625,2.7777099609375,-0.9058837890625
0.016,-1.6666259765625,3.0179443359375,-1.7066650390625
0.0165,-1.2662353515625,3.1380615234375,-2.3072509765625
0.017,-0.8658447265625,3.1380615234375,-2.7476806640625
0.0175,-0.3853759765625,2.9378662109375,-3.0679931640625
0.018,0.2952880859375,2.5374755859375,-3.1881103515625
0.0185,1.1361083984375,1.9368896484375,-3.5084228515625
0.019,1.8167724609375,1.4564208984375,-3.6685791015625
0.0195,2.3372802734375,1.0960693359375,-3.8287353515625
0.02,2.5374755859375,0.6956787109375,-3.5885009765625
0.0205,2.6575927734375,0.1351318359375,-3.1881103515625
0.021,2.8177490234375,-0.5455322265625,-2.7076416015625
0.0215,3.0179443359375,-1.4263916015625,-2.0670166015625
0.022,3.1781005859375,-1.9869384765625,-1.6265869140625
0.0225,3.1781005859375,-2.5074462890625,-1.1861572265625
0.023,2.9378662109375,-2.7076416015625,-0.7056884765625
0.0235,2.3773193359375,-2.8677978515625,0.0150146484375
0.024,1.7767333984375,-3.1480712890625,0.8558349609375
0.0245,1.1761474609375,-3.3082275390625,1.6165771484375
0.025,0.7757568359375,-3.4683837890625,2.1771240234375
0.0255,0.3353271484375,-3.3482666015625,2.4173583984375
0.026,-0.1851806640625,-2.9478759765625,2.6175537109375
0.0265,-0.9859619140625,-2.3873291015625,2.8577880859375
0.027,-1.7867431640625,-1.7467041015625,3.0980224609375
0.0275,-2.3472900390625,-1.3062744140625,3.1380615234375
0.028,-2.7076416015625,-0.9859619140625,3.1781005859375
0.0285,-2.8277587890625,-0.5855712890625,2.8577880859375
0.029,-2.8677978515625,0.0550537109375,2.3372802734375
0.0295,-3.0279541015625,0.7757568359375,1.8167724609375
0.03,-3.1881103515625,1.5765380859375,1.2161865234375
0.0305,-3.3082275390625,2.0570068359375,0.8157958984375
0.031,-3.1881103515625,2.4173583984375,0.3753662109375
0.0315,-2.8677978515625,2.5775146484375,-0.1451416015625
0.032,-2.2672119140625,2.7376708984375,-0.8258056640625
0.0325,-1.6666259765625,2.9378662109375,-1.7066650390625
0.033,-1.2261962890625,3.0579833984375,-2.3072509765625
0.0335,-0.7857666015625,3.1781005859375,-2.8677978515625
0.034,-0.3453369140625,3.0179443359375,-3.0679931640625
0.0345,0.2952880859375,2.5775146484375,-3.1881103515625
0.035,1.0159912109375,2.0570068359375,-3.4683837890625
0.0355,1.8568115234375,1.4163818359375,-3.6685791015625
0.036,2.2972412109375,1.0960693359375,-3.7486572265625
0.0365,2.6175537109375,0.6556396484375,-3.6685791015625
0.037,2.7376708984375,0.2552490234375,-3.3482666015625
0.0375,2.8177490234375,-0.4654541015625,-2.7877197265625
0.038,3.0179443359375,-1.2662353515625,-2.2271728515625
0.0385,3.1781005859375,-1.9468994140625,-1.6666259765625
0.039,3.2581787109375,-2.5074462890625,-1.2662353515625
0.0395,3.0579833984375,-2.7076416015625,-0.7857666015625
0.04,2.5775146484375,-2.8677978515625,-0.1851806640625
0.0405,1.9769287109375,-3.1480712890625,0.6156005859375
0.041,1.2962646484375,-3.3482666015625,1.5364990234375
0.0415,0.8558349609375,-3.4683837890625,2.0570068359375
0.042,0.4554443359375,-3.4683837890625,2.5374755859375
0.0425,-0.0650634765625,-3.1480712890625,2.6976318359375
0.043,-0.8258056640625,-2.5074462890625,2.8177490234375
0.0435,-1.6666259765625,-1.9468994140625,3.1380615234375
0.044,-2.4273681640625,-1.3463134765625,3.2581787109375
0.0445,-2.8277587890625,-0.9859619140625,3.2982177734375
0.045,-2.9478759765625,-0.5855712890625,3.0179443359375
0.0455,-3.0279541015625,-0.0650634765625,2.5775146484375
0.046,-3.1080322265625,0.7357177734375,1.9368896484375
0.0465,-3.2681884765625,1.5765380859375,1.2962646484375
0.047,-3.3883056640625,2.1771240234375,0.8157958984375
0.0475,-3.3482666015625,2.5775146484375,0.4154052734375
0.048,-2.9879150390625,2.6976318359375,-0.1051025390625
0.0485,-2.3873291015625,2.7376708984375,-0.8658447265625
0.049,-1.7867431640625,3.0179443359375,-1.7467041015625
0.0495,-1.1461181640625,3.1781005859375,-2.5074462890625
0.05,-0.7056884765625,3.2581787109375,-2.9078369140625
0.0505,-0.3052978515625,3.0980224609375,-3.1881103515625
0.051,0.2952880859375,2.6976318359375,-3.3482666015625
0.0515,1.0960693359375,2.0169677734375,-3.4683837890625
0.052,1.8568115234375,1.4163818359375,-3.6685791015625
0.0525,2.4173583984375,0.9359130859375,-3.7086181640625
0.053,2.6976318359375,0.6556396484375,-3.7486572265625
0.0535,2.7777099609375,0.1751708984375,-3.3482666015625
0.054,2.8177490234375,-0.3853759765625,-2.8677978515625
0.0545,2.9378662109375,-1.1461181640625,-2.2672119140625
0.055,3.1380615234375,-1.9068603515625,-1.6666259765625
0.0555,3.1781005859375,-2.3873291015625,-1.2662353515625
0.056,3.0980224609375,-2.7476806640625,-0.8258056640625
0.0565,2.7376708984375,-2.9478759765625,-0.3453369140625
0.057,2.0970458984375,-3.0279541015625,0.4154052734375
0.0575,1.4964599609375,-3.2681884765625,1.2562255859375
0.058,0.9359130859375,-3.3482666015625,1.9769287109375
0.0585,0.5755615234375,-3.4683837890625,2.4173583984375
0.059,0.0950927734375,-3.1881103515625,2.6175537109375
0.0595,-0.5054931640625,-2.8277587890625,2.8177490234375
0.06,-1.3463134765625,-2.1871337890625,3.0179443359375
0.0605,-2.0670166015625,-1.6265869140625,3.2181396484375
0.061,-2.5875244140625,-1.1461181640625,3.2581787109375
0.0615,-2.9078369140625,-0.7857666015625,3.2181396484375
0.062,-2.9879150390625,-0.3453369140625,2.8577880859375
0.0625,-3.0679931640625,0.3753662109375,2.2572021484375
0.063,-3.2681884765625,1.1761474609375,1.6566162109375
0.0635,-3.4283447265625,1.9368896484375,1.0560302734375
0.064,-3.4683837890625,2.4173583984375,0.6556396484375
0.0645,-3.2281494140625,2.6575927734375,0.1351318359375
0.065,-2.8277587890625,2.7777099609375,-0.4654541015625
0.0655,-2.0269775390625,2.8978271484375,-1.3863525390625
0.066,-1.4263916015625,3.2181396484375,-2.2271728515625
0.0665,-0.9058837890625,3.3382568359375,-2.8277587890625
0.067,-0.5054931640625,3.3382568359375,-3.1881103515625
0.0675,0.0950927734375,2.8577880859375,-3.3482666015625
0.068,0.8157958984375,2.2972412109375,-3.5084228515625
0.0685,1.6966552734375,1.6165771484375,-3.7086181640625
0.069,2.3372802734375,1.1361083984375,-3.8287353515625
0.0695,2.6976318359375,0.6956787109375,-3.7886962890625
0.07,2.8577880859375,0.3353271484375,-3.5484619140625
0.0705,2.8978271484375,-0.2252197265625,-3.0679931640625
0.071,2.9378662109375,-0.9859619140625,-2.3873291015625
0.0715,3.1380615234375,-1.7867431640625,-1.7867431640625
0.072,3.2181396484375,-2.4674072265625,-1.2662353515625
0.0725,3.1781005859375,-2.8277587890625,-0.9459228515625
0.073,2.8177490234375,-2.9478759765625,-0.3853759765625
0.0735,2.2572021484375,-3.0679931640625,0.2952880859375
0.074,1.5364990234375,-3.2281494140625,1.2161865234375
0.0745,0.9759521484375,-3.3482666015625,1.9368896484375
0.075,0.5355224609375,-3.4283447265625,2.4173583984375
0.0755,0.1751708984375,-3.3482666015625,2.6976318359375
0.076,-0.5054931640625,-2.8677978515625,2.8177490234375
0.0765,-1.2261962890625,-2.2672119140625,2.9779052734375
0.077,-2.0670166015625,-1.6265869140625,3.1781005859375
0.0775,-2.6275634765625,-1.1461181640625,3.2581787109375
0.078,-2.9078369140625,-0.8258056640625,3.2181396484375
0.0785,-3.0679931640625,-0.3453369140625,2.8978271484375
0.079,-3.1480712890625,0.2552490234375,2.4173583984375
0.0795,-3.1881103515625,1.0560302734375,1.7366943359375
0.08,-3.3883056640625,1.7767333984375,1.1761474609375
0.0805,-3.4683837890625,2.3372802734375,0.6156005859375
0.081,-3.3883056640625,2.6976318359375,0.2952880859375
0.0815,-2.9078369140625,2.7777099609375,-0.3453369140625
0.082,-2.2672119140625,2.9779052734375,-1.1060791015625
0.0825,-1.5865478515625,3.2181396484375,-2.0670166015625
0.083,-0.9859619140625,3.3382568359375,-2.7076416015625
0.0835,-0.5855712890625,3.3382568359375,-3.1480712890625
0.084,-0.1451416015625,3.1380615234375,-3.3883056640625
0.0845,0.6156005859375,2.5775146484375,-3.5484619140625
0.085,1.4564208984375,1.8568115234375,-3.7086181640625
0.0855,2.2572021484375,1.2562255859375,-3.8687744140625
0.086,2.7777099609375,0.7757568359375,-3.9088134765625
0.0865,2.9779052734375,0.4554443359375,-3.7886962890625
0.087,3.0179443359375,-0.1451416015625,-3.2681884765625
0.0875,3.0579833984375,-0.8258056640625,-2.6275634765625
0.088,3.1781005859375,-1.7467041015625,-1.9068603515625
0.0885,3.2581787109375,-2.3873291015625,-1.3863525390625
0.089,3.2581787109375,-2.8677978515625,-0.9859619140625
0.0895,3.0579833984375,-3.1480712890625,-0.5455322265625
0.09,2.4573974609375,-3.1080322265625,0.1751708984375
0.0905,1.7366943359375,-3.2281494140625,1.0560302734375
0.091,1.0159912109375,-3.4283447265625,1.9368896484375
0.0915,0.5755615234375,-3.5484619140625,2.4573974609375
0.092,0.1751708984375,-3.3883056640625,2.7376708984375
0.0925,-0.3453369140625,-3.0679931640625,2.8978271484375
0.093,-1.1461181640625,-2.4273681640625,3.0579833984375
0.0935,-2.0269775390625,-1.6666259765625,3.1781005859375
0.094,-2.5875244140625,-1.2261962890625,3.2581787109375
0.0945,-3.0279541015625,-0.7857666015625,3.2982177734375
0.095,-3.1881103515625,-0.4254150390625,3.0980224609375
0.0955,-3.1480712890625,0.1351318359375,2.5374755859375
0.096,-3.1881103515625,0.8558349609375,1.9368896484375
0.0965,-3.3883056640625,1.6966552734375,1.2161865234375
0.097,-3.4683837890625,2.2972412109375,0.7357177734375
0.0975,-3.3482666015625,2.6575927734375,0.2552490234375
0.098,-3.0679931640625,2.8978271484375,-0.1851806640625
0.0985,-2.4674072265625,2.9779052734375,-0.9058837890625
0.099,-1.7467041015625,3.1781005859375,-1.8267822265625
0.0995,-1.1060791015625,3.2982177734375,-2.5875244140625
0.1,-0.6656494140625,3.3782958984375,-3.1480712890625
0.1005,-0.2652587890625,3.2181396484375,-3.3482666015625
0.101,0.3353271484375,2.7777099609375,-3.5084228515625
0.1015,1.1361083984375,2.1771240234375,-3.7086181640625
0.102,2.0970458984375,1.4163818359375,-3.8687744140625
0.1025,2.5775146484375,0.9359130859375,-3.9088134765625
0.103,2.8978271484375,0.5355224609375,-3.8287353515625
0.1035,3.0179443359375,0.1351318359375,-3.5484619140625
0.104,3.0179443359375,-0.5455322265625,-2.9078369140625
0.1045,3.1380615234375,-1.3463134765625,-2.2271728515625
0.105,3.2581787109375,-2.1871337890625,-1.6265869140625
0.1055,3.3382568359375,-2.7476806640625,-1.1461181640625
0.106,3.1781005859375,-2.9478759765625,-0.7056884765625
0.1065,2.7376708984375,-3.0679931640625,-0.1451416015625
0.107,2.0570068359375,-3.1881103515625,0.6556396484375
0.1075,1.2962646484375,-3.3883056640625,1.6165771484375
0.108,0.7757568359375,-3.4683837890625,2.2171630859375
0.1085,0.3753662109375,-3.5084228515625,2.6575927734375
0.109,-0.0650634765625,-3.2681884765625,2.8577880859375
0.1095,-0.7457275390625,-2.7076416015625,2.9378662109375
0.11,-1.5865478515625,-2.0670166015625,3.1380615234375
0.1105,-2.4273681640625,-1.3863525390625,3.3382568359375
0.111,-2.8677978515625,-0.9859619140625,3.3382568359375
0.1115,-3.0679931640625,-0.6256103515625,3.1781005859375
0.112,-3.1080322265625,-0.1851806640625,2.8177490234375
0.1125,-3.1480712890625,0.4954833984375,2.1370849609375
0.113,-3.2681884765625,1.3363037109375,1.4564208984375
0.1135,-3.3883056640625,1.9769287109375,0.9359130859375
0.114,-3.4683837890625,2.5775146484375,0.4954833984375
0.1145,-3.1881103515625,2.7376708984375,0.0950927734375
0.115,-2.7076416015625,2.8577880859375,-0.5855712890625
0.1155,-2.0670166015625,3.0579833984375,-1.3463134765625
0.116,-1.3062744140625,3.2181396484375,-2.3072509765625
0.1165,-0.8658447265625,3.2982177734375,-2.8277587890625
0.117,-0.4654541015625,3.2581787109375,-3.2281494140625
0.1175,0.0150146484375,3.0179443359375,-3.3883056640625
0.118,0.7757568359375,2.3773193359375,-3.5084228515625
0.1185,1.6165771484375,1.7366943359375,-3.7086181640625
0.119,2.3372802734375,1.1361083984375,-3.8287353515625
0.1195,2.7777099609375,0.7757568359375,-3.8687744140625
0.12,2.8978271484375,0.3353271484375,-3.6285400390625
0.1205,2.9378662109375,-0.2252197265625,-3.1881103515625
0.121,3.0179443359375,-0.9859619140625,-2.5875244140625
0.1215,3.1781005859375,-1.8668212890625,-1.9068603515625
0.122,3.2982177734375,-2.3873291015625,-1.3863525390625
0.1225,3.2581787109375,-2.8677978515625,-0.9859619140625
0.123,2.9779052734375,-3.0279541015625,-0.5054931640625
0.1235,2.3372802734375,-3.0679931640625,0.2952880859375
0.124,1.6966552734375,-3.3082275390625,1.1361083984375
0.1245,0.9759521484375,-3.4683837890625,1.9769287109375
0.125,0.6156005859375,-3.5484619140625,2.4974365234375
0.1255,0.1751708984375,-3.3482666015625,2.7376708984375
0.126,-0.3853759765625,-3.0279541015625,2.8577880859375
0.1265,-1.2261962890625,-2.3072509765625,3.0579833984375
0.127,-2.0670166015625,-1.6666259765625,3.2181396484375
0.1275,-2.6275634765625,-1.1461181640625,3.2982177734375
0.128,-3.0279541015625,-0.8258056640625,3.2982177734375
0.1285,-3.0679931640625,-0.3853759765625,2.9378662109375
0.129,-3.0679931640625,0.2152099609375,2.3773193359375
0.1295,-3.2281494140625,0.9759521484375,1.7767333984375
0.13,-3.3883056640625,1.8968505859375,1.1361083984375
0.1305,-3.4683837890625,2.3773193359375,0.6956787109375
0.131,-3.3082275390625,2.7376708984375,0.2552490234375
0.1315,-2.9478759765625,2.8577880859375,-0.2652587890625
0.132,-2.2672119140625,2.8978271484375,-1.1060791015625
0.1325,-1.5865478515625,3.1781005859375,-1.9468994140625
0.133,-0.9859619140625,3.2581787109375,-2.6676025390625
0.1335,-0.6256103515625,3.3382568359375,-3.1080322265625
0.134,-0.1451416015625,3.0579833984375,-3.3082275390625
0.1345,0.4954833984375,2.6175537109375,-3.4683837890625
0.135,1.2962646484375,1.9368896484375,-3.6285400390625
0.1355,2.1370849609375,1.2962646484375,-3.7886962890625
0.136,2.5775146484375,0.8958740234375,-3.8287353515625
0.1365,2.8577880859375,0.4554443359375,-3.7486572265625
0.137,2.8978271484375,0.0150146484375,-3.3482666015625
0.1375,2.8978271484375,-0.6656494140625,-2.7076416015625
0.138,3.0980224609375,-1.4263916015625,-2.1070556640625
0.1385,3.2181396484375,-2.1871337890625,-1.5064697265625
0.139,3.2581787109375,-2.6275634765625,-1.1461181640625
0.1395,3.0179443359375,-2.8677978515625,-0.6256103515625
0.14,2.6175537109375,-2.9879150390625,-0.1051025390625
0.1405,1.9368896484375,-3.1480712890625,0.7757568359375
0.141,1.2562255859375,-3.3082275390625,1.5765380859375
0.1415,0.7757568359375,-3.3883056640625,2.1771240234375
0.142,0.3753662109375,-3.4683837890625,2.5775146484375
0.1425,-0.1451416015625,-3.1080322265625,2.7376708984375
0.143,-0.8258056640625,-2.5474853515625,2.8577880859375
0.1435,-1.6265869140625,-1.9468994140625,3.0980224609375
0.144,-2.3472900390625,-1.3863525390625,3.2181396484375
0.1445,-2.7076416015625,-1.1060791015625,3.2581787109375
0.145,-2.9478759765625,-0.6656494140625,3.0579833984375
0.1455,-3.0279541015625,-0.2652587890625,2.6575927734375
0.146,-3.0679931640625,0.5755615234375,2.0570068359375
0.1465,-3.2681884765625,1.3763427734375,1.4564208984375
0.147,-3.3883056640625,2.0570068359375,0.9759521484375
0.1475,-3.4683837890625,2.4974365234375,0.4954833984375
0.148,-3.0679931640625,2.6575927734375,0.0150146484375
0.1485,-2.5875244140625,2.8177490234375,-0.6256103515625
0.149,-1.9468994140625,3.0579833984375,-1.5064697265625
0.1495,-1.2662353515625,3.1781005859375,-2.3072509765625
0.15,-0.8258056640625,3.2581787109375,-2.8277587890625
0.1505,-0.4654541015625,3.2181396484375,-3.1480712890625
0.151,0.1351318359375,2.8577880859375,-3.3482666015625
0.1515,0.8958740234375,2.1771240234375,-3.4683837890625
0.152,1.7366943359375,1.5765380859375,-3.7086181640625
0.1525,2.3372802734375,1.0560302734375,-3.8287353515625
0.153,2.6575927734375,0.7357177734375,-3.8287353515625
0.1535,2.7376708984375,0.2552490234375,-3.5084228515625
0.154,2.8577880859375,-0.2652587890625,-2.9879150390625
0.1545,2.9378662109375,-1.0260009765625,-2.3072509765625
0.155,3.0980224609375,-1.7867431640625,-1.7867431640625
0.1555,3.1781005859375,-2.3472900390625,-1.3062744140625
0.156,3.1781005859375,-2.7076416015625,-0.9058837890625
0.1565,2.7376708984375,-2.8277587890625,-0.3853759765625
0.157,2.1370849609375,-2.9078369140625,0.3353271484375
0.1575,1.5364990234375,-3.1881103515625,1.1761474609375
0.158,0.9759521484375,-3.3482666015625,1.8568115234375
0.1585,0.6156005859375,-3.3482666015625,2.2572021484375
0.159,0.1751708984375,-3.1881103515625,2.5374755859375
0.1595,-0.3853759765625,-2.8277587890625,2.6976318359375
0.16,-1.1861572265625,-2.1871337890625,2.8577880859375
0.1605,-1.9068603515625,-1.7066650390625,3.0579833984375
0.161,-2.4273681640625,-1.2662353515625,3.1380615234375
0.1615,-2.7476806640625,-0.9859619140625,3.1380615234375
0.162,-2.8277587890625,-0.5054931640625,2.7777099609375
0.1625,-2.9078369140625,0.1351318359375,2.2972412109375
0.163,-3.1080322265625,0.8958740234375,1.7767333984375
0.1635,-3.2681884765625,1.5765380859375,1.2562255859375
0.164,-3.3482666015625,2.0970458984375,0.8558349609375
0.1645,-3.2281494140625,2.4974365234375,0.3353271484375
0.165,-2.8677978515625,2.6575927734375,-0.1851806640625
0.1655,-2.2672119140625,2.8177490234375,-0.9859619140625
0.166,-1.6666259765625,3.0579833984375,-1.7867431640625
0.1665,-1.1461181640625,3.2181396484375,-2.4674072265625
0.167,-0.7857666015625,3.2581787109375,-2.8677978515625
0.1675,-0.2652587890625,3.0179443359375,-3.1480712890625
0.168,0.4154052734375,2.5374755859375,-3.3482666015625
0.1685,1.2962646484375,1.8968505859375,-3.5885009765625
0.169,1.9769287109375,1.3363037109375,-3.7886962890625
0.1695,2.4573974609375,0.9359130859375,-3.8287353515625
0.17,2.7376708984375,0.6156005859375,-3.7086181640625
0.1705,2.8177490234375,0.0950927734375,-3.2281494140625
0.171,2.8577880859375,-0.6256103515625,-2.6275634765625
0.1715,3.0579833984375,-1.4263916015625,-2.0670166015625
0.172,3.1781005859375,-2.1470947265625,-1.5465087890625
0.1725,3.1781005859375,-2.5474853515625,-1.1461181640625
0.173,2.8978271484375,-2.7476806640625,-0.6256103515625
0.1735,2.4173583984375,-2.9078369140625,0.0150146484375
0.174,1.7366943359375,-3.1080322265625,0.9359130859375
0.1745,1.1361083984375,-3.2681884765625,1.6165771484375
0.175,0.6956787109375,-3.3482666015625,2.1771240234375
0.1755,0.3753662109375,-3.3082275390625,2.4974365234375
0.176,-0.2252197265625,-2.9078369140625,2.5775146484375
0.1765,-0.9459228515625,-2.4273681640625,2.7777099609375
0.177,-1.7467041015625,-1.7867431640625,3.0179443359375
0.1775,-2.3072509765625,-1.3863525390625,3.0980224609375
