wavelength,x,y,z
0.0,0.02001953125,7.22705078125,-7.22705078125
0.0005,-1.66162109375,8.02783203125,-6.54638671875
0.001,-3.38330078125,8.74853515625,-5.58544921875
0.0015,-4.66455078125,8.38818359375,-4.06396484375
0.002,-5.86572265625,8.18798828125,-2.54248046875
0.0025,-6.78662109375,7.42724609375,-0.94091796875
0.003,-7.54736328125,6.50634765625,0.82080078125
0.0035,-8.46826171875,5.90576171875,2.42236328125
0.004,-8.94873046875,4.58447265625,4.14404296875
0.0045,-8.58837890625,3.06298828125,5.30517578125
0.005,-8.18798828125,1.38134765625,6.58642578125
0.0055,-7.22705078125,-0.38037109375,7.38720703125
0.006,-6.26611328125,-2.26220703125,8.22802734375
0.0065,-5.10498046875,-4.10400390625,8.94873046875
0.007,-3.30322265625,-5.58544921875,8.62841796875
0.0075,-1.78173828125,-6.78662109375,8.30810546875
0.008,-0.14013671875,-7.78759765625,7.74755859375
0.0085,1.66162109375,-8.54833984375,6.70654296875
0.009,3.30322265625,-9.30908203125,5.94580078125
0.0095,4.98486328125,-9.66943359375,4.62451171875
0.01,6.06591796875,-9.02880859375,2.98291015625
0.0105,7.18701171875,-8.50830078125,1.38134765625
0.011,7.94775390625,-7.42724609375,-0.50048828125
0.0115,8.66845703125,-6.38623046875,-2.26220703125
0.012,9.42919921875,-5.50537109375,-3.90380859375
0.0125,9.42919921875,-3.90380859375,-5.46533203125
0.013,8.78857421875,-2.26220703125,-6.46630859375
0.0135,8.10791015625,-0.50048828125,-7.54736328125
0.014,6.78662109375,1.50146484375,-8.22802734375
0.0145,5.74560546875,3.34326171875,-8.94873046875
0.015,4.30419921875,5.10498046875,-9.26904296875
0.0155,2.42236328125,6.26611328125,-8.66845703125
0.016,0.86083984375,7.34716796875,-8.22802734375
0.0165,-0.94091796875,8.02783203125,-7.26708984375
0.017,-2.70263671875,8.62841796875,-6.10595703125
0.0175,-4.22412109375,9.22900390625,-5.26513671875
0.018,-5.70556640625,9.10888671875,-3.66357421875
0.0185,-6.62646484375,8.38818359375,-2.06201171875
0.019,-7.54736328125,7.66748046875,-0.42041015625
0.0195,-8.06787109375,6.42626953125,1.46142578125
0.02,-8.70849609375,5.46533203125,3.02294921875
0.0205,-9.26904296875,4.46435546875,4.62451171875
0.021,-8.90869140625,2.82275390625,5.86572265625
0.0215,-8.30810546875,1.22119140625,6.90673828125
0.022,-7.42724609375,-0.58056640625,7.70751953125
0.0225,-6.14599609375,-2.50244140625,8.34814453125
0.023,-5.10498046875,-4.10400390625,8.94873046875
0.0235,-3.50341796875,-5.70556640625,8.94873046875
0.024,-1.86181640625,-6.70654296875,8.34814453125
0.0245,-0.34033203125,-7.78759765625,7.94775390625
0.025,1.38134765625,-8.46826171875,6.90673828125
0.0255,2.98291015625,-9.02880859375,5.94580078125
0.026,4.50439453125,-9.50927734375,5.06494140625
0.0265,5.66552734375,-9.06884765625,3.50341796875
0.027,6.66650390625,-8.58837890625,1.98193359375
0.0275,7.50732421875,-7.70751953125,0.34033203125
0.028,8.06787109375,-6.62646484375,-1.42138671875
0.0285,8.86865234375,-5.94580078125,-2.86279296875
0.029,9.26904296875,-4.78466796875,-4.42431640625
0.0295,8.74853515625,-3.18310546875,-5.50537109375
0.03,8.26806640625,-1.62158203125,-6.58642578125
0.0305,7.30712890625,0.14013671875,-7.34716796875
0.031,6.38623046875,1.86181640625,-8.14794921875
0.0315,5.38525390625,3.46337890625,-8.78857421875
0.032,3.66357421875,4.86474609375,-8.46826171875
0.0325,2.18212890625,5.90576171875,-8.14794921875
0.033,0.66064453125,6.90673828125,-7.62744140625
0.0335,-0.98095703125,7.54736328125,-6.78662109375
0.034,-2.34228515625,8.30810546875,-6.10595703125
0.0345,-3.86376953125,8.70849609375,-5.06494140625
0.035,-4.90478515625,8.22802734375,-3.54345703125
0.0355,-6.02587890625,7.86767578125,-2.10205078125
0.036,-6.78662109375,7.06689453125,-0.50048828125
0.0365,-7.54736328125,6.26611328125,1.06103515625
0.037,-8.38818359375,5.70556640625,2.50244140625
0.0375,-8.62841796875,4.42431640625,3.98388671875
0.038,-8.26806640625,2.98291015625,5.06494140625
0.0385,-7.86767578125,1.34130859375,6.30615234375
0.039,-6.98681640625,-0.34033203125,7.02685546875
0.0395,-6.26611328125,-1.98193359375,7.98779296875
0.04,-5.06494140625,-3.62353515625,8.38818359375
0.0405,-3.50341796875,-4.98486328125,8.14794921875
0.041,-2.10205078125,-6.18603515625,7.98779296875
0.0415,-0.58056640625,-7.10693359375,7.42724609375
0.042,0.98095703125,-7.82763671875,6.74658203125
0.0425,2.46240234375,-8.66845703125,6.18603515625
0.043,3.90380859375,-8.86865234375,4.98486328125
0.0435,4.98486328125,-8.46826171875,3.50341796875
0.044,6.18603515625,-8.10791015625,1.98193359375
0.0445,6.98681640625,-7.30712890625,0.42041015625
0.045,7.94775390625,-6.70654296875,-1.18115234375
0.0455,8.70849609375,-5.94580078125,-2.70263671875
0.046,8.70849609375,-4.54443359375,-4.14404296875
0.0465,8.30810546875,-3.06298828125,-5.18505859375
0.047,7.82763671875,-1.42138671875,-6.38623046875
0.0475,6.98681640625,0.30029296875,-7.18701171875
0.048,6.26611328125,1.98193359375,-8.18798828125
0.0485,4.82470703125,3.54345703125,-8.38818359375
0.049,3.26318359375,4.78466796875,-8.06787109375
0.0495,1.86181640625,5.98583984375,-7.94775390625
0.05,0.34033203125,6.90673828125,-7.22705078125
0.0505,-1.26123046875,7.74755859375,-6.58642578125
0.051,-2.74267578125,8.38818359375,-5.78564453125
0.0515,-4.10400390625,8.30810546875,-4.38427734375
0.052,-5.18505859375,7.94775390625,-2.98291015625
0.0525,-6.26611328125,7.42724609375,-1.42138671875
0.053,-7.02685546875,6.54638671875,0.22021484375
0.0535,-7.98779296875,6.10595703125,1.70166015625
0.054,-8.54833984375,5.06494140625,3.26318359375
0.0545,-8.30810546875,3.54345703125,4.54443359375
0.055,-8.02783203125,2.06201171875,5.74560546875
0.0555,-7.26708984375,0.38037109375,6.70654296875
0.056,-6.46630859375,-1.42138671875,7.62744140625
0.0565,-5.50537109375,-3.14306640625,8.30810546875
0.057,-3.98388671875,-4.66455078125,8.30810546875
0.0575,-2.50244140625,-5.82568359375,8.02783203125
0.058,-1.02099609375,-6.94677734375,7.70751953125
0.0585,0.66064453125,-7.70751953125,6.90673828125
0.059,2.22216796875,-8.58837890625,6.30615234375
0.0595,3.74365234375,-8.98876953125,5.26513671875
0.06,4.94482421875,-8.70849609375,3.82373046875
0.0605,6.10595703125,-8.30810546875,2.30224609375
0.061,7.06689453125,-7.58740234375,0.62060546875
0.0615,7.82763671875,-6.70654296875,-1.10107421875
0.062,8.70849609375,-6.10595703125,-2.58251953125
0.0625,8.98876953125,-4.82470703125,-4.14404296875
0.063,8.50830078125,-3.18310546875,-5.26513671875
0.0635,8.14794921875,-1.58154296875,-6.50634765625
0.064,7.10693359375,0.30029296875,-7.30712890625
0.0645,6.26611328125,2.02197265625,-8.30810546875
0.065,4.98486328125,3.70361328125,-8.66845703125
0.0655,3.34326171875,5.06494140625,-8.38818359375
0.066,1.86181640625,6.22607421875,-8.06787109375
0.0665,0.22021484375,7.18701171875,-7.50732421875
0.067,-1.54150390625,7.90771484375,-6.46630859375
0.0675,-3.02294921875,8.66845703125,-5.78564453125
0.068,-4.50439453125,8.74853515625,-4.46435546875
0.0685,-5.58544921875,8.22802734375,-2.86279296875
0.069,-6.62646484375,7.70751953125,-1.30126953125
0.0695,-7.38720703125,6.70654296875,0.50048828125
0.07,-8.22802734375,5.86572265625,2.10205078125
0.0705,-8.82861328125,4.98486328125,3.58349609375
0.071,-8.82861328125,3.54345703125,5.10498046875
0.0715,-8.26806640625,1.94189453125,6.10595703125
0.072,-7.62744140625,0.22021484375,7.22705078125
0.0725,-6.38623046875,-1.86181640625,7.90771484375
0.073,-5.42529296875,-3.58349609375,8.66845703125
0.0735,-3.86376953125,-5.14501953125,8.74853515625
0.074,-2.26220703125,-6.34619140625,8.34814453125
0.0745,-0.78076171875,-7.38720703125,7.94775390625
0.075,1.02099609375,-8.18798828125,7.06689453125
0.0755,2.78271484375,-8.90869140625,6.10595703125
0.076,4.22412109375,-9.34912109375,5.10498046875
0.0765,5.62548828125,-9.22900390625,3.66357421875
0.077,6.54638671875,-8.54833984375,2.06201171875
0.0775,7.54736328125,-7.86767578125,0.46044921875
0.078,8.18798828125,-6.62646484375,-1.54150390625
0.0785,8.98876953125,-5.86572265625,-3.10302734375
0.079,9.26904296875,-4.66455078125,-4.62451171875
0.0795,8.98876953125,-3.06298828125,-5.86572265625
0.08,8.26806640625,-1.42138671875,-6.78662109375
0.0805,7.42724609375,0.38037109375,-7.74755859375
0.081,6.06591796875,2.42236328125,-8.46826171875
0.0815,5.02490234375,4.02392578125,-9.02880859375
0.082,3.22314453125,5.58544921875,-8.78857421875
0.0825,1.70166015625,6.58642578125,-8.26806640625
0.083,0.14013671875,7.54736328125,-7.70751953125
0.0835,-1.74169921875,8.18798828125,-6.54638671875
0.084,-3.34326171875,8.86865234375,-5.70556640625
0.0845,-4.74462890625,8.98876953125,-4.46435546875
0.085,-5.90576171875,8.62841796875,-2.90283203125
0.0855,-6.78662109375,7.82763671875,-1.34130859375
0.086,-7.62744140625,7.06689453125,0.38037109375
0.0865,-8.18798828125,5.74560546875,2.22216796875
0.087,-8.90869140625,5.06494140625,3.58349609375
0.0875,-8.98876953125,3.70361328125,5.06494140625
0.088,-8.46826171875,2.06201171875,6.14599609375
0.0885,-7.82763671875,0.42041015625,7.14697265625
0.089,-6.70654296875,-1.46142578125,7.86767578125
0.0895,-5.58544921875,-3.38330078125,8.62841796875
0.09,-4.26416015625,-4.82470703125,8.82861328125
0.0905,-2.58251953125,-6.18603515625,8.54833984375
0.091,-1.14111328125,-7.14697265625,8.06787109375
0.0915,0.54052734375,-8.06787109375,7.42724609375
0.092,2.30224609375,-8.66845703125,6.30615234375
0.0925,3.82373046875,-9.30908203125,5.50537109375
0.093,5.14501953125,-9.26904296875,4.14404296875
0.0935,6.22607421875,-8.82861328125,2.62255859375
0.094,7.10693359375,-8.06787109375,1.02099609375
0.0945,7.86767578125,-7.10693359375,-0.70068359375
0.095,8.62841796875,-6.10595703125,-2.50244140625
0.0955,9.14892578125,-5.26513671875,-3.82373046875
0.096,9.10888671875,-3.78369140625,-5.30517578125
0.0965,8.42822265625,-2.22216796875,-6.22607421875
0.097,7.82763671875,-0.58056640625,-7.34716796875
0.0975,6.54638671875,1.38134765625,-7.98779296875
0.098,5.66552734375,3.18310546875,-8.82861328125
0.0985,4.14404296875,4.66455078125,-8.70849609375
0.099,2.50244140625,5.94580078125,-8.38818359375
0.0995,1.02099609375,6.86669921875,-7.86767578125
0.1,-0.62060546875,7.70751953125,-7.18701171875
0.1005,-2.38232421875,8.34814453125,-6.10595703125
0.101,-3.78369140625,8.82861328125,-5.26513671875
0.1015,-5.10498046875,8.62841796875,-3.78369140625
0.102,-6.10595703125,8.10791015625,-2.26220703125
0.1025,-6.98681640625,7.38720703125,-0.66064453125
0.103,-7.66748046875,6.34619140625,1.10107421875
0.1035,-8.46826171875,5.62548828125,2.70263671875
0.104,-8.82861328125,4.54443359375,4.02392578125
0.1045,-8.66845703125,2.98291015625,5.38525390625
0.105,-8.06787109375,1.42138671875,6.38623046875
0.1055,-7.34716796875,-0.34033203125,7.34716796875
0.106,-6.10595703125,-2.26220703125,8.06787109375
0.1065,-5.10498046875,-3.86376953125,8.70849609375
0.107,-3.50341796875,-5.26513671875,8.50830078125
0.1075,-2.02197265625,-6.42626953125,8.26806640625
0.108,-0.50048828125,-7.38720703125,7.70751953125
0.1085,1.26123046875,-8.18798828125,6.82666015625
0.109,2.90283203125,-8.94873046875,6.02587890625
0.1095,4.22412109375,-9.18896484375,4.94482421875
0.11,5.54541015625,-8.94873046875,3.46337890625
0.1105,6.42626953125,-8.34814453125,1.94189453125
0.111,7.42724609375,-7.62744140625,0.26025390625
0.1115,8.10791015625,-6.50634765625,-1.58154296875
0.112,8.98876953125,-5.78564453125,-3.14306640625
0.1125,9.06884765625,-4.54443359375,-4.50439453125
0.113,8.66845703125,-2.94287109375,-5.70556640625
0.1135,8.02783203125,-1.42138671875,-6.70654296875
0.114,7.18701171875,0.50048828125,-7.62744140625
0.1145,6.06591796875,2.46240234375,-8.42822265625
0.115,4.82470703125,3.98388671875,-8.78857421875
0.1155,3.10302734375,5.38525390625,-8.46826171875
0.116,1.70166015625,6.42626953125,-8.06787109375
0.1165,0.10009765625,7.34716796875,-7.50732421875
0.117,-1.66162109375,7.98779296875,-6.46630859375
0.1175,-3.22314453125,8.78857421875,-5.70556640625
0.118,-4.50439453125,8.66845703125,-4.38427734375
0.1185,-5.74560546875,8.30810546875,-2.82275390625
0.119,-6.54638671875,7.66748046875,-1.34130859375
0.1195,-7.42724609375,6.78662109375,0.42041015625
0.12,-8.18798828125,5.78564453125,2.14208984375
0.1205,-8.78857421875,4.98486328125,3.54345703125
0.121,-8.78857421875,3.54345703125,4.98486328125
0.1215,-8.26806640625,1.94189453125,6.02587890625
0.122,-7.62744140625,0.34033203125,7.06689453125
0.1225,-6.50634765625,-1.58154296875,7.82763671875
0.123,-5.46533203125,-3.42333984375,8.62841796875
0.1235,-4.02392578125,-4.86474609375,8.62841796875
0.124,-2.42236328125,-6.18603515625,8.38818359375
0.1245,-0.98095703125,-7.10693359375,7.90771484375
0.125,0.70068359375,-8.02783203125,7.18701171875
0.1255,2.50244140625,-8.74853515625,6.22607421875
0.126,3.98388671875,-9.26904296875,5.30517578125
0.1265,5.22509765625,-9.06884765625,3.86376953125
0.127,6.30615234375,-8.58837890625,2.34228515625
0.1275,7.18701171875,-7.86767578125,0.78076171875
0.128,7.94775390625,-6.86669921875,-1.06103515625
0.1285,8.78857421875,-6.02587890625,-2.74267578125
0.129,9.10888671875,-4.94482421875,-4.14404296875
0.1295,8.94873046875,-3.46337890625,-5.58544921875
0.13,8.18798828125,-1.78173828125,-6.38623046875
0.1305,7.58740234375,0.02001953125,-7.46728515625
0.131,6.30615234375,1.94189453125,-8.18798828125
0.1315,5.26513671875,3.70361328125,-8.90869140625
0.132,3.58349609375,5.06494140625,-8.58837890625
0.1325,2.06201171875,6.26611328125,-8.30810546875
0.133,0.58056640625,7.06689453125,-7.70751953125
0.1335,-1.14111328125,7.90771484375,-6.82666015625
0.134,-2.90283203125,8.66845703125,-5.90576171875
0.1345,-4.26416015625,8.82861328125,-4.78466796875
0.135,-5.50537109375,8.54833984375,-3.26318359375
0.1355,-6.42626953125,7.86767578125,-1.74169921875
0.136,-7.30712890625,7.10693359375,-0.14013671875
0.1365,-7.94775390625,5.98583984375,1.66162109375
0.137,-8.78857421875,5.18505859375,3.26318359375
0.1375,-8.82861328125,3.98388671875,4.54443359375
0.138,-8.46826171875,2.42236328125,5.90576171875
0.1385,-7.86767578125,0.86083984375,6.78662109375
0.139,-6.98681640625,-0.98095703125,7.70751953125
0.1395,-5.74560546875,-3.02294921875,8.46826171875
0.14,-4.50439453125,-4.58447265625,8.78857421875
0.1405,-2.86279296875,-5.90576171875,8.50830078125
0.141,-1.34130859375,-7.02685546875,8.18798828125
0.1415,0.26025390625,-7.86767578125,7.50732421875
0.142,2.02197265625,-8.62841796875,6.54638671875
0.1425,3.66357421875,-9.34912109375,5.62548828125
0.143,4.98486328125,-9.22900390625,4.30419921875
0.1435,6.22607421875,-8.90869140625,2.74267578125
0.144,7.02685546875,-8.14794921875,1.22119140625
0.1445,7.90771484375,-7.38720703125,-0.58056640625
0.145,8.66845703125,-6.22607421875,-2.42236328125
0.1455,9.26904296875,-5.30517578125,-3.98388671875
0.146,9.14892578125,-3.82373046875,-5.30517578125
0.1465,8.50830078125,-2.18212890625,-6.38623046875
0.147,7.86767578125,-0.50048828125,-7.34716796875
0.1475,6.74658203125,1.42138671875,-8.14794921875
0.148,5.62548828125,3.42333984375,-8.98876953125
0.1485,3.98388671875,4.94482421875,-8.86865234375
0.149,2.34228515625,6.22607421875,-8.58837890625
0.1495,0.86083984375,7.10693359375,-7.94775390625
0.15,-0.82080078125,7.98779296875,-7.22705078125
0.1505,-2.66259765625,8.62841796875,-6.10595703125
0.151,-4.22412109375,9.14892578125,-5.10498046875
0.1515,-5.42529296875,8.74853515625,-3.54345703125
0.152,-6.58642578125,8.30810546875,-1.98193359375
0.1525,-7.30712890625,7.38720703125,-0.42041015625
0.153,-8.02783203125,6.38623046875,1.38134765625
0.1535,-8.86865234375,5.34521484375,3.22314453125
0.154,-9.02880859375,4.18408203125,4.62451171875
0.1545,-8.90869140625,2.66259765625,5.98583984375
0.155,-8.10791015625,0.98095703125,6.90673828125
0.1555,-7.38720703125,-0.74072265625,7.82763671875
0.156,-6.06591796875,-2.74267578125,8.50830078125
0.1565,-4.82470703125,-4.62451171875,9.14892578125
0.157,-3.06298828125,-5.90576171875,8.70849609375
0.1575,-1.54150390625,-7.18701171875,8.46826171875
0.158,0.10009765625,-7.94775390625,7.70751953125
0.1585,1.78173828125,-8.70849609375,6.90673828125
0.159,3.70361328125,-9.50927734375,5.74560546875
0.1595,5.10498046875,-9.58935546875,4.50439453125
0.16,6.30615234375,-9.18896484375,2.94287109375
0.1605,7.26708984375,-8.50830078125,1.30126953125
0.161,7.98779296875,-7.66748046875,-0.34033203125
0.1615,8.66845703125,-6.46630859375,-2.26220703125
0.162,9.46923828125,-5.42529296875,-3.98388671875
0.1625,9.26904296875,-3.98388671875,-5.26513671875
0.163,8.94873046875,-2.42236328125,-6.54638671875
0.1635,7.98779296875,-0.70068359375,-7.30712890625
0.164,7.18701171875,1.06103515625,-8.18798828125
0.1645,5.78564453125,3.18310546875,-8.90869140625
0.165,4.46435546875,4.82470703125,-9.18896484375
0.1655,2.58251953125,6.06591796875,-8.62841796875
0.166,1.14111328125,7.10693359375,-8.26806640625
0.1665,-0.50048828125,7.82763671875,-7.38720703125
0.167,-2.18212890625,8.46826171875,-6.38623046875
0.1675,-3.98388671875,9.18896484375,-5.42529296875
0.168,-5.14501953125,8.86865234375,-3.94384765625
0.1685,-6.34619140625,8.46826171875,-2.46240234375
0.169,-7.02685546875,7.54736328125,-0.90087890625
0.1695,-7.74755859375,6.70654296875,0.78076171875
0.17,-8.38818359375,5.66552734375,2.54248046875
0.1705,-8.98876953125,4.70458984375,4.06396484375
0.171,-8.74853515625,3.30322265625,5.22509765625
0.1715,-8.30810546875,1.70166015625,6.38623046875
0.172,-7.54736328125,0.14013671875,7.14697265625
0.1725,-6.58642578125,-1.62158203125,7.94775390625
0.173,-5.38525390625,-3.54345703125,8.66845703125
0.1735,-3.90380859375,-4.94482421875,8.58837890625
0.174,-2.38232421875,-6.10595703125,8.30810546875
0.1745,-0.98095703125,-7.06689453125,7.86767578125
0.175,0.62060546875,-7.86767578125,7.18701171875
0.1755,2.22216796875,-8.50830078125,6.26611328125
0.176,3.74365234375,-9.14892578125,5.42529296875
0.1765,4.82470703125,-8.86865234375,4.02392578125
0.177,5.98583984375,-8.62841796875,2.62255859375
0.1775,6.70654296875,-7.82763671875,1.14111328125
0.178,7.54736328125,-7.06689453125,-0.50048828125
0.1785,8.38818359375,-6.18603515625,-2.14208984375
0.179,8.78857421875,-5.30517578125,-3.46337890625
0.1795,8.70849609375,-3.94384765625,-4.74462890625
0.18,8.10791015625,-2.42236328125,-5.74560546875
0.1805,7.62744140625,-0.82080078125,-6.74658203125
0.181,6.70654296875,0.90087890625,-7.50732421875
0.1815,5.82568359375,2.62255859375,-8.38818359375
0.182,4.34423828125,3.86376953125,-8.14794921875
0.1825,2.90283203125,5.18505859375,-8.06787109375
0.183,1.54150390625,6.06591796875,-7.62744140625
0.1835,0.06005859375,7.02685546875,-7.10693359375
0.184,-1.46142578125,7.74755859375,-6.42626953125
0.1845,-2.82275390625,8.22802734375,-5.58544921875
0.185,-3.94384765625,7.98779296875,-4.30419921875
0.1855,-5.10498046875,7.74755859375,-2.94287109375
0.186,-6.02587890625,7.22705078125,-1.42138671875
0.1865,-6.90673828125,6.58642578125,0.06005859375
0.187,-7.86767578125,6.06591796875,1.58154296875
0.1875,-8.18798828125,5.18505859375,2.82275390625
0.188,-8.18798828125,3.78369140625,4.18408203125
0.1885,-7.78759765625,2.30224609375,5.26513671875
0.189,-7.30712890625,0.66064453125,6.42626953125
0.1895,-6.50634765625,-0.98095703125,7.26708984375
0.19,-5.62548828125,-2.62255859375,7.98779296875
0.1905,-4.26416015625,-3.86376953125,7.86767578125
0.191,-2.94287109375,-5.26513671875,7.94775390625
0.1915,-1.54150390625,-6.26611328125,7.58740234375
0.192,0.02001953125,-7.22705078125,7.10693359375
0.1925,1.50146484375,-8.22802734375,6.62646484375
0.193,2.82275390625,-8.50830078125,5.62548828125
0.1935,4.14404296875,-8.50830078125,4.30419921875
0.194,5.18505859375,-8.06787109375,2.90283203125
0.1945,6.38623046875,-7.62744140625,1.30126953125
0.195,7.26708984375,-6.98681640625,-0.26025390625
0.1955,8.30810546875,-6.46630859375,-1.78173828125
0.196,8.46826171875,-5.38525390625,-3.06298828125
0.1965,8.30810546875,-3.86376953125,-4.46435546875
0.197,7.90771484375,-2.34228515625,-5.58544921875
0.1975,7.34716796875,-0.62060546875,-6.70654296875
0.198,6.58642578125,1.22119140625,-7.70751953125
0.1985,5.42529296875,2.70263671875,-8.10791015625
0.199,3.94384765625,4.14404296875,-8.02783203125
0.1995,2.54248046875,5.34521484375,-7.86767578125
