wavelength,x,y,z
0.0,0.610595703125,5.255126953125,-4.834716796875
0.0005,1.251220703125,5.135009765625,-5.635498046875
0.001,2.252197265625,4.934814453125,-6.396240234375
0.0015,3.373291015625,4.013916015625,-6.916748046875
0.002,4.414306640625,2.652587890625,-6.836669921875
0.0025,5.094970703125,1.211181640625,-6.356201171875
0.003,5.375244140625,0.330322265625,-6.075927734375
0.0035,5.615478515625,-0.590576171875,-5.835693359375
0.004,5.895751953125,-1.351318359375,-5.635498046875
0.0045,5.455322265625,-2.832763671875,-4.033935546875
0.005,4.934814453125,-3.953857421875,-2.552490234375
0.0055,4.374267578125,-4.674560546875,-1.471435546875
0.006,3.973876953125,-5.275146484375,-0.630615234375
0.0065,3.493408203125,-5.835693359375,0.410400390625
0.007,2.612548828125,-6.236083984375,1.571533203125
0.0075,1.131103515625,-6.115966796875,2.932861328125
0.008,-0.270263671875,-5.795654296875,3.933837890625
0.0085,-0.990966796875,-5.795654296875,4.614501953125
0.009,-1.671630859375,-5.755615234375,5.415283203125
0.0095,-2.552490234375,-5.635498046875,6.336181640625
0.01,-3.913818359375,-4.194091796875,6.496337890625
0.0105,-4.834716796875,-2.832763671875,6.336181640625
0.011,-5.275146484375,-1.711669921875,5.975830078125
0.0115,-5.515380859375,-0.950927734375,5.735595703125
0.012,-5.755615234375,-0.150146484375,5.455322265625
0.0125,-5.955810546875,0.850830078125,5.094970703125
0.013,-5.555419921875,2.092041015625,3.693603515625
0.0135,-4.954833984375,3.173095703125,2.172119140625
0.014,-4.514404296875,3.853759765625,1.251220703125
0.0145,-4.154052734375,4.454345703125,0.490478515625
0.015,-3.873779296875,5.094970703125,-0.430419921875
0.0155,-2.552490234375,5.215087890625,-1.791748046875
0.016,-1.271240234375,5.175048828125,-2.992919921875
0.0165,-0.270263671875,4.974853515625,-3.873779296875
0.017,0.490478515625,4.974853515625,-4.634521484375
0.0175,1.251220703125,4.934814453125,-5.435302734375
0.018,2.052001953125,4.854736328125,-6.316162109375
0.0185,3.333251953125,3.453369140625,-6.356201171875
0.019,4.214111328125,1.971923828125,-6.075927734375
0.0195,4.694580078125,1.091064453125,-5.835693359375
0.02,4.974853515625,0.370361328125,-5.755615234375
0.0205,5.375244140625,-0.510498046875,-5.635498046875
0.021,5.295166015625,-1.591552734375,-4.754638671875
0.0215,5.014892578125,-2.672607421875,-3.673583984375
0.022,4.454345703125,-3.633544921875,-2.312255859375
0.0225,4.093994140625,-4.354248046875,-1.431396484375
0.023,3.813720703125,-4.994873046875,-0.630615234375
0.0235,3.573486328125,-5.715576171875,0.290283203125
0.024,2.132080078125,-5.715576171875,1.651611328125
0.0245,0.810791015625,-5.635498046875,2.852783203125
0.025,0.010009765625,-5.675537109375,3.653564453125
0.0255,-0.710693359375,-5.755615234375,4.454345703125
0.026,-1.631591796875,-5.675537109375,5.375244140625
0.0265,-2.632568359375,-5.114990234375,6.015869140625
0.027,-3.713623046875,-3.873779296875,6.095947265625
0.0275,-4.514404296875,-2.512451171875,5.735595703125
0.028,-4.954833984375,-1.671630859375,5.655517578125
0.0285,-5.275146484375,-0.990966796875,5.535400390625
0.029,-5.715576171875,-0.310302734375,5.615478515625
0.0295,-5.395263671875,1.091064453125,4.254150390625
0.03,-5.074951171875,2.212158203125,3.052978515625
0.0305,-4.674560546875,2.972900390625,2.052001953125
0.031,-4.354248046875,3.693603515625,1.211181640625
0.0315,-4.073974609375,4.374267578125,0.370361328125
0.032,-3.473388671875,4.894775390625,-0.710693359375
0.0325,-2.272216796875,4.934814453125,-1.911865234375
0.033,-0.990966796875,4.734619140625,-3.032958984375
0.0335,-0.350341796875,4.814697265625,-3.793701171875
0.034,0.450439453125,4.974853515625,-4.634521484375
0.0345,1.291259765625,5.054931640625,-5.635498046875
0.035,2.532470703125,3.893798828125,-5.915771484375
0.0355,3.493408203125,2.772705078125,-5.915771484375
0.036,4.093994140625,1.651611328125,-5.715576171875
0.0365,4.534423828125,0.930908203125,-5.675537109375
0.037,4.854736328125,0.210205078125,-5.635498046875
0.0375,5.255126953125,-0.670654296875,-5.435302734375
0.038,4.934814453125,-1.831787109375,-4.234130859375
0.0385,4.494384765625,-2.952880859375,-2.872802734375
0.039,4.134033203125,-3.673583984375,-2.031982421875
0.0395,3.973876953125,-4.394287109375,-1.271240234375
0.04,3.773681640625,-5.155029296875,-0.470458984375
0.0405,2.692626953125,-5.435302734375,0.890869140625
0.041,1.571533203125,-5.555419921875,2.052001953125
0.0415,0.610595703125,-5.475341796875,2.932861328125
0.042,-0.150146484375,-5.635498046875,3.813720703125
0.0425,-0.950927734375,-5.715576171875,4.694580078125
0.043,-1.791748046875,-5.715576171875,5.655517578125
0.0435,-3.072998046875,-4.394287109375,5.815673828125
0.044,-3.993896484375,-3.072998046875,5.655517578125
0.0445,-4.514404296875,-2.192138671875,5.575439453125
0.045,-4.954833984375,-1.471435546875,5.535400390625
0.0455,-5.355224609375,-0.710693359375,5.495361328125
0.046,-5.435302734375,0.370361328125,4.814697265625
0.0465,-5.235107421875,1.451416015625,3.853759765625
0.047,-4.754638671875,2.452392578125,2.532470703125
0.0475,-4.474365234375,3.173095703125,1.651611328125
0.048,-4.234130859375,3.893798828125,0.930908203125
0.0485,-4.073974609375,4.654541015625,0.130126953125
0.049,-2.752685546875,4.734619140625,-1.311279296875
0.0495,-1.591552734375,4.734619140625,-2.512451171875
0.05,-0.790771484375,4.814697265625,-3.313232421875
0.0505,0.010009765625,4.974853515625,-4.194091796875
0.051,0.890869140625,4.974853515625,-5.114990234375
0.0515,1.931884765625,4.534423828125,-5.835693359375
0.052,3.012939453125,3.333251953125,-5.995849609375
0.0525,3.853759765625,2.011962890625,-5.755615234375
0.053,4.334228515625,1.211181640625,-5.675537109375
0.0535,4.774658203125,0.490478515625,-5.635498046875
0.054,5.215087890625,-0.350341796875,-5.715576171875
0.0545,4.974853515625,-1.591552734375,-4.474365234375
0.055,4.734619140625,-2.712646484375,-3.313232421875
0.0555,4.334228515625,-3.553466796875,-2.272216796875
0.056,4.053955078125,-4.234130859375,-1.431396484375
0.0565,3.693603515625,-4.954833984375,-0.590576171875
0.057,3.173095703125,-5.595458984375,0.570556640625
0.0575,1.891845703125,-5.635498046875,1.851806640625
0.058,0.650634765625,-5.475341796875,2.972900390625
0.0585,0.010009765625,-5.595458984375,3.773681640625
0.059,-0.870849609375,-5.635498046875,4.614501953125
0.0595,-1.791748046875,-5.635498046875,5.615478515625
0.06,-3.072998046875,-4.514404296875,5.935791015625
0.0605,-4.033935546875,-3.273193359375,5.975830078125
0.061,-4.674560546875,-2.112060546875,5.735595703125
0.0615,-5.034912109375,-1.351318359375,5.575439453125
0.062,-5.395263671875,-0.590576171875,5.415283203125
0.0625,-5.715576171875,0.330322265625,5.215087890625
0.063,-5.395263671875,1.651611328125,3.853759765625
0.0635,-4.874755859375,2.732666015625,2.412353515625
0.064,-4.514404296875,3.453369140625,1.571533203125
0.0645,-4.234130859375,4.093994140625,0.770751953125
0.065,-3.913818359375,4.734619140625,-0.190185546875
0.0655,-2.752685546875,4.974853515625,-1.471435546875
0.066,-1.591552734375,5.054931640625,-2.712646484375
0.0665,-0.510498046875,4.894775390625,-3.593505859375
0.067,0.250244140625,4.974853515625,-4.354248046875
0.0675,1.091064453125,4.894775390625,-5.235107421875
0.068,1.931884765625,4.814697265625,-6.156005859375
0.0685,3.293212890625,3.333251953125,-6.276123046875
0.069,4.174072265625,1.971923828125,-6.035888671875
0.0695,4.614501953125,1.051025390625,-5.795654296875
0.07,4.934814453125,0.330322265625,-5.715576171875
0.0705,5.255126953125,-0.590576171875,-5.475341796875
0.071,5.255126953125,-1.751708984375,-4.634521484375
0.0715,4.974853515625,-2.832763671875,-3.473388671875
0.072,4.414306640625,-3.833740234375,-2.152099609375
0.0725,4.053955078125,-4.474365234375,-1.271240234375
0.073,3.693603515625,-5.155029296875,-0.430419921875
0.0735,3.373291015625,-5.795654296875,0.490478515625
0.074,1.891845703125,-5.795654296875,1.971923828125
0.0745,0.610595703125,-5.715576171875,3.173095703125
0.075,-0.310302734375,-5.675537109375,3.973876953125
0.0755,-0.990966796875,-5.755615234375,4.694580078125
0.076,-1.951904296875,-5.475341796875,5.615478515625
0.0765,-3.032958984375,-4.914794921875,6.296142578125
0.077,-4.154052734375,-3.553466796875,6.296142578125
0.0775,-4.874755859375,-2.152099609375,5.935791015625
0.078,-5.235107421875,-1.311279296875,5.735595703125
0.0785,-5.515380859375,-0.590576171875,5.495361328125
0.079,-5.835693359375,0.330322265625,5.375244140625
0.0795,-5.595458984375,1.651611328125,3.973876953125
0.08,-5.155029296875,2.812744140625,2.692626953125
0.0805,-4.674560546875,3.573486328125,1.611572265625
0.081,-4.314208984375,4.174072265625,0.730712890625
0.0815,-3.873779296875,4.814697265625,-0.270263671875
0.082,-3.153076171875,5.295166015625,-1.351318359375
0.0825,-1.751708984375,5.295166015625,-2.752685546875
0.083,-0.430419921875,5.094970703125,-3.873779296875
0.0835,0.370361328125,5.094970703125,-4.594482421875
0.084,1.131103515625,5.054931640625,-5.395263671875
0.0845,2.092041015625,4.814697265625,-6.356201171875
0.085,3.493408203125,3.533447265625,-6.636474609375
0.0855,4.454345703125,2.252197265625,-6.556396484375
0.086,4.974853515625,1.010986328125,-6.156005859375
0.0865,5.255126953125,0.210205078125,-5.915771484375
0.087,5.535400390625,-0.790771484375,-5.635498046875
0.0875,5.735595703125,-1.791748046875,-5.155029296875
0.088,5.375244140625,-3.193115234375,-3.593505859375
0.0885,4.774658203125,-4.354248046875,-2.072021484375
0.089,4.214111328125,-4.994873046875,-1.111083984375
0.0895,3.813720703125,-5.555419921875,-0.270263671875
0.09,3.253173828125,-6.115966796875,0.850830078125
0.0905,1.851806640625,-6.356201171875,2.412353515625
0.091,0.450439453125,-6.276123046875,3.773681640625
0.0915,-0.710693359375,-5.915771484375,4.574462890625
0.092,-1.431396484375,-5.835693359375,5.255126953125
0.0925,-2.432373046875,-5.515380859375,6.095947265625
0.093,-3.353271484375,-5.235107421875,6.936767578125
0.0935,-4.794677734375,-3.513427734375,6.896728515625
0.094,-5.595458984375,-1.951904296875,6.496337890625
0.0945,-5.875732421875,-0.990966796875,6.095947265625
0.095,-5.995849609375,-0.150146484375,5.735595703125
0.0955,-6.196044921875,0.970947265625,5.215087890625
0.096,-6.115966796875,2.252197265625,4.134033203125
0.0965,-5.635498046875,3.493408203125,2.692626953125
0.097,-4.874755859375,4.334228515625,1.211181640625
0.0975,-4.314208984375,4.814697265625,0.250244140625
0.098,-3.793701171875,5.335205078125,-0.670654296875
0.0985,-3.193115234375,5.895751953125,-1.631591796875
0.099,-1.431396484375,5.815673828125,-3.393310546875
0.0995,0.130126953125,5.535400390625,-4.594482421875
0.1,0.930908203125,5.335205078125,-5.195068359375
0.1005,1.611572265625,5.094970703125,-5.835693359375
0.101,2.692626953125,4.654541015625,-6.716552734375
0.1015,3.813720703125,3.933837890625,-7.237060546875
0.102,4.894775390625,2.372314453125,-7.116943359375
0.1025,5.535400390625,0.770751953125,-6.516357421875
0.103,5.735595703125,-0.270263671875,-6.115966796875
0.1035,5.815673828125,-1.031005859375,-5.755615234375
0.104,6.055908203125,-1.951904296875,-5.395263671875
0.1045,5.615478515625,-3.513427734375,-3.713623046875
0.105,5.094970703125,-4.634521484375,-2.192138671875
0.1055,4.414306640625,-5.315185546875,-1.031005859375
0.106,3.853759765625,-5.795654296875,0.010009765625
0.1065,3.213134765625,-6.276123046875,0.970947265625
0.107,2.372314453125,-6.716552734375,2.172119140625
0.1075,0.650634765625,-6.556396484375,3.693603515625
0.108,-0.830810546875,-6.115966796875,4.774658203125
0.1085,-1.511474609375,-6.035888671875,5.415283203125
0.109,-2.312255859375,-5.755615234375,6.095947265625
0.1095,-3.353271484375,-5.435302734375,6.976806640625
0.11,-4.714599609375,-3.913818359375,7.177001953125
0.1105,-5.635498046875,-2.512451171875,6.936767578125
0.111,-6.035888671875,-1.191162109375,6.376220703125
0.1115,-6.156005859375,-0.310302734375,5.935791015625
0.112,-6.276123046875,0.650634765625,5.535400390625
0.1125,-6.436279296875,1.611572265625,5.054931640625
0.113,-5.915771484375,3.052978515625,3.253173828125
0.1135,-5.195068359375,4.174072265625,1.571533203125
0.114,-4.554443359375,4.774658203125,0.610595703125
0.1145,-4.073974609375,5.255126953125,-0.310302734375
0.115,-3.513427734375,5.735595703125,-1.271240234375
0.1155,-2.072021484375,5.895751953125,-2.832763671875
0.116,-0.630615234375,5.735595703125,-4.154052734375
0.1165,0.650634765625,5.375244140625,-4.994873046875
0.117,1.331298828125,5.255126953125,-5.635498046875
0.1175,2.212158203125,4.974853515625,-6.396240234375
0.118,3.093017578125,4.734619140625,-7.237060546875
0.1185,4.534423828125,2.932861328125,-7.156982421875
0.119,5.375244140625,1.331298828125,-6.756591796875
0.1195,5.695556640625,0.290283203125,-6.356201171875
0.12,5.815673828125,-0.630615234375,-6.035888671875
0.1205,6.015869140625,-1.591552734375,-5.515380859375
0.121,5.935791015625,-2.872802734375,-4.554443359375
0.1215,5.455322265625,-4.114013671875,-3.072998046875
0.122,4.694580078125,-5.074951171875,-1.431396484375
0.1225,4.134033203125,-5.635498046875,-0.510498046875
0.123,3.573486328125,-6.115966796875,0.490478515625
0.1235,3.093017578125,-6.716552734375,1.451416015625
0.124,1.251220703125,-6.596435546875,3.213134765625
0.1245,-0.390380859375,-6.356201171875,4.494384765625
0.125,-1.271240234375,-6.115966796875,5.215087890625
0.1255,-1.991943359375,-5.915771484375,5.895751953125
0.126,-3.072998046875,-5.475341796875,6.696533203125
0.1265,-4.154052734375,-4.834716796875,7.337158203125
0.127,-5.355224609375,-3.153076171875,7.177001953125
0.1275,-6.035888671875,-1.471435546875,6.576416015625
0.128,-6.236083984375,-0.590576171875,6.135986328125
0.1285,-6.356201171875,0.410400390625,5.735595703125
0.129,-6.556396484375,1.331298828125,5.335205078125
0.1295,-6.115966796875,2.892822265625,3.573486328125
0.13,-5.635498046875,4.093994140625,2.172119140625
0.1305,-4.834716796875,4.814697265625,0.850830078125
0.131,-4.274169921875,5.335205078125,-0.230224609375
0.1315,-3.593505859375,5.735595703125,-1.151123046875
0.132,-2.752685546875,6.216064453125,-2.352294921875
0.1325,-0.990966796875,6.015869140625,-3.953857421875
0.133,0.610595703125,5.575439453125,-5.074951171875
0.1335,1.291259765625,5.375244140625,-5.635498046875
0.134,2.052001953125,5.094970703125,-6.356201171875
0.1345,3.173095703125,4.694580078125,-7.156982421875
0.135,4.494384765625,3.253173828125,-7.397216796875
0.1355,5.295166015625,1.851806640625,-7.116943359375
0.136,5.775634765625,0.450439453125,-6.476318359375
0.1365,5.895751953125,-0.550537109375,-6.115966796875
0.137,5.935791015625,-1.431396484375,-5.635498046875
0.1375,6.135986328125,-2.352294921875,-5.195068359375
0.138,5.535400390625,-3.833740234375,-3.353271484375
0.1385,4.814697265625,-4.954833984375,-1.751708984375
0.139,4.174072265625,-5.475341796875,-0.670654296875
0.1395,3.693603515625,-5.955810546875,0.290283203125
0.14,3.093017578125,-6.436279296875,1.211181640625
0.1405,1.771728515625,-6.636474609375,2.692626953125
0.141,0.290283203125,-6.436279296875,3.973876953125
0.1415,-1.071044921875,-6.035888671875,4.854736328125
0.142,-1.631591796875,-5.915771484375,5.455322265625
0.1425,-2.512451171875,-5.675537109375,6.176025390625
0.143,-3.353271484375,-5.475341796875,7.056884765625
0.1435,-4.794677734375,-3.673583984375,6.976806640625
0.144,-5.555419921875,-2.192138671875,6.576416015625
0.1445,-5.875732421875,-1.111083984375,6.135986328125
0.145,-6.075927734375,-0.350341796875,5.815673828125
0.1455,-6.196044921875,0.610595703125,5.415283203125
0.146,-6.156005859375,1.731689453125,4.614501953125
0.1465,-5.715576171875,2.972900390625,3.173095703125
0.147,-4.994873046875,3.973876953125,1.571533203125
0.1475,-4.474365234375,4.534423828125,0.690673828125
0.148,-4.033935546875,5.094970703125,-0.270263671875
0.1485,-3.673583984375,5.695556640625,-1.071044921875
0.149,-1.991943359375,5.655517578125,-2.632568359375
0.1495,-0.590576171875,5.415283203125,-3.913818359375
0.15,0.490478515625,5.255126953125,-4.674560546875
0.1505,1.131103515625,5.215087890625,-5.395263671875
0.151,2.052001953125,4.974853515625,-6.236083984375
0.1515,2.972900390625,4.574462890625,-6.956787109375
0.152,4.214111328125,3.012939453125,-6.916748046875
0.1525,5.014892578125,1.411376953125,-6.396240234375
0.153,5.335205078125,0.450439453125,-6.156005859375
0.1535,5.575439453125,-0.470458984375,-5.915771484375
0.154,5.815673828125,-1.231201171875,-5.715576171875
0.1545,5.575439453125,-2.592529296875,-4.314208984375
0.155,5.135009765625,-3.793701171875,-2.952880859375
0.1555,4.494384765625,-4.634521484375,-1.671630859375
0.156,4.093994140625,-5.235107421875,-0.710693359375
0.1565,3.573486328125,-5.795654296875,0.290283203125
0.157,3.012939453125,-6.356201171875,1.291259765625
0.1575,1.331298828125,-6.236083984375,2.812744140625
0.158,-0.190185546875,-5.915771484375,3.973876953125
0.1585,-0.910888671875,-5.835693359375,4.694580078125
0.159,-1.631591796875,-5.795654296875,5.455322265625
0.1595,-2.592529296875,-5.515380859375,6.336181640625
0.16,-3.873779296875,-4.434326171875,6.696533203125
0.1605,-4.834716796875,-3.072998046875,6.576416015625
0.161,-5.395263671875,-1.751708984375,6.095947265625
0.1615,-5.635498046875,-0.990966796875,5.775634765625
0.162,-5.835693359375,0.010009765625,5.535400390625
0.1625,-6.115966796875,0.770751953125,5.295166015625
0.163,-5.635498046875,2.212158203125,3.693603515625
0.1635,-5.074951171875,3.253173828125,2.252197265625
0.164,-4.554443359375,3.933837890625,1.211181640625
0.1645,-4.154052734375,4.494384765625,0.410400390625
0.165,-3.753662109375,5.094970703125,-0.550537109375
0.1655,-2.712646484375,5.415283203125,-1.751708984375
0.166,-1.351318359375,5.295166015625,-3.072998046875
0.1665,-0.190185546875,4.974853515625,-3.953857421875
0.167,0.570556640625,5.014892578125,-4.634521484375
0.1675,1.291259765625,4.974853515625,-5.435302734375
0.168,2.092041015625,4.974853515625,-6.396240234375
0.1685,3.453369140625,3.453369140625,-6.436279296875
0.169,4.334228515625,2.052001953125,-6.236083984375
0.1695,4.814697265625,1.051025390625,-5.995849609375
0.17,5.054931640625,0.370361328125,-5.755615234375
0.1705,5.375244140625,-0.590576171875,-5.635498046875
0.171,5.495361328125,-1.471435546875,-5.114990234375
0.1715,5.094970703125,-2.712646484375,-3.833740234375
0.172,4.494384765625,-3.713623046875,-2.352294921875
0.1725,4.093994140625,-4.434326171875,-1.431396484375
0.173,3.853759765625,-5.034912109375,-0.630615234375
0.1735,3.613525390625,-5.755615234375,0.250244140625
0.174,2.212158203125,-5.835693359375,1.651611328125
0.1745,0.930908203125,-5.755615234375,2.852783203125
0.175,0.010009765625,-5.635498046875,3.693603515625
0.1755,-0.710693359375,-5.715576171875,4.454345703125
0.176,-1.591552734375,-5.715576171875,5.375244140625
0.1765,-2.512451171875,-5.435302734375,6.176025390625
0.177,-3.713623046875,-4.073974609375,6.216064453125
0.1775,-4.554443359375,-2.632568359375,5.895751953125
0.178,-5.034912109375,-1.711669921875,5.735595703125
0.1785,-5.315185546875,-0.990966796875,5.615478515625
0.179,-5.715576171875,-0.310302734375,5.575439453125
0.1795,-5.555419921875,1.010986328125,4.494384765625
0.18,-5.275146484375,2.132080078125,3.333251953125
0.1805,-4.754638671875,3.012939453125,2.092041015625
0.181,-4.434326171875,3.693603515625,1.251220703125
0.1815,-4.114013671875,4.334228515625,0.450439453125
0.182,-3.753662109375,4.974853515625,-0.510498046875
0.1825,-2.392333984375,4.974853515625,-1.831787109375
0.183,-1.071044921875,4.854736328125,-3.032958984375
0.1835,-0.350341796875,4.894775390625,-3.793701171875
0.184,0.450439453125,4.974853515625,-4.594482421875
0.1845,1.291259765625,4.974853515625,-5.515380859375
0.185,2.412353515625,4.134033203125,-6.035888671875
0.1855,3.413330078125,2.972900390625,-6.115966796875
0.186,4.093994140625,1.771728515625,-5.795654296875
0.1865,4.534423828125,0.970947265625,-5.715576171875
0.187,4.894775390625,0.250244140625,-5.635498046875
0.1875,5.295166015625,-0.550537109375,-5.635498046875
0.188,4.974853515625,-1.791748046875,-4.354248046875
