wavelength,x,y,z
0.0,2.26220703125,1.10107421875,-3.70361328125
0.0005,1.58154296875,1.74169921875,-3.78369140625
0.001,0.94091796875,2.10205078125,-3.46337890625
0.0015,0.30029296875,2.62255859375,-3.34326171875
0.002,-0.62060546875,3.06298828125,-2.82275390625
0.0025,-1.42138671875,3.46337890625,-2.38232421875
0.003,-2.06201171875,3.70361328125,-1.94189453125
0.0035,-2.62255859375,3.70361328125,-1.46142578125
0.004,-2.90283203125,3.26318359375,-0.74072265625
0.0045,-3.42333984375,3.34326171875,-0.30029296875
0.005,-3.62353515625,2.62255859375,0.62060546875
0.0055,-4.06396484375,2.42236328125,1.18115234375
0.006,-4.14404296875,1.82177734375,1.94189453125
0.0065,-3.94384765625,1.18115234375,2.38232421875
0.007,-3.54345703125,0.18017578125,2.86279296875
0.0075,-3.22314453125,-0.58056640625,3.30322265625
0.008,-2.62255859375,-1.54150390625,3.62353515625
0.0085,-2.38232421875,-2.14208984375,3.90380859375
0.009,-1.70166015625,-2.82275390625,3.86376953125
0.0095,-0.90087890625,-3.18310546875,3.38330078125
0.01,-0.26025390625,-3.70361328125,3.34326171875
0.0105,0.90087890625,-4.02392578125,2.54248046875
0.011,1.66162109375,-4.42431640625,2.18212890625
0.0115,2.30224609375,-4.42431640625,1.54150390625
0.012,2.82275390625,-4.34423828125,0.98095703125
0.0125,3.02294921875,-3.70361328125,0.18017578125
0.013,3.46337890625,-3.58349609375,-0.38037109375
0.0135,3.66357421875,-2.82275390625,-1.38134765625
0.014,3.86376953125,-2.54248046875,-1.86181640625
0.0145,3.90380859375,-1.78173828125,-2.58251953125
0.015,3.34326171875,-0.90087890625,-2.94287109375
0.0155,2.94287109375,0.02001953125,-3.34326171875
0.016,2.42236328125,0.86083984375,-3.62353515625
0.0165,1.90185546875,1.74169921875,-3.98388671875
0.017,1.42138671875,2.18212890625,-3.98388671875
0.0175,0.66064453125,2.82275390625,-3.86376953125
0.018,-0.14013671875,3.06298828125,-3.22314453125
0.0185,-0.90087890625,3.58349609375,-3.06298828125
0.019,-2.06201171875,3.86376953125,-2.10205078125
0.0195,-2.70263671875,4.06396484375,-1.70166015625
0.02,-3.26318359375,3.90380859375,-1.02099609375
0.0205,-3.66357421875,3.66357421875,-0.34033203125
0.021,-3.86376953125,3.14306640625,0.34033203125
0.0215,-4.18408203125,2.74267578125,1.02099609375
0.022,-4.46435546875,2.06201171875,1.98193359375
0.0225,-4.38427734375,1.58154296875,2.42236328125
0.023,-4.38427734375,0.82080078125,3.10302734375
0.0235,-3.58349609375,-0.26025390625,3.34326171875
0.024,-3.34326171875,-1.02099609375,3.82373046875
0.0245,-2.50244140625,-2.18212890625,3.98388671875
0.025,-2.02197265625,-2.86279296875,4.30419921875
0.0255,-1.26123046875,-3.34326171875,3.98388671875
0.026,-0.62060546875,-3.90380859375,3.86376953125
0.0265,0.30029296875,-4.06396484375,3.14306640625
0.027,1.14111328125,-4.54443359375,2.86279296875
0.0275,2.38232421875,-4.82470703125,1.82177734375
0.028,2.90283203125,-4.82470703125,1.34130859375
0.0285,3.50341796875,-4.54443359375,0.54052734375
0.029,3.74365234375,-4.10400390625,-0.18017578125
0.0295,3.94384765625,-3.58349609375,-0.90087890625
0.03,4.14404296875,-2.94287109375,-1.74169921875
0.0305,4.46435546875,-2.26220703125,-2.66259765625
0.031,4.10400390625,-1.58154296875,-3.02294921875
0.0315,3.98388671875,-0.70068359375,-3.70361328125
0.032,3.02294921875,0.38037109375,-3.82373046875
0.0325,2.78271484375,1.10107421875,-4.26416015625
0.033,1.78173828125,2.26220703125,-4.42431640625
0.0335,1.30126953125,2.90283203125,-4.58447265625
0.034,0.38037109375,3.38330078125,-4.06396484375
0.0345,-0.38037109375,3.90380859375,-3.82373046875
0.035,-1.30126953125,4.02392578125,-3.02294921875
0.0355,-2.26220703125,4.46435546875,-2.54248046875
0.036,-3.54345703125,4.66455078125,-1.50146484375
0.0365,-3.90380859375,4.42431640625,-0.82080078125
0.037,-4.46435546875,4.10400390625,0.02001953125
0.0375,-4.62451171875,3.50341796875,0.74072265625
0.038,-4.78466796875,2.94287109375,1.42138671875
0.0385,-4.94482421875,2.06201171875,2.42236328125
0.039,-5.18505859375,1.42138671875,3.30322265625
0.0395,-4.54443359375,0.50048828125,3.58349609375
0.04,-4.38427734375,-0.42041015625,4.22412109375
0.0405,-3.30322265625,-1.58154296875,4.22412109375
0.041,-2.94287109375,-2.30224609375,4.62451171875
0.0415,-1.82177734375,-3.58349609375,4.74462890625
0.042,-1.22119140625,-4.06396484375,4.62451171875
0.0425,-0.18017578125,-4.50439453125,4.02392578125
0.043,0.58056640625,-4.86474609375,3.70361328125
0.0435,1.58154296875,-4.98486328125,2.82275390625
0.044,2.54248046875,-5.26513671875,2.18212890625
0.0445,3.82373046875,-5.50537109375,1.14111328125
0.045,3.98388671875,-4.86474609375,0.34033203125
0.0455,4.50439453125,-4.62451171875,-0.42041015625
0.046,4.50439453125,-3.82373046875,-1.26123046875
0.0465,4.66455078125,-3.22314453125,-1.94189453125
0.047,4.82470703125,-2.26220703125,-3.02294921875
0.0475,4.90478515625,-1.58154296875,-3.78369140625
0.048,4.06396484375,-0.46044921875,-4.02392578125
0.0485,3.86376953125,0.34033203125,-4.62451171875
0.049,2.70263671875,1.46142578125,-4.54443359375
0.0495,2.26220703125,2.18212890625,-4.86474609375
0.05,1.26123046875,3.50341796875,-4.98486328125
0.0505,0.42041015625,3.90380859375,-4.62451171875
0.051,-0.58056640625,4.34423828125,-4.02392578125
0.0515,-1.42138671875,4.62451171875,-3.54345703125
0.052,-2.54248046875,4.78466796875,-2.58251953125
0.0525,-3.38330078125,4.98486328125,-1.94189453125
0.053,-4.58447265625,5.14501953125,-0.94091796875
0.0535,-4.66455078125,4.30419921875,0.02001953125
0.054,-5.18505859375,4.14404296875,0.66064453125
0.0545,-5.22509765625,3.14306640625,1.66162109375
0.055,-5.34521484375,2.54248046875,2.38232421875
0.0555,-5.42529296875,1.58154296875,3.42333984375
0.056,-5.38525390625,0.82080078125,4.10400390625
0.0565,-4.42431640625,-0.50048828125,4.34423828125
0.057,-4.14404296875,-1.34130859375,4.82470703125
0.0575,-2.86279296875,-2.62255859375,4.82470703125
0.058,-2.42236328125,-3.22314453125,4.98486328125
0.0585,-1.34130859375,-4.46435546875,5.10498046875
0.059,-0.34033203125,-4.74462890625,4.46435546875
0.0595,0.50048828125,-5.10498046875,3.98388671875
0.06,1.54150390625,-5.42529296875,3.22314453125
0.0605,2.58251953125,-5.50537109375,2.30224609375
0.061,3.46337890625,-5.58544921875,1.54150390625
0.0615,4.46435546875,-5.62548828125,0.66064453125
0.062,4.46435546875,-4.62451171875,-0.34033203125
0.0625,4.90478515625,-4.50439453125,-0.98095703125
0.063,4.86474609375,-3.26318359375,-2.10205078125
0.0635,4.94482421875,-2.74267578125,-2.70263671875
0.064,5.02490234375,-1.78173828125,-3.70361328125
0.0645,4.70458984375,-0.98095703125,-4.18408203125
0.065,3.78369140625,0.26025390625,-4.46435546875
0.0655,3.34326171875,1.02099609375,-4.82470703125
0.066,2.22216796875,2.30224609375,-4.82470703125
0.0665,1.78173828125,2.86279296875,-4.94482421875
0.067,0.78076171875,3.94384765625,-4.98486328125
0.0675,-0.26025390625,4.14404296875,-4.14404296875
0.068,-1.02099609375,4.62451171875,-3.86376953125
0.0685,-2.26220703125,4.82470703125,-2.90283203125
0.069,-3.10302734375,4.98486328125,-2.18212890625
0.0695,-3.98388671875,4.98486328125,-1.34130859375
0.07,-4.70458984375,4.94482421875,-0.58056640625
0.0705,-4.78466796875,3.98388671875,0.46044921875
0.071,-5.22509765625,3.82373046875,1.02099609375
0.0715,-5.26513671875,2.58251953125,2.26220703125
0.072,-5.30517578125,2.18212890625,2.74267578125
0.0725,-5.42529296875,1.18115234375,3.70361328125
0.073,-4.90478515625,0.22021484375,4.10400390625
0.0735,-4.14404296875,-0.94091796875,4.46435546875
0.074,-3.54345703125,-1.86181640625,4.82470703125
0.0745,-2.50244140625,-3.02294921875,4.90478515625
0.075,-1.98193359375,-3.54345703125,4.94482421875
0.0755,-1.02099609375,-4.50439453125,4.86474609375
0.076,0.06005859375,-4.66455078125,3.98388671875
0.0765,0.74072265625,-5.14501953125,3.78369140625
0.077,2.18212890625,-5.34521484375,2.58251953125
0.0775,2.86279296875,-5.46533203125,1.98193359375
0.078,3.70361328125,-5.38525390625,1.10107421875
0.0785,4.22412109375,-5.10498046875,0.30029296875
0.079,4.34423828125,-4.22412109375,-0.62060546875
0.0795,4.66455078125,-3.94384765625,-1.26123046875
0.08,4.74462890625,-2.82275390625,-2.42236328125
0.0805,4.70458984375,-2.42236328125,-2.86279296875
0.081,4.74462890625,-1.50146484375,-3.78369140625
0.0815,3.94384765625,-0.46044921875,-3.98388671875
0.082,3.46337890625,0.54052734375,-4.34423828125
0.0825,2.62255859375,1.54150390625,-4.50439453125
0.083,1.94189453125,2.46240234375,-4.62451171875
0.0835,1.34130859375,2.94287109375,-4.58447265625
0.084,0.50048828125,3.70361328125,-4.46435546875
0.0845,-0.54052734375,3.86376953125,-3.58349609375
0.085,-1.22119140625,4.34423828125,-3.46337890625
0.0855,-2.50244140625,4.46435546875,-2.26220703125
0.086,-3.06298828125,4.62451171875,-1.94189453125
0.0865,-3.82373046875,4.54443359375,-1.10107421875
0.087,-4.18408203125,4.14404296875,-0.34033203125
0.0875,-4.42431640625,3.58349609375,0.46044921875
0.088,-4.70458984375,3.14306640625,1.14111328125
0.0885,-4.86474609375,2.30224609375,2.10205078125
0.089,-4.86474609375,1.86181640625,2.54248046875
0.0895,-4.98486328125,1.06103515625,3.34326171875
0.09,-4.02392578125,-0.06005859375,3.58349609375
0.0905,-3.86376953125,-0.90087890625,4.18408203125
0.091,-2.86279296875,-2.02197265625,4.30419921875
0.0915,-2.50244140625,-2.70263671875,4.62451171875
0.092,-1.70166015625,-3.38330078125,4.46435546875
0.0925,-0.94091796875,-3.94384765625,4.22412109375
0.093,0.06005859375,-4.18408203125,3.54345703125
0.0935,0.82080078125,-4.74462890625,3.30322265625
0.094,2.06201171875,-4.86474609375,2.18212890625
0.0945,2.58251953125,-5.02490234375,1.86181640625
0.095,3.34326171875,-4.90478515625,0.98095703125
0.0955,3.58349609375,-4.34423828125,0.26025390625
0.096,3.90380859375,-3.90380859375,-0.50048828125
0.0965,4.06396484375,-3.30322265625,-1.30126953125
0.097,4.30419921875,-2.74267578125,-2.10205078125
0.0975,4.14404296875,-2.14208984375,-2.58251953125
0.098,4.14404296875,-1.34130859375,-3.22314453125
0.0985,3.18310546875,-0.26025390625,-3.34326171875
0.099,3.10302734375,0.42041015625,-3.86376953125
0.0995,2.10205078125,1.54150390625,-3.98388671875
0.1,1.94189453125,1.98193359375,-4.30419921875
0.1005,1.14111328125,2.58251953125,-4.06396484375
0.101,0.38037109375,3.02294921875,-3.74365234375
0.1015,-0.42041015625,3.34326171875,-3.22314453125
0.102,-1.26123046875,3.74365234375,-2.86279296875
0.1025,-2.22216796875,3.98388671875,-2.10205078125
0.103,-2.62255859375,4.02392578125,-1.78173828125
0.1035,-3.22314453125,3.98388671875,-1.14111328125
0.104,-3.42333984375,3.46337890625,-0.38037109375
0.1045,-3.90380859375,3.34326171875,0.14013671875
0.105,-4.02392578125,2.54248046875,1.02099609375
0.1055,-4.42431640625,2.38232421875,1.54150390625
0.106,-4.34423828125,1.66162109375,2.18212890625
0.1065,-4.22412109375,1.10107421875,2.70263671875
0.107,-3.54345703125,0.02001953125,3.10302734375
0.1075,-3.42333984375,-0.74072265625,3.62353515625
0.108,-2.66259765625,-1.74169921875,3.86376953125
0.1085,-2.50244140625,-2.22216796875,4.10400390625
0.109,-1.70166015625,-2.90283203125,3.98388671875
0.1095,-0.98095703125,-3.26318359375,3.58349609375
0.11,-0.18017578125,-3.82373046875,3.34326171875
0.1105,0.82080078125,-4.14404296875,2.70263671875
0.111,1.62158203125,-4.50439453125,2.30224609375
0.1115,2.14208984375,-4.46435546875,1.74169921875
0.112,2.70263671875,-4.42431640625,1.18115234375
0.1125,2.90283203125,-3.82373046875,0.34033203125
0.113,3.42333984375,-3.82373046875,-0.18017578125
0.1135,3.54345703125,-3.02294921875,-1.14111328125
0.114,3.90380859375,-2.82275390625,-1.58154296875
0.1145,3.78369140625,-1.98193359375,-2.26220703125
0.115,3.46337890625,-1.26123046875,-2.62255859375
0.1155,2.94287109375,-0.34033203125,-3.06298828125
0.116,2.62255859375,0.42041015625,-3.46337890625
0.1165,2.14208984375,1.26123046875,-3.78369140625
0.117,1.86181640625,1.66162109375,-3.82373046875
0.1175,1.14111328125,2.30224609375,-3.70361328125
0.118,0.34033203125,2.58251953125,-3.22314453125
0.1185,-0.34033203125,3.18310546875,-3.14306640625
0.119,-1.38134765625,3.38330078125,-2.38232421875
0.1195,-1.94189453125,3.78369140625,-2.18212890625
0.12,-2.50244140625,3.66357421875,-1.54150390625
0.1205,-2.86279296875,3.50341796875,-1.06103515625
0.121,-3.18310546875,3.06298828125,-0.34033203125
0.1215,-3.54345703125,2.86279296875,0.22021484375
0.122,-3.86376953125,2.42236328125,1.02099609375
0.1225,-4.02392578125,2.18212890625,1.42138671875
0.123,-4.02392578125,1.50146484375,2.14208984375
0.1235,-3.54345703125,0.62060546875,2.46240234375
0.124,-3.42333984375,-0.18017578125,3.10302734375
0.1245,-2.86279296875,-1.02099609375,3.34326171875
0.125,-2.70263671875,-1.66162109375,3.82373046875
0.1255,-2.06201171875,-2.18212890625,3.70361328125
0.126,-1.54150390625,-2.74267578125,3.70361328125
0.1265,-0.66064453125,-3.14306640625,3.18310546875
0.127,0.10009765625,-3.74365234375,3.06298828125
0.1275,1.10107421875,-4.02392578125,2.38232421875
0.128,1.58154296875,-4.34423828125,2.18212890625
0.1285,2.22216796875,-4.22412109375,1.42138671875
0.129,2.50244140625,-3.98388671875,0.86083984375
0.1295,2.94287109375,-3.70361328125,0.14013671875
0.13,3.22314453125,-3.22314453125,-0.54052734375
0.1305,3.66357421875,-2.90283203125,-1.26123046875
0.131,3.58349609375,-2.42236328125,-1.70166015625
0.1315,3.58349609375,-1.74169921875,-2.34228515625
0.132,2.90283203125,-0.70068359375,-2.62255859375
0.1325,2.90283203125,-0.06005859375,-3.22314453125
0.133,2.18212890625,0.90087890625,-3.46337890625
0.1335,2.14208984375,1.38134765625,-3.86376953125
0.134,1.30126953125,1.94189453125,-3.58349609375
0.1345,0.70068359375,2.42236328125,-3.46337890625
0.135,-0.10009765625,2.78271484375,-3.02294921875
0.1355,-0.94091796875,3.26318359375,-2.70263671875
0.136,-1.82177734375,3.58349609375,-2.10205078125
0.1365,-2.22216796875,3.58349609375,-1.78173828125
0.137,-2.78271484375,3.54345703125,-1.18115234375
0.1375,-3.06298828125,3.14306640625,-0.54052734375
0.138,-3.50341796875,3.02294921875,0.06005859375
0.1385,-3.70361328125,2.42236328125,0.90087890625
0.139,-4.14404296875,2.26220703125,1.46142578125
0.1395,-3.90380859375,1.54150390625,1.94189453125
0.14,-3.86376953125,0.90087890625,2.50244140625
0.1405,-3.18310546875,-0.18017578125,2.86279296875
0.141,-3.10302734375,-0.82080078125,3.38330078125
0.1415,-2.42236328125,-1.78173828125,3.66357421875
0.142,-2.22216796875,-2.18212890625,3.86376953125
0.1425,-1.42138671875,-2.78271484375,3.62353515625
0.143,-0.74072265625,-3.18310546875,3.34326171875
0.1435,0.06005859375,-3.70361328125,3.02294921875
0.144,0.98095703125,-4.02392578125,2.46240234375
0.1445,1.86181640625,-4.50439453125,1.94189453125
0.145,2.22216796875,-4.22412109375,1.38134765625
0.1455,2.82275390625,-4.22412109375,0.82080078125
0.146,2.98291015625,-3.54345703125,0.02001953125
0.1465,3.42333984375,-3.42333984375,-0.54052734375
0.147,3.66357421875,-2.70263671875,-1.46142578125
0.1475,3.90380859375,-2.42236328125,-1.98193359375
0.148,3.58349609375,-1.46142578125,-2.54248046875
0.1485,3.30322265625,-0.78076171875,-2.98291015625
0.149,2.70263671875,0.22021484375,-3.30322265625
0.1495,2.38232421875,0.94091796875,-3.70361328125
0.15,1.78173828125,1.94189453125,-4.02392578125
0.1505,1.30126953125,2.22216796875,-3.82373046875
0.151,0.50048828125,2.86279296875,-3.70361328125
0.1515,-0.34033203125,3.14306640625,-3.14306640625
0.152,-1.14111328125,3.58349609375,-2.82275390625
0.1525,-2.18212890625,3.86376953125,-2.06201171875
0.153,-2.90283203125,4.06396484375,-1.54150390625
0.1535,-3.22314453125,3.58349609375,-0.82080078125
0.154,-3.70361328125,3.58349609375,-0.30029296875
0.1545,-3.82373046875,2.86279296875,0.58056640625
0.155,-4.14404296875,2.58251953125,1.18115234375
0.1555,-4.50439453125,1.90185546875,2.18212890625
0.156,-4.30419921875,1.34130859375,2.54248046875
0.1565,-3.98388671875,0.42041015625,3.14306640625
0.157,-3.50341796875,-0.50048828125,3.46337890625
0.1575,-2.94287109375,-1.34130859375,3.74365234375
0.158,-2.38232421875,-2.22216796875,3.98388671875
0.1585,-1.78173828125,-3.06298828125,4.30419921875
0.159,-1.02099609375,-3.30322265625,3.70361328125
0.1595,-0.42041015625,-3.90380859375,3.70361328125
0.16,0.58056640625,-4.10400390625,2.90283203125
0.1605,1.34130859375,-4.50439453125,2.54248046875
0.161,2.54248046875,-4.78466796875,1.62158203125
0.1615,3.06298828125,-4.78466796875,1.10107421875
0.162,3.38330078125,-4.18408203125,0.30029296875
0.1625,3.74365234375,-3.98388671875,-0.30029296875
0.163,3.86376953125,-3.22314453125,-1.14111328125
0.1635,4.06396484375,-2.82275390625,-1.82177734375
0.164,4.42431640625,-2.06201171875,-2.82275390625
0.1645,3.90380859375,-1.26123046875,-3.06298828125
0.165,3.66357421875,-0.38037109375,-3.70361328125
0.1655,2.86279296875,0.62060546875,-3.86376953125
0.166,2.42236328125,1.38134765625,-4.14404296875
0.1665,1.70166015625,2.34228515625,-4.34423828125
0.167,1.10107421875,3.10302734375,-4.46435546875
0.1675,0.14013671875,3.34326171875,-3.74365234375
0.168,-0.54052734375,3.90380859375,-3.70361328125
0.1685,-1.66162109375,4.02392578125,-2.70263671875
0.169,-2.42236328125,4.34423828125,-2.26220703125
0.1695,-3.58349609375,4.54443359375,-1.38134765625
0.17,-3.98388671875,4.22412109375,-0.66064453125
0.1705,-4.34423828125,3.82373046875,0.14013671875
0.171,-4.62451171875,3.34326171875,0.82080078125
0.1715,-4.74462890625,2.58251953125,1.78173828125
0.172,-4.86474609375,1.94189453125,2.46240234375
0.1725,-5.14501953125,1.26123046875,3.42333984375
0.173,-4.30419921875,0.18017578125,3.62353515625
0.1735,-4.10400390625,-0.66064453125,4.22412109375
0.174,-3.06298828125,-1.86181640625,4.34423828125
0.1745,-2.54248046875,-2.62255859375,4.58447265625
0.175,-1.70166015625,-3.58349609375,4.66455078125
0.1755,-0.90087890625,-4.22412109375,4.50439453125
0.176,0.06005859375,-4.42431640625,3.74365234375
0.1765,0.78076171875,-4.98486328125,3.54345703125
0.177,2.14208984375,-5.14501953125,2.30224609375
0.1775,2.78271484375,-5.18505859375,1.86181640625
0.178,3.90380859375,-5.38525390625,0.94091796875
0.1785,4.10400390625,-4.70458984375,0.10009765625
0.179,4.42431640625,-4.26416015625,-0.66064453125
0.1795,4.62451171875,-3.54345703125,-1.58154296875
0.18,4.66455078125,-2.70263671875,-2.46240234375
0.1805,4.66455078125,-2.06201171875,-3.14306640625
0.181,4.78466796875,-1.26123046875,-3.98388671875
0.1815,3.70361328125,0.02001953125,-4.10400390625
0.182,3.54345703125,0.70068359375,-4.58447265625
0.1825,2.30224609375,1.98193359375,-4.62451171875
0.183,1.86181640625,2.66259765625,-4.82470703125
0.1835,0.98095703125,3.54345703125,-4.82470703125
0.184,0.02001953125,4.10400390625,-4.42431640625
0.1845,-0.94091796875,4.26416015625,-3.70361328125
0.185,-1.86181640625,4.74462890625,-3.26318359375
0.1855,-3.10302734375,4.86474609375,-2.06201171875
0.186,-3.70361328125,4.86474609375,-1.54150390625
0.1865,-4.62451171875,4.94482421875,-0.62060546875
0.187,-4.78466796875,4.10400390625,0.30029296875
0.1875,-5.10498046875,3.74365234375,0.98095703125
0.188,-5.30517578125,2.82275390625,2.06201171875
0.1885,-5.38525390625,2.06201171875,2.86279296875
0.189,-5.26513671875,1.30126953125,3.54345703125
0.1895,-5.22509765625,0.50048828125,4.26416015625
0.19,-4.02392578125,-0.90087890625,4.38427734375
0.1905,-3.82373046875,-1.66162109375,4.86474609375
0.191,-2.42236328125,-3.14306640625,4.98486328125
0.1915,-1.98193359375,-3.66357421875,5.02490234375
0.192,-1.02099609375,-4.50439453125,4.82470703125
0.1925,0.02001953125,-4.98486328125,4.30419921875
0.193,0.94091796875,-5.14501953125,3.54345703125
0.1935,1.98193359375,-5.58544921875,2.94287109375
0.194,3.26318359375,-5.66552734375,1.78173828125
0.1945,3.74365234375,-5.50537109375,1.22119140625
0.195,4.62451171875,-5.42529296875,0.26025390625
0.1955,4.62451171875,-4.46435546875,-0.74072265625
0.196,4.94482421875,-4.02392578125,-1.42138671875
0.1965,5.06494140625,-2.94287109375,-2.62255859375
0.197,5.10498046875,-2.26220703125,-3.34326171875
0.1975,4.82470703125,-1.38134765625,-3.86376953125
0.198,4.58447265625,-0.46044921875,-4.58447265625
0.1985,3.34326171875,0.86083984375,-4.58447265625
0.199,3.06298828125,1.58154296875,-4.98486328125
