wavelength,x,y,z
0.0,-0.74072265625,-6.26611328125,5.02490234375
0.0005,-1.86181640625,-5.46533203125,5.42529296875
0.001,-3.14306640625,-4.42431640625,5.82568359375
0.0015,-4.34423828125,-3.18310546875,6.02587890625
0.002,-5.06494140625,-2.34228515625,6.26611328125
0.0025,-5.38525390625,-1.66162109375,6.22607421875
0.003,-5.30517578125,-0.98095703125,5.66552734375
0.0035,-5.18505859375,0.14013671875,4.82470703125
0.004,-5.18505859375,1.42138671875,3.78369140625
0.0045,-5.10498046875,2.66259765625,2.70263671875
0.005,-5.06494140625,3.62353515625,1.94189453125
0.0055,-4.62451171875,4.14404296875,1.14111328125
0.006,-3.82373046875,4.46435546875,0.18017578125
0.0065,-2.86279296875,4.86474609375,-1.22119140625
0.007,-1.70166015625,5.18505859375,-2.66259765625
0.0075,-0.94091796875,5.58544921875,-3.82373046875
0.008,-0.22021484375,5.82568359375,-4.78466796875
0.0085,0.86083984375,5.34521484375,-5.38525390625
0.009,2.06201171875,4.38427734375,-5.74560546875
0.0095,3.38330078125,3.18310546875,-6.14599609375
0.01,4.42431640625,2.02197265625,-6.26611328125
0.0105,5.02490234375,1.30126953125,-6.42626953125
0.011,5.14501953125,0.62060546875,-6.22607421875
0.0115,4.98486328125,-0.34033203125,-5.42529296875
0.012,4.86474609375,-1.42138671875,-4.50439453125
0.0125,4.82470703125,-2.82275390625,-3.30322265625
0.013,4.74462890625,-3.94384765625,-2.30224609375
0.0135,4.62451171875,-4.78466796875,-1.58154296875
0.014,3.98388671875,-5.14501953125,-0.70068359375
0.0145,3.02294921875,-5.38525390625,0.50048828125
0.015,1.86181640625,-5.74560546875,1.94189453125
0.0155,0.78076171875,-6.02587890625,3.26318359375
0.016,0.14013671875,-6.38623046875,4.34423828125
0.0165,-0.78076171875,-6.42626953125,5.14501953125
0.017,-1.86181640625,-5.62548828125,5.58544921875
0.0175,-3.14306640625,-4.54443359375,5.90576171875
0.018,-4.42431640625,-3.18310546875,6.14599609375
0.0185,-5.22509765625,-2.18212890625,6.30615234375
0.019,-5.62548828125,-1.54150390625,6.34619140625
0.0195,-5.54541015625,-0.78076171875,5.82568359375
0.02,-5.30517578125,0.30029296875,4.90478515625
0.0205,-5.26513671875,1.58154296875,3.82373046875
0.021,-5.14501953125,2.86279296875,2.62255859375
0.0215,-5.02490234375,3.86376953125,1.74169921875
0.022,-4.70458984375,4.46435546875,0.98095703125
0.0225,-3.86376953125,4.70458984375,0.06005859375
0.023,-2.82275390625,4.94482421875,-1.26123046875
0.0235,-1.62158203125,5.26513671875,-2.78271484375
0.024,-0.70068359375,5.62548828125,-4.02392578125
0.0245,0.06005859375,5.86572265625,-4.98486328125
0.025,0.98095703125,5.54541015625,-5.62548828125
0.0255,2.18212890625,4.50439453125,-6.02587890625
0.026,3.50341796875,3.30322265625,-6.34619140625
0.0265,4.62451171875,1.98193359375,-6.46630859375
0.027,5.26513671875,1.14111328125,-6.54638671875
0.0275,5.50537109375,0.46044921875,-6.38623046875
0.028,5.26513671875,-0.50048828125,-5.62548828125
0.0285,5.06494140625,-1.58154296875,-4.58447265625
0.029,4.94482421875,-2.98291015625,-3.34326171875
0.0295,4.82470703125,-4.22412109375,-2.18212890625
0.03,4.62451171875,-5.06494140625,-1.38134765625
0.0305,4.10400390625,-5.46533203125,-0.58056640625
0.031,3.06298828125,-5.62548828125,0.62060546875
0.0315,1.86181640625,-5.86572265625,1.98193359375
0.032,0.62060546875,-6.10595703125,3.46337890625
0.0325,-0.26025390625,-6.46630859375,4.58447265625
0.033,-0.94091796875,-6.58642578125,5.42529296875
0.0335,-1.98193359375,-5.90576171875,5.86572265625
0.034,-3.22314453125,-4.70458984375,6.22607421875
0.0345,-4.58447265625,-3.26318359375,6.46630859375
0.035,-5.50537109375,-2.10205078125,6.50634765625
0.0355,-5.94580078125,-1.34130859375,6.54638671875
0.036,-5.94580078125,-0.62060546875,6.10595703125
0.0365,-5.62548828125,0.46044921875,5.10498046875
0.037,-5.42529296875,1.66162109375,3.98388671875
0.0375,-5.30517578125,3.14306640625,2.62255859375
0.038,-5.14501953125,4.18408203125,1.54150390625
0.0385,-4.86474609375,4.86474609375,0.78076171875
0.039,-4.06396484375,5.14501953125,-0.22021484375
0.0395,-2.86279296875,5.26513671875,-1.42138671875
0.04,-1.54150390625,5.58544921875,-3.06298828125
0.0405,-0.42041015625,5.74560546875,-4.42431640625
0.041,0.38037109375,6.02587890625,-5.42529296875
0.0415,1.18115234375,5.78564453125,-6.18603515625
0.042,2.50244140625,4.78466796875,-6.50634765625
0.0425,3.86376953125,3.42333984375,-6.78662109375
0.043,5.10498046875,1.94189453125,-6.90673828125
0.0435,5.82568359375,0.82080078125,-6.86669921875
0.044,6.06591796875,0.10009765625,-6.70654296875
0.0445,5.82568359375,-0.82080078125,-5.94580078125
0.045,5.46533203125,-2.02197265625,-4.66455078125
0.0455,5.26513671875,-3.46337890625,-3.26318359375
0.046,5.02490234375,-4.82470703125,-1.90185546875
0.0465,4.74462890625,-5.74560546875,-0.98095703125
0.047,4.18408203125,-6.14599609375,0.02001953125
0.0475,3.06298828125,-6.22607421875,1.06103515625
0.048,1.62158203125,-6.30615234375,2.54248046875
0.0485,0.18017578125,-6.54638671875,4.14404296875
0.049,-0.86083984375,-6.66650390625,5.34521484375
0.0495,-1.50146484375,-6.78662109375,6.10595703125
0.05,-2.54248046875,-6.10595703125,6.66650390625
0.0505,-3.86376953125,-4.66455078125,6.86669921875
0.051,-5.18505859375,-3.18310546875,7.02685546875
0.0515,-6.22607421875,-1.74169921875,6.94677734375
0.052,-6.62646484375,-0.82080078125,6.78662109375
0.0525,-6.58642578125,0.02001953125,6.34619140625
0.053,-6.18603515625,0.98095703125,5.30517578125
0.0535,-5.74560546875,2.22216796875,3.90380859375
0.054,-5.50537109375,3.70361328125,2.38232421875
0.0545,-5.22509765625,4.86474609375,1.14111328125
0.055,-4.82470703125,5.50537109375,0.30029296875
0.0555,-4.02392578125,5.74560546875,-0.62060546875
0.056,-2.74267578125,5.74560546875,-1.86181640625
0.0565,-1.30126953125,5.82568359375,-3.38330078125
0.057,0.14013671875,5.94580078125,-4.90478515625
0.0575,0.90087890625,6.06591796875,-5.90576171875
0.058,1.58154296875,6.02587890625,-6.58642578125
0.0585,2.70263671875,5.06494140625,-6.98681640625
0.059,4.06396484375,3.58349609375,-7.10693359375
0.0595,5.34521484375,2.06201171875,-7.18701171875
0.06,6.14599609375,0.70068359375,-7.06689453125
0.0605,6.42626953125,0.02001953125,-6.90673828125
0.061,6.22607421875,-0.90087890625,-6.26611328125
0.0615,5.74560546875,-1.94189453125,-5.06494140625
0.062,5.38525390625,-3.26318359375,-3.66357421875
0.0625,5.10498046875,-4.74462890625,-2.10205078125
0.063,4.82470703125,-5.74560546875,-1.02099609375
0.0635,4.42431640625,-6.30615234375,-0.26025390625
0.064,3.46337890625,-6.38623046875,0.78076171875
0.0645,2.06201171875,-6.42626953125,2.06201171875
0.065,0.62060546875,-6.58642578125,3.74365234375
0.0655,-0.78076171875,-6.66650390625,5.02490234375
0.066,-1.34130859375,-6.82666015625,5.94580078125
0.0665,-2.14208984375,-6.54638671875,6.54638671875
0.067,-3.34326171875,-5.34521484375,6.78662109375
0.0675,-4.62451171875,-3.86376953125,6.94677734375
0.068,-5.86572265625,-2.34228515625,7.02685546875
0.0685,-6.50634765625,-1.22119140625,6.90673828125
0.069,-6.66650390625,-0.54052734375,6.70654296875
0.0695,-6.38623046875,0.38037109375,5.90576171875
0.07,-5.90576171875,1.54150390625,4.58447265625
0.0705,-5.66552734375,2.90283203125,3.18310546875
0.071,-5.38525390625,4.30419921875,1.78173828125
0.0715,-5.10498046875,5.14501953125,0.82080078125
0.072,-4.54443359375,5.58544921875,0.02001953125
0.0725,-3.50341796875,5.62548828125,-1.10107421875
0.073,-2.10205078125,5.70556640625,-2.54248046875
0.0735,-0.62060546875,5.82568359375,-4.18408203125
0.074,0.46044921875,6.06591796875,-5.34521484375
0.0745,1.06103515625,6.26611328125,-6.22607421875
0.075,2.02197265625,5.62548828125,-6.74658203125
0.0755,3.34326171875,4.30419921875,-6.98681640625
0.076,4.70458984375,2.86279296875,-7.18701171875
0.0765,5.74560546875,1.34130859375,-7.10693359375
0.077,6.26611328125,0.38037109375,-7.06689453125
0.0775,6.30615234375,-0.46044921875,-6.66650390625
0.078,5.94580078125,-1.38134765625,-5.66552734375
0.0785,5.54541015625,-2.62255859375,-4.34423828125
0.079,5.30517578125,-4.18408203125,-2.82275390625
0.0795,5.02490234375,-5.38525390625,-1.46142578125
0.08,4.66455078125,-6.10595703125,-0.62060546875
0.0805,3.90380859375,-6.42626953125,0.34033203125
0.081,2.66259765625,-6.46630859375,1.54150390625
0.0815,1.14111328125,-6.62646484375,3.14306640625
0.082,-0.34033203125,-6.66650390625,4.74462890625
0.0825,-1.14111328125,-6.82666015625,5.74560546875
0.083,-1.82177734375,-6.74658203125,6.46630859375
0.0835,-2.94287109375,-5.82568359375,6.86669921875
0.084,-4.34423828125,-4.34423828125,7.06689453125
0.0845,-5.66552734375,-2.82275390625,7.14697265625
0.085,-6.46630859375,-1.46142578125,7.02685546875
0.0855,-6.78662109375,-0.66064453125,6.86669921875
0.086,-6.58642578125,0.26025390625,6.22607421875
0.0865,-6.14599609375,1.30126953125,4.98486328125
0.087,-5.74560546875,2.66259765625,3.54345703125
0.0875,-5.50537109375,4.14404296875,2.06201171875
0.088,-5.14501953125,5.10498046875,0.94091796875
0.0885,-4.74462890625,5.62548828125,0.14013671875
0.089,-3.78369140625,5.74560546875,-0.94091796875
0.0895,-2.42236328125,5.74560546875,-2.26220703125
0.09,-0.90087890625,5.94580078125,-3.86376953125
0.0905,0.38037109375,6.02587890625,-5.18505859375
0.091,1.02099609375,6.18603515625,-6.10595703125
0.0915,1.82177734375,5.86572265625,-6.70654296875
0.092,3.02294921875,4.66455078125,-6.94677734375
0.0925,4.34423828125,3.22314453125,-7.10693359375
0.093,5.58544921875,1.70166015625,-7.10693359375
0.0935,6.14599609375,0.58056640625,-6.98681640625
0.094,6.30615234375,-0.26025390625,-6.74658203125
0.0945,5.98583984375,-1.06103515625,-5.94580078125
0.095,5.58544921875,-2.14208984375,-4.74462890625
0.0955,5.26513671875,-3.54345703125,-3.26318359375
0.096,4.98486328125,-4.86474609375,-1.90185546875
0.0965,4.70458984375,-5.74560546875,-0.98095703125
0.097,4.18408203125,-6.22607421875,-0.18017578125
0.0975,3.14306640625,-6.30615234375,0.90087890625
0.098,1.78173828125,-6.26611328125,2.26220703125
0.0985,0.34033203125,-6.42626953125,3.86376953125
0.099,-0.70068359375,-6.58642578125,5.06494140625
0.0995,-1.30126953125,-6.74658203125,5.90576171875
0.1,-2.14208984375,-6.26611328125,6.38623046875
0.1005,-3.42333984375,-5.06494140625,6.62646484375
0.101,-4.70458984375,-3.66357421875,6.82666015625
0.1015,-5.74560546875,-2.22216796875,6.78662109375
0.102,-6.34619140625,-1.30126953125,6.74658203125
0.1025,-6.38623046875,-0.62060546875,6.46630859375
0.103,-6.06591796875,0.34033203125,5.62548828125
0.1035,-5.70556640625,1.42138671875,4.50439453125
0.104,-5.50537109375,2.90283203125,3.06298828125
0.1045,-5.26513671875,4.14404296875,1.78173828125
0.105,-5.06494140625,4.86474609375,0.98095703125
0.1055,-4.46435546875,5.26513671875,0.10009765625
0.106,-3.34326171875,5.42529296875,-1.06103515625
0.1065,-2.06201171875,5.62548828125,-2.50244140625
0.107,-0.66064453125,5.74560546875,-4.10400390625
0.1075,0.26025390625,6.06591796875,-5.14501953125
0.108,0.90087890625,6.14599609375,-5.98583984375
0.1085,1.94189453125,5.38525390625,-6.42626953125
0.109,3.26318359375,4.10400390625,-6.70654296875
0.1095,4.62451171875,2.66259765625,-6.90673828125
0.11,5.50537109375,1.34130859375,-6.86669921875
0.1105,5.94580078125,0.58056640625,-6.86669921875
0.111,5.86572265625,-0.26025390625,-6.38623046875
0.1115,5.50537109375,-1.22119140625,-5.38525390625
0.112,5.26513671875,-2.50244140625,-4.14404296875
0.1125,5.10498046875,-3.98388671875,-2.70263671875
0.113,4.82470703125,-5.02490234375,-1.62158203125
0.1135,4.50439453125,-5.74560546875,-0.86083984375
0.114,3.70361328125,-5.90576171875,0.14013671875
0.1145,2.54248046875,-5.94580078125,1.34130859375
0.115,1.18115234375,-6.18603515625,2.90283203125
0.1155,0.02001953125,-6.34619140625,4.22412109375
0.116,-0.74072265625,-6.62646484375,5.18505859375
0.1165,-1.46142578125,-6.46630859375,5.90576171875
0.117,-2.58251953125,-5.50537109375,6.18603515625
0.1175,-3.86376953125,-4.22412109375,6.42626953125
0.118,-5.10498046875,-2.82275390625,6.58642578125
0.1185,-5.78564453125,-1.74169921875,6.54638671875
0.119,-6.06591796875,-1.10107421875,6.46630859375
0.1195,-5.86572265625,-0.38037109375,5.90576171875
0.12,-5.54541015625,0.70068359375,4.82470703125
0.1205,-5.38525390625,1.94189453125,3.66357421875
0.121,-5.18505859375,3.26318359375,2.38232421875
0.1215,-5.06494140625,4.14404296875,1.42138671875
0.122,-4.62451171875,4.78466796875,0.74072265625
0.1225,-3.82373046875,4.98486328125,-0.26025390625
0.123,-2.74267578125,5.14501953125,-1.46142578125
0.1235,-1.42138671875,5.38525390625,-2.98291015625
0.124,-0.50048828125,5.62548828125,-4.14404296875
0.1245,0.22021484375,5.94580078125,-5.10498046875
0.125,1.02099609375,5.66552734375,-5.74560546875
0.1255,2.18212890625,4.66455078125,-6.06591796875
0.126,3.42333984375,3.50341796875,-6.38623046875
0.1265,4.58447265625,2.18212890625,-6.46630859375
0.127,5.26513671875,1.30126953125,-6.58642578125
0.1275,5.42529296875,0.66064453125,-6.46630859375
0.128,5.26513671875,-0.26025390625,-5.82568359375
0.1285,5.10498046875,-1.26123046875,-4.90478515625
0.129,4.98486328125,-2.62255859375,-3.70361328125
0.1295,4.82470703125,-3.86376953125,-2.58251953125
0.13,4.74462890625,-4.70458984375,-1.78173828125
0.1305,4.30419921875,-5.18505859375,-0.98095703125
0.131,3.38330078125,-5.42529296875,0.10009765625
0.1315,2.34228515625,-5.74560546875,1.42138671875
0.132,1.14111328125,-6.02587890625,2.86279296875
0.1325,0.30029296875,-6.34619140625,3.98388671875
0.133,-0.42041015625,-6.54638671875,4.86474609375
0.1335,-1.30126953125,-6.10595703125,5.42529296875
0.134,-2.54248046875,-5.10498046875,5.78564453125
0.1345,-3.86376953125,-3.86376953125,6.14599609375
0.135,-4.82470703125,-2.70263671875,6.22607421875
0.1355,-5.42529296875,-1.98193359375,6.38623046875
0.136,-5.50537109375,-1.30126953125,6.14599609375
0.1365,-5.38525390625,-0.50048828125,5.42529296875
0.137,-5.26513671875,0.66064453125,4.50439453125
0.1375,-5.22509765625,1.98193359375,3.30322265625
0.138,-5.10498046875,3.18310546875,2.38232421875
0.1385,-4.98486328125,3.94384765625,1.62158203125
0.139,-4.42431640625,4.34423828125,0.82080078125
0.1395,-3.54345703125,4.62451171875,-0.34033203125
0.14,-2.42236328125,5.06494140625,-1.74169921875
0.1405,-1.38134765625,5.34521484375,-3.06298828125
0.141,-0.70068359375,5.74560546875,-4.14404296875
0.1415,0.14013671875,5.82568359375,-4.98486328125
0.142,1.18115234375,5.14501953125,-5.46533203125
0.1425,2.42236328125,4.14404296875,-5.86572265625
0.143,3.70361328125,2.86279296875,-6.14599609375
0.1435,4.58447265625,1.86181640625,-6.34619140625
0.144,5.02490234375,1.26123046875,-6.42626953125
0.1445,5.06494140625,0.50048828125,-6.06591796875
0.145,4.90478515625,-0.50048828125,-5.26513671875
0.1455,4.82470703125,-1.70166015625,-4.34423828125
0.146,4.82470703125,-2.98291015625,-3.14306640625
0.1465,4.74462890625,-3.98388671875,-2.26220703125
0.147,4.54443359375,-4.70458984375,-1.58154296875
0.1475,3.86376953125,-5.06494140625,-0.66064453125
0.148,2.86279296875,-5.38525390625,0.62060546875
0.1485,1.74169921875,-5.74560546875,2.06201171875
0.149,0.82080078125,-6.10595703125,3.30322265625
0.1495,0.18017578125,-6.46630859375,4.34423828125
0.15,-0.74072265625,-6.30615234375,5.06494140625
0.1505,-1.86181640625,-5.46533203125,5.46533203125
0.151,-3.18310546875,-4.42431640625,5.90576171875
0.1515,-4.34423828125,-3.14306640625,6.06591796875
0.152,-5.10498046875,-2.30224609375,6.26611328125
0.1525,-5.42529296875,-1.70166015625,6.22607421875
0.153,-5.34521484375,-0.98095703125,5.70556640625
0.1535,-5.22509765625,0.14013671875,4.82470703125
0.154,-5.18505859375,1.54150390625,3.78369140625
0.1545,-5.10498046875,2.74267578125,2.66259765625
0.155,-5.06494140625,3.66357421875,1.94189453125
0.1555,-4.62451171875,4.14404296875,1.14111328125
0.156,-3.82373046875,4.50439453125,0.14013671875
0.1565,-2.86279296875,4.86474609375,-1.22119140625
0.157,-1.70166015625,5.22509765625,-2.66259765625
0.1575,-0.94091796875,5.58544921875,-3.82373046875
0.158,-0.26025390625,5.86572265625,-4.74462890625
0.1585,0.78076171875,5.42529296875,-5.34521484375
0.159,2.06201171875,4.46435546875,-5.74560546875
0.1595,3.38330078125,3.22314453125,-6.14599609375
0.16,4.46435546875,2.06201171875,-6.30615234375
0.1605,4.98486328125,1.30126953125,-6.46630859375
0.161,5.14501953125,0.62060546875,-6.22607421875
0.1615,4.98486328125,-0.34033203125,-5.46533203125
0.162,4.90478515625,-1.42138671875,-4.54443359375
0.1625,4.82470703125,-2.82275390625,-3.34326171875
0.163,4.74462890625,-3.86376953125,-2.38232421875
0.1635,4.62451171875,-4.70458984375,-1.62158203125
0.164,4.02392578125,-5.06494140625,-0.78076171875
0.1645,3.06298828125,-5.30517578125,0.38037109375
0.165,1.94189453125,-5.70556640625,1.86181640625
0.1655,0.90087890625,-6.02587890625,3.18310546875
0.166,0.22021484375,-6.42626953125,4.22412109375
0.1665,-0.62060546875,-6.38623046875,5.06494140625
0.167,-1.74169921875,-5.66552734375,5.46533203125
0.1675,-3.02294921875,-4.58447265625,5.90576171875
0.168,-4.26416015625,-3.26318359375,6.14599609375
0.1685,-5.14501953125,-2.30224609375,6.26611328125
0.169,-5.54541015625,-1.66162109375,6.30615234375
0.1695,-5.50537109375,-0.98095703125,5.82568359375
0.17,-5.30517578125,0.14013671875,4.98486328125
0.1705,-5.22509765625,1.34130859375,3.94384765625
0.171,-5.14501953125,2.70263671875,2.74267578125
0.1715,-5.06494140625,3.70361328125,1.90185546875
0.172,-4.78466796875,4.34423828125,1.14111328125
0.1725,-3.98388671875,4.62451171875,0.26025390625
0.173,-2.98291015625,4.86474609375,-1.06103515625
0.1735,-1.78173828125,5.26513671875,-2.58251953125
0.174,-0.90087890625,5.58544921875,-3.82373046875
0.1745,-0.22021484375,5.90576171875,-4.82470703125
0.175,0.78076171875,5.62548828125,-5.50537109375
0.1755,1.98193359375,4.62451171875,-5.90576171875
0.176,3.34326171875,3.46337890625,-6.26611328125
0.1765,4.50439453125,2.10205078125,-6.42626953125
0.177,5.18505859375,1.22119140625,-6.54638671875
0.1775,5.38525390625,0.54052734375,-6.46630859375
0.178,5.26513671875,-0.34033203125,-5.70556640625
0.1785,5.06494140625,-1.42138671875,-4.70458984375
0.179,4.98486328125,-2.86279296875,-3.46337890625
0.1795,4.86474609375,-4.14404296875,-2.26220703125
0.18,4.74462890625,-4.98486328125,-1.46142578125
0.1805,4.14404296875,-5.42529296875,-0.66064453125
0.181,3.14306640625,-5.58544921875,0.50048828125
0.1815,1.94189453125,-5.82568359375,1.94189453125
0.182,0.70068359375,-6.10595703125,3.38330078125
0.1825,-0.14013671875,-6.42626953125,4.50439453125
0.183,-0.86083984375,-6.54638671875,5.38525390625
0.1835,-1.86181640625,-5.90576171875,5.82568359375
0.184,-3.18310546875,-4.70458984375,6.14599609375
0.1845,-4.50439453125,-3.38330078125,6.42626953125
0.185,-5.46533203125,-2.14208984375,6.46630859375
0.1855,-5.90576171875,-1.42138671875,6.46630859375
0.186,-5.86572265625,-0.62060546875,6.10595703125
0.1865,-5.62548828125,0.38037109375,5.10498046875
0.187,-5.38525390625,1.58154296875,3.94384765625
0.1875,-5.26513671875,3.06298828125,2.62255859375
0.188,-5.10498046875,4.10400390625,1.58154296875
0.1885,-4.82470703125,4.78466796875,0.86083984375
0.189,-4.10400390625,5.02490234375,0.02001953125
0.1895,-2.90283203125,5.14501953125,-1.30126953125
0.19,-1.62158203125,5.46533203125,-2.86279296875
0.1905,-0.54052734375,5.70556640625,-4.22412109375
0.191,0.26025390625,6.02587890625,-5.22509765625
0.1915,1.06103515625,5.86572265625,-5.98583984375
0.192,2.26220703125,4.82470703125,-6.34619140625
0.1925,3.58349609375,3.50341796875,-6.62646484375
0.193,4.86474609375,2.06201171875,-6.78662109375
0.1935,5.62548828125,0.94091796875,-6.78662109375
0.194,5.90576171875,0.30029296875,-6.70654296875
0.1945,5.74560546875,-0.62060546875,-5.98583984375
0.195,5.38525390625,-1.74169921875,-4.82470703125
0.1955,5.18505859375,-3.14306640625,-3.50341796875
0.196,5.02490234375,-4.50439453125,-2.18212890625
0.1965,4.78466796875,-5.42529296875,-1.22119140625
0.197,4.30419921875,-5.90576171875,-0.42041015625
0.1975,3.26318359375,-6.02587890625,0.70068359375
0.198,1.90185546875,-6.14599609375,2.18212890625
0.1985,0.50048828125,-6.38623046875,3.78369140625
0.199,-0.54052734375,-6.62646484375,4.98486328125
