wavelength,x,y,z
0.0,-0.470458984375,-2.272216796875,2.932861328125
0.0005,-1.231201171875,-1.631591796875,3.173095703125
0.001,-1.911865234375,-1.151123046875,3.373291015625
0.0015,-2.432373046875,-0.430419921875,3.293212890625
0.002,-2.672607421875,0.010009765625,3.133056640625
0.0025,-2.872802734375,0.490478515625,2.852783203125
0.003,-3.153076171875,0.970947265625,2.612548828125
0.0035,-3.193115234375,1.731689453125,1.851806640625
0.004,-3.193115234375,2.252197265625,1.251220703125
0.0045,-3.032958984375,2.532470703125,0.650634765625
0.005,-2.872802734375,2.732666015625,0.130126953125
0.0055,-2.552490234375,2.852783203125,-0.510498046875
0.006,-2.031982421875,2.932861328125,-1.271240234375
0.0065,-1.431396484375,2.972900390625,-2.031982421875
0.007,-0.790771484375,2.772705078125,-2.592529296875
0.0075,-0.430419921875,2.532470703125,-2.872802734375
0.008,0.170166015625,2.252197265625,-3.233154296875
0.0085,0.690673828125,1.931884765625,-3.673583984375
0.009,1.651611328125,1.131103515625,-3.753662109375
0.0095,2.172119140625,0.650634765625,-3.833740234375
0.01,2.532470703125,0.130126953125,-3.713623046875
0.0105,2.732666015625,-0.310302734375,-3.553466796875
0.011,2.892822265625,-0.750732421875,-3.193115234375
0.0115,3.052978515625,-1.271240234375,-2.832763671875
0.012,3.173095703125,-1.911865234375,-2.192138671875
0.0125,3.052978515625,-2.432373046875,-1.471435546875
0.013,2.892822265625,-2.592529296875,-0.990966796875
0.0135,2.692626953125,-2.792724609375,-0.510498046875
0.014,2.492431640625,-2.952880859375,0.130126953125
0.0145,1.771728515625,-2.952880859375,1.010986328125
0.015,1.291259765625,-2.912841796875,1.571533203125
0.0155,0.690673828125,-2.752685546875,2.132080078125
0.016,0.370361328125,-2.592529296875,2.412353515625
0.0165,-0.270263671875,-2.312255859375,2.732666015625
0.017,-0.790771484375,-2.031982421875,3.093017578125
0.0175,-1.711669921875,-1.231201171875,3.333251953125
0.018,-2.192138671875,-0.630615234375,3.253173828125
0.0185,-2.512451171875,-0.190185546875,3.133056640625
0.019,-2.752685546875,0.250244140625,3.012939453125
0.0195,-2.952880859375,0.730712890625,2.732666015625
0.02,-3.072998046875,1.331298828125,2.092041015625
0.0205,-3.153076171875,1.851806640625,1.571533203125
0.021,-3.072998046875,2.332275390625,0.930908203125
0.0215,-2.872802734375,2.532470703125,0.490478515625
0.022,-2.672607421875,2.692626953125,-0.190185546875
0.0225,-2.472412109375,2.892822265625,-0.710693359375
0.023,-1.671630859375,2.932861328125,-1.631591796875
0.0235,-1.151123046875,2.812744140625,-2.192138671875
0.024,-0.670654296875,2.652587890625,-2.632568359375
0.0245,-0.310302734375,2.452392578125,-2.992919921875
0.025,0.370361328125,2.092041015625,-3.313232421875
0.0255,1.091064453125,1.611572265625,-3.593505859375
0.026,1.811767578125,1.010986328125,-3.793701171875
0.0265,2.252197265625,0.410400390625,-3.713623046875
0.027,2.532470703125,0.050048828125,-3.553466796875
0.0275,2.732666015625,-0.470458984375,-3.353271484375
0.028,3.052978515625,-0.910888671875,-3.153076171875
0.0285,3.052978515625,-1.631591796875,-2.392333984375
0.029,3.052978515625,-2.072021484375,-1.871826171875
0.0295,3.012939453125,-2.432373046875,-1.271240234375
0.03,2.852783203125,-2.632568359375,-0.790771484375
0.0305,2.532470703125,-2.792724609375,-0.190185546875
0.031,2.172119140625,-2.912841796875,0.530517578125
0.0315,1.531494140625,-2.952880859375,1.331298828125
0.032,0.970947265625,-2.792724609375,1.851806640625
0.0325,0.530517578125,-2.632568359375,2.252197265625
0.033,0.090087890625,-2.472412109375,2.572509765625
0.0335,-0.590576171875,-2.152099609375,2.972900390625
0.034,-1.431396484375,-1.391357421875,3.173095703125
0.0345,-2.031982421875,-0.910888671875,3.253173828125
0.035,-2.432373046875,-0.350341796875,3.173095703125
0.0355,-2.592529296875,0.050048828125,3.012939453125
0.036,-2.832763671875,0.530517578125,2.732666015625
0.0365,-3.072998046875,1.051025390625,2.412353515625
0.037,-3.113037109375,1.731689453125,1.731689453125
0.0375,-3.072998046875,2.132080078125,1.131103515625
0.038,-2.872802734375,2.452392578125,0.610595703125
0.0385,-2.752685546875,2.612548828125,0.130126953125
0.039,-2.512451171875,2.772705078125,-0.510498046875
0.0395,-1.911865234375,2.812744140625,-1.311279296875
0.04,-1.351318359375,2.812744140625,-1.951904296875
0.0405,-0.830810546875,2.612548828125,-2.432373046875
0.041,-0.470458984375,2.412353515625,-2.752685546875
0.0415,0.090087890625,2.252197265625,-3.153076171875
0.042,0.690673828125,1.931884765625,-3.513427734375
0.0425,1.571533203125,1.251220703125,-3.673583984375
0.043,1.971923828125,0.650634765625,-3.673583984375
0.0435,2.412353515625,0.170166015625,-3.593505859375
0.044,2.572509765625,-0.230224609375,-3.473388671875
0.0445,2.852783203125,-0.670654296875,-3.193115234375
0.045,2.972900390625,-1.311279296875,-2.712646484375
0.0455,3.093017578125,-1.911865234375,-2.152099609375
0.046,3.012939453125,-2.272216796875,-1.551513671875
0.0465,2.852783203125,-2.552490234375,-1.031005859375
0.047,2.732666015625,-2.752685546875,-0.510498046875
0.0475,2.452392578125,-2.952880859375,0.130126953125
0.048,1.811767578125,-2.952880859375,0.970947265625
0.0485,1.211181640625,-2.912841796875,1.611572265625
0.049,0.770751953125,-2.832763671875,2.092041015625
0.0495,0.330322265625,-2.552490234375,2.412353515625
0.05,-0.310302734375,-2.272216796875,2.812744140625
0.0505,-0.990966796875,-1.791748046875,3.133056640625
0.051,-1.831787109375,-1.151123046875,3.333251953125
0.0515,-2.272216796875,-0.590576171875,3.213134765625
0.052,-2.552490234375,-0.110107421875,3.133056640625
0.0525,-2.752685546875,0.330322265625,2.892822265625
0.053,-3.032958984375,0.890869140625,2.612548828125
0.0535,-3.072998046875,1.531494140625,1.931884765625
0.054,-3.072998046875,2.092041015625,1.251220703125
0.0545,-3.032958984375,2.412353515625,0.770751953125
0.055,-2.792724609375,2.572509765625,0.250244140625
0.0555,-2.552490234375,2.772705078125,-0.350341796875
0.056,-2.192138671875,2.692626953125,-1.151123046875
0.0565,-1.471435546875,2.852783203125,-1.871826171875
0.057,-0.910888671875,2.652587890625,-2.392333984375
0.0575,-0.590576171875,2.572509765625,-2.712646484375
0.058,0.010009765625,2.292236328125,-3.072998046875
0.0585,0.570556640625,2.011962890625,-3.353271484375
0.059,1.331298828125,1.331298828125,-3.593505859375
0.0595,1.971923828125,0.730712890625,-3.713623046875
0.06,2.332275390625,0.290283203125,-3.633544921875
0.0605,2.532470703125,-0.150146484375,-3.433349609375
0.061,2.772705078125,-0.590576171875,-3.273193359375
0.0615,2.932861328125,-1.071044921875,-2.872802734375
0.062,3.012939453125,-1.711669921875,-2.272216796875
0.0625,3.012939453125,-2.152099609375,-1.631591796875
0.063,2.892822265625,-2.472412109375,-1.191162109375
0.0635,2.732666015625,-2.632568359375,-0.710693359375
0.064,2.532470703125,-2.832763671875,0.010009765625
0.0645,1.971923828125,-2.952880859375,0.650634765625
0.065,1.411376953125,-2.952880859375,1.371337890625
0.0655,0.970947265625,-2.752685546875,1.851806640625
0.066,0.490478515625,-2.592529296875,2.252197265625
0.0665,0.050048828125,-2.432373046875,2.572509765625
0.067,-0.630615234375,-2.072021484375,2.972900390625
0.0675,-1.431396484375,-1.431396484375,3.213134765625
0.068,-2.072021484375,-0.790771484375,3.213134765625
0.0685,-2.432373046875,-0.350341796875,3.173095703125
0.069,-2.632568359375,0.130126953125,3.012939453125
0.0695,-2.912841796875,0.610595703125,2.772705078125
0.07,-3.072998046875,1.251220703125,2.252197265625
0.0705,-3.153076171875,1.851806640625,1.611572265625
0.071,-3.072998046875,2.252197265625,1.010986328125
0.0715,-2.912841796875,2.532470703125,0.490478515625
0.072,-2.632568359375,2.612548828125,-0.190185546875
0.0725,-2.432373046875,2.852783203125,-0.670654296875
0.073,-1.791748046875,2.892822265625,-1.551513671875
0.0735,-1.151123046875,2.852783203125,-2.232177734375
0.074,-0.710693359375,2.652587890625,-2.592529296875
0.0745,-0.310302734375,2.452392578125,-2.912841796875
0.075,0.330322265625,2.172119140625,-3.273193359375
0.0755,1.091064453125,1.571533203125,-3.553466796875
0.076,1.771728515625,1.010986328125,-3.793701171875
0.0765,2.252197265625,0.410400390625,-3.673583984375
0.077,2.532470703125,0.050048828125,-3.553466796875
0.0775,2.692626953125,-0.430419921875,-3.353271484375
0.078,2.892822265625,-0.910888671875,-3.072998046875
0.0785,3.012939453125,-1.551513671875,-2.432373046875
0.079,3.052978515625,-2.072021484375,-1.831787109375
0.0795,2.932861328125,-2.392333984375,-1.311279296875
0.08,2.852783203125,-2.552490234375,-0.710693359375
0.0805,2.572509765625,-2.832763671875,-0.270263671875
0.081,2.092041015625,-2.912841796875,0.490478515625
0.0815,1.571533203125,-2.912841796875,1.251220703125
0.082,0.970947265625,-2.792724609375,1.811767578125
0.0825,0.610595703125,-2.632568359375,2.172119140625
0.083,0.130126953125,-2.392333984375,2.492431640625
0.0835,-0.470458984375,-2.232177734375,2.932861328125
0.084,-1.311279296875,-1.471435546875,3.133056640625
0.0845,-1.951904296875,-0.950927734375,3.213134765625
0.085,-2.312255859375,-0.430419921875,3.173095703125
0.0855,-2.632568359375,0.050048828125,3.052978515625
0.086,-2.832763671875,0.490478515625,2.852783203125
0.0865,-3.032958984375,1.010986328125,2.452392578125
0.087,-3.153076171875,1.571533203125,1.891845703125
0.0875,-3.072998046875,2.212158203125,1.131103515625
0.088,-3.032958984375,2.252197265625,0.610595703125
0.0885,-2.752685546875,2.572509765625,0.130126953125
0.089,-2.592529296875,2.852783203125,-0.510498046875
0.0895,-1.951904296875,2.852783203125,-1.311279296875
0.09,-1.431396484375,2.852783203125,-1.951904296875
0.0905,-0.830810546875,2.692626953125,-2.512451171875
0.091,-0.430419921875,2.532470703125,-2.832763671875
0.0915,0.130126953125,2.212158203125,-3.153076171875
0.092,0.730712890625,1.931884765625,-3.553466796875
0.0925,1.571533203125,1.211181640625,-3.753662109375
0.093,2.172119140625,0.610595703125,-3.713623046875
0.0935,2.412353515625,0.170166015625,-3.593505859375
0.094,2.652587890625,-0.310302734375,-3.353271484375
0.0945,2.892822265625,-0.710693359375,-3.193115234375
0.095,2.932861328125,-1.351318359375,-2.592529296875
0.0955,3.093017578125,-1.911865234375,-2.112060546875
0.096,3.052978515625,-2.312255859375,-1.351318359375
0.0965,2.852783203125,-2.592529296875,-0.990966796875
0.097,2.612548828125,-2.752685546875,-0.470458984375
0.0975,2.412353515625,-2.912841796875,0.170166015625
0.098,1.731689453125,-2.952880859375,1.091064453125
0.0985,1.171142578125,-2.872802734375,1.651611328125
0.099,0.690673828125,-2.712646484375,2.052001953125
0.0995,0.290283203125,-2.552490234375,2.452392578125
0.1,-0.310302734375,-2.232177734375,2.772705078125
0.1005,-1.031005859375,-1.671630859375,3.052978515625
0.101,-1.751708984375,-1.151123046875,3.293212890625
0.1015,-2.272216796875,-0.510498046875,3.173095703125
0.102,-2.512451171875,-0.150146484375,3.133056640625
0.1025,-2.752685546875,0.370361328125,2.852783203125
0.103,-3.032958984375,0.810791015625,2.692626953125
0.1035,-3.032958984375,1.491455078125,1.931884765625
0.104,-3.153076171875,1.891845703125,1.331298828125
0.1045,-2.952880859375,2.332275390625,0.770751953125
0.105,-2.832763671875,2.572509765625,0.250244140625
0.1055,-2.552490234375,2.692626953125,-0.310302734375
0.106,-2.192138671875,2.852783203125,-0.990966796875
0.1065,-1.591552734375,2.852783203125,-1.751708984375
0.107,-0.990966796875,2.692626953125,-2.312255859375
0.1075,-0.630615234375,2.532470703125,-2.592529296875
0.108,-0.150146484375,2.372314453125,-2.992919921875
0.1085,0.450439453125,2.092041015625,-3.353271484375
0.109,1.251220703125,1.331298828125,-3.553466796875
0.1095,1.771728515625,0.930908203125,-3.713623046875
0.11,2.252197265625,0.370361328125,-3.633544921875
0.1105,2.492431640625,0.010009765625,-3.513427734375
0.111,2.692626953125,-0.510498046875,-3.233154296875
0.1115,2.932861328125,-0.990966796875,-2.952880859375
0.112,3.052978515625,-1.631591796875,-2.432373046875
0.1125,2.932861328125,-2.112060546875,-1.751708984375
0.113,2.892822265625,-2.432373046875,-1.391357421875
0.1135,2.772705078125,-2.592529296875,-0.790771484375
0.114,2.572509765625,-2.832763671875,-0.270263671875
0.1145,1.971923828125,-2.872802734375,0.610595703125
0.115,1.571533203125,-2.872802734375,1.211181640625
0.1155,0.970947265625,-2.752685546875,1.771728515625
0.116,0.610595703125,-2.592529296875,2.132080078125
0.1165,0.130126953125,-2.392333984375,2.492431640625
0.117,-0.510498046875,-2.192138671875,2.892822265625
0.1175,-1.351318359375,-1.431396484375,3.133056640625
0.118,-1.911865234375,-0.910888671875,3.173095703125
0.1185,-2.272216796875,-0.390380859375,3.093017578125
0.119,-2.592529296875,0.010009765625,3.012939453125
0.1195,-2.792724609375,0.490478515625,2.772705078125
0.12,-2.952880859375,1.131103515625,2.292236328125
0.1205,-3.113037109375,1.611572265625,1.771728515625
0.121,-2.952880859375,2.252197265625,1.131103515625
0.1215,-2.912841796875,2.412353515625,0.610595703125
0.122,-2.712646484375,2.652587890625,0.050048828125
0.1225,-2.552490234375,2.852783203125,-0.590576171875
0.123,-1.791748046875,2.892822265625,-1.471435546875
0.1235,-1.271240234375,2.812744140625,-2.072021484375
0.124,-0.790771484375,2.692626953125,-2.552490234375
0.1245,-0.350341796875,2.492431640625,-2.872802734375
0.125,0.250244140625,2.172119140625,-3.193115234375
0.1255,0.970947265625,1.731689453125,-3.553466796875
0.126,1.731689453125,1.091064453125,-3.753662109375
0.1265,2.212158203125,0.530517578125,-3.713623046875
0.127,2.452392578125,0.090087890625,-3.553466796875
0.1275,2.692626953125,-0.350341796875,-3.393310546875
0.128,2.852783203125,-0.910888671875,-3.153076171875
0.1285,2.932861328125,-1.551513671875,-2.432373046875
0.129,2.852783203125,-2.031982421875,-1.871826171875
0.1295,2.932861328125,-2.352294921875,-1.311279296875
0.13,2.772705078125,-2.552490234375,-0.910888671875
0.1305,2.532470703125,-2.712646484375,-0.310302734375
0.131,2.212158203125,-2.872802734375,0.370361328125
0.1315,1.571533203125,-2.912841796875,1.171142578125
0.132,1.051025390625,-2.752685546875,1.651611328125
0.1325,0.610595703125,-2.592529296875,2.052001953125
0.133,0.250244140625,-2.472412109375,2.412353515625
0.1335,-0.350341796875,-2.192138671875,2.812744140625
0.134,-1.151123046875,-1.551513671875,3.052978515625
0.1345,-1.791748046875,-0.990966796875,3.173095703125
0.135,-2.232177734375,-0.510498046875,3.133056640625
0.1355,-2.432373046875,-0.150146484375,3.012939453125
0.136,-2.672607421875,0.370361328125,2.852783203125
0.1365,-2.952880859375,0.810791015625,2.532470703125
0.137,-2.912841796875,1.531494140625,1.811767578125
0.1375,-2.992919921875,1.971923828125,1.291259765625
0.138,-2.952880859375,2.332275390625,0.770751953125
0.1385,-2.832763671875,2.532470703125,0.290283203125
0.139,-2.592529296875,2.732666015625,-0.350341796875
0.1395,-2.072021484375,2.852783203125,-1.111083984375
0.14,-1.511474609375,2.852783203125,-1.871826171875
0.1405,-0.990966796875,2.732666015625,-2.352294921875
0.141,-0.590576171875,2.532470703125,-2.712646484375
0.1415,0.010009765625,2.372314453125,-3.113037109375
0.142,0.610595703125,2.011962890625,-3.473388671875
0.1425,1.411376953125,1.291259765625,-3.713623046875
0.143,1.971923828125,0.690673828125,-3.713623046875
0.1435,2.372314453125,0.290283203125,-3.673583984375
0.144,2.532470703125,-0.190185546875,-3.473388671875
0.1445,2.812744140625,-0.710693359375,-3.193115234375
0.145,2.852783203125,-1.271240234375,-2.632568359375
0.1455,3.052978515625,-1.871826171875,-2.112060546875
0.146,3.012939453125,-2.272216796875,-1.551513671875
0.1465,2.852783203125,-2.512451171875,-1.031005859375
0.147,2.692626953125,-2.712646484375,-0.590576171875
0.1475,2.412353515625,-2.872802734375,0.130126953125
0.148,1.771728515625,-2.952880859375,0.970947265625
0.1485,1.211181640625,-2.872802734375,1.571533203125
0.149,0.770751953125,-2.712646484375,2.011962890625
0.1495,0.330322265625,-2.552490234375,2.332275390625
0.15,-0.270263671875,-2.272216796875,2.692626953125
0.1505,-0.910888671875,-1.791748046875,3.012939453125
0.151,-1.671630859375,-1.151123046875,3.213134765625
0.1515,-2.192138671875,-0.630615234375,3.133056640625
0.152,-2.432373046875,-0.150146484375,3.012939453125
0.1525,-2.712646484375,0.210205078125,2.892822265625
0.153,-2.872802734375,0.730712890625,2.532470703125
0.1535,-3.032958984375,1.371337890625,1.971923828125
0.154,-3.072998046875,1.931884765625,1.371337890625
0.1545,-3.032958984375,2.292236328125,0.850830078125
0.155,-2.832763671875,2.532470703125,0.370361328125
0.1555,-2.632568359375,2.692626953125,-0.270263671875
0.156,-2.272216796875,2.852783203125,-0.910888671875
0.1565,-1.631591796875,2.852783203125,-1.671630859375
0.157,-1.031005859375,2.732666015625,-2.272216796875
0.1575,-0.630615234375,2.612548828125,-2.672607421875
0.158,-0.190185546875,2.372314453125,-2.952880859375
0.1585,0.410400390625,2.092041015625,-3.353271484375
0.159,1.211181640625,1.451416015625,-3.593505859375
0.1595,1.931884765625,0.890869140625,-3.713623046875
0.16,2.252197265625,0.330322265625,-3.673583984375
0.1605,2.532470703125,-0.150146484375,-3.553466796875
0.161,2.732666015625,-0.510498046875,-3.273193359375
0.1615,2.892822265625,-1.031005859375,-2.952880859375
0.162,3.052978515625,-1.631591796875,-2.392333984375
0.1625,3.052978515625,-2.192138671875,-1.711669921875
0.163,2.932861328125,-2.472412109375,-1.271240234375
0.1635,2.772705078125,-2.632568359375,-0.750732421875
0.164,2.572509765625,-2.872802734375,-0.190185546875
0.1645,2.011962890625,-2.952880859375,0.650634765625
0.165,1.491455078125,-2.952880859375,1.331298828125
0.1655,0.970947265625,-2.792724609375,1.891845703125
0.166,0.530517578125,-2.672607421875,2.292236328125
0.1665,0.050048828125,-2.432373046875,2.612548828125
0.167,-0.630615234375,-2.112060546875,3.012939453125
0.1675,-1.431396484375,-1.431396484375,3.253173828125
0.168,-2.112060546875,-0.790771484375,3.253173828125
0.1685,-2.472412109375,-0.350341796875,3.213134765625
0.169,-2.712646484375,0.090087890625,2.972900390625
0.1695,-3.032958984375,0.610595703125,2.812744140625
0.17,-3.072998046875,1.291259765625,2.212158203125
0.1705,-3.193115234375,1.891845703125,1.611572265625
0.171,-3.072998046875,2.372314453125,0.970947265625
0.1715,-2.952880859375,2.572509765625,0.450439453125
0.172,-2.712646484375,2.732666015625,-0.110107421875
0.1725,-2.472412109375,2.932861328125,-0.710693359375
0.173,-1.751708984375,2.932861328125,-1.631591796875
0.1735,-1.151123046875,2.852783203125,-2.312255859375
0.174,-0.670654296875,2.692626953125,-2.712646484375
0.1745,-0.230224609375,2.492431640625,-3.032958984375
0.175,0.410400390625,2.172119140625,-3.393310546875
0.1755,1.091064453125,1.571533203125,-3.593505859375
0.176,1.851806640625,0.970947265625,-3.873779296875
0.1765,2.372314453125,0.290283203125,-3.713623046875
0.177,2.572509765625,-0.150146484375,-3.633544921875
0.1775,2.692626953125,-0.510498046875,-3.353271484375
0.178,3.052978515625,-0.950927734375,-3.153076171875
0.1785,3.012939453125,-1.591552734375,-2.432373046875
0.179,3.093017578125,-2.152099609375,-1.831787109375
0.1795,2.972900390625,-2.472412109375,-1.271240234375
0.18,2.852783203125,-2.712646484375,-0.790771484375
0.1805,2.572509765625,-2.872802734375,-0.230224609375
0.181,2.172119140625,-2.952880859375,0.490478515625
0.1815,1.611572265625,-3.032958984375,1.291259765625
0.182,0.970947265625,-2.872802734375,1.931884765625
0.1825,0.570556640625,-2.712646484375,2.252197265625
0.183,0.090087890625,-2.432373046875,2.572509765625
0.1835,-0.510498046875,-2.232177734375,3.012939453125
0.184,-1.311279296875,-1.471435546875,3.173095703125
0.1845,-1.951904296875,-0.990966796875,3.333251953125
0.185,-2.432373046875,-0.430419921875,3.213134765625
0.1855,-2.712646484375,0.050048828125,3.173095703125
0.186,-2.872802734375,0.490478515625,2.852783203125
0.1865,-3.072998046875,1.010986328125,2.532470703125
0.187,-3.153076171875,1.651611328125,1.851806640625
0.1875,-3.113037109375,2.252197265625,1.131103515625
0.188,-2.992919921875,2.532470703125,0.610595703125
