wavelength,x,y,z
0.0,-7.3621826171875,5.4903564453125,2.1270751953125
0.0005,-7.4022216796875,2.5675048828125,3.8087158203125
0.001,-7.3621826171875,3.1280517578125,4.4893798828125
0.0015,-7.1219482421875,1.7266845703125,5.6505126953125
0.002,-6.0008544921875,0.2052001953125,6.0909423828125
0.0025,-5.2801513671875,-1.3162841796875,6.7315673828125
0.003,-4.1190185546875,-2.8778076171875,7.0919189453125
0.0035,-3.1180419921875,-4.2791748046875,7.4122314453125
0.004,-2.1170654296875,-4.9598388671875,7.0919189453125
0.0045,-0.6756591796875,-6.0809326171875,6.7315673828125
0.005,0.8057861328125,-6.3612060546875,5.5303955078125
0.0055,2.0069580078125,-7.2020263671875,3.8487548828125
0.006,4.0089111328125,-7.3621826171875,3.3282470703125
0.0065,4.8897705078125,-8.9637451171875,2.7276611328125
0.007,5.8507080078125,-7.1619873046875,0.0050048828125
0.0075,6.4913330078125,-6.6815185546875,0.0850830078125
0.008,6.7315673828125,-5.6405029296875,-2.5574951171875
0.0085,7.0919189453125,-4.9197998046875,-2.4774169921875
0.009,7.3321533203125,-3.5184326171875,-4.1190185546875
0.0095,7.0919189453125,-2.6776123046875,-4.7196044921875
0.01,6.8116455078125,-1.1160888671875,-5.9207763671875
0.0105,5.4503173828125,0.6055908203125,-6.2010498046875
0.011,4.8897705078125,1.9669189453125,-7.0018310546875
0.0115,3.4483642578125,3.7286376953125,-7.1619873046875
0.012,2.6475830078125,4.9698486328125,-7.5623779296875
0.0125,1.3663330078125,5.6505126953125,-6.8817138671875
0.013,-0.1551513671875,6.7315673828125,-6.5213623046875
0.0135,-1.5965576171875,6.9317626953125,-5.2000732421875
0.014,-2.8778076171875,6.4112548828125,-4.7196044921875
0.0145,-4.8797607421875,7.8526611328125,-2.8778076171875
0.015,-5.6004638671875,7.8526611328125,-2.1571044921875
0.0155,-6.5213623046875,7.2120361328125,-0.5555419921875
0.016,-7.0018310546875,6.5313720703125,0.6856689453125
0.0165,-7.2420654296875,5.5303955078125,1.9268798828125
0.017,-7.4022216796875,4.4493408203125,3.2481689453125
0.0175,-8.9637451171875,3.2081298828125,4.7296142578125
0.018,-7.0418701171875,2.1270751953125,5.1700439453125
0.0185,-6.7215576171875,0.6456298828125,5.1300048828125
0.019,-5.2000732421875,-1.1561279296875,6.5313720703125
0.0195,-4.6795654296875,-2.3973388671875,7.2120361328125
0.02,-3.1180419921875,-4.1590576171875,7.3721923828125
0.0205,-2.3572998046875,-6.4012451171875,7.4923095703125
0.021,-0.8758544921875,-5.7606201171875,6.5714111328125
0.0215,0.5255126953125,-6.6815185546875,6.1710205078125
0.022,1.9268798828125,-6.8016357421875,4.9298095703125
0.0225,3.2882080078125,-7.4422607421875,4.1290283203125
0.023,5.1700439453125,-8.9637451171875,2.4874267578125
0.0235,5.6505126953125,-7.3221435546875,1.6065673828125
0.024,6.5714111328125,-6.7615966796875,0.1651611328125
0.0245,6.7315673828125,-5.8807373046875,-1.1160888671875
0.025,7.0919189453125,-6.4012451171875,-2.2371826171875
0.0255,7.1719970703125,-3.7586669921875,-3.6385498046875
0.026,7.4522705078125,-2.7977294921875,-4.9197998046875
0.0265,6.5313720703125,-1.3963623046875,-5.4002685546875
0.027,6.2510986328125,0.0850830078125,-6.4412841796875
0.0275,4.6495361328125,1.8067626953125,-6.5614013671875
0.028,4.2491455078125,2.9278564453125,-7.2420654296875
0.0285,2.6475830078125,4.8096923828125,-7.4022216796875
0.029,1.9669189453125,5.4903564453125,-7.3621826171875
0.0295,0.2452392578125,6.3311767578125,-6.4412841796875
0.03,-1.0760498046875,7.0518798828125,-5.8807373046875
0.0305,-2.5174560546875,7.3321533203125,-4.7596435546875
0.031,-3.9188232421875,7.7725830078125,-3.7586669921875
0.0315,-5.7205810546875,8.1329345703125,-2.2772216796875
0.032,-6.0809326171875,7.4122314453125,-1.1561279296875
0.0325,-7.0819091796875,7.0118408203125,0.2852783203125
0.033,-7.1219482421875,5.8106689453125,1.5264892578125
0.0335,-7.4822998046875,3.8487548828125,2.6475830078125
0.034,-7.5623779296875,3.6885986328125,4.1690673828125
0.0345,-8.9637451171875,2.6475830078125,5.3302001953125
0.035,-6.5614013671875,1.0460205078125,5.8507080078125
0.0355,-6.2010498046875,-0.4754638671875,6.8116455078125
0.036,-4.6395263671875,-2.0770263671875,6.8917236328125
0.0365,-3.9989013671875,-3.2781982421875,7.4122314453125
0.037,-2.5174560546875,-6.4012451171875,7.6124267578125
0.0375,-1.3963623046875,-5.6805419921875,7.0118408203125
0.038,0.1651611328125,-6.4813232421875,6.3311767578125
0.0385,1.3663330078125,-6.8817138671875,5.4503173828125
0.039,2.8878173828125,-7.2821044921875,4.3692626953125
0.0395,4.3692626953125,-7.5223388671875,3.1680908203125
0.04,5.9307861328125,-7.8026123046875,1.8468017578125
0.0405,6.0909423828125,-6.7215576171875,0.4854736328125
0.041,6.9317626953125,-6.5213623046875,-0.6756591796875
0.0415,6.8516845703125,-6.4012451171875,-1.9168701171875
0.042,7.1319580078125,-4.3992919921875,-2.9979248046875
0.0425,7.2520751953125,-2.9178466796875,-4.5594482421875
0.043,7.0518798828125,-1.9168701171875,-5.3602294921875
0.0435,6.0108642578125,-0.2352294921875,-6.0008544921875
0.044,5.4102783203125,1.1260986328125,-6.6414794921875
0.0445,4.0889892578125,2.6475830078125,-6.8016357421875
0.045,3.4083251953125,3.8087158203125,-7.2020263671875
0.0455,2.0870361328125,5.4903564453125,-7.5223388671875
0.046,0.8458251953125,5.8106689453125,-6.5614013671875
0.0465,-0.5555419921875,6.8116455078125,-6.2010498046875
0.047,-1.9168701171875,7.0518798828125,-5.0399169921875
0.0475,-3.2381591796875,7.5723876953125,-4.1990966796875
0.048,-4.7996826171875,7.7325439453125,-2.8377685546875
0.0485,-6.0408935546875,7.8526611328125,-1.7567138671875
0.049,-6.3211669921875,6.6915283203125,-0.2752685546875
0.0495,-7.1219482421875,6.5714111328125,0.7657470703125
0.05,-7.0418701171875,5.2100830078125,2.1270751953125
0.0505,-7.3621826171875,4.4893798828125,3.2081298828125
0.051,-7.6424560546875,3.1280517578125,4.8497314453125
0.0515,-7.0418701171875,1.9669189453125,5.4102783203125
0.052,-6.1610107421875,0.2052001953125,6.2510986328125
0.0525,-5.4002685546875,-1.1961669921875,6.7716064453125
0.053,-4.2391357421875,-2.7176513671875,7.0919189453125
0.0535,-3.3582763671875,-3.9588623046875,7.3721923828125
0.054,-2.0369873046875,-5.4803466796875,7.5323486328125
0.0545,-0.5955810546875,-5.7606201171875,6.2911376953125
0.055,0.6055908203125,-6.7215576171875,6.1710205078125
0.0555,2.2872314453125,-6.9217529296875,4.6094970703125
0.056,3.5284423828125,-7.4022216796875,3.8887939453125
0.0565,5.0899658203125,-7.6024169921875,2.4073486328125
0.057,5.9708251953125,-7.3621826171875,0.0050048828125
0.0575,6.3712158203125,-6.2410888671875,-0.2352294921875
0.058,6.8917236328125,-5.8807373046875,-1.1561279296875
0.0585,6.8917236328125,-4.4793701171875,-2.5975341796875
0.059,7.0919189453125,-3.6785888671875,-3.5584716796875
0.0595,7.2921142578125,-2.3973388671875,-6.4012451171875
0.06,6.2911376953125,-0.9559326171875,-5.5604248046875
0.0605,5.6505126953125,0.5655517578125,-6.3612060546875
0.061,4.5694580078125,1.9669189453125,-6.6414794921875
0.0615,3.6085205078125,3.3682861328125,-7.0418701171875
0.062,2.6475830078125,4.5694580078125,-7.2020263671875
0.0625,1.4063720703125,5.8106689453125,-7.1219482421875
0.063,-0.1551513671875,6.1309814453125,-5.8807373046875
0.0635,-1.1961669921875,7.0518798828125,-5.7606201171875
0.064,-2.9979248046875,7.2120361328125,-3.9588623046875
0.0645,-3.9588623046875,7.5723876953125,-3.5184326171875
0.065,-5.5604248046875,6.4112548828125,-2.0770263671875
0.0655,-6.1209716796875,7.0919189453125,-0.8758544921875
0.066,-6.6014404296875,5.1300048828125,0.4454345703125
0.0665,-7.0418701171875,5.7706298828125,1.4864501953125
0.067,-7.1619873046875,4.5294189453125,2.9678955078125
0.0675,-7.2821044921875,3.6885986328125,3.8887939453125
0.068,-7.4422607421875,2.4473876953125,5.3302001953125
0.0685,-6.2010498046875,0.8057861328125,5.6905517578125
0.069,-5.8807373046875,-0.5955810546875,6.6514892578125
0.0695,-4.4393310546875,-2.2371826171875,6.8116455078125
0.07,-3.7586669921875,-3.5184326171875,7.3321533203125
0.0705,-2.5174560546875,-4.7196044921875,7.2520751953125
0.071,-1.1961669921875,-5.7606201171875,6.9317626953125
0.0715,0.3253173828125,-6.1209716796875,5.8106689453125
0.072,1.4464111328125,-6.9217529296875,5.6104736328125
0.0725,3.4083251953125,-7.2020263671875,3.6885986328125
0.073,4.2891845703125,-7.5223388671875,3.1280517578125
0.0735,5.7305908203125,-7.4422607421875,1.6866455078125
0.074,6.0909423828125,-6.5614013671875,0.4053955078125
0.0745,6.5714111328125,-6.0008544921875,-0.7957763671875
0.075,6.8917236328125,-4.9598388671875,-2.0770263671875
0.0755,7.0518798828125,-5.1199951171875,-3.4383544921875
0.076,6.9317626953125,-2.8377685546875,-4.3192138671875
0.0765,6.9317626953125,-1.5965576171875,-5.5604248046875
0.077,5.4903564453125,0.1651611328125,-5.8006591796875
0.0775,5.2501220703125,1.3262939453125,-6.6815185546875
0.078,3.5684814453125,3.1680908203125,-6.8016357421875
0.0785,3.0880126953125,4.1690673828125,-7.2020263671875
0.079,1.8067626953125,5.2901611328125,-7.0418701171875
0.0795,0.4053955078125,6.1309814453125,-7.6824951171875
0.08,-0.9559326171875,6.3712158203125,-5.6004638671875
0.0805,-2.2772216796875,7.2120361328125,-4.8797607421875
0.081,-3.9989013671875,7.3721923828125,-3.3983154296875
0.0815,-4.7996826171875,7.5723876953125,-2.6776123046875
0.082,-6.0809326171875,7.4522705078125,-2.5574951171875
0.0825,-6.2811279296875,6.4512939453125,0.0450439453125
0.083,-6.9217529296875,6.0909423828125,1.0860595703125
0.0835,-7.0418701171875,4.7696533203125,1.2862548828125
0.084,-7.3621826171875,3.9288330078125,3.7286376953125
0.0845,-7.1219482421875,2.7677001953125,4.6495361328125
0.085,-6.9217529296875,1.4864501953125,5.7305908203125
0.0855,-5.5604248046875,-0.3153076171875,6.0509033203125
0.086,-5.2801513671875,-1.5164794921875,6.9317626953125
0.0865,-3.5584716796875,-3.4383544921875,7.0919189453125
0.087,-3.0780029296875,-4.2391357421875,7.3721923828125
0.0875,-1.5965576171875,-5.4403076171875,7.0518798828125
0.088,-0.1551513671875,-6.0809326171875,6.2510986328125
0.0885,1.1260986328125,-6.6414794921875,5.4503173828125
0.089,2.8878173828125,-7.3221435546875,4.2491455078125
0.0895,4.4093017578125,-7.4822998046875,3.0880126953125
0.09,3.8487548828125,-7.4022216796875,2.2071533203125
0.0905,6.2510986328125,-7.1219482421875,0.8057861328125
0.091,5.1300048828125,-6.0008544921875,-0.5555419921875
0.0915,7.0118408203125,-5.6004638671875,-1.5965576171875
0.092,7.0919189453125,-3.9989013671875,-3.3182373046875
0.0925,7.2520751953125,-3.1981201171875,-4.2791748046875
0.093,6.8516845703125,-1.8768310546875,-5.2401123046875
0.0935,6.3712158203125,-0.4754638671875,-6.1209716796875
0.094,4.9698486328125,1.3262939453125,-6.3612060546875
0.0945,4.4893798828125,1.2862548828125,-7.0819091796875
0.095,2.8077392578125,4.4493408203125,-7.2420654296875
0.0955,2.2872314453125,5.0499267578125,-7.2821044921875
0.096,0.6456298828125,6.1710205078125,-6.7615966796875
0.0965,-0.7957763671875,6.6114501953125,-5.8006591796875
0.097,-1.9569091796875,7.2520751953125,-5.0799560546875
0.0975,-3.7987060546875,7.5723876953125,-3.7586669921875
0.098,-5.2000732421875,7.8526611328125,-3.8387451171875
0.0985,-5.7606201171875,7.4122314453125,-1.5164794921875
0.099,-6.8016357421875,7.0919189453125,-0.1551513671875
0.0995,-6.8416748046875,5.8907470703125,1.1661376953125
0.1,-7.3621826171875,5.4503173828125,2.2071533203125
0.1005,-7.4422607421875,3.7686767578125,3.9688720703125
0.101,-7.4822998046875,3.0479736328125,4.7696533203125
0.1015,-6.9217529296875,1.5665283203125,5.6505126953125
0.102,-6.1610107421875,0.0450439453125,6.4512939453125
0.1025,-5.0399169921875,-1.6365966796875,6.8116455078125
0.103,-4.1990966796875,-2.9979248046875,7.3321533203125
0.1035,-2.8377685546875,-4.7196044921875,7.5723876953125
0.104,-1.9168701171875,-5.3201904296875,7.0919189453125
0.1045,-0.3553466796875,-6.4412841796875,6.7315673828125
0.105,1.0460205078125,-6.7615966796875,5.6104736328125
0.1055,2.4073486328125,-7.3621826171875,4.9698486328125
0.106,4.2891845703125,-8.9637451171875,3.2882080078125
0.1065,5.6104736328125,-7.9227294921875,2.2872314453125
0.107,6.1309814453125,-7.1219482421875,0.9259033203125
0.1075,7.0518798828125,-6.8016357421875,-0.4354248046875
0.108,7.0518798828125,-5.4403076171875,-1.7567138671875
0.1085,7.4122314453125,-4.7996826171875,-2.8377685546875
0.109,7.5723876953125,-3.1580810546875,-4.6395263671875
0.1095,7.2921142578125,-2.2371826171875,-5.3201904296875
0.11,6.6114501953125,-0.5555419921875,-6.3211669921875
0.1105,5.6104736328125,1.0860595703125,-6.8016357421875
0.111,4.5294189453125,1.2862548828125,-7.1619873046875
0.1115,3.4483642578125,4.0489501953125,-7.5223388671875
0.112,2.1671142578125,5.7305908203125,-7.8426513671875
0.1125,0.9659423828125,6.0909423828125,-7.0018310546875
0.113,-0.5955810546875,7.2120361328125,-6.6414794921875
0.1135,-2.0369873046875,7.3721923828125,-5.2401123046875
0.114,-3.3582763671875,7.9727783203125,-4.5194091796875
0.1145,-5.3201904296875,8.1729736328125,-2.7576904296875
0.115,-6.4412841796875,8.2130126953125,-1.6365966796875
0.1155,-6.8817138671875,7.1319580078125,-0.1151123046875
0.116,-8.9637451171875,6.8116455078125,1.1260986328125
0.1165,-7.5623779296875,5.4503173828125,2.4473876953125
0.117,-7.8026123046875,4.5294189453125,3.5684814453125
0.1175,-8.0428466796875,2.9678955078125,5.4102783203125
0.118,-7.3621826171875,1.8067626953125,5.8507080078125
0.1185,-6.6815185546875,0.0850830078125,6.8917236328125
0.119,-5.4803466796875,-1.5565185546875,7.2120361328125
0.1195,-4.4793701171875,-2.9979248046875,7.5323486328125
0.12,-3.1580810546875,-4.5594482421875,7.7325439453125
0.1205,-1.9168701171875,-6.0809326171875,7.8927001953125
0.121,-0.3953857421875,-6.3612060546875,6.6114501953125
0.1215,0.9259033203125,-7.3621826171875,6.4512939453125
0.122,2.4473876953125,-7.3621826171875,4.8497314453125
0.1225,3.7286376953125,-7.9227294921875,4.0889892578125
0.123,5.7305908203125,-8.0828857421875,2.3272705078125
0.1235,6.4913330078125,-7.7625732421875,1.1661376953125
0.124,7.0118408203125,-6.7615966796875,-0.4354248046875
0.1245,7.4522705078125,-6.2010498046875,-1.4764404296875
0.125,7.4122314453125,-4.8397216796875,-2.8377685546875
0.1255,7.5323486328125,-3.7987060546875,-3.9588623046875
0.126,7.8126220703125,-2.3973388671875,-5.6805419921875
0.1265,6.7315673828125,-1.0360107421875,-6.0008544921875
0.127,6.1710205078125,0.6456298828125,-7.0018310546875
0.1275,4.8096923828125,2.1671142578125,-7.0418701171875
0.128,4.0089111328125,3.4083251953125,-7.4822998046875
0.1285,2.6075439453125,5.0098876953125,-7.6424560546875
0.129,1.4464111328125,6.2110595703125,-7.6424560546875
0.1295,-0.2352294921875,6.5714111328125,-6.3211669921875
0.13,-2.5574951171875,7.4522705078125,-6.1209716796875
0.1305,-2.9578857421875,7.5723876953125,-4.4793701171875
0.131,-4.1190185546875,8.0128173828125,-3.7987060546875
0.1315,-6.0008544921875,8.2130126953125,-2.1170654296875
0.132,-6.5213623046875,7.5723876953125,-0.9559326171875
0.1325,-7.1619873046875,6.8917236328125,0.5255126953125
0.133,-7.4022216796875,6.0909423828125,1.6065673828125
0.1335,-7.5223388671875,4.9298095703125,2.9278564453125
0.134,-7.6424560546875,3.8087158203125,4.1690673828125
0.1345,-7.9227294921875,1.2862548828125,5.6505126953125
0.135,-6.6014404296875,1.0059814453125,5.9307861328125
0.1355,-6.3211669921875,-0.5555419921875,7.0118408203125
0.136,-4.7596435546875,-2.1971435546875,7.0919189453125
0.1365,-4.1190185546875,-3.4383544921875,7.5723876953125
0.137,-2.6375732421875,-5.0799560546875,6.4112548828125
0.1375,-1.3563232421875,-6.0408935546875,7.3721923828125
0.138,0.2052001953125,-6.4813232421875,6.2911376953125
0.1385,1.3663330078125,-7.2821044921875,5.8507080078125
0.139,3.2081298828125,-7.5223388671875,4.2091064453125
0.1395,4.3692626953125,-7.8426513671875,3.4483642578125
0.14,6.1309814453125,-8.0828857421875,1.8868408203125
0.1405,6.4913330078125,-7.0418701171875,0.4854736328125
0.141,7.2120361328125,-6.5614013671875,-0.7957763671875
0.1415,7.4122314453125,-5.4403076171875,-2.0770263671875
0.142,7.5323486328125,-4.3192138671875,-3.4783935546875
0.1425,7.5323486328125,-3.0379638671875,-4.7196044921875
0.143,7.5723876953125,-1.8367919921875,-6.0809326171875
0.1435,6.1309814453125,0.1251220703125,-6.3612060546875
0.144,5.8106689453125,1.3262939453125,-7.3221435546875
0.1445,3.9688720703125,3.2481689453125,-7.3621826171875
0.145,3.3282470703125,4.3692626953125,-7.7225341796875
0.1455,1.8868408203125,5.9307861328125,-7.7625732421875
0.146,0.3653564453125,6.7315673828125,-7.0418701171875
0.1465,-1.1160888671875,7.2120361328125,-6.0408935546875
0.147,-2.4774169921875,7.8526611328125,-5.2801513671875
0.1475,-4.3192138671875,8.0128173828125,-3.5985107421875
0.148,-5.2801513671875,8.1329345703125,-2.7176513671875
0.1485,-6.8416748046875,8.2130126953125,-1.2362060546875
0.149,-7.0018310546875,6.9317626953125,0.2852783203125
0.1495,-7.6424560546875,6.5313720703125,1.3262939453125
0.15,-8.9637451171875,5.0899658203125,2.9278564453125
0.1505,-7.8026123046875,4.0489501953125,4.0489501953125
0.151,-8.9637451171875,2.7276611328125,5.2901611328125
0.1515,-7.4422607421875,1.4464111328125,6.2911376953125
0.152,-5.9207763671875,-0.5155029296875,6.5714111328125
0.1525,-5.6004638671875,-1.7166748046875,7.4122314453125
0.153,-3.7186279296875,-3.7186279296875,7.4923095703125
0.1535,-3.1580810546875,-4.5194091796875,7.7325439453125
0.154,-1.6365966796875,-6.0008544921875,7.6124267578125
0.1545,-0.1151123046875,-6.5213623046875,6.5714111328125
0.155,1.2061767578125,-7.1219482421875,5.8907470703125
0.1555,2.8878173828125,-7.6424560546875,4.7696533203125
0.156,4.4893798828125,-7.8426513671875,3.3282470703125
0.1565,5.4102783203125,-7.8426513671875,2.4073486328125
0.157,6.6514892578125,-7.7225341796875,1.0059814453125
0.1575,6.7315673828125,-6.4412841796875,-0.4754638671875
0.158,7.4122314453125,-6.0809326171875,-1.5164794921875
0.1585,7.4122314453125,-4.4393310546875,-3.2381591796875
0.159,7.5723876953125,-3.6385498046875,-4.1990966796875
0.1595,7.4122314453125,-2.2371826171875,-5.4803466796875
0.16,6.8917236328125,-0.8758544921875,-6.3612060546875
0.1605,5.5303955078125,0.9659423828125,-6.6815185546875
0.161,5.0098876953125,2.2872314453125,-7.4022216796875
0.1615,3.2481689453125,4.2491455078125,-7.5623779296875
0.162,2.6876220703125,5.0098876953125,-8.9637451171875
0.1625,1.0860595703125,6.4512939453125,-7.4422607421875
0.163,-0.5555419921875,6.9317626953125,-6.2811279296875
0.1635,-1.7967529296875,7.5723876953125,-5.7205810546875
0.164,-3.6785888671875,8.0128173828125,-4.1990966796875
0.1645,-5.0399169921875,8.2130126953125,-3.0379638671875
0.165,-5.9207763671875,8.0128173828125,-1.9168701171875
0.1655,-7.0418701171875,6.4112548828125,-0.5155029296875
0.166,-7.1619873046875,5.1300048828125,1.0059814453125
0.1665,-7.7625732421875,6.0108642578125,2.0069580078125
0.167,-7.7625732421875,4.1690673828125,3.8887939453125
0.1675,-7.8026123046875,3.4483642578125,4.6895751953125
0.168,-7.4822998046875,1.8868408203125,5.8507080078125
0.1685,-6.6414794921875,0.3253173828125,6.5714111328125
0.169,-5.4803466796875,-1.3963623046875,7.0118408203125
0.1695,-4.5994873046875,-2.8377685546875,7.5723876953125
0.17,-3.0780029296875,-4.5994873046875,7.7325439453125
0.1705,-2.2772216796875,-5.2401123046875,7.4923095703125
0.171,-0.6356201171875,-6.5213623046875,7.1319580078125
0.1715,0.9259033203125,-6.8016357421875,5.8507080078125
0.172,2.1270751953125,-7.5223388671875,5.3302001953125
0.1725,4.1690673828125,-7.7625732421875,3.5684814453125
0.173,5.2901611328125,-7.9627685546875,2.6075439453125
0.1735,6.1309814453125,-7.4822998046875,1.3262939453125
0.174,6.9718017578125,-7.0418701171875,0.0450439453125
0.1745,7.0118408203125,-5.7205810546875,-1.4364013671875
0.175,7.4522705078125,-5.2401123046875,-2.5174560546875
0.1755,7.5323486328125,-3.4783935546875,-4.3192138671875
0.176,7.4122314453125,-2.7977294921875,-4.9598388671875
0.1765,7.0118408203125,-1.1961669921875,-6.1209716796875
0.177,5.8907470703125,0.4854736328125,-6.6014404296875
0.1775,4.9698486328125,2.0870361328125,-7.0819091796875
0.178,3.8087158203125,3.5684814453125,-7.4422607421875
