wavelength,x,y,z
0.0,0.66064453125,5.94580078125,-5.54541015625
0.0005,1.30126953125,5.90576171875,-6.26611328125
0.001,2.38232421875,5.26513671875,-6.86669921875
0.0015,3.70361328125,3.90380859375,-7.14697265625
0.002,4.94482421875,2.54248046875,-7.22705078125
0.0025,5.78564453125,1.10107421875,-6.98681640625
0.003,6.10595703125,0.26025390625,-6.78662109375
0.0035,6.06591796875,-0.66064453125,-6.26611328125
0.004,5.74560546875,-1.66162109375,-5.26513671875
0.0045,5.42529296875,-2.94287109375,-3.90380859375
0.005,5.10498046875,-4.34423828125,-2.42236328125
0.0055,4.74462890625,-5.34521484375,-1.22119140625
0.006,4.34423828125,-5.94580078125,-0.38037109375
0.0065,3.54345703125,-6.26611328125,0.62060546875
0.007,2.26220703125,-6.38623046875,1.94189453125
0.0075,0.86083984375,-6.54638671875,3.54345703125
0.008,-0.50048828125,-6.54638671875,4.86474609375
0.0085,-1.22119140625,-6.70654296875,5.70556640625
0.009,-1.98193359375,-6.50634765625,6.42626953125
0.0095,-3.22314453125,-5.62548828125,6.90673828125
0.01,-4.54443359375,-4.14404296875,7.10693359375
0.0105,-5.74560546875,-2.58251953125,7.14697265625
0.011,-6.34619140625,-1.34130859375,6.86669921875
0.0115,-6.50634765625,-0.62060546875,6.54638671875
0.012,-6.38623046875,0.38037109375,5.90576171875
0.0125,-6.02587890625,1.54150390625,4.70458984375
0.013,-5.70556640625,2.90283203125,3.26318359375
0.0135,-5.34521484375,4.18408203125,1.82177734375
0.014,-4.94482421875,5.06494140625,0.78076171875
0.0145,-4.46435546875,5.58544921875,-0.18017578125
0.015,-3.50341796875,5.74560546875,-1.22119140625
0.0155,-2.06201171875,5.90576171875,-2.70263671875
0.016,-0.58056640625,6.02587890625,-4.34423828125
0.0165,0.62060546875,5.94580078125,-5.46533203125
0.017,1.22119140625,5.98583984375,-6.22607421875
0.0175,2.10205078125,5.50537109375,-6.86669921875
0.018,3.50341796875,4.34423828125,-7.18701171875
0.0185,4.78466796875,2.86279296875,-7.34716796875
0.019,5.74560546875,1.34130859375,-7.14697265625
0.0195,6.14599609375,0.34033203125,-6.86669921875
0.02,6.14599609375,-0.58056640625,-6.42626953125
0.0205,5.90576171875,-1.42138671875,-5.62548828125
0.021,5.50537109375,-2.62255859375,-4.26416015625
0.0215,5.18505859375,-4.06396484375,-2.74267578125
0.022,4.78466796875,-5.14501953125,-1.46142578125
0.0225,4.38427734375,-5.82568359375,-0.58056640625
0.023,3.78369140625,-6.22607421875,0.42041015625
0.0235,2.62255859375,-6.34619140625,1.54150390625
0.024,1.26123046875,-6.46630859375,3.06298828125
0.0245,-0.26025390625,-6.46630859375,4.50439453125
0.025,-1.02099609375,-6.54638671875,5.42529296875
0.0255,-1.70166015625,-6.54638671875,6.10595703125
0.026,-2.70263671875,-5.90576171875,6.66650390625
0.0265,-3.98388671875,-4.58447265625,6.94677734375
0.027,-5.18505859375,-3.18310546875,7.02685546875
0.0275,-6.02587890625,-1.82177734375,6.78662109375
0.028,-6.34619140625,-0.98095703125,6.58642578125
0.0285,-6.26611328125,-0.26025390625,6.14599609375
0.029,-5.94580078125,0.78076171875,5.18505859375
0.0295,-5.62548828125,1.94189453125,3.94384765625
0.03,-5.34521484375,3.34326171875,2.54248046875
0.0305,-4.98486328125,4.34423828125,1.34130859375
0.031,-4.66455078125,4.98486328125,0.54052734375
0.0315,-3.98388671875,5.34521484375,-0.46044921875
0.032,-2.86279296875,5.46533203125,-1.62158203125
0.0325,-1.50146484375,5.66552734375,-3.14306640625
0.033,-0.30029296875,5.70556640625,-4.46435546875
0.0335,0.50048828125,5.82568359375,-5.42529296875
0.034,1.26123046875,5.82568359375,-6.10595703125
0.0345,2.30224609375,5.10498046875,-6.58642578125
0.035,3.58349609375,3.82373046875,-6.86669921875
0.0355,4.82470703125,2.38232421875,-6.90673828125
0.036,5.50537109375,1.14111328125,-6.74658203125
0.0365,5.74560546875,0.42041015625,-6.58642578125
0.037,5.74560546875,-0.50048828125,-6.06591796875
0.0375,5.42529296875,-1.46142578125,-5.06494140625
0.038,5.18505859375,-2.74267578125,-3.82373046875
0.0385,4.90478515625,-4.06396484375,-2.42236328125
0.039,4.62451171875,-4.98486328125,-1.42138671875
0.0395,4.26416015625,-5.62548828125,-0.62060546875
0.04,3.50341796875,-5.90576171875,0.46044921875
0.0405,2.26220703125,-6.10595703125,1.78173828125
0.041,0.90087890625,-6.30615234375,3.34326171875
0.0415,-0.30029296875,-6.38623046875,4.46435546875
0.042,-0.90087890625,-6.50634765625,5.34521484375
0.0425,-1.74169921875,-6.26611328125,6.02587890625
0.043,-2.98291015625,-5.26513671875,6.46630859375
0.0435,-4.26416015625,-3.98388671875,6.70654296875
0.044,-5.30517578125,-2.58251953125,6.66650390625
0.0445,-5.82568359375,-1.58154296875,6.54638671875
0.045,-6.02587890625,-0.90087890625,6.26611328125
0.0455,-5.86572265625,0.06005859375,5.62548828125
0.046,-5.58544921875,1.18115234375,4.50439453125
0.0465,-5.34521484375,2.46240234375,3.18310546875
0.047,-5.06494140625,3.66357421875,1.94189453125
0.0475,-4.78466796875,4.46435546875,1.06103515625
0.048,-4.30419921875,4.90478515625,0.26025390625
0.0485,-3.34326171875,5.10498046875,-0.90087890625
0.049,-2.18212890625,5.38525390625,-2.26220703125
0.0495,-0.90087890625,5.46533203125,-3.74365234375
0.05,0.06005859375,5.62548828125,-4.70458984375
0.0505,0.70068359375,5.74560546875,-5.46533203125
0.051,1.58154296875,5.30517578125,-6.10595703125
0.0515,2.86279296875,4.22412109375,-6.42626953125
0.052,4.02392578125,2.94287109375,-6.62646484375
0.0525,4.90478515625,1.66162109375,-6.50634765625
0.053,5.30517578125,0.86083984375,-6.42626953125
0.0535,5.42529296875,0.18017578125,-6.10595703125
0.054,5.22509765625,-0.78076171875,-5.38525390625
0.0545,4.98486328125,-1.86181640625,-4.34423828125
0.055,4.78466796875,-3.18310546875,-3.06298828125
0.0555,4.54443359375,-4.18408203125,-1.98193359375
0.056,4.34423828125,-4.94482421875,-1.22119140625
0.0565,3.82373046875,-5.42529296875,-0.38037109375
0.057,2.86279296875,-5.62548828125,0.82080078125
0.0575,1.70166015625,-5.94580078125,2.14208984375
0.058,0.58056640625,-6.02587890625,3.46337890625
0.0585,-0.22021484375,-6.26611328125,4.42431640625
0.059,-0.94091796875,-6.34619140625,5.22509765625
0.0595,-1.94189453125,-5.74560546875,5.78564453125
0.06,-3.14306640625,-4.70458984375,6.14599609375
0.0605,-4.34423828125,-3.42333984375,6.30615234375
0.061,-5.10498046875,-2.30224609375,6.26611328125
0.0615,-5.46533203125,-1.62158203125,6.26611328125
0.062,-5.58544921875,-0.94091796875,5.90576171875
0.0625,-5.38525390625,0.10009765625,5.10498046875
0.063,-5.26513671875,1.22119140625,4.10400390625
0.0635,-5.06494140625,2.50244140625,2.86279296875
0.064,-4.86474609375,3.42333984375,1.94189453125
0.0645,-4.62451171875,4.10400390625,1.14111328125
0.065,-4.02392578125,4.50439453125,0.26025390625
0.0655,-3.14306640625,4.82470703125,-0.98095703125
0.066,-1.94189453125,5.14501953125,-2.42236328125
0.0665,-0.98095703125,5.38525390625,-3.54345703125
0.067,-0.30029296875,5.62548828125,-4.50439453125
0.0675,0.62060546875,5.54541015625,-5.30517578125
0.068,1.70166015625,4.82470703125,-5.78564453125
0.0685,2.86279296875,3.82373046875,-6.14599609375
0.069,3.98388671875,2.54248046875,-6.26611328125
0.0695,4.62451171875,1.58154296875,-6.26611328125
0.07,4.98486328125,0.94091796875,-6.22607421875
0.0705,4.98486328125,0.18017578125,-5.74560546875
0.071,4.82470703125,-0.82080078125,-4.94482421875
0.0715,4.74462890625,-2.06201171875,-3.86376953125
0.072,4.58447265625,-3.22314453125,-2.74267578125
0.0725,4.46435546875,-4.14404296875,-1.94189453125
0.073,4.14404296875,-4.78466796875,-1.14111328125
0.0735,3.42333984375,-5.14501953125,-0.22021484375
0.074,2.50244140625,-5.46533203125,1.14111328125
0.0745,1.34130859375,-5.74560546875,2.50244140625
0.075,0.58056640625,-6.02587890625,3.54345703125
0.0755,-0.18017578125,-6.26611328125,4.50439453125
0.076,-1.10107421875,-6.06591796875,5.18505859375
0.0765,-2.26220703125,-5.18505859375,5.70556640625
0.077,-3.46337890625,-4.10400390625,5.98583984375
0.0775,-4.46435546875,-2.90283203125,6.06591796875
0.078,-5.02490234375,-2.14208984375,6.14599609375
0.0785,-5.26513671875,-1.46142578125,6.02587890625
0.079,-5.26513671875,-0.62060546875,5.42529296875
0.0795,-5.10498046875,0.46044921875,4.54443359375
0.08,-5.06494140625,1.70166015625,3.46337890625
0.0805,-4.90478515625,2.74267578125,2.42236328125
0.081,-4.78466796875,3.58349609375,1.66162109375
0.0815,-4.38427734375,4.14404296875,0.82080078125
0.082,-3.54345703125,4.54443359375,-0.34033203125
0.0825,-2.54248046875,4.98486328125,-1.66162109375
0.083,-1.46142578125,5.18505859375,-2.98291015625
0.0835,-0.74072265625,5.50537109375,-3.98388671875
0.084,0.14013671875,5.62548828125,-4.86474609375
0.0845,1.14111328125,5.14501953125,-5.50537109375
0.085,2.30224609375,4.18408203125,-5.90576171875
0.0855,3.54345703125,2.98291015625,-6.14599609375
0.086,4.38427734375,1.94189453125,-6.18603515625
0.0865,4.82470703125,1.22119140625,-6.22607421875
0.087,4.98486328125,0.50048828125,-5.90576171875
0.0875,4.86474609375,-0.50048828125,-5.14501953125
0.088,4.78466796875,-1.62158203125,-4.22412109375
0.0885,4.62451171875,-2.90283203125,-3.06298828125
0.089,4.50439453125,-3.86376953125,-2.18212890625
0.0895,4.30419921875,-4.62451171875,-1.42138671875
0.09,3.70361328125,-5.06494140625,-0.50048828125
0.0905,2.74267578125,-5.38525390625,0.78076171875
0.091,1.66162109375,-5.70556640625,2.18212890625
0.0915,0.78076171875,-5.94580078125,3.34326171875
0.092,0.10009765625,-6.26611328125,4.30419921875
0.0925,-0.86083984375,-6.14599609375,5.10498046875
0.093,-2.02197265625,-5.42529296875,5.62548828125
0.0935,-3.22314453125,-4.38427734375,6.02587890625
0.094,-4.34423828125,-3.06298828125,6.10595703125
0.0945,-4.98486328125,-2.18212890625,6.14599609375
0.095,-5.30517578125,-1.50146484375,6.06591796875
0.0955,-5.38525390625,-0.74072265625,5.62548828125
0.096,-5.18505859375,0.34033203125,4.70458984375
0.0965,-5.10498046875,1.54150390625,3.66357421875
0.097,-4.94482421875,2.70263671875,2.50244140625
0.0975,-4.82470703125,3.58349609375,1.62158203125
0.098,-4.42431640625,4.18408203125,0.86083984375
0.0985,-3.66357421875,4.54443359375,-0.26025390625
0.099,-2.66259765625,4.98486328125,-1.50146484375
0.0995,-1.50146484375,5.18505859375,-2.90283203125
0.1,-0.70068359375,5.46533203125,-3.94384765625
0.1005,0.06005859375,5.66552734375,-4.86474609375
0.101,1.02099609375,5.34521484375,-5.50537109375
0.1015,2.26220703125,4.34423828125,-5.98583984375
0.102,3.50341796875,3.18310546875,-6.26611328125
0.1025,4.46435546875,1.94189453125,-6.26611328125
0.103,4.94482421875,1.18115234375,-6.30615234375
0.1035,5.10498046875,0.50048828125,-6.06591796875
0.104,4.98486328125,-0.50048828125,-5.34521484375
0.1045,4.82470703125,-1.62158203125,-4.42431640625
0.105,4.74462890625,-2.94287109375,-3.18310546875
0.1055,4.54443359375,-3.98388671875,-2.14208984375
0.106,4.34423828125,-4.74462890625,-1.34130859375
0.1065,3.86376953125,-5.18505859375,-0.50048828125
0.107,2.86279296875,-5.46533203125,0.74072265625
0.1075,1.78173828125,-5.82568359375,2.18212890625
0.108,0.66064453125,-6.02587890625,3.46337890625
0.1085,0.02001953125,-6.26611328125,4.46435546875
0.109,-0.94091796875,-6.26611328125,5.26513671875
0.1095,-2.02197265625,-5.62548828125,5.82568359375
0.11,-3.34326171875,-4.50439453125,6.26611328125
0.1105,-4.54443359375,-3.14306640625,6.38623046875
0.111,-5.26513671875,-2.06201171875,6.34619140625
0.1115,-5.62548828125,-1.34130859375,6.22607421875
0.112,-5.62548828125,-0.62060546875,5.78564453125
0.1125,-5.42529296875,0.50048828125,4.82470703125
0.113,-5.30517578125,1.74169921875,3.70361328125
0.1135,-5.10498046875,2.98291015625,2.42236328125
0.114,-4.82470703125,3.94384765625,1.46142578125
0.1145,-4.50439453125,4.54443359375,0.66064453125
0.115,-3.70361328125,4.86474609375,-0.38037109375
0.1155,-2.58251953125,5.14501953125,-1.70166015625
0.116,-1.30126953125,5.42529296875,-3.18310546875
0.1165,-0.38037109375,5.58544921875,-4.34423828125
0.117,0.34033203125,5.74560546875,-5.18505859375
0.1175,1.30126953125,5.46533203125,-5.90576171875
0.118,2.54248046875,4.50439453125,-6.34619140625
0.1185,3.82373046875,3.18310546875,-6.62646484375
0.119,4.82470703125,1.86181640625,-6.58642578125
0.1195,5.38525390625,0.90087890625,-6.46630859375
0.12,5.54541015625,0.18017578125,-6.26611328125
0.1205,5.38525390625,-0.82080078125,-5.54541015625
0.121,5.10498046875,-1.94189453125,-4.42431640625
0.1215,4.94482421875,-3.34326171875,-3.14306640625
0.122,4.74462890625,-4.46435546875,-1.86181640625
0.1225,4.42431640625,-5.18505859375,-1.02099609375
0.123,3.86376953125,-5.70556640625,-0.18017578125
0.1235,2.86279296875,-5.90576171875,1.02099609375
0.124,1.58154296875,-6.14599609375,2.54248046875
0.1245,0.30029296875,-6.26611328125,3.98388671875
0.125,-0.58056640625,-6.46630859375,4.98486328125
0.1255,-1.30126953125,-6.42626953125,5.74560546875
0.126,-2.42236328125,-5.82568359375,6.38623046875
0.1265,-3.78369140625,-4.54443359375,6.70654296875
0.127,-5.06494140625,-3.14306640625,6.90673828125
0.1275,-5.82568359375,-1.82177734375,6.70654296875
0.128,-6.14599609375,-0.98095703125,6.50634765625
0.1285,-6.14599609375,-0.26025390625,6.02587890625
0.129,-5.86572265625,0.94091796875,4.98486328125
0.1295,-5.62548828125,2.18212890625,3.66357421875
0.13,-5.30517578125,3.58349609375,2.26220703125
0.1305,-4.98486328125,4.54443359375,1.14111328125
0.131,-4.54443359375,5.10498046875,0.30029296875
0.1315,-3.78369140625,5.42529296875,-0.74072265625
0.132,-2.50244140625,5.54541015625,-2.10205078125
0.1325,-1.10107421875,5.78564453125,-3.70361328125
0.133,0.14013671875,5.82568359375,-4.90478515625
0.1335,0.82080078125,5.90576171875,-5.74560546875
0.134,1.66162109375,5.66552734375,-6.42626953125
0.1345,2.90283203125,4.62451171875,-6.90673828125
0.135,4.22412109375,3.26318359375,-7.06689453125
0.1355,5.34521484375,1.78173828125,-7.06689453125
0.136,5.90576171875,0.62060546875,-6.78662109375
0.1365,6.02587890625,-0.30029296875,-6.50634765625
0.137,5.82568359375,-1.14111328125,-5.78564453125
0.1375,5.46533203125,-2.30224609375,-4.54443359375
0.138,5.18505859375,-3.62353515625,-3.14306640625
0.1385,4.82470703125,-4.86474609375,-1.74169921875
0.139,4.50439453125,-5.62548828125,-0.78076171875
0.1395,3.98388671875,-6.10595703125,0.14013671875
0.14,2.98291015625,-6.26611328125,1.18115234375
0.1405,1.58154296875,-6.38623046875,2.66259765625
0.141,0.14013671875,-6.50634765625,4.22412109375
0.1415,-0.90087890625,-6.54638671875,5.26513671875
0.142,-1.54150390625,-6.54638671875,6.02587890625
0.1425,-2.50244140625,-6.10595703125,6.66650390625
0.143,-3.86376953125,-4.82470703125,6.98681640625
0.1435,-5.10498046875,-3.42333984375,7.10693359375
0.144,-6.06591796875,-1.94189453125,6.94677734375
0.1445,-6.42626953125,-0.98095703125,6.70654296875
0.145,-6.42626953125,-0.26025390625,6.30615234375
0.1455,-6.22607421875,0.78076171875,5.42529296875
0.146,-5.78564453125,2.06201171875,4.02392578125
0.1465,-5.50537109375,3.50341796875,2.58251953125
0.147,-5.10498046875,4.62451171875,1.26123046875
0.1475,-4.70458984375,5.26513671875,0.38037109375
0.148,-4.02392578125,5.58544921875,-0.62060546875
0.1485,-2.86279296875,5.70556640625,-1.78173828125
0.149,-1.46142578125,5.90576171875,-3.34326171875
0.1495,0.02001953125,5.90576171875,-4.78466796875
0.15,0.78076171875,5.90576171875,-5.70556640625
0.1505,1.46142578125,5.82568359375,-6.38623046875
0.151,2.54248046875,5.10498046875,-6.90673828125
0.1515,3.90380859375,3.74365234375,-7.10693359375
0.152,5.10498046875,2.26220703125,-7.18701171875
0.1525,5.82568359375,0.90087890625,-6.90673828125
0.153,6.10595703125,0.06005859375,-6.70654296875
0.1535,5.94580078125,-0.82080078125,-6.14599609375
0.154,5.66552734375,-1.82177734375,-5.06494140625
0.1545,5.34521484375,-3.06298828125,-3.70361328125
0.155,4.98486328125,-4.46435546875,-2.26220703125
0.1555,4.62451171875,-5.38525390625,-1.14111328125
0.156,4.22412109375,-5.98583984375,-0.30029296875
0.1565,3.46337890625,-6.26611328125,0.70068359375
0.157,2.14208984375,-6.34619140625,2.06201171875
0.1575,0.74072265625,-6.50634765625,3.62353515625
0.158,-0.62060546875,-6.50634765625,4.86474609375
0.1585,-1.26123046875,-6.58642578125,5.74560546875
0.159,-2.02197265625,-6.38623046875,6.42626953125
0.1595,-3.26318359375,-5.42529296875,6.90673828125
0.16,-4.54443359375,-4.02392578125,7.06689453125
0.1605,-5.70556640625,-2.54248046875,7.06689453125
0.161,-6.26611328125,-1.34130859375,6.74658203125
0.1615,-6.46630859375,-0.62060546875,6.46630859375
0.162,-6.30615234375,0.38037109375,5.82568359375
0.1625,-5.94580078125,1.50146484375,4.62451171875
0.163,-5.66552734375,2.86279296875,3.26318359375
0.1635,-5.26513671875,4.14404296875,1.78173828125
0.164,-4.90478515625,4.98486328125,0.78076171875
0.1645,-4.38427734375,5.46533203125,-0.18017578125
0.165,-3.46337890625,5.70556640625,-1.22119140625
0.1655,-2.06201171875,5.82568359375,-2.70263671875
0.166,-0.58056640625,5.94580078125,-4.34423828125
0.1665,0.50048828125,5.98583984375,-5.42529296875
0.167,1.18115234375,6.06591796875,-6.22607421875
0.1675,2.18212890625,5.50537109375,-6.82666015625
0.168,3.50341796875,4.30419921875,-7.18701171875
0.1685,4.78466796875,2.82275390625,-7.30712890625
0.169,5.74560546875,1.30126953125,-7.14697265625
0.1695,6.10595703125,0.30029296875,-6.90673828125
0.17,6.18603515625,-0.62060546875,-6.46630859375
0.1705,5.90576171875,-1.54150390625,-5.58544921875
0.171,5.54541015625,-2.74267578125,-4.14404296875
0.1715,5.18505859375,-4.22412109375,-2.66259765625
0.172,4.82470703125,-5.30517578125,-1.30126953125
0.1725,4.42431640625,-5.98583984375,-0.46044921875
0.173,3.70361328125,-6.34619140625,0.54052734375
0.1735,2.50244140625,-6.42626953125,1.78173828125
0.174,1.02099609375,-6.58642578125,3.34326171875
0.1745,-0.50048828125,-6.54638671875,4.78466796875
0.175,-1.22119140625,-6.58642578125,5.66552734375
0.1755,-1.94189453125,-6.50634765625,6.38623046875
0.176,-3.06298828125,-5.70556640625,6.90673828125
0.1765,-4.38427734375,-4.34423828125,7.10693359375
0.177,-5.58544921875,-2.86279296875,7.10693359375
0.1775,-6.34619140625,-1.54150390625,6.82666015625
0.178,-6.46630859375,-0.62060546875,6.58642578125
0.1785,-6.38623046875,0.22021484375,6.06591796875
0.179,-6.06591796875,1.26123046875,4.98486328125
0.1795,-5.70556640625,2.50244140625,3.58349609375
0.18,-5.30517578125,3.86376953125,2.10205078125
0.1805,-4.94482421875,4.78466796875,0.94091796875
0.181,-4.50439453125,5.34521484375,0.14013671875
0.1815,-3.70361328125,5.58544921875,-0.90087890625
0.182,-2.42236328125,5.66552734375,-2.18212890625
0.1825,-1.02099609375,5.82568359375,-3.74365234375
0.183,0.30029296875,5.78564453125,-4.94482421875
0.1835,0.94091796875,5.90576171875,-5.74560546875
0.184,1.66162109375,5.70556640625,-6.46630859375
0.1845,2.86279296875,4.74462890625,-6.86669921875
0.185,4.10400390625,3.38330078125,-7.06689453125
0.1855,5.14501953125,1.90185546875,-7.02685546875
0.186,5.74560546875,0.78076171875,-6.74658203125
0.1865,5.90576171875,0.06005859375,-6.54638671875
0.187,5.78564453125,-0.82080078125,-5.90576171875
0.1875,5.42529296875,-1.86181640625,-4.82470703125
0.188,5.14501953125,-3.18310546875,-3.50341796875
0.1885,4.82470703125,-4.42431640625,-2.06201171875
0.189,4.50439453125,-5.26513671875,-1.14111328125
0.1895,4.14404296875,-5.82568359375,-0.30029296875
0.19,3.22314453125,-6.10595703125,0.78076171875
0.1905,1.98193359375,-6.22607421875,2.10205078125
0.191,0.62060546875,-6.34619140625,3.62353515625
0.1915,-0.50048828125,-6.42626953125,4.74462890625
0.192,-1.14111328125,-6.54638671875,5.58544921875
0.1925,-2.02197265625,-6.22607421875,6.22607421875
0.193,-3.26318359375,-5.14501953125,6.58642578125
0.1935,-4.50439453125,-3.86376953125,6.78662109375
0.194,-5.46533203125,-2.42236328125,6.70654296875
0.1945,-6.02587890625,-1.46142578125,6.58642578125
0.195,-6.10595703125,-0.74072265625,6.30615234375
0.1955,-5.90576171875,0.22021484375,5.58544921875
0.196,-5.62548828125,1.30126953125,4.46435546875
0.1965,-5.38525390625,2.62255859375,3.10302734375
0.197,-5.06494140625,3.78369140625,1.86181640625
0.1975,-4.78466796875,4.54443359375,0.94091796875
0.198,-4.22412109375,5.02490234375,0.14013671875
0.1985,-3.22314453125,5.22509765625,-1.10107421875
0.199,-2.06201171875,5.46533203125,-2.50244140625
