wavelength,x,y,z
0.0,-1.4464111328125,-16.100708007812,17.211791992188
0.0005,1.7567138671875,-17.862426757812,15.970581054688
0.001,4.6395263671875,-18.983520507812,14.409057617188
0.0015,7.4422607421875,-18.903442382812,11.686401367188
0.002,11.205932617188,-18.463012695312,7.7225341796875
0.0025,14.489135742188,-17.982543945312,4.1190185546875
0.003,17.051635742188,-16.380981445312,0.1151123046875
0.0035,18.613159179688,-15.019653320312,-2.8878173828125
0.004,18.933471679688,-12.697387695312,-5.4903564453125
0.0045,20.494995117188,-10.014770507812,-8.3731689453125
0.005,18.853393554688,-5.6505126953125,-12.537231445312
0.0055,18.052612304688,-2.0469970703125,-14.098754882812
0.006,16.811401367188,2.5574951171875,-17.341918945312
0.0065,15.329956054688,4.3192138671875,-18.943481445312
0.007,12.327026367188,7.0819091796875,-18.743286132812
0.0075,8.8035888671875,10.565307617188,-18.743286132812
0.008,4.5994873046875,14.008666992188,-18.182739257812
0.0085,0.1551513671875,16.571166992188,-16.541137695312
0.009,-2.7677001953125,19.213745117188,-15.219848632812
0.0095,-5.4503173828125,18.533081054688,-13.458129882812
0.01,-8.3331298828125,18.693237304688,-10.855590820312
0.0105,-12.497192382812,19.213745117188,-6.1710205078125
0.011,-15.339965820312,17.131713867188,-1.2862548828125
0.0115,-17.502075195312,15.690307617188,0.9559326171875
0.012,-18.863403320312,14.208862304688,3.7586669921875
0.0125,-18.863403320312,11.446166992188,7.6824951171875
0.013,-19.063598632812,8.3631591796875,9.7645263671875
0.0135,-18.743286132812,4.4393310546875,13.448120117188
0.014,-17.622192382812,0.5555419921875,16.250854492188
0.0145,-16.300903320312,-2.4874267578125,17.892456054688
0.015,-14.619262695312,-5.2501220703125,19.013549804688
0.0155,-11.656372070312,-8.0128173828125,19.053588867188
0.016,-6.9317626953125,-12.056762695312,18.372924804688
0.0165,-3.1680908203125,-15.059692382812,17.732299804688
0.017,0.8358154296875,-17.341918945312,16.210815429688
0.0175,3.6385498046875,-18.583129882812,14.849487304688
0.018,7.6824951171875,-18.583129882812,12.447143554688
0.0185,9.5643310546875,-18.743286132812,9.5643310546875
0.019,13.528198242188,-17.982543945312,5.3201904296875
0.0195,16.531127929688,-15.380004882812,0.9959716796875
0.02,18.052612304688,-15.420043945312,-1.9268798828125
0.0205,19.053588867188,-13.658325195312,-4.6094970703125
0.021,19.013549804688,-10.775512695312,-7.4122314453125
0.0215,18.893432617188,-6.8516845703125,-11.255981445312
0.022,18.573120117188,-3.4083251953125,-14.499145507812
0.0225,17.331909179688,0.4754638671875,-17.141723632812
0.023,15.730346679688,3.4783935546875,-18.543090820312
0.0235,13.408081054688,6.2410888671875,-18.983520507812
0.024,10.405151367188,9.3240966796875,-17.942504882812
0.0245,5.4002685546875,13.408081054688,-18.302856445312
0.025,1.3162841796875,16.090698242188,-17.181762695312
0.0255,-2.0069580078125,17.812377929688,-15.940551757812
0.026,-4.8897705078125,18.893432617188,-14.258911132812
0.0265,-7.8526611328125,18.693237304688,-11.376098632812
0.027,-11.456176757812,18.453002929688,-6.4112548828125
0.0275,-14.939575195312,17.852416992188,-3.7286376953125
0.028,-17.542114257812,16.130737304688,0.5155029296875
0.0285,-18.863403320312,14.729370117188,3.1981201171875
0.029,-19.423950195312,12.487182617188,6.0408935546875
0.0295,-19.463989257812,9.5643310546875,9.0037841796875
0.03,-18.983520507812,6.4012451171875,12.967651367188
0.0305,-18.342895507812,1.5164794921875,15.930541992188
0.031,-16.941528320312,-1.9669189453125,18.092651367188
0.0315,-15.259887695312,-4.8497314453125,19.333862304688
0.032,-12.256958007812,-7.7325439453125,20.494995117188
0.0325,-8.6934814453125,-11.255981445312,20.494995117188
0.033,-4.0089111328125,-14.899536132812,18.332885742188
0.0335,0.4754638671875,-17.341918945312,16.571166992188
0.034,3.1981201171875,-18.623168945312,15.329956054688
0.0345,6.1610107421875,-19.263793945312,13.328002929688
0.035,9.2440185546875,-18.983520507812,11.526245117188
0.0355,13.087768554688,-18.382934570312,5.9207763671875
0.036,16.130737304688,-17.502075195312,2.0369873046875
0.0365,18.412963867188,-15.900512695312,-1.8868408203125
0.037,19.293823242188,-12.817504882812,-4.3292236328125
0.0375,19.453979492188,-11.416137695312,-7.2921142578125
0.038,19.494018554688,-8.0928955078125,-10.575317382812
0.0385,19.053588867188,-3.9688720703125,-14.338989257812
0.039,17.732299804688,0.1151123046875,-16.781372070312
0.0395,16.330932617188,3.0379638671875,-18.663208007812
0.04,14.328979492188,5.9207763671875,-19.544067382812
0.0405,10.925659179688,8.8836669921875,-19.343872070312
0.041,6.6815185546875,12.567260742188,-18.863403320312
0.0415,2.4373779296875,15.810424804688,-18.022583007812
0.042,-1.8067626953125,19.213745117188,-16.180786132812
0.0425,-4.3292236328125,18.853393554688,-14.739379882812
0.043,-7.2921142578125,19.173706054688,-12.296997070312
0.0435,-10.575317382812,18.853393554688,-8.9337158203125
0.044,-14.298950195312,18.052612304688,-4.5694580078125
0.0445,-17.061645507812,16.691284179688,-0.6456298828125
0.045,-18.943481445312,15.209838867188,2.7977294921875
0.0455,-19.544067382812,13.207885742188,5.3602294921875
0.046,-19.423950195312,10.204956054688,8.3231201171875
0.0465,-19.263793945312,6.4813232421875,11.966674804688
0.047,-18.823364257812,2.6776123046875,15.329956054688
0.0475,-17.301879882812,-0.0050048828125,17.692260742188
0.048,-15.780395507812,-4.0089111328125,18.933471679688
0.0485,-13.498168945312,-6.9317626953125,19.574096679688
0.049,-9.8946533203125,-10.134887695312,19.293823242188
0.0495,-5.3302001953125,-13.778442382812,18.453002929688
0.05,-1.1260986328125,-16.501098632812,17.291870117188
0.0505,3.8387451171875,-18.422973632812,15.770385742188
0.051,5.0799560546875,-19.023559570312,14.048706054688
0.0515,8.1229248046875,-19.103637695312,11.245971679688
0.052,11.726440429688,-18.743286132812,7.5223388671875
0.0525,15.209838867188,-17.902465820312,3.4383544921875
0.053,17.652221679688,-16.340942382812,-0.6856689453125
0.0535,19.093627929688,-14.859497070312,-3.4483642578125
0.054,19.494018554688,-12.457153320312,-6.2110595703125
0.0545,19.413940429688,-9.2940673828125,-9.3741455078125
0.055,19.053588867188,-5.2901611328125,-13.017700195312
0.0555,18.372924804688,-1.5665283203125,-16.100708007812
0.056,16.851440429688,2.2371826171875,-18.342895507812
0.0565,14.969604492188,4.8397216796875,-17.942504882812
0.057,12.367065429688,7.8826904296875,-19.584106445312
0.0575,8.2430419921875,12.807495117188,-19.343872070312
0.058,3.7186279296875,14.969604492188,-18.422973632812
0.0585,-0.5255126953125,17.371948242188,-16.741333007812
0.059,-3.6885986328125,18.933471679688,-15.420043945312
0.0595,-5.1300048828125,19.333862304688,-13.297973632812
0.06,-9.6143798828125,19.173706054688,-10.214965820312
0.0605,-13.418090820312,18.693237304688,-5.9708251953125
0.061,-15.380004882812,17.572143554688,-1.8067626953125
0.0615,-18.863403320312,15.810424804688,2.1571044921875
0.062,-19.864379882812,14.128784179688,4.7996826171875
0.0625,-20.184692382812,11.406127929688,8.9637451171875
0.063,-19.984497070312,7.5223388671875,12.807495117188
0.0635,-19.463989257812,3.6385498046875,14.929565429688
0.064,-18.262817382812,-0.3253173828125,17.612182617188
0.0645,-16.741333007812,-2.5675048828125,19.694213867188
0.065,-14.379028320312,-6.5313720703125,20.134643554688
0.0655,-11.255981445312,-9.7344970703125,20.134643554688
0.066,-6.6915283203125,-13.538208007812,19.614135742188
0.0665,-1.9669189453125,-16.861450195312,18.372924804688
0.067,2.1971435546875,-18.863403320312,16.531127929688
0.0675,5.0399169921875,-20.024536132812,15.049682617188
0.068,8.0428466796875,-20.224731445312,12.487182617188
0.0685,11.646362304688,-19.664184570312,8.6033935546875
0.069,15.289916992188,-19.063598632812,4.4793701171875
0.0695,18.252807617188,-17.502075195312,0.1151123046875
0.07,20.294799804688,-15.860473632812,-3.6885986328125
0.0705,21.776245117188,-13.578247070312,-6.2911376953125
0.071,20.855346679688,-10.535278320312,-9.5343017578125
0.0715,20.454956054688,-6.1309814453125,-13.538208007812
0.072,19.694213867188,-2.1270751953125,-16.821411132812
0.0725,17.972534179688,1.7967529296875,-19.023559570312
0.073,16.330932617188,5.0799560546875,-20.665161132812
0.0735,13.408081054688,8.0028076171875,-20.865356445312
0.074,9.4842529296875,12.807495117188,-19.223754882812
0.0745,6.4012451171875,15.089721679688,-19.744262695312
0.075,0.1151123046875,18.212768554688,-18.102661132812
0.0755,-3.7286376953125,19.854370117188,-16.220825195312
0.076,-6.4512939453125,20.414916992188,-14.258911132812
0.0765,-9.6544189453125,20.535034179688,-11.456176757812
0.077,-13.658325195312,19.694213867188,-6.7716064453125
0.0775,-16.981567382812,18.733276367188,-2.7276611328125
0.078,-19.423950195312,17.011596679688,1.5164794921875
0.0785,-21.185668945312,15.209838867188,4.9598388671875
0.079,-21.145629882812,12.407104492188,7.7225341796875
0.0795,-21.185668945312,9.0037841796875,11.165893554688
0.08,-20.625122070312,4.6395263671875,15.049682617188
0.0805,-19.584106445312,0.3153076171875,18.292846679688
0.081,-17.662231445312,-3.4884033203125,20.174682617188
0.0815,-15.780395507812,-5.1300048828125,21.255737304688
0.082,-12.697387695312,-9.5343017578125,21.415893554688
0.0825,-7.8126220703125,-13.498168945312,20.615112304688
0.083,-3.4884033203125,-15.380004882812,19.694213867188
0.0835,2.5574951171875,-19.303833007812,17.812377929688
0.084,4.9197998046875,-20.865356445312,16.050659179688
0.0845,8.9637451171875,-20.825317382812,13.568237304688
0.085,11.005737304688,-20.865356445312,10.485229492188
0.0855,15.289916992188,-20.024536132812,5.4403076171875
0.086,18.493041992188,-18.623168945312,0.9959716796875
0.0865,21.776245117188,-16.821411132812,-2.8878173828125
0.087,21.736206054688,-14.859497070312,-6.0108642578125
0.0875,21.616088867188,-11.696411132812,-9.0538330078125
0.088,21.335815429688,-7.4522705078125,-13.017700195312
0.0885,20.735229492188,-3.5284423828125,-16.340942382812
0.089,19.253784179688,0.9158935546875,-19.303833007812
0.0895,17.291870117188,4.5994873046875,-21.145629882812
0.09,14.649291992188,7.4022216796875,-21.505981445312
0.0905,12.807495117188,10.765502929688,-21.666137695312
0.091,5.8807373046875,15.129760742188,-20.585083007812
0.0915,1.4364013671875,18.052612304688,-19.263793945312
0.092,-2.7276611328125,20.134643554688,-17.421997070312
0.0925,-6.1309814453125,21.455932617188,-15.580200195312
0.093,-9.1339111328125,21.095581054688,-12.537231445312
0.0935,-12.697387695312,20.775268554688,-8.8536376953125
0.094,-16.581176757812,20.014526367188,-4.1690673828125
0.0945,-19.744262695312,18.052612304688,0.7156982421875
0.095,-21.425903320312,16.210815429688,4.1990966796875
0.0955,-22.066528320312,13.808471679688,7.1619873046875
0.096,-22.026489257812,10.605346679688,10.405151367188
0.0965,-21.465942382812,5.6405029296875,14.849487304688
0.097,-19.223754882812,1.7567138671875,17.812377929688
0.0975,-18.983520507812,-2.4473876953125,20.334838867188
0.098,-16.901489257812,-5.8507080078125,22.016479492188
0.0985,-13.618286132812,-8.8936767578125,21.696166992188
0.099,-8.9737548828125,-12.256958007812,21.736206054688
0.0995,-4.6895751953125,-16.421020507812,20.575073242188
0.1,0.3553466796875,-19.343872070312,18.693237304688
0.1005,5.1199951171875,-20.865356445312,16.931518554688
0.101,7.1619873046875,-20.505004882812,14.889526367188
0.1015,10.365112304688,-21.465942382812,12.807495117188
0.102,14.449096679688,-20.665161132812,6.8817138671875
0.1025,19.213745117188,-19.744262695312,2.6375732421875
0.103,20.655151367188,-17.742309570312,-2.0469970703125
0.1035,22.016479492188,-15.780395507812,-5.3302001953125
0.104,22.056518554688,-12.777465820312,-8.3331298828125
0.1045,22.056518554688,-9.6544189453125,-11.696411132812
0.105,21.415893554688,-4.5294189453125,-16.020629882812
0.1055,20.054565429688,-0.2852783203125,-18.983520507812
0.106,18.212768554688,3.4783935546875,-20.945434570312
0.1065,16.210815429688,6.8817138671875,-22.346801757812
0.107,12.367065429688,10.164916992188,-21.866333007812
0.1075,7.9627685546875,14.008666992188,-21.425903320312
0.108,3.2381591796875,17.532104492188,-20.424926757812
0.1085,-1.9669189453125,20.214721679688,-18.182739257812
0.109,-5.1700439453125,21.415893554688,-16.380981445312
0.1095,-8.3331298828125,21.736206054688,-13.858520507812
0.11,-11.696411132812,21.495971679688,-10.535278320312
0.1105,-16.100708007812,20.334838867188,-3.8487548828125
0.111,-19.263793945312,18.973510742188,-0.6856689453125
0.1115,-21.425903320312,17.091674804688,3.3582763671875
0.112,-22.506958007812,14.889526367188,6.5614013671875
0.1125,-22.266723632812,11.366088867188,9.7645263671875
0.113,-22.106567382812,7.6424560546875,13.448120117188
0.1135,-21.425903320312,3.0379638671875,17.291870117188
0.114,-19.664184570312,-1.5665283203125,20.214721679688
0.1145,-17.662231445312,-4.9698486328125,21.656127929688
0.115,-15.339965820312,-8.0928955078125,22.536987304688
0.1155,-10.255004882812,-11.416137695312,22.136596679688
0.116,-6.0509033203125,-15.700317382812,21.055541992188
0.1165,-1.5264892578125,-18.823364257812,19.854370117188
0.117,3.1580810546875,-21.025512695312,17.772338867188
0.1175,6.3211669921875,-21.946411132812,15.770385742188
0.118,9.6043701171875,-20.505004882812,12.567260742188
0.1185,13.087768554688,-21.505981445312,9.0438232421875
0.119,17.291870117188,-20.344848632812,3.8787841796875
0.1195,20.294799804688,-18.463012695312,-1.0059814453125
0.12,21.896362304688,-16.541137695312,-4.3692626953125
0.1205,22.617065429688,-14.218872070312,-7.5723876953125
0.121,22.216674804688,-10.535278320312,-10.815551757812
0.1215,21.696166992188,-6.0509033203125,-14.939575195312
0.122,20.895385742188,-1.9669189453125,-18.222778320312
0.1225,19.093627929688,2.6375732421875,-20.905395507812
0.123,16.771362304688,5.9608154296875,-21.986450195312
0.1235,13.768432617188,9.1639404296875,-22.266723632812
0.124,10.044799804688,12.647338867188,-22.106567382812
0.1245,4.2791748046875,16.851440429688,-20.705200195312
0.125,-0.5255126953125,19.614135742188,-19.063598632812
0.1255,-4.2491455078125,21.335815429688,-17.221801757812
0.126,-7.4522705078125,22.056518554688,-14.979614257812
0.1265,-10.895629882812,21.576049804688,-11.296020507812
0.127,-14.739379882812,20.975463867188,-7.1319580078125
0.1275,-18.422973632812,19.854370117188,-2.4473876953125
0.128,-21.145629882812,17.652221679688,2.3973388671875
0.1285,-22.306762695312,15.690307617188,5.5604248046875
0.129,-22.627075195312,14.088745117188,8.7235107421875
0.1295,-22.266723632812,9.0438232421875,12.166870117188
0.13,-21.546020507812,4.1590576171875,16.330932617188
0.1305,-20.344848632812,0.0350341796875,19.333862304688
0.131,-18.583129882812,-4.0489501953125,21.656127929688
0.1315,-16.180786132812,-7.2120361328125,22.536987304688
0.132,-12.537231445312,-10.455200195312,22.256713867188
0.1325,-8.3331298828125,-14.218872070312,21.896362304688
0.133,-2.9278564453125,-18.062622070312,20.535034179688
0.1335,2.0369873046875,-19.223754882812,18.412963867188
0.134,5.2401123046875,-20.505004882812,16.611206054688
0.1345,8.5633544921875,-22.266723632812,15.369995117188
0.135,12.086791992188,-21.746215820312,10.204956054688
0.1355,16.130737304688,-20.825317382812,5.4002685546875
0.136,19.413940429688,-19.423950195312,0.9559326171875
0.1365,21.816284179688,-17.462036132812,-3.5684814453125
0.137,22.536987304688,-15.139770507812,-6.4913330078125
0.1375,22.577026367188,-11.816528320312,-10.174926757812
0.138,22.296752929688,-7.7725830078125,-13.658325195312
0.1385,21.455932617188,-3.1280517578125,-17.582153320312
0.139,19.734252929688,1.3963623046875,-20.264770507812
0.1395,19.213745117188,4.9598388671875,-22.066528320312
0.14,15.169799804688,8.2430419921875,-22.707153320312
0.1405,11.165893554688,11.806518554688,-22.266723632812
0.141,6.3612060546875,15.650268554688,-21.546020507812
0.1415,1.3162841796875,19.013549804688,-20.264770507812
0.142,-3.4884033203125,21.255737304688,-17.862426757812
0.1425,-5.1300048828125,22.056518554688,-15.980590820312
0.143,-9.8145751953125,22.216674804688,-12.977661132812
0.1435,-13.658325195312,21.576049804688,-8.6934814453125
0.144,-17.462036132812,20.454956054688,-3.9288330078125
0.1445,-20.464965820312,18.653198242188,0.7557373046875
0.145,-22.466918945312,16.611206054688,4.7996826171875
0.1455,-22.867309570312,13.928588867188,7.7625732421875
0.146,-22.747192382812,10.285034179688,11.366088867188
0.1465,-22.186645507812,5.8807373046875,15.289916992188
0.147,-21.305786132812,1.4364013671875,18.893432617188
0.1475,-17.942504882812,-3.0880126953125,21.295776367188
0.148,-17.221801757812,-6.2911376953125,22.536987304688
0.1485,-14.258911132812,-9.5743408203125,23.017456054688
0.149,-9.6544189453125,-13.257934570312,22.336791992188
0.1495,-4.6895751953125,-17.021606445312,21.135620117188
0.15,0.3153076171875,-20.024536132812,19.494018554688
0.1505,4.5994873046875,-21.986450195312,17.411987304688
0.151,7.5223388671875,-22.266723632812,15.049682617188
0.1515,11.005737304688,-22.266723632812,11.806518554688
0.152,15.049682617188,-21.465942382812,7.0819091796875
0.1525,18.693237304688,-20.184692382812,2.3973388671875
0.153,21.295776367188,-18.222778320312,-2.2872314453125
0.1535,22.777221679688,-16.180786132812,-5.7706298828125
0.154,22.977416992188,-13.097778320312,-7.6925048828125
0.1545,22.657104492188,-9.0137939453125,-12.777465820312
0.155,21.896362304688,-4.6094970703125,-16.421020507812
0.1555,20.735229492188,-0.2052001953125,-19.744262695312
0.156,18.613159179688,4.1190185546875,-21.986450195312
0.1565,16.090698242188,7.2020263671875,-22.506958007812
0.157,12.887573242188,10.645385742188,-22.627075195312
0.1575,7.8026123046875,14.729370117188,-21.986450195312
0.158,2.9178466796875,18.092651367188,-20.665161132812
0.1585,-1.8468017578125,20.454956054688,-18.623168945312
0.159,-5.6505126953125,22.136596679688,-16.741333007812
0.1595,-8.6534423828125,22.056518554688,-13.938598632812
0.16,-12.216918945312,23.057495117188,-8.9737548828125
0.1605,-16.300903320312,20.895385742188,-5.5303955078125
0.161,-19.544067382812,19.494018554688,-0.6456298828125
0.1615,-21.826293945312,17.211791992188,3.5184326171875
0.162,-22.747192382812,15.049682617188,6.6014404296875
0.1625,-22.827270507812,11.806518554688,9.9246826171875
0.163,-22.386840820312,7.2821044921875,14.048706054688
0.1635,-21.505981445312,3.0780029296875,17.452026367188
0.164,-19.984497070312,-1.3262939453125,20.294799804688
0.1645,-18.022583007812,-5.2901611328125,22.376831054688
0.165,-15.139770507812,-8.1729736328125,22.416870117188
0.1655,-11.776489257812,-11.496215820312,22.416870117188
0.166,-6.4913330078125,-15.660278320312,21.495971679688
0.1665,-1.4464111328125,-18.903442382812,19.894409179688
0.167,2.8778076171875,-20.825317382812,17.812377929688
0.1675,6.1610107421875,-21.986450195312,16.010620117188
0.168,9.3240966796875,-21.906372070312,12.967651367188
0.1685,13.127807617188,-21.265747070312,8.7235107421875
0.169,16.771362304688,-20.545043945312,4.3992919921875
0.1695,19.894409179688,-18.743286132812,-0.4454345703125
0.17,21.896362304688,-15.380004882812,-4.3292236328125
0.1705,22.176635742188,-12.817504882812,-7.2120361328125
0.171,22.336791992188,-10.895629882812,-10.535278320312
0.1715,23.057495117188,-6.1309814453125,-14.779418945312
0.172,20.815307617188,-1.9669189453125,-17.982543945312
0.1725,19.013549804688,2.0770263671875,-20.264770507812
0.173,17.211791992188,5.6805419921875,-22.106567382812
0.1735,13.928588867188,8.8035888671875,-22.026489257812
0.174,9.9246826171875,12.367065429688,-21.666137695312
0.1745,5.1600341796875,16.130737304688,-20.825317382812
0.175,0.0350341796875,20.494995117188,-19.063598632812
0.1755,-3.8887939453125,20.855346679688,-17.141723632812
0.176,-6.7716064453125,21.415893554688,-15.019653320312
0.1765,-10.094848632812,21.455932617188,-12.016723632812
0.177,-14.298950195312,20.454956054688,-7.0118408203125
0.1775,-17.622192382812,19.494018554688,-2.8878173828125
0.178,-20.184692382812,17.692260742188,1.5164794921875
