wavelength,x,y,z
0.0,4.814697265625,-4.514404296875,-1.951904296875
0.0005,4.534423828125,-5.275146484375,-1.191162109375
0.001,3.813720703125,-5.595458984375,-0.310302734375
0.0015,2.692626953125,-5.755615234375,0.890869140625
0.002,1.611572265625,-6.035888671875,2.292236328125
0.0025,0.570556640625,-6.196044921875,3.573486328125
0.003,-0.270263671875,-6.516357421875,4.574462890625
0.0035,-0.990966796875,-6.396240234375,5.255126953125
0.004,-2.031982421875,-5.595458984375,5.615478515625
0.0045,-3.233154296875,-4.514404296875,6.015869140625
0.005,-4.394287109375,-3.393310546875,6.256103515625
0.0055,-5.155029296875,-2.352294921875,6.336181640625
0.006,-5.595458984375,-1.591552734375,6.296142578125
0.0065,-5.515380859375,-0.790771484375,5.735595703125
0.007,-5.315185546875,0.290283203125,4.814697265625
0.0075,-5.275146484375,1.451416015625,3.853759765625
0.008,-5.235107421875,2.692626953125,2.852783203125
0.0085,-5.114990234375,3.693603515625,1.931884765625
0.009,-4.794677734375,4.334228515625,1.131103515625
0.0095,-3.993896484375,4.574462890625,0.130126953125
0.01,-2.992919921875,4.934814453125,-1.071044921875
0.0105,-1.951904296875,5.295166015625,-2.472412109375
0.011,-0.990966796875,5.575439453125,-3.633544921875
0.0115,-0.310302734375,5.855712890625,-4.634521484375
0.012,0.610595703125,5.575439453125,-5.195068359375
0.0125,1.731689453125,4.654541015625,-5.595458984375
0.013,2.892822265625,3.733642578125,-6.035888671875
0.0135,3.973876953125,2.612548828125,-6.276123046875
0.014,4.734619140625,1.651611328125,-6.356201171875
0.0145,5.014892578125,0.970947265625,-6.236083984375
0.015,4.974853515625,0.090087890625,-5.595458984375
0.0155,4.854736328125,-0.990966796875,-4.754638671875
0.016,4.854736328125,-2.272216796875,-3.793701171875
0.0165,4.774658203125,-3.473388671875,-2.832763671875
0.017,4.734619140625,-4.434326171875,-1.991943359375
0.0175,4.214111328125,-4.954833984375,-1.231201171875
0.018,3.413330078125,-5.155029296875,-0.190185546875
0.0185,2.492431640625,-5.555419921875,1.131103515625
0.019,1.411376953125,-5.915771484375,2.452392578125
0.0195,0.610595703125,-6.236083984375,3.573486328125
0.02,-0.150146484375,-6.396240234375,4.494384765625
0.0205,-1.111083984375,-5.915771484375,4.974853515625
0.021,-2.272216796875,-5.114990234375,5.415283203125
0.0215,-3.473388671875,-4.114013671875,5.895751953125
0.022,-4.394287109375,-3.072998046875,6.055908203125
0.0225,-5.074951171875,-2.232177734375,6.176025390625
0.023,-5.235107421875,-1.471435546875,5.895751953125
0.0235,-5.114990234375,-0.630615234375,5.175048828125
0.024,-5.114990234375,0.530517578125,4.414306640625
0.0245,-5.155029296875,1.771728515625,3.453369140625
0.025,-5.114990234375,2.852783203125,2.532470703125
0.0255,-4.994873046875,3.693603515625,1.731689453125
0.026,-4.354248046875,4.134033203125,0.890869140625
0.0265,-3.513427734375,4.494384765625,-0.310302734375
0.027,-2.592529296875,4.974853515625,-1.551513671875
0.0275,-1.631591796875,5.255126953125,-2.832763671875
0.028,-0.910888671875,5.615478515625,-3.873779296875
0.0285,-0.190185546875,5.655517578125,-4.634521484375
0.029,0.930908203125,5.014892578125,-5.114990234375
0.0295,2.092041015625,4.174072265625,-5.595458984375
0.03,3.253173828125,3.173095703125,-5.955810546875
0.0305,4.134033203125,2.172119140625,-6.115966796875
0.031,4.694580078125,1.411376953125,-6.236083984375
0.0315,4.774658203125,0.650634765625,-5.755615234375
0.032,4.654541015625,-0.350341796875,-5.074951171875
0.0325,4.774658203125,-1.551513671875,-4.274169921875
0.033,4.774658203125,-2.752685546875,-3.313232421875
0.0335,4.694580078125,-3.833740234375,-2.472412109375
0.034,4.494384765625,-4.514404296875,-1.711669921875
0.0345,3.853759765625,-4.874755859375,-0.790771484375
0.035,2.932861328125,-5.275146484375,0.490478515625
0.0355,1.931884765625,-5.715576171875,1.811767578125
0.036,1.091064453125,-6.035888671875,2.972900390625
0.0365,0.410400390625,-6.396240234375,3.973876953125
0.037,-0.550537109375,-6.156005859375,4.654541015625
0.0375,-1.671630859375,-5.395263671875,5.094970703125
0.038,-2.872802734375,-4.514404296875,5.615478515625
0.0385,-3.993896484375,-3.473388671875,5.935791015625
0.039,-4.794677734375,-2.552490234375,6.095947265625
0.0395,-5.155029296875,-1.791748046875,6.015869140625
0.04,-5.114990234375,-0.990966796875,5.415283203125
0.0405,-5.074951171875,0.090087890625,4.654541015625
0.041,-5.155029296875,1.291259765625,3.773681640625
0.0415,-5.155029296875,2.492431640625,2.812744140625
0.042,-5.074951171875,3.493408203125,1.971923828125
0.0425,-4.634521484375,4.013916015625,1.211181640625
0.043,-3.753662109375,4.334228515625,0.170166015625
0.0435,-2.912841796875,4.814697265625,-1.151123046875
0.044,-1.911865234375,5.175048828125,-2.512451171875
0.0445,-1.151123046875,5.575439453125,-3.593505859375
0.045,-0.390380859375,5.735595703125,-4.514404296875
0.0455,0.650634765625,5.255126953125,-5.034912109375
0.046,1.851806640625,4.374267578125,-5.515380859375
0.0465,3.052978515625,3.333251953125,-5.915771484375
0.047,4.013916015625,2.332275390625,-6.115966796875
0.0475,4.694580078125,1.491455078125,-6.276123046875
0.048,4.814697265625,0.770751953125,-5.955810546875
0.0485,4.774658203125,-0.310302734375,-5.195068359375
0.049,4.734619140625,-1.351318359375,-4.434326171875
0.0495,4.774658203125,-2.672607421875,-3.473388671875
0.05,4.734619140625,-3.713623046875,-2.512451171875
0.0505,4.614501953125,-4.514404296875,-1.751708984375
0.051,3.973876953125,-4.954833984375,-0.870849609375
0.0515,3.052978515625,-5.195068359375,0.330322265625
0.052,2.052001953125,-5.715576171875,1.651611328125
0.0525,1.131103515625,-6.035888671875,2.932861328125
0.053,0.370361328125,-6.396240234375,4.013916015625
0.0535,-0.510498046875,-6.356201171875,4.814697265625
0.054,-1.591552734375,-5.595458984375,5.255126953125
0.0545,-2.832763671875,-4.634521484375,5.695556640625
0.055,-4.033935546875,-3.553466796875,6.055908203125
0.0555,-4.874755859375,-2.512451171875,6.176025390625
0.056,-5.355224609375,-1.751708984375,6.176025390625
0.0565,-5.315185546875,-0.990966796875,5.615478515625
0.057,-5.195068359375,0.130126953125,4.734619140625
0.0575,-5.275146484375,1.331298828125,3.813720703125
0.058,-5.195068359375,2.652587890625,2.812744140625
0.0585,-5.114990234375,3.653564453125,1.891845703125
0.059,-4.754638671875,4.334228515625,1.091064453125
0.0595,-3.913818359375,4.614501953125,0.130126953125
0.06,-2.872802734375,4.894775390625,-1.231201171875
0.0605,-1.791748046875,5.335205078125,-2.672607421875
0.061,-0.950927734375,5.615478515625,-3.833740234375
0.0615,-0.230224609375,5.895751953125,-4.834716796875
0.062,0.770751953125,5.455322265625,-5.355224609375
0.0625,1.971923828125,4.494384765625,-5.755615234375
0.063,3.213134765625,3.413330078125,-6.156005859375
0.0635,4.294189453125,2.252197265625,-6.356201171875
0.064,5.014892578125,1.291259765625,-6.396240234375
0.0645,5.175048828125,0.490478515625,-6.156005859375
0.065,5.054931640625,-0.510498046875,-5.395263671875
0.0655,4.854736328125,-1.631591796875,-4.434326171875
0.066,4.894775390625,-2.912841796875,-3.353271484375
0.0665,4.814697265625,-4.073974609375,-2.312255859375
0.067,4.694580078125,-4.994873046875,-1.471435546875
0.0675,4.053955078125,-5.355224609375,-0.630615234375
0.068,3.052978515625,-5.515380859375,0.570556640625
0.0685,1.931884765625,-5.875732421875,1.931884765625
0.069,0.810791015625,-6.156005859375,3.333251953125
0.0695,0.050048828125,-6.436279296875,4.374267578125
0.07,-0.790771484375,-6.476318359375,5.215087890625
0.0705,-1.871826171875,-5.755615234375,5.615478515625
0.071,-3.153076171875,-4.634521484375,6.055908203125
0.0715,-4.394287109375,-3.473388671875,6.376220703125
0.072,-5.275146484375,-2.352294921875,6.416259765625
0.0725,-5.755615234375,-1.551513671875,6.416259765625
0.073,-5.755615234375,-0.710693359375,5.895751953125
0.0735,-5.555419921875,0.450439453125,4.854736328125
0.074,-5.435302734375,1.771728515625,3.813720703125
0.0745,-5.395263671875,3.133056640625,2.612548828125
0.075,-5.195068359375,4.134033203125,1.611572265625
0.0755,-4.874755859375,4.854736328125,0.810791015625
0.076,-3.993896484375,5.094970703125,-0.270263671875
0.0765,-2.752685546875,5.255126953125,-1.591552734375
0.077,-1.591552734375,5.655517578125,-3.072998046875
0.0775,-0.590576171875,5.855712890625,-4.354248046875
0.078,0.290283203125,6.055908203125,-5.315185546875
0.0785,1.131103515625,5.735595703125,-5.955810546875
0.079,2.372314453125,4.614501953125,-6.276123046875
0.0795,3.693603515625,3.373291015625,-6.596435546875
0.08,4.854736328125,2.092041015625,-6.796630859375
0.0805,5.535400390625,0.970947265625,-6.756591796875
0.081,5.775634765625,0.170166015625,-6.556396484375
0.0815,5.575439453125,-0.910888671875,-5.715576171875
0.082,5.295166015625,-2.072021484375,-4.474365234375
0.0825,5.175048828125,-3.473388671875,-3.233154296875
0.083,5.014892578125,-4.674560546875,-2.031982421875
0.0835,4.774658203125,-5.595458984375,-1.111083984375
0.084,4.174072265625,-6.035888671875,-0.270263671875
0.0845,3.052978515625,-6.115966796875,0.970947265625
0.085,1.691650390625,-6.316162109375,2.452392578125
0.0855,0.450439453125,-6.556396484375,3.973876953125
0.086,-0.630615234375,-6.676513671875,5.054931640625
0.0865,-1.271240234375,-6.756591796875,5.895751953125
0.087,-2.272216796875,-6.035888671875,6.336181640625
0.0875,-3.673583984375,-4.674560546875,6.576416015625
0.088,-4.914794921875,-3.353271484375,6.816650390625
0.0885,-5.835693359375,-2.152099609375,6.816650390625
0.089,-6.356201171875,-1.151123046875,6.696533203125
0.0895,-6.396240234375,-0.310302734375,6.135986328125
0.09,-5.995849609375,0.850830078125,5.094970703125
0.0905,-5.715576171875,2.172119140625,3.813720703125
0.091,-5.515380859375,3.533447265625,2.492431640625
0.0915,-5.275146484375,4.614501953125,1.331298828125
0.092,-4.954833984375,5.375244140625,0.490478515625
0.0925,-4.073974609375,5.575439453125,-0.510498046875
0.093,-2.752685546875,5.615478515625,-1.791748046875
0.0935,-1.431396484375,5.895751953125,-3.353271484375
0.094,-0.190185546875,6.015869140625,-4.754638671875
0.0945,0.650634765625,6.095947265625,-5.675537109375
0.095,1.331298828125,5.935791015625,-6.316162109375
0.0955,2.492431640625,4.974853515625,-6.636474609375
0.096,3.813720703125,3.573486328125,-6.836669921875
0.0965,4.974853515625,2.212158203125,-7.036865234375
0.097,5.735595703125,1.010986328125,-6.916748046875
0.0975,6.055908203125,0.130126953125,-6.756591796875
0.098,5.895751953125,-0.790771484375,-6.075927734375
0.0985,5.495361328125,-1.951904296875,-4.834716796875
0.099,5.295166015625,-3.233154296875,-3.553466796875
0.0995,5.094970703125,-4.594482421875,-2.272216796875
0.1,4.814697265625,-5.555419921875,-1.231201171875
0.1005,4.454345703125,-6.156005859375,-0.390380859375
0.101,3.413330078125,-6.276123046875,0.650634765625
0.1015,2.052001953125,-6.356201171875,2.011962890625
0.102,0.730712890625,-6.556396484375,3.573486328125
0.1025,-0.470458984375,-6.676513671875,4.814697265625
0.103,-1.151123046875,-6.796630859375,5.735595703125
0.1035,-1.951904296875,-6.396240234375,6.256103515625
0.104,-3.193115234375,-5.235107421875,6.456298828125
0.1045,-4.434326171875,-3.993896484375,6.776611328125
0.105,-5.555419921875,-2.632568359375,6.896728515625
0.1055,-6.236083984375,-1.591552734375,6.736572265625
0.106,-6.396240234375,-0.670654296875,6.496337890625
0.1065,-6.156005859375,0.290283203125,5.655517578125
0.107,-5.795654296875,1.531494140625,4.414306640625
0.1075,-5.675537109375,2.892822265625,3.133056640625
0.108,-5.435302734375,4.134033203125,1.931884765625
0.1085,-5.155029296875,5.054931640625,0.930908203125
0.109,-4.554443359375,5.455322265625,0.090087890625
0.1095,-3.433349609375,5.575439453125,-1.111083984375
0.11,-2.112060546875,5.735595703125,-2.552490234375
0.1105,-0.790771484375,5.975830078125,-4.114013671875
0.111,0.210205078125,6.095947265625,-5.155029296875
0.1115,0.930908203125,6.216064453125,-6.035888671875
0.112,1.851806640625,5.495361328125,-6.436279296875
0.1125,3.213134765625,4.134033203125,-6.676513671875
0.113,4.494384765625,2.852783203125,-6.996826171875
0.1135,5.415283203125,1.531494140625,-6.996826171875
0.114,5.975830078125,0.610595703125,-6.916748046875
0.1145,6.015869140625,-0.310302734375,-6.396240234375
0.115,5.695556640625,-1.311279296875,-5.395263671875
0.1155,5.415283203125,-2.632568359375,-4.154052734375
0.116,5.255126953125,-4.073974609375,-2.832763671875
0.1165,5.014892578125,-5.195068359375,-1.671630859375
0.117,4.734619140625,-6.035888671875,-0.790771484375
0.1175,3.893798828125,-6.276123046875,0.250244140625
0.118,2.612548828125,-6.356201171875,1.531494140625
0.1185,1.291259765625,-6.556396484375,3.052978515625
0.119,0.010009765625,-6.716552734375,4.494384765625
0.1195,-0.910888671875,-6.876708984375,5.455322265625
0.12,-1.631591796875,-6.716552734375,6.176025390625
0.1205,-2.752685546875,-5.755615234375,6.496337890625
0.121,-4.154052734375,-4.394287109375,6.776611328125
0.1215,-5.395263671875,-3.072998046875,6.976806640625
0.122,-6.115966796875,-1.791748046875,6.896728515625
0.1225,-6.476318359375,-0.870849609375,6.696533203125
0.123,-6.356201171875,0.130126953125,6.015869140625
0.1235,-5.915771484375,1.251220703125,4.774658203125
0.124,-5.755615234375,2.612548828125,3.493408203125
0.1245,-5.515380859375,3.973876953125,2.172119140625
0.125,-5.195068359375,4.934814453125,1.091064453125
0.1255,-4.754638671875,5.535400390625,0.250244140625
0.126,-3.753662109375,5.655517578125,-0.830810546875
0.1265,-2.352294921875,5.735595703125,-2.272216796875
0.127,-1.031005859375,5.975830078125,-3.833740234375
0.1275,0.130126953125,6.015869140625,-4.994873046875
0.128,0.850830078125,6.135986328125,-5.915771484375
0.1285,1.611572265625,5.695556640625,-6.396240234375
0.129,2.852783203125,4.494384765625,-6.596435546875
0.1295,4.093994140625,3.173095703125,-6.916748046875
0.13,5.175048828125,1.931884765625,-6.996826171875
0.1305,5.815673828125,0.810791015625,-6.836669921875
0.131,6.015869140625,0.010009765625,-6.556396484375
0.1315,5.695556640625,-0.990966796875,-5.715576171875
0.132,5.375244140625,-2.112060546875,-4.514404296875
0.1325,5.175048828125,-3.513427734375,-3.233154296875
0.133,4.974853515625,-4.674560546875,-2.031982421875
0.1335,4.734619140625,-5.595458984375,-1.111083984375
0.134,4.134033203125,-6.035888671875,-0.310302734375
0.1345,3.093017578125,-6.115966796875,0.810791015625
0.135,1.851806640625,-6.276123046875,2.212158203125
0.1355,0.570556640625,-6.476318359375,3.693603515625
0.136,-0.510498046875,-6.596435546875,4.814697265625
0.1365,-1.151123046875,-6.756591796875,5.615478515625
0.137,-2.031982421875,-6.156005859375,6.055908203125
0.1375,-3.273193359375,-4.994873046875,6.296142578125
0.138,-4.514404296875,-3.793701171875,6.656494140625
0.1385,-5.435302734375,-2.512451171875,6.696533203125
0.139,-6.075927734375,-1.551513671875,6.656494140625
0.1395,-6.115966796875,-0.750732421875,6.256103515625
0.14,-5.835693359375,0.290283203125,5.375244140625
0.1405,-5.635498046875,1.491455078125,4.214111328125
0.141,-5.515380859375,2.852783203125,3.052978515625
0.1415,-5.315185546875,3.973876953125,1.931884765625
0.142,-5.074951171875,4.814697265625,1.010986328125
0.1425,-4.354248046875,5.135009765625,0.130126953125
0.143,-3.193115234375,5.255126953125,-1.111083984375
0.1435,-2.072021484375,5.615478515625,-2.552490234375
0.144,-0.830810546875,5.775634765625,-3.913818359375
0.1445,0.050048828125,5.935791015625,-4.954833984375
0.145,0.770751953125,5.935791015625,-5.715576171875
0.1455,1.771728515625,5.094970703125,-6.115966796875
0.146,3.052978515625,3.973876953125,-6.396240234375
0.1465,4.254150390625,2.812744140625,-6.676513671875
0.147,5.094970703125,1.611572265625,-6.676513671875
0.1475,5.575439453125,0.770751953125,-6.636474609375
0.148,5.495361328125,0.010009765625,-6.035888671875
0.1485,5.255126953125,-1.151123046875,-5.074951171875
0.149,5.094970703125,-2.352294921875,-3.993896484375
0.1495,4.974853515625,-3.673583984375,-2.832763671875
0.15,4.814697265625,-4.674560546875,-1.831787109375
0.1505,4.494384765625,-5.395263671875,-1.031005859375
0.151,3.693603515625,-5.635498046875,0.010009765625
0.1515,2.572509765625,-5.755615234375,1.171142578125
0.152,1.411376953125,-6.115966796875,2.612548828125
0.1525,0.370361328125,-6.356201171875,3.853759765625
0.153,-0.390380859375,-6.636474609375,4.814697265625
0.1535,-1.231201171875,-6.396240234375,5.415283203125
0.154,-2.272216796875,-5.435302734375,5.735595703125
0.1545,-3.513427734375,-4.354248046875,6.095947265625
0.155,-4.594482421875,-3.193115234375,6.376220703125
0.1555,-5.355224609375,-2.192138671875,6.376220703125
0.156,-5.715576171875,-1.431396484375,6.256103515625
0.1565,-5.595458984375,-0.630615234375,5.615478515625
0.157,-5.355224609375,0.530517578125,4.694580078125
0.1575,-5.315185546875,1.771728515625,3.693603515625
0.158,-5.195068359375,2.932861328125,2.612548828125
0.1585,-5.074951171875,3.933837890625,1.731689453125
0.159,-4.634521484375,4.494384765625,0.930908203125
0.1595,-3.833740234375,4.734619140625,0.010009765625
0.16,-2.832763671875,5.014892578125,-1.311279296875
0.1605,-1.711669921875,5.335205078125,-2.712646484375
0.161,-0.830810546875,5.575439453125,-3.873779296875
0.1615,-0.150146484375,5.775634765625,-4.834716796875
0.162,0.810791015625,5.455322265625,-5.315185546875
0.1625,1.931884765625,4.534423828125,-5.675537109375
0.163,3.133056640625,3.573486328125,-6.115966796875
0.1635,4.134033203125,2.492431640625,-6.316162109375
0.164,4.854736328125,1.571533203125,-6.396240234375
0.1645,5.094970703125,0.810791015625,-6.196044921875
0.165,4.974853515625,0.010009765625,-5.475341796875
0.1655,4.854736328125,-1.151123046875,-4.634521484375
0.166,4.854736328125,-2.432373046875,-3.713623046875
0.1665,4.774658203125,-3.553466796875,-2.672607421875
0.167,4.694580078125,-4.514404296875,-1.911865234375
0.1675,4.174072265625,-4.994873046875,-1.071044921875
0.168,3.333251953125,-5.235107421875,0.050048828125
0.1685,2.332275390625,-5.715576171875,1.331298828125
0.169,1.291259765625,-5.995849609375,2.612548828125
0.1695,0.530517578125,-6.356201171875,3.693603515625
0.17,-0.270263671875,-6.436279296875,4.534423828125
0.1705,-1.231201171875,-5.875732421875,5.054931640625
0.171,-2.392333984375,-4.994873046875,5.495361328125
0.1715,-3.593505859375,-3.993896484375,5.895751953125
0.172,-4.514404296875,-2.912841796875,6.095947265625
0.1725,-5.114990234375,-2.192138671875,6.216064453125
0.173,-5.235107421875,-1.391357421875,5.815673828125
0.1735,-5.155029296875,-0.510498046875,5.094970703125
0.174,-5.155029296875,0.650634765625,4.334228515625
0.1745,-5.155029296875,1.931884765625,3.333251953125
0.175,-5.114990234375,2.972900390625,2.452392578125
0.1755,-4.914794921875,3.813720703125,1.651611328125
0.176,-4.314208984375,4.174072265625,0.810791015625
0.1765,-3.433349609375,4.494384765625,-0.430419921875
0.177,-2.552490234375,4.974853515625,-1.671630859375
0.1775,-1.591552734375,5.255126953125,-2.912841796875
0.178,-0.910888671875,5.695556640625,-3.953857421875
0.1785,0.010009765625,5.615478515625,-4.674560546875
0.179,1.010986328125,4.934814453125,-5.114990234375
0.1795,2.172119140625,4.093994140625,-5.595458984375
0.18,3.333251953125,3.093017578125,-5.955810546875
0.1805,4.174072265625,2.092041015625,-6.115966796875
0.181,4.654541015625,1.411376953125,-6.196044921875
0.1815,4.734619140625,0.610595703125,-5.755615234375
0.182,4.654541015625,-0.390380859375,-5.034912109375
0.1825,4.734619140625,-1.551513671875,-4.234130859375
0.183,4.774658203125,-2.752685546875,-3.273193359375
0.1835,4.734619140625,-3.793701171875,-2.432373046875
0.184,4.494384765625,-4.474365234375,-1.671630859375
0.1845,3.773681640625,-4.874755859375,-0.790771484375
0.185,2.892822265625,-5.315185546875,0.490478515625
0.1855,1.931884765625,-5.755615234375,1.851806640625
0.186,1.091064453125,-6.115966796875,3.012939453125
0.1865,0.410400390625,-6.396240234375,3.973876953125
0.187,-0.590576171875,-6.115966796875,4.654541015625
0.1875,-1.711669921875,-5.355224609375,5.135009765625
0.188,-2.912841796875,-4.474365234375,5.655517578125
