wavelength,x,y,z
0.0,-0.590576171875,5.895751953125,-4.354248046875
0.0005,0.410400390625,5.735595703125,-5.114990234375
0.001,1.131103515625,5.695556640625,-5.875732421875
0.0015,2.212158203125,5.175048828125,-6.596435546875
0.002,3.653564453125,3.693603515625,-6.796630859375
0.0025,4.814697265625,2.532470703125,-7.076904296875
0.003,5.415283203125,1.211181640625,-6.716552734375
0.0035,5.735595703125,0.210205078125,-6.396240234375
0.004,5.935791015625,-0.790771484375,-6.035888671875
0.0045,5.775634765625,-1.951904296875,-5.034912109375
0.005,5.615478515625,-3.353271484375,-3.753662109375
0.0055,5.255126953125,-4.634521484375,-2.392333984375
0.006,4.774658203125,-5.395263671875,-1.271240234375
0.0065,4.334228515625,-5.995849609375,-0.390380859375
0.007,3.653564453125,-6.476318359375,0.730712890625
0.0075,2.212158203125,-6.596435546875,2.172119140625
0.008,0.930908203125,-6.796630859375,3.653564453125
0.0085,-0.510498046875,-6.556396484375,4.774658203125
0.009,-1.271240234375,-6.436279296875,5.495361328125
0.0095,-1.991943359375,-6.276123046875,6.095947265625
0.01,-3.193115234375,-5.275146484375,6.696533203125
0.0105,-4.634521484375,-3.873779296875,6.896728515625
0.011,-5.635498046875,-2.552490234375,6.856689453125
0.0115,-5.995849609375,-1.351318359375,6.416259765625
0.012,-6.196044921875,-0.510498046875,6.095947265625
0.0125,-6.276123046875,0.570556640625,5.615478515625
0.013,-5.955810546875,1.811767578125,4.294189453125
0.0135,-5.795654296875,3.093017578125,3.133056640625
0.014,-5.355224609375,4.134033203125,1.851806640625
0.0145,-4.834716796875,4.814697265625,0.810791015625
0.015,-4.434326171875,5.415283203125,0.010009765625
0.0155,-3.593505859375,5.735595703125,-1.151123046875
0.016,-2.192138671875,5.815673828125,-2.552490234375
0.0165,-0.990966796875,5.895751953125,-3.913818359375
0.017,0.170166015625,5.655517578125,-4.794677734375
0.0175,0.930908203125,5.575439453125,-5.515380859375
0.018,1.731689453125,5.375244140625,-6.236083984375
0.0185,2.972900390625,4.134033203125,-6.516357421875
0.019,4.174072265625,3.052978515625,-6.876708984375
0.0195,5.014892578125,1.771728515625,-6.676513671875
0.02,5.415283203125,0.650634765625,-6.396240234375
0.0205,5.695556640625,-0.150146484375,-6.115966796875
0.021,5.735595703125,-1.151123046875,-5.555419921875
0.0215,5.415283203125,-2.392333984375,-4.314208984375
0.022,5.255126953125,-3.593505859375,-3.153076171875
0.0225,4.814697265625,-4.514404296875,-2.031982421875
0.023,4.454345703125,-5.275146484375,-1.031005859375
0.0235,4.053955078125,-5.875732421875,-0.230224609375
0.024,3.052978515625,-6.156005859375,1.010986328125
0.0245,1.851806640625,-6.436279296875,2.412353515625
0.025,0.570556640625,-6.356201171875,3.693603515625
0.0255,-0.510498046875,-6.316162109375,4.494384765625
0.026,-1.151123046875,-6.356201171875,5.295166015625
0.0265,-2.072021484375,-5.955810546875,6.055908203125
0.027,-3.433349609375,-4.634521484375,6.256103515625
0.0275,-4.554443359375,-3.553466796875,6.576416015625
0.028,-5.235107421875,-2.352294921875,6.336181640625
0.0285,-5.715576171875,-1.311279296875,6.095947265625
0.029,-5.915771484375,-0.550537109375,5.855712890625
0.0295,-5.795654296875,0.570556640625,5.094970703125
0.03,-5.715576171875,1.811767578125,4.013916015625
0.0305,-5.435302734375,3.052978515625,2.732666015625
0.031,-4.994873046875,3.853759765625,1.691650390625
0.0315,-4.714599609375,4.614501953125,0.850830078125
0.032,-4.194091796875,5.175048828125,-0.190185546875
0.0325,-3.072998046875,5.295166015625,-1.351318359375
0.033,-1.991943359375,5.615478515625,-2.712646484375
0.0335,-0.790771484375,5.455322265625,-3.833740234375
0.034,0.170166015625,5.495361328125,-4.634521484375
0.0345,0.810791015625,5.495361328125,-5.395263671875
0.035,1.931884765625,4.854736328125,-6.035888671875
0.0355,3.213134765625,3.653564453125,-6.396240234375
0.036,4.214111328125,2.492431640625,-6.436279296875
0.0365,4.774658203125,1.411376953125,-6.196044921875
0.037,5.175048828125,0.610595703125,-6.075927734375
0.0375,5.415283203125,-0.430419921875,-5.755615234375
0.038,5.215087890625,-1.471435546875,-4.754638671875
0.0385,5.135009765625,-2.592529296875,-3.833740234375
0.039,4.814697265625,-3.713623046875,-2.632568359375
0.0395,4.494384765625,-4.514404296875,-1.631591796875
0.04,4.214111328125,-5.195068359375,-0.910888671875
0.0405,3.653564453125,-5.755615234375,0.170166015625
0.041,2.452392578125,-5.915771484375,1.411376953125
0.0415,1.331298828125,-6.115966796875,2.652587890625
0.042,0.330322265625,-5.955810546875,3.653564453125
0.0425,-0.510498046875,-6.115966796875,4.494384765625
0.043,-1.271240234375,-6.035888671875,5.255126953125
0.0435,-2.392333984375,-5.114990234375,5.615478515625
0.044,-3.553466796875,-4.194091796875,6.095947265625
0.0445,-4.434326171875,-2.952880859375,6.055908203125
0.045,-4.994873046875,-1.991943359375,5.895751953125
0.0455,-5.395263671875,-1.271240234375,5.815673828125
0.046,-5.595458984375,-0.430419921875,5.415283203125
0.0465,-5.395263671875,0.770751953125,4.494384765625
0.047,-5.395263671875,1.931884765625,3.573486328125
0.0475,-5.034912109375,2.852783203125,2.532470703125
0.048,-4.794677734375,3.693603515625,1.611572265625
0.0485,-4.514404296875,4.374267578125,0.770751953125
0.049,-3.793701171875,4.774658203125,-0.310302734375
0.0495,-2.872802734375,5.094970703125,-1.511474609375
0.05,-1.671630859375,5.255126953125,-2.712646484375
0.0505,-0.910888671875,5.255126953125,-3.553466796875
0.051,0.010009765625,5.415283203125,-4.514404296875
0.0515,0.890869140625,5.295166015625,-5.275146484375
0.052,2.052001953125,4.214111328125,-5.635498046875
0.0525,3.173095703125,3.373291015625,-6.035888671875
0.053,3.973876953125,2.252197265625,-5.995849609375
0.0535,4.534423828125,1.331298828125,-5.915771484375
0.054,4.894775390625,0.610595703125,-5.835693359375
0.0545,4.974853515625,-0.390380859375,-5.275146484375
0.055,4.974853515625,-1.471435546875,-4.514404296875
0.0555,4.854736328125,-2.632568359375,-3.513427734375
0.056,4.614501953125,-3.513427734375,-2.512451171875
0.0565,4.454345703125,-4.434326171875,-1.671630859375
0.057,4.093994140625,-5.114990234375,-0.870849609375
0.0575,3.133056640625,-5.395263671875,0.370361328125
0.058,2.292236328125,-5.755615234375,1.571533203125
0.0585,1.171142578125,-5.755615234375,2.692626953125
0.059,0.370361328125,-5.915771484375,3.573486328125
0.0595,-0.430419921875,-6.035888671875,4.454345703125
0.06,-1.431396484375,-5.635498046875,5.094970703125
0.0605,-2.632568359375,-4.714599609375,5.575439453125
0.061,-3.673583984375,-3.673583984375,5.735595703125
0.0615,-4.314208984375,-2.712646484375,5.695556640625
0.062,-4.874755859375,-1.871826171875,5.775634765625
0.0625,-5.195068359375,-1.111083984375,5.575439453125
0.063,-5.114990234375,0.010009765625,4.814697265625
0.0635,-5.235107421875,1.010986328125,4.093994140625
0.064,-5.074951171875,2.052001953125,3.093017578125
0.0645,-4.834716796875,2.932861328125,2.212158203125
0.065,-4.674560546875,3.733642578125,1.411376953125
0.0655,-4.234130859375,4.334228515625,0.490478515625
0.066,-3.273193359375,4.694580078125,-0.710693359375
0.0665,-2.432373046875,5.054931640625,-1.911865234375
0.067,-1.431396484375,5.094970703125,-2.872802734375
0.0675,-0.630615234375,5.295166015625,-3.873779296875
0.068,0.210205078125,5.335205078125,-4.714599609375
0.0685,1.291259765625,4.614501953125,-5.195068359375
0.069,2.452392578125,3.853759765625,-5.755615234375
0.0695,3.453369140625,2.732666015625,-5.835693359375
0.07,4.134033203125,1.811767578125,-5.795654296875
0.0705,4.614501953125,1.051025390625,-5.875732421875
0.071,4.854736328125,0.210205078125,-5.595458984375
0.0715,4.814697265625,-0.950927734375,-4.754638671875
0.072,4.854736328125,-2.031982421875,-3.953857421875
0.0725,4.614501953125,-3.072998046875,-2.952880859375
0.073,4.494384765625,-3.953857421875,-2.072021484375
0.0735,4.214111328125,-4.794677734375,-1.271240234375
0.074,3.573486328125,-5.155029296875,-0.270263671875
0.0745,2.692626953125,-5.595458984375,1.051025390625
0.075,1.571533203125,-5.755615234375,2.252197265625
0.0755,0.770751953125,-5.835693359375,3.173095703125
0.076,0.050048828125,-6.035888671875,4.134033203125
0.0765,-0.990966796875,-5.915771484375,4.974853515625
0.077,-2.192138671875,-4.914794921875,5.375244140625
0.0775,-3.313232421875,-4.033935546875,5.735595703125
0.078,-4.114013671875,-2.952880859375,5.735595703125
0.0785,-4.754638671875,-2.072021484375,5.735595703125
0.079,-5.155029296875,-1.311279296875,5.655517578125
0.0795,-5.195068359375,-0.430419921875,5.094970703125
0.08,-5.235107421875,0.770751953125,4.294189453125
0.0805,-5.155029296875,1.891845703125,3.333251953125
0.081,-4.914794921875,2.772705078125,2.372314453125
0.0815,-4.754638671875,3.653564453125,1.531494140625
0.082,-4.394287109375,4.374267578125,0.690673828125
0.0825,-3.473388671875,4.614501953125,-0.590576171875
0.083,-2.632568359375,5.094970703125,-1.751708984375
0.0835,-1.511474609375,5.094970703125,-2.832763671875
0.084,-0.750732421875,5.255126953125,-3.713623046875
0.0845,0.130126953125,5.375244140625,-4.634521484375
0.085,1.171142578125,4.894775390625,-5.315185546875
0.0855,2.372314453125,3.893798828125,-5.755615234375
0.086,3.413330078125,2.852783203125,-5.915771484375
0.0865,4.134033203125,1.851806640625,-5.875732421875
0.087,4.614501953125,1.051025390625,-5.835693359375
0.0875,4.974853515625,0.250244140625,-5.635498046875
0.088,4.854736328125,-0.910888671875,-4.834716796875
0.0885,4.934814453125,-1.991943359375,-4.073974609375
0.089,4.734619140625,-3.113037109375,-2.992919921875
0.0895,4.414306640625,-3.953857421875,-2.072021484375
0.09,4.294189453125,-4.714599609375,-1.271240234375
0.0905,3.733642578125,-5.275146484375,-0.350341796875
0.091,2.692626953125,-5.555419921875,0.970947265625
0.0915,1.651611328125,-5.835693359375,2.252197265625
0.092,0.730712890625,-5.875732421875,3.173095703125
0.0925,0.010009765625,-6.035888671875,4.134033203125
0.093,-0.950927734375,-5.995849609375,4.934814453125
0.0935,-2.072021484375,-5.114990234375,5.375244140625
0.094,-3.273193359375,-4.234130859375,5.895751953125
0.0945,-4.194091796875,-3.072998046875,5.895751953125
0.095,-4.834716796875,-2.112060546875,5.775634765625
0.0955,-5.235107421875,-1.311279296875,5.735595703125
0.096,-5.435302734375,-0.510498046875,5.335205078125
0.0965,-5.315185546875,0.770751953125,4.414306640625
0.097,-5.315185546875,1.931884765625,3.453369140625
0.0975,-5.074951171875,2.852783203125,2.412353515625
0.098,-4.754638671875,3.773681640625,1.531494140625
0.0985,-4.514404296875,4.454345703125,0.690673828125
0.099,-3.673583984375,4.814697265625,-0.470458984375
0.0995,-2.672607421875,5.175048828125,-1.751708984375
0.1,-1.511474609375,5.295166015625,-2.952880859375
0.1005,-0.670654296875,5.375244140625,-3.833740234375
0.101,0.170166015625,5.455322265625,-4.754638671875
0.1015,1.131103515625,5.175048828125,-5.515380859375
0.102,2.452392578125,4.053955078125,-5.875732421875
0.1025,3.573486328125,3.012939453125,-6.276123046875
0.103,4.334228515625,1.891845703125,-6.115966796875
0.1035,4.854736328125,0.970947265625,-6.035888671875
0.104,5.175048828125,0.130126953125,-5.835693359375
0.1045,5.135009765625,-0.990966796875,-5.074951171875
0.105,5.094970703125,-2.232177734375,-4.154052734375
0.1055,4.934814453125,-3.473388671875,-2.992919921875
0.106,4.614501953125,-4.234130859375,-1.951904296875
0.1065,4.414306640625,-5.034912109375,-1.151123046875
0.107,3.853759765625,-5.635498046875,-0.230224609375
0.1075,2.732666015625,-5.795654296875,1.131103515625
0.108,1.611572265625,-6.156005859375,2.532470703125
0.1085,0.450439453125,-6.115966796875,3.653564453125
0.109,-0.390380859375,-6.115966796875,4.494384765625
0.1095,-1.151123046875,-6.115966796875,5.295166015625
0.11,-2.312255859375,-5.395263671875,5.815673828125
0.1105,-3.713623046875,-4.194091796875,6.296142578125
0.111,-4.754638671875,-2.952880859375,6.376220703125
0.1115,-5.275146484375,-1.911865234375,6.095947265625
0.112,-5.635498046875,-1.031005859375,5.975830078125
0.1125,-5.835693359375,-0.190185546875,5.575439453125
0.113,-5.635498046875,1.131103515625,4.414306640625
0.1135,-5.635498046875,2.372314453125,3.373291015625
0.114,-5.235107421875,3.533447265625,2.212158203125
0.1145,-4.834716796875,4.294189453125,1.211181640625
0.115,-4.514404296875,4.934814453125,0.370361328125
0.1155,-3.713623046875,5.335205078125,-0.750732421875
0.116,-2.432373046875,5.535400390625,-2.232177734375
0.1165,-1.231201171875,5.735595703125,-3.593505859375
0.117,-0.270263671875,5.615478515625,-4.514404296875
0.1175,0.610595703125,5.615478515625,-5.275146484375
0.118,1.531494140625,5.335205078125,-6.075927734375
0.1185,2.852783203125,4.134033203125,-6.356201171875
0.119,4.134033203125,2.932861328125,-6.756591796875
0.1195,4.974853515625,1.611572265625,-6.596435546875
0.12,5.415283203125,0.610595703125,-6.356201171875
0.1205,5.655517578125,-0.310302734375,-6.115966796875
0.121,5.615478515625,-1.311279296875,-5.315185546875
0.1215,5.415283203125,-2.712646484375,-4.114013671875
0.122,5.255126953125,-3.993896484375,-2.872802734375
0.1225,4.814697265625,-4.834716796875,-1.751708984375
0.123,4.414306640625,-5.555419921875,-0.790771484375
0.1235,3.853759765625,-6.115966796875,0.210205078125
0.124,2.732666015625,-6.276123046875,1.411376953125
0.1245,1.411376953125,-6.516357421875,2.932861328125
0.125,0.130126953125,-6.436279296875,4.214111328125
0.1255,-0.790771484375,-6.356201171875,4.974853515625
0.126,-1.471435546875,-6.276123046875,5.735595703125
0.1265,-2.592529296875,-5.715576171875,6.416259765625
0.127,-4.033935546875,-4.194091796875,6.616455078125
0.1275,-5.114990234375,-3.032958984375,6.776611328125
0.128,-5.715576171875,-1.751708984375,6.456298828125
0.1285,-6.075927734375,-0.830810546875,6.135986328125
0.129,-6.196044921875,0.090087890625,5.735595703125
0.1295,-5.995849609375,1.251220703125,4.734619140625
0.13,-5.835693359375,2.652587890625,3.493408203125
0.1305,-5.475341796875,3.893798828125,2.172119140625
0.131,-4.994873046875,4.614501953125,1.091064453125
0.1315,-4.594482421875,5.255126953125,0.250244140625
0.132,-3.913818359375,5.735595703125,-0.910888671875
0.1325,-2.512451171875,5.775634765625,-2.272216796875
0.133,-1.311279296875,6.055908203125,-3.713623046875
0.1335,0.050048828125,5.815673828125,-4.834716796875
0.134,0.810791015625,5.735595703125,-5.515380859375
0.1345,1.571533203125,5.535400390625,-6.236083984375
0.135,2.852783203125,4.574462890625,-6.716552734375
0.1355,4.214111328125,3.173095703125,-6.996826171875
0.136,5.175048828125,1.851806640625,-6.916748046875
0.1365,5.615478515625,0.610595703125,-6.556396484375
0.137,5.855712890625,-0.310302734375,-6.276123046875
0.1375,5.895751953125,-1.311279296875,-5.755615234375
0.138,5.615478515625,-2.592529296875,-4.354248046875
0.1385,5.495361328125,-3.873779296875,-3.193115234375
0.139,5.014892578125,-4.914794921875,-1.911865234375
0.1395,4.494384765625,-5.635498046875,-0.830810546875
0.14,4.093994140625,-6.196044921875,0.050048828125
0.1405,3.173095703125,-6.516357421875,1.211181640625
0.141,1.691650390625,-6.596435546875,2.732666015625
0.1415,0.370361328125,-6.676513671875,4.134033203125
0.142,-0.790771484375,-6.436279296875,4.974853515625
0.1425,-1.471435546875,-6.396240234375,5.735595703125
0.143,-2.352294921875,-6.035888671875,6.376220703125
0.1435,-3.713623046875,-4.634521484375,6.616455078125
0.144,-4.914794921875,-3.513427734375,6.936767578125
0.1445,-5.755615234375,-2.152099609375,6.696533203125
0.145,-6.115966796875,-1.071044921875,6.336181640625
0.1455,-6.276123046875,-0.270263671875,6.015869140625
0.146,-6.276123046875,0.890869140625,5.295166015625
0.1465,-5.915771484375,2.252197265625,3.893798828125
0.147,-5.755615234375,3.533447265625,2.652587890625
0.1475,-5.195068359375,4.414306640625,1.451416015625
0.148,-4.754638671875,5.094970703125,0.490478515625
0.1485,-4.194091796875,5.615478515625,-0.510498046875
0.149,-3.072998046875,5.775634765625,-1.671630859375
0.1495,-1.791748046875,6.055908203125,-3.153076171875
0.15,-0.390380859375,5.895751953125,-4.474365234375
0.1505,0.530517578125,5.735595703125,-5.195068359375
0.151,1.251220703125,5.735595703125,-5.955810546875
0.1515,2.292236328125,5.135009765625,-6.636474609375
0.152,3.733642578125,3.613525390625,-6.836669921875
0.1525,4.814697265625,2.412353515625,-7.036865234375
0.153,5.455322265625,1.131103515625,-6.716552734375
0.1535,5.775634765625,0.130126953125,-6.436279296875
0.154,5.895751953125,-0.790771484375,-5.995849609375
0.1545,5.735595703125,-1.911865234375,-4.994873046875
0.155,5.575439453125,-3.273193359375,-3.793701171875
0.1555,5.255126953125,-4.514404296875,-2.432373046875
0.156,4.734619140625,-5.315185546875,-1.311279296875
0.1565,4.334228515625,-5.995849609375,-0.390380859375
0.157,3.693603515625,-6.476318359375,0.690673828125
0.1575,2.252197265625,-6.556396484375,2.092041015625
0.158,1.010986328125,-6.756591796875,3.613525390625
0.1585,-0.430419921875,-6.516357421875,4.654541015625
0.159,-1.191162109375,-6.436279296875,5.415283203125
0.1595,-1.951904296875,-6.236083984375,6.135986328125
0.16,-3.193115234375,-5.275146484375,6.616455078125
0.1605,-4.554443359375,-3.993896484375,6.896728515625
0.161,-5.515380859375,-2.592529296875,6.816650390625
0.1615,-5.995849609375,-1.431396484375,6.416259765625
0.162,-6.276123046875,-0.510498046875,6.176025390625
0.1625,-6.316162109375,0.570556640625,5.615478515625
0.163,-5.955810546875,1.811767578125,4.294189453125
0.1635,-5.835693359375,3.093017578125,3.133056640625
0.164,-5.395263671875,4.134033203125,1.851806640625
0.1645,-4.834716796875,4.854736328125,0.770751953125
0.165,-4.434326171875,5.415283203125,-0.190185546875
0.1655,-3.553466796875,5.735595703125,-1.231201171875
0.166,-2.112060546875,5.895751953125,-2.712646484375
0.1665,-0.910888671875,5.935791015625,-4.033935546875
0.167,0.290283203125,5.735595703125,-4.914794921875
0.1675,1.010986328125,5.695556640625,-5.715576171875
0.168,1.891845703125,5.335205078125,-6.356201171875
0.1685,3.173095703125,4.013916015625,-6.636474609375
0.169,4.334228515625,2.892822265625,-6.916748046875
0.1695,5.135009765625,1.531494140625,-6.716552734375
0.17,5.575439453125,0.530517578125,-6.396240234375
0.1705,5.775634765625,-0.350341796875,-6.115966796875
0.171,5.735595703125,-1.351318359375,-5.435302734375
0.1715,5.495361328125,-2.632568359375,-4.154052734375
0.172,5.255126953125,-3.873779296875,-2.952880859375
0.1725,4.774658203125,-4.754638671875,-1.791748046875
0.173,4.414306640625,-5.475341796875,-0.830810546875
0.1735,3.933837890625,-6.075927734375,0.130126953125
0.174,2.852783203125,-6.276123046875,1.291259765625
0.1745,1.651611328125,-6.436279296875,2.652587890625
0.175,0.290283203125,-6.396240234375,3.893798828125
0.1755,-0.630615234375,-6.276123046875,4.734619140625
0.176,-1.311279296875,-6.316162109375,5.535400390625
0.1765,-2.312255859375,-5.835693359375,6.135986328125
0.177,-3.673583984375,-4.554443359375,6.376220703125
0.1775,-4.714599609375,-3.433349609375,6.576416015625
0.178,-5.395263671875,-2.152099609375,6.376220703125
0.1785,-5.795654296875,-1.191162109375,6.135986328125
0.179,-6.035888671875,-0.390380859375,5.855712890625
0.1795,-5.835693359375,0.770751953125,4.974853515625
0.18,-5.715576171875,1.971923828125,3.893798828125
0.1805,-5.435302734375,3.173095703125,2.692626953125
0.181,-4.994873046875,4.053955078125,1.571533203125
0.1815,-4.714599609375,4.774658203125,0.690673828125
0.182,-4.154052734375,5.335205078125,-0.310302734375
0.1825,-2.992919921875,5.415283203125,-1.591552734375
0.183,-1.911865234375,5.735595703125,-2.872802734375
0.1835,-0.630615234375,5.575439453125,-3.993896484375
0.184,0.290283203125,5.575439453125,-4.834716796875
0.1845,0.970947265625,5.535400390625,-5.635498046875
0.185,2.132080078125,4.734619140625,-6.115966796875
0.1855,3.373291015625,3.533447265625,-6.476318359375
0.186,4.414306640625,2.372314453125,-6.516357421875
0.1865,4.934814453125,1.291259765625,-6.276123046875
0.187,5.335205078125,0.450439453125,-6.115966796875
0.1875,5.495361328125,-0.550537109375,-5.755615234375
0.188,5.295166015625,-1.631591796875,-4.714599609375
