wavelength,x,y,z
0.0,-1.471435546875,5.535400390625,-3.233154296875
0.0005,-0.790771484375,5.775634765625,-4.234130859375
0.001,0.250244140625,5.535400390625,-4.994873046875
0.0015,1.411376953125,4.734619140625,-5.475341796875
0.002,2.652587890625,3.853759765625,-5.995849609375
0.0025,3.773681640625,2.852783203125,-6.356201171875
0.003,4.534423828125,1.931884765625,-6.396240234375
0.0035,4.854736328125,1.131103515625,-6.276123046875
0.004,4.854736328125,0.250244140625,-5.635498046875
0.0045,4.814697265625,-0.910888671875,-4.834716796875
0.005,4.934814453125,-2.112060546875,-3.913818359375
0.0055,4.894775390625,-3.313232421875,-2.952880859375
0.006,4.734619140625,-4.234130859375,-2.072021484375
0.0065,4.254150390625,-4.834716796875,-1.191162109375
0.007,3.413330078125,-5.155029296875,0.010009765625
0.0075,2.532470703125,-5.635498046875,1.211181640625
0.008,1.531494140625,-6.075927734375,2.572509765625
0.0085,0.690673828125,-6.396240234375,3.693603515625
0.009,-0.150146484375,-6.556396484375,4.614501953125
0.0095,-1.231201171875,-6.035888671875,5.175048828125
0.01,-2.432373046875,-5.074951171875,5.695556640625
0.0105,-3.713623046875,-4.073974609375,6.216064453125
0.011,-4.674560546875,-3.032958984375,6.376220703125
0.0115,-5.275146484375,-2.152099609375,6.416259765625
0.012,-5.435302734375,-1.271240234375,6.015869140625
0.0125,-5.315185546875,-0.310302734375,5.175048828125
0.013,-5.315185546875,0.930908203125,4.294189453125
0.0135,-5.395263671875,2.252197265625,3.253173828125
0.014,-5.275146484375,3.373291015625,2.252197265625
0.0145,-4.994873046875,4.134033203125,1.371337890625
0.015,-4.274169921875,4.534423828125,0.450439453125
0.0155,-3.233154296875,4.854736328125,-0.910888671875
0.016,-2.272216796875,5.375244140625,-2.312255859375
0.0165,-1.271240234375,5.655517578125,-3.593505859375
0.017,-0.510498046875,5.895751953125,-4.594482421875
0.0175,0.410400390625,5.735595703125,-5.355224609375
0.018,1.611572265625,4.934814453125,-5.795654296875
0.0185,2.932861328125,3.893798828125,-6.276123046875
0.019,4.134033203125,2.732666015625,-6.596435546875
0.0195,4.894775390625,1.731689453125,-6.636474609375
0.02,5.255126953125,0.890869140625,-6.436279296875
0.0205,5.215087890625,0.010009765625,-5.835693359375
0.021,5.054931640625,-1.191162109375,-4.834716796875
0.0215,5.054931640625,-2.472412109375,-3.833740234375
0.022,4.974853515625,-3.713623046875,-2.712646484375
0.0225,4.774658203125,-4.674560546875,-1.791748046875
0.023,4.334228515625,-5.315185546875,-0.910888671875
0.0235,3.453369140625,-5.515380859375,0.250244140625
0.024,2.372314453125,-5.835693359375,1.531494140625
0.0245,1.251220703125,-6.316162109375,3.052978515625
0.025,0.330322265625,-6.556396484375,4.134033203125
0.0255,-0.510498046875,-6.716552734375,5.014892578125
0.026,-1.471435546875,-6.236083984375,5.695556640625
0.0265,-2.832763671875,-5.114990234375,6.055908203125
0.027,-4.114013671875,-4.033935546875,6.536376953125
0.0275,-5.155029296875,-2.872802734375,6.696533203125
0.028,-5.755615234375,-1.911865234375,6.696533203125
0.0285,-5.915771484375,-1.031005859375,6.336181640625
0.029,-5.755615234375,0.050048828125,5.415283203125
0.0295,-5.635498046875,1.291259765625,4.334228515625
0.03,-5.595458984375,2.692626953125,3.173095703125
0.0305,-5.435302734375,3.853759765625,2.052001953125
0.031,-5.114990234375,4.694580078125,1.131103515625
0.0315,-4.434326171875,5.094970703125,0.170166015625
0.032,-3.233154296875,5.295166015625,-1.151123046875
0.0325,-2.031982421875,5.615478515625,-2.672607421875
0.033,-0.910888671875,5.895751953125,-4.114013671875
0.0335,0.010009765625,6.095947265625,-5.114990234375
0.034,0.770751953125,6.055908203125,-5.875732421875
0.0345,1.931884765625,5.175048828125,-6.356201171875
0.035,3.373291015625,3.893798828125,-6.756591796875
0.0355,4.614501953125,2.692626953125,-7.076904296875
0.036,5.495361328125,1.531494140625,-7.076904296875
0.0365,5.815673828125,0.610595703125,-6.836669921875
0.037,5.735595703125,-0.390380859375,-6.156005859375
0.0375,5.495361328125,-1.591552734375,-4.994873046875
0.038,5.335205078125,-2.912841796875,-3.793701171875
0.0385,5.255126953125,-4.314208984375,-2.552490234375
0.039,4.974853515625,-5.315185546875,-1.471435546875
0.0395,4.494384765625,-5.915771484375,-0.630615234375
0.04,3.493408203125,-6.115966796875,0.570556640625
0.0405,2.172119140625,-6.316162109375,1.931884765625
0.041,0.890869140625,-6.676513671875,3.533447265625
0.0415,-0.230224609375,-6.836669921875,4.734619140625
0.042,-0.950927734375,-6.876708984375,5.615478515625
0.0425,-1.871826171875,-6.436279296875,6.256103515625
0.043,-3.193115234375,-5.275146484375,6.576416015625
0.0435,-4.514404296875,-3.993896484375,6.976806640625
0.044,-5.635498046875,-2.712646484375,7.136962890625
0.0445,-6.276123046875,-1.591552734375,6.976806640625
0.045,-6.396240234375,-0.750732421875,6.616455078125
0.0455,-6.196044921875,0.330322265625,5.735595703125
0.046,-5.915771484375,1.611572265625,4.414306640625
0.0465,-5.755615234375,3.012939453125,3.173095703125
0.047,-5.555419921875,4.294189453125,1.931884765625
0.0475,-5.155029296875,5.094970703125,0.890869140625
0.048,-4.514404296875,5.535400390625,0.010009765625
0.0485,-3.353271484375,5.655517578125,-1.271240234375
0.049,-1.951904296875,5.815673828125,-2.832763671875
0.0495,-0.790771484375,6.095947265625,-4.354248046875
0.05,0.290283203125,6.216064453125,-5.395263671875
0.0505,0.970947265625,6.216064453125,-6.156005859375
0.051,2.011962890625,5.495361328125,-6.636474609375
0.0515,3.373291015625,4.174072265625,-6.916748046875
0.052,4.654541015625,2.932861328125,-7.237060546875
0.0525,5.615478515625,1.651611328125,-7.277099609375
0.053,6.055908203125,0.610595703125,-7.036865234375
0.0535,6.095947265625,-0.350341796875,-6.476318359375
0.054,5.735595703125,-1.391357421875,-5.435302734375
0.0545,5.495361328125,-2.712646484375,-4.154052734375
0.055,5.375244140625,-4.114013671875,-2.912841796875
0.0555,5.094970703125,-5.195068359375,-1.711669921875
0.056,4.654541015625,-5.915771484375,-0.790771484375
0.0565,3.853759765625,-6.276123046875,0.290283203125
0.057,2.612548828125,-6.356201171875,1.531494140625
0.0575,1.291259765625,-6.676513671875,3.052978515625
0.058,0.130126953125,-6.756591796875,4.494384765625
0.0585,-0.790771484375,-6.916748046875,5.415283203125
0.059,-1.511474609375,-6.756591796875,6.135986328125
0.0595,-2.672607421875,-5.835693359375,6.536376953125
0.06,-4.073974609375,-4.514404296875,6.896728515625
0.0605,-5.275146484375,-3.273193359375,7.177001953125
0.061,-6.115966796875,-2.072021484375,7.056884765625
0.0615,-6.436279296875,-1.151123046875,6.856689453125
0.062,-6.356201171875,-0.230224609375,6.135986328125
0.0625,-6.035888671875,1.010986328125,5.014892578125
0.063,-5.835693359375,2.372314453125,3.773681640625
0.0635,-5.755615234375,3.773681640625,2.492431640625
0.064,-5.435302734375,4.814697265625,1.331298828125
0.0645,-4.914794921875,5.375244140625,0.450439453125
0.065,-3.913818359375,5.615478515625,-0.710693359375
0.0655,-2.592529296875,5.735595703125,-2.192138671875
0.066,-1.351318359375,6.135986328125,-3.713623046875
0.0665,-0.230224609375,6.256103515625,-5.034912109375
0.067,0.610595703125,6.336181640625,-5.875732421875
0.0675,1.491455078125,5.935791015625,-6.476318359375
0.068,2.852783203125,4.774658203125,-6.836669921875
0.0685,4.174072265625,3.493408203125,-7.197021484375
0.069,5.335205078125,2.172119140625,-7.357177734375
0.0695,5.975830078125,0.970947265625,-7.197021484375
0.07,6.135986328125,0.130126953125,-6.836669921875
0.0705,5.935791015625,-0.990966796875,-5.915771484375
0.071,5.655517578125,-2.272216796875,-4.634521484375
0.0715,5.495361328125,-3.713623046875,-3.353271484375
0.072,5.295166015625,-4.994873046875,-2.072021484375
0.0725,4.934814453125,-5.835693359375,-1.031005859375
0.073,4.294189453125,-6.356201171875,0.010009765625
0.0735,3.052978515625,-6.476318359375,1.171142578125
0.074,1.691650390625,-6.636474609375,2.732666015625
0.0745,0.370361328125,-6.876708984375,4.294189453125
0.075,-0.630615234375,-6.996826171875,5.335205078125
0.0755,-1.351318359375,-6.956787109375,6.095947265625
0.076,-2.472412109375,-6.196044921875,6.576416015625
0.0765,-3.873779296875,-4.834716796875,6.896728515625
0.077,-5.155029296875,-3.553466796875,7.177001953125
0.0775,-6.115966796875,-2.272216796875,7.217041015625
0.078,-6.516357421875,-1.271240234375,6.976806640625
0.0785,-6.476318359375,-0.350341796875,6.416259765625
0.079,-6.156005859375,0.850830078125,5.295166015625
0.0795,-5.915771484375,2.172119140625,4.013916015625
0.08,-5.755615234375,3.573486328125,2.692626953125
0.0805,-5.435302734375,4.654541015625,1.491455078125
0.081,-4.994873046875,5.295166015625,0.570556640625
0.0815,-4.154052734375,5.575439453125,-0.510498046875
0.082,-2.872802734375,5.735595703125,-1.791748046875
0.0825,-1.591552734375,6.015869140625,-3.353271484375
0.083,-0.350341796875,6.135986328125,-4.714599609375
0.0835,0.490478515625,6.216064453125,-5.635498046875
0.084,1.251220703125,6.015869140625,-6.276123046875
0.0845,2.372314453125,5.094970703125,-6.676513671875
0.085,3.693603515625,3.853759765625,-6.916748046875
0.0855,4.854736328125,2.572509765625,-7.197021484375
0.086,5.615478515625,1.411376953125,-7.076904296875
0.0865,5.935791015625,0.490478515625,-6.836669921875
0.087,5.815673828125,-0.510498046875,-6.156005859375
0.0875,5.495361328125,-1.551513671875,-5.074951171875
0.088,5.335205078125,-2.832763671875,-3.913818359375
0.0885,5.215087890625,-4.194091796875,-2.712646484375
0.089,4.934814453125,-5.155029296875,-1.631591796875
0.0895,4.494384765625,-5.795654296875,-0.790771484375
0.09,3.573486328125,-5.995849609375,0.330322265625
0.0905,2.412353515625,-6.156005859375,1.571533203125
0.091,1.251220703125,-6.476318359375,3.093017578125
0.0915,0.210205078125,-6.676513671875,4.334228515625
0.092,-0.630615234375,-6.796630859375,5.215087890625
0.0925,-1.471435546875,-6.556396484375,5.855712890625
0.093,-2.672607421875,-5.515380859375,6.256103515625
0.0935,-3.953857421875,-4.434326171875,6.656494140625
0.094,-5.114990234375,-3.233154296875,6.896728515625
0.0945,-5.755615234375,-2.192138671875,6.856689453125
0.095,-6.075927734375,-1.311279296875,6.576416015625
0.0955,-5.915771484375,-0.390380859375,5.895751953125
0.096,-5.755615234375,0.850830078125,4.814697265625
0.0965,-5.715576171875,2.172119140625,3.733642578125
0.097,-5.555419921875,3.373291015625,2.532470703125
0.0975,-5.275146484375,4.334228515625,1.531494140625
0.098,-4.754638671875,4.934814453125,0.650634765625
0.0985,-3.793701171875,5.175048828125,-0.550537109375
0.099,-2.632568359375,5.455322265625,-1.911865234375
0.0995,-1.471435546875,5.815673828125,-3.393310546875
0.1,-0.590576171875,6.015869140625,-4.514404296875
0.1005,0.250244140625,6.135986328125,-5.355224609375
0.101,1.211181640625,5.615478515625,-5.915771484375
0.1015,2.532470703125,4.534423828125,-6.316162109375
0.102,3.773681640625,3.453369140625,-6.716552734375
0.1025,4.774658203125,2.292236328125,-6.876708984375
0.103,5.335205078125,1.291259765625,-6.756591796875
0.1035,5.495361328125,0.490478515625,-6.396240234375
0.104,5.335205078125,-0.630615234375,-5.595458984375
0.1045,5.175048828125,-1.791748046875,-4.554443359375
0.105,5.135009765625,-3.153076171875,-3.473388671875
0.1055,4.974853515625,-4.234130859375,-2.392333984375
0.106,4.734619140625,-4.994873046875,-1.471435546875
0.1065,4.053955078125,-5.435302734375,-0.590576171875
0.107,3.052978515625,-5.635498046875,0.610595703125
0.1075,1.971923828125,-6.035888671875,2.011962890625
0.108,0.930908203125,-6.356201171875,3.373291015625
0.1085,0.130126953125,-6.556396484375,4.374267578125
0.109,-0.670654296875,-6.556396484375,5.135009765625
0.1095,-1.751708984375,-5.915771484375,5.615478515625
0.11,-3.032958984375,-4.874755859375,6.095947265625
0.1105,-4.234130859375,-3.833740234375,6.496337890625
0.111,-5.074951171875,-2.752685546875,6.536376953125
0.1115,-5.515380859375,-1.951904296875,6.496337890625
0.112,-5.635498046875,-1.031005859375,6.015869140625
0.1125,-5.435302734375,0.010009765625,5.094970703125
0.113,-5.435302734375,1.131103515625,4.214111328125
0.1135,-5.435302734375,2.412353515625,3.133056640625
0.114,-5.195068359375,3.533447265625,2.172119140625
0.1145,-4.914794921875,4.214111328125,1.291259765625
0.115,-4.194091796875,4.614501953125,0.370361328125
0.1155,-3.193115234375,4.934814453125,-0.950927734375
0.116,-2.272216796875,5.415283203125,-2.312255859375
0.1165,-1.271240234375,5.655517578125,-3.553466796875
0.117,-0.550537109375,5.935791015625,-4.514404296875
0.1175,0.410400390625,5.735595703125,-5.235107421875
0.118,1.531494140625,4.974853515625,-5.675537109375
0.1185,2.732666015625,4.053955078125,-6.156005859375
0.119,3.893798828125,2.972900390625,-6.476318359375
0.1195,4.654541015625,1.971923828125,-6.556396484375
0.12,5.054931640625,1.171142578125,-6.396240234375
0.1205,5.014892578125,0.290283203125,-5.835693359375
0.121,4.974853515625,-0.830810546875,-5.034912109375
0.1215,4.974853515625,-2.072021484375,-4.154052734375
0.122,4.974853515625,-3.193115234375,-3.153076171875
0.1225,4.814697265625,-4.154052734375,-2.232177734375
0.123,4.454345703125,-4.834716796875,-1.351318359375
0.1235,3.613525390625,-5.155029296875,-0.350341796875
0.124,2.732666015625,-5.595458984375,0.970947265625
0.1245,1.691650390625,-5.955810546875,2.292236328125
0.125,0.890869140625,-6.276123046875,3.413330078125
0.1255,0.170166015625,-6.476318359375,4.334228515625
0.126,-0.870849609375,-6.156005859375,4.974853515625
0.1265,-2.031982421875,-5.315185546875,5.455322265625
0.127,-3.233154296875,-4.434326171875,6.015869140625
0.1275,-4.314208984375,-3.393310546875,6.256103515625
0.128,-4.994873046875,-2.552490234375,6.336181640625
0.1285,-5.235107421875,-1.791748046875,6.095947265625
0.129,-5.195068359375,-0.910888671875,5.455322265625
0.1295,-5.275146484375,0.210205078125,4.694580078125
0.13,-5.315185546875,1.531494140625,3.813720703125
0.1305,-5.235107421875,2.612548828125,2.852783203125
0.131,-5.074951171875,3.493408203125,1.971923828125
0.1315,-4.554443359375,4.053955078125,1.131103515625
0.132,-3.753662109375,4.454345703125,0.050048828125
0.1325,-2.912841796875,4.934814453125,-1.271240234375
0.133,-1.951904296875,5.335205078125,-2.552490234375
0.1335,-1.231201171875,5.695556640625,-3.633544921875
0.134,-0.470458984375,5.775634765625,-4.514404296875
0.1345,0.650634765625,5.295166015625,-5.074951171875
0.135,1.851806640625,4.494384765625,-5.635498046875
0.1355,3.052978515625,3.573486328125,-6.115966796875
0.136,3.973876953125,2.572509765625,-6.316162109375
0.1365,4.534423828125,1.771728515625,-6.356201171875
0.137,4.774658203125,0.970947265625,-6.035888671875
0.1375,4.734619140625,0.010009765625,-5.355224609375
0.138,4.854736328125,-1.151123046875,-4.634521484375
0.1385,4.934814453125,-2.392333984375,-3.713623046875
0.139,4.814697265625,-3.433349609375,-2.832763671875
0.1395,4.614501953125,-4.234130859375,-1.991943359375
0.14,4.013916015625,-4.714599609375,-1.071044921875
0.1405,3.173095703125,-5.155029296875,0.170166015625
0.141,2.332275390625,-5.755615234375,1.531494140625
0.1415,1.451416015625,-6.115966796875,2.692626953125
0.142,0.730712890625,-6.436279296875,3.773681640625
0.1425,-0.270263671875,-6.356201171875,4.534423828125
0.143,-1.391357421875,-5.675537109375,5.094970703125
0.1435,-2.592529296875,-4.874755859375,5.695556640625
0.144,-3.793701171875,-3.873779296875,6.095947265625
0.1445,-4.634521484375,-2.912841796875,6.296142578125
0.145,-5.074951171875,-2.192138671875,6.216064453125
0.1455,-5.195068359375,-1.311279296875,5.695556640625
0.146,-5.155029296875,-0.310302734375,4.974853515625
0.1465,-5.275146484375,1.051025390625,4.134033203125
0.147,-5.275146484375,2.292236328125,3.173095703125
0.1475,-5.155029296875,3.253173828125,2.252197265625
0.148,-4.794677734375,3.893798828125,1.411376953125
0.1485,-4.033935546875,4.334228515625,0.370361328125
0.149,-3.153076171875,4.814697265625,-0.990966796875
0.1495,-2.192138671875,5.295166015625,-2.352294921875
0.15,-1.351318359375,5.615478515625,-3.473388671875
0.1505,-0.630615234375,5.855712890625,-4.434326171875
0.151,0.450439453125,5.455322265625,-5.074951171875
0.1515,1.651611328125,4.614501953125,-5.595458984375
0.152,2.932861328125,3.693603515625,-6.115966796875
0.1525,3.973876953125,2.612548828125,-6.356201171875
0.153,4.614501953125,1.731689453125,-6.436279296875
0.1535,4.854736328125,0.970947265625,-6.115966796875
0.154,4.814697265625,0.010009765625,-5.435302734375
0.1545,4.854736328125,-1.151123046875,-4.634521484375
0.155,4.934814453125,-2.432373046875,-3.713623046875
0.1555,4.854736328125,-3.553466796875,-2.712646484375
0.156,4.654541015625,-4.434326171875,-1.871826171875
0.1565,4.093994140625,-4.914794921875,-0.990966796875
0.157,3.173095703125,-5.235107421875,0.250244140625
0.1575,2.292236328125,-5.755615234375,1.571533203125
0.158,1.331298828125,-6.115966796875,2.852783203125
0.1585,0.570556640625,-6.436279296875,3.853759765625
0.159,-0.310302734375,-6.436279296875,4.734619140625
0.1595,-1.431396484375,-5.795654296875,5.255126953125
0.16,-2.712646484375,-4.874755859375,5.775634765625
0.1605,-3.913818359375,-3.873779296875,6.216064453125
0.161,-4.834716796875,-2.872802734375,6.376220703125
0.1615,-5.315185546875,-2.072021484375,6.296142578125
0.162,-5.395263671875,-1.191162109375,5.815673828125
0.1625,-5.275146484375,-0.150146484375,4.974853515625
0.163,-5.315185546875,1.131103515625,4.134033203125
0.1635,-5.355224609375,2.412353515625,3.133056640625
0.164,-5.195068359375,3.453369140625,2.172119140625
0.1645,-4.874755859375,4.134033203125,1.291259765625
0.165,-4.154052734375,4.494384765625,0.370361328125
0.1655,-3.153076171875,4.854736328125,-0.990966796875
0.166,-2.192138671875,5.375244140625,-2.432373046875
0.1665,-1.231201171875,5.695556640625,-3.633544921875
0.167,-0.510498046875,5.935791015625,-4.594482421875
0.1675,0.490478515625,5.695556640625,-5.275146484375
0.168,1.731689453125,4.814697265625,-5.755615234375
0.1685,3.012939453125,3.773681640625,-6.276123046875
0.169,4.174072265625,2.612548828125,-6.596435546875
0.1695,4.854736328125,1.651611328125,-6.596435546875
0.17,5.175048828125,0.890869140625,-6.396240234375
0.1705,5.094970703125,0.010009765625,-5.715576171875
0.171,4.974853515625,-1.271240234375,-4.754638671875
0.1715,5.094970703125,-2.552490234375,-3.793701171875
0.172,4.974853515625,-3.793701171875,-2.712646484375
0.1725,4.774658203125,-4.634521484375,-1.791748046875
0.173,4.254150390625,-5.235107421875,-0.910888671875
0.1735,3.333251953125,-5.475341796875,0.290283203125
0.174,2.252197265625,-5.835693359375,1.611572265625
0.1745,1.171142578125,-6.276123046875,3.133056640625
0.175,0.330322265625,-6.556396484375,4.174072265625
0.1755,-0.510498046875,-6.676513671875,5.094970703125
0.176,-1.551513671875,-6.075927734375,5.655517578125
0.1765,-2.912841796875,-4.994873046875,6.095947265625
0.177,-4.194091796875,-3.913818359375,6.536376953125
0.1775,-5.235107421875,-2.792724609375,6.696533203125
0.178,-5.755615234375,-1.791748046875,6.656494140625
0.1785,-5.835693359375,-0.950927734375,6.176025390625
0.179,-5.635498046875,0.210205078125,5.215087890625
0.1795,-5.595458984375,1.451416015625,4.134033203125
0.18,-5.595458984375,2.892822265625,2.972900390625
0.1805,-5.395263671875,3.973876953125,1.931884765625
0.181,-4.994873046875,4.774658203125,0.970947265625
0.1815,-4.194091796875,5.094970703125,0.010009765625
0.182,-3.032958984375,5.335205078125,-1.431396484375
0.1825,-1.831787109375,5.735595703125,-2.992919921875
0.183,-0.750732421875,6.015869140625,-4.354248046875
0.1835,0.090087890625,6.176025390625,-5.275146484375
0.184,0.970947265625,5.935791015625,-5.995849609375
0.1845,2.252197265625,4.854736328125,-6.396240234375
0.185,3.653564453125,3.653564453125,-6.796630859375
0.1855,4.814697265625,2.332275390625,-7.116943359375
0.186,5.575439453125,1.291259765625,-7.036865234375
0.1865,5.855712890625,0.370361328125,-6.716552734375
0.187,5.735595703125,-0.670654296875,-5.955810546875
0.1875,5.455322265625,-1.911865234375,-4.754638671875
0.188,5.335205078125,-3.273193359375,-3.513427734375
