wavelength,x,y,z
0.0,-4.033935546875,48.096923828125,-44.793701171875
0.0005,7.016845703125,43.292236328125,-50.879638671875
0.001,16.986572265625,36.966064453125,-54.443115234375
0.0015,25.114501953125,28.798095703125,-54.162841796875
0.002,32.201416015625,20.189697265625,-52.281005859375
0.0025,40.529541015625,9.739501953125,-49.918701171875
0.003,47.776611328125,-1.311279296875,-46.155029296875
0.0035,52.461181640625,-11.401123046875,-40.749755859375
0.004,54.302978515625,-20.530029296875,-33.622802734375
0.0045,53.662353515625,-28.337646484375,-25.574951171875
0.005,51.860595703125,-36.465576171875,-16.285888671875
0.0055,48.937744140625,-44.233154296875,-5.955810546875
0.006,43.812744140625,-49.838623046875,4.654541015625
0.0065,37.086181640625,-53.442138671875,14.824462890625
0.007,29.598876953125,-54.603271484375,23.512939453125
0.0075,21.350830078125,-53.322021484375,30.760009765625
0.008,10.700439453125,-49.918701171875,38.327392578125
0.0085,-0.510498046875,-45.914794921875,45.494384765625
0.009,-11.240966796875,-40.509521484375,50.859619140625
0.0095,-19.969482421875,-33.903076171875,53.021728515625
0.01,-26.415771484375,-25.614990234375,50.939697265625
0.0105,-34.583740234375,-15.885498046875,49.258056640625
0.011,-42.471435546875,-5.195068359375,46.695556640625
0.0115,-48.076904296875,4.934814453125,42.611572265625
0.012,-51.239990234375,15.064697265625,36.045166015625
0.0125,-52.561279296875,24.073486328125,28.798095703125
0.013,-51.840576171875,31.360595703125,21.270751953125
0.0135,-49.598388671875,39.208251953125,11.461181640625
0.014,-45.794677734375,46.054931640625,0.690673828125
0.0145,-40.829833984375,51.580322265625,-10.079833984375
0.015,-34.463623046875,54.383056640625,-19.529052734375
0.0155,-26.776123046875,52.861572265625,-26.375732421875
0.016,-17.647216796875,50.579345703125,-33.662841796875
0.0165,-6.916748046875,47.896728515625,-41.790771484375
0.017,3.733642578125,43.932861328125,-48.277099609375
0.0175,13.423095703125,38.007080078125,-51.840576171875
0.018,22.431884765625,30.239501953125,-52.921630859375
0.0185,29.759033203125,22.271728515625,-51.920654296875
0.019,37.566650390625,12.742431640625,-49.838623046875
0.0195,44.493408203125,2.332275390625,-46.355224609375
0.02,49.738525390625,-8.318115234375,-41.150146484375
0.0205,53.181884765625,-18.247802734375,-34.743896484375
0.021,53.502197265625,-26.135498046875,-27.536865234375
0.0215,51.580322265625,-33.222412109375,-19.208740234375
0.022,48.497314453125,-41.190185546875,-8.518310546875
0.0225,44.493408203125,-48.197021484375,2.412353515625
0.023,38.807861328125,-52.841552734375,12.542236328125
0.0235,31.841064453125,-53.842529296875,20.469970703125
0.024,23.312744140625,-52.080810546875,27.556884765625
0.0245,13.583251953125,-50.239013671875,35.684814453125
0.025,3.453369140625,-47.276123046875,43.052001953125
0.0255,-6.916748046875,-41.910888671875,48.016845703125
0.026,-16.806396484375,-35.104248046875,51.179931640625
0.0265,-24.854248046875,-27.817138671875,51.740478515625
0.027,-31.740966796875,-19.569091796875,49.978759765625
0.0275,-39.068115234375,-8.838623046875,46.735595703125
0.028,-46.074951171875,2.252197265625,42.971923828125
0.0285,-50.839599609375,12.662353515625,37.646728515625
0.029,-52.000732421875,20.670166015625,31.200439453125
0.0295,-50.359130859375,27.636962890625,23.152587890625
0.03,-49.197998046875,36.085205078125,13.863525390625
0.0305,-46.675537109375,43.572509765625,3.933837890625
0.031,-41.710693359375,48.777587890625,-6.436279296875
0.0315,-35.504638671875,52.301025390625,-16.365966796875
0.032,-28.657958984375,52.981689453125,-24.413818359375
0.0325,-20.489990234375,50.859619140625,-30.940185546875
0.033,-9.679443359375,47.776611328125,-38.747802734375
0.0335,0.970947265625,44.213134765625,-45.794677734375
0.034,10.740478515625,39.088134765625,-50.279052734375
0.0345,19.549072265625,32.041259765625,-51.840576171875
0.035,27.116455078125,24.153564453125,-51.119873046875
0.0355,34.603759765625,15.425048828125,-49.598388671875
0.036,41.690673828125,5.255126953125,-46.435302734375
0.0365,47.576416015625,-5.595458984375,-41.670654296875
0.037,51.820556640625,-15.925537109375,-35.744873046875
0.0375,52.701416015625,-23.853271484375,-28.978271484375
0.038,50.259033203125,-29.939208984375,-21.010498046875
0.0385,48.136962890625,-38.347412109375,-10.960693359375
0.039,44.933837890625,-45.514404296875,-0.790771484375
0.0395,39.728759765625,-49.958740234375,8.818603515625
0.04,32.802001953125,-52.481201171875,18.227783203125
0.0405,25.234619140625,-52.281005859375,25.675048828125
0.041,16.666259765625,-50.359130859375,32.681884765625
0.0415,5.895751953125,-46.515380859375,39.848876953125
0.042,-4.794677734375,-42.271240234375,46.295166015625
0.0425,-14.364013671875,-36.585693359375,50.259033203125
0.043,-21.811279296875,-29.378662109375,50.379150390625
0.0435,-28.657958984375,-21.370849609375,48.857666015625
0.044,-36.385498046875,-11.761474609375,46.895751953125
0.0445,-42.751708984375,-1.631591796875,43.292236328125
0.045,-47.716552734375,8.938720703125,38.047119140625
0.0455,-50.759521484375,18.267822265625,32.041259765625
0.046,-49.878662109375,24.794189453125,25.154541015625
0.0465,-47.996826171875,32.321533203125,16.185791015625
0.047,-45.834716796875,40.489501953125,5.975830078125
0.0475,-42.311279296875,46.575439453125,-3.673583984375
0.048,-36.185302734375,49.778564453125,-13.322998046875
0.0485,-29.739013671875,51.580322265625,-21.771240234375
0.049,-22.291748046875,50.259033203125,-28.377685546875
0.0495,-12.482177734375,47.336181640625,-35.544677734375
0.05,-1.711669921875,43.972900390625,-42.791748046875
0.0505,8.218017578125,39.408447265625,-48.036865234375
0.051,16.906494140625,33.002197265625,-50.118896484375
0.0515,24.513916015625,25.474853515625,-49.918701171875
0.052,31.720947265625,17.627197265625,-48.877685546875
0.0525,38.887939453125,7.577392578125,-45.954833984375
0.053,45.174072265625,-3.233154296875,-41.630615234375
0.0535,49.898681640625,-13.363037109375,-36.385498046875
0.054,51.099853515625,-21.010498046875,-30.219482421875
0.0545,49.218017578125,-27.576904296875,-22.331787109375
0.055,47.816650390625,-35.704833984375,-13.363037109375
0.0555,45.013916015625,-42.711669921875,-3.713623046875
0.056,39.888916015625,-48.036865234375,6.496337890625
0.0565,33.883056640625,-51.600341796875,16.225830078125
0.057,26.956298828125,-51.880615234375,23.552978515625
0.0575,18.427978515625,-49.197998046875,29.799072265625
0.058,8.177978515625,-46.755615234375,37.806884765625
0.0585,-1.431396484375,-43.392333984375,44.133056640625
0.059,-11.120849609375,-37.466552734375,47.856689453125
0.0595,-20.089599609375,-30.940185546875,50.218994140625
0.06,-26.656005859375,-23.693115234375,49.218017578125
0.0605,-33.462646484375,-14.323974609375,46.415283203125
0.061,-40.749755859375,-3.833740234375,43.412353515625
0.0615,-46.195068359375,5.815673828125,39.408447265625
0.062,-48.837646484375,15.024658203125,33.202392578125
0.0625,-49.798583984375,23.112548828125,26.395751953125
0.063,-48.597412109375,29.718994140625,19.188720703125
0.0635,-45.634521484375,37.006103515625,9.178955078125
0.064,-42.191162109375,44.052978515625,-1.271240234375
0.0645,-37.506591796875,48.577392578125,-10.520263671875
0.065,-30.900146484375,49.698486328125,-18.528076171875
0.0655,-23.613037109375,48.937744140625,-25.454833984375
0.066,-15.405029296875,47.536376953125,-32.621826171875
0.0665,-4.954833984375,43.652587890625,-39.228271484375
0.067,5.375244140625,39.448486328125,-45.234130859375
0.0675,14.183837890625,34.003173828125,-48.437255859375
0.068,21.711181640625,26.716064453125,-48.477294921875
0.0685,28.437744140625,19.348876953125,-47.396240234375
0.069,35.604736328125,9.979736328125,-45.114013671875
0.0695,42.010986328125,-0.510498046875,-41.150146484375
0.07,47.176025390625,-10.440185546875,-36.505615234375
0.0705,48.937744140625,-18.247802734375,-30.699951171875
0.071,47.696533203125,-24.854248046875,-23.412841796875
0.0715,46.775634765625,-32.301513671875,-15.565185546875
0.072,43.772705078125,-39.228271484375,-5.755615234375
0.0725,39.448486328125,-45.474365234375,4.574462890625
0.073,34.283447265625,-49.478271484375,13.783447265625
0.0735,27.516845703125,-49.318115234375,20.550048828125
0.074,19.709228515625,-47.916748046875,27.236572265625
0.0745,10.860595703125,-46.155029296875,34.683837890625
0.075,0.610595703125,-42.111083984375,40.809814453125
0.0755,-9.439208984375,-37.386474609375,46.135009765625
0.076,-17.607177734375,-31.420654296875,48.217041015625
0.0765,-24.093505859375,-23.893310546875,46.855712890625
0.077,-31.020263671875,-16.205810546875,45.854736328125
0.0775,-37.666748046875,-6.676513671875,43.052001953125
0.078,-43.592529296875,3.893798828125,38.687744140625
0.0785,-47.716552734375,13.423095703125,33.562744140625
0.079,-48.076904296875,20.429931640625,27.276611328125
0.0795,-46.835693359375,27.036376953125,19.909423828125
0.08,-45.634521484375,34.683837890625,11.541259765625
0.0805,-41.950927734375,40.929931640625,1.571533203125
0.081,-37.466552734375,46.455322265625,-8.478271484375
0.0815,-31.901123046875,48.857666015625,-16.526123046875
0.082,-24.654052734375,47.696533203125,-23.092529296875
0.0825,-17.166748046875,46.695556640625,-29.939208984375
0.083,-7.557373046875,43.692626953125,-36.585693359375
0.0835,2.692626953125,39.448486328125,-42.551513671875
0.084,11.821533203125,34.603759765625,-46.755615234375
0.0845,19.228759765625,28.037353515625,-47.396240234375
0.085,25.755126953125,20.790283203125,-46.275146484375
0.0855,32.681884765625,12.422119140625,-44.673583984375
0.086,39.208251953125,2.212158203125,-41.030029296875
0.0865,44.853759765625,-7.637451171875,-36.906005859375
0.087,46.975830078125,-15.605224609375,-31.340576171875
0.0875,47.015869140625,-22.652099609375,-24.694091796875
0.088,45.934814453125,-29.178466796875,-17.687255859375
0.0885,42.771728515625,-36.065185546875,-7.957763671875
0.089,39.368408203125,-42.751708984375,1.891845703125
0.0895,34.763916015625,-46.275146484375,10.219970703125
0.09,28.037353515625,-47.756591796875,18.387939453125
0.0905,21.470947265625,-47.075927734375,24.634033203125
0.091,12.662353515625,-44.473388671875,31.080322265625
0.0915,2.532470703125,-41.310302734375,38.127197265625
0.092,-6.035888671875,-37.586669921875,42.931884765625
0.0925,-14.924560546875,-31.380615234375,45.494384765625
0.093,-21.931396484375,-25.494873046875,46.415283203125
0.0935,-27.496826171875,-17.607177734375,43.812744140625
0.094,-34.904052734375,-7.957763671875,41.570556640625
0.0945,-40.509521484375,0.770751953125,38.607666015625
0.095,-44.473388671875,10.300048828125,33.322509765625
0.0955,-46.755615234375,18.628173828125,27.636962890625
0.096,-44.833740234375,23.793212890625,20.910400390625
0.0965,-43.672607421875,31.240478515625,12.782470703125
0.097,-41.550537109375,38.087158203125,3.893798828125
0.0975,-36.865966796875,43.252197265625,-5.835693359375
0.098,-31.740966796875,46.695556640625,-14.564208984375
0.0985,-25.494873046875,46.215087890625,-20.650146484375
0.099,-18.007568359375,44.693603515625,-26.936279296875
0.0995,-9.559326171875,42.851806640625,-33.822998046875
0.1,0.450439453125,38.567626953125,-39.428466796875
0.1005,9.539306640625,34.283447265625,-44.153076171875
0.101,16.946533203125,28.197509765625,-45.354248046875
0.1015,23.232666015625,21.711181640625,-44.833740234375
0.102,29.518798828125,14.183837890625,-43.272216796875
0.1025,36.365478515625,3.973876953125,-39.868896484375
0.103,41.850830078125,-4.994873046875,-36.545654296875
0.1035,44.413330078125,-13.162841796875,-31.140380859375
0.104,45.734619140625,-20.650146484375,-25.454833984375
0.1045,43.692626953125,-25.935302734375,-18.528076171875
0.105,41.650634765625,-33.342529296875,-9.519287109375
0.1055,39.088134765625,-39.428466796875,-0.990966796875
0.106,34.163330078125,-43.672607421875,8.218017578125
0.1065,28.677978515625,-46.315185546875,16.345947265625
0.107,22.151611328125,-44.793701171875,21.591064453125
0.1075,14.183837890625,-43.392333984375,28.437744140625
0.108,5.255126953125,-40.869873046875,34.964111328125
0.1085,-4.434326171875,-36.465576171875,40.209228515625
0.109,-12.762451171875,-31.740966796875,43.772705078125
0.1095,-19.288818359375,-25.294677734375,43.732666015625
0.11,-25.254638671875,-18.728271484375,42.771728515625
0.1105,-31.380615234375,-10.320068359375,40.369384765625
0.111,-37.786865234375,-0.470458984375,37.086181640625
0.1115,-41.790771484375,7.537353515625,33.282470703125
0.112,-43.872802734375,15.865478515625,27.396728515625
0.1125,-43.912841796875,21.751220703125,21.951416015625
0.113,-41.510498046875,27.877197265625,13.903564453125
0.1135,-39.868896484375,34.964111328125,5.375244140625
0.114,-36.145263671875,39.928955078125,-3.353271484375
0.1145,-31.340576171875,44.012939453125,-12.241943359375
0.115,-25.614990234375,44.333251953125,-18.528076171875
0.1155,-18.728271484375,42.571533203125,-24.133544921875
0.116,-11.200927734375,41.410400390625,-30.699951171875
0.1165,-1.351318359375,37.286376953125,-36.385498046875
0.117,7.056884765625,33.602783203125,-41.030029296875
0.1175,14.704345703125,27.837158203125,-42.751708984375
0.118,20.870361328125,22.351806640625,-43.192138671875
0.1185,26.315673828125,14.784423828125,-40.709716796875
0.119,33.282470703125,5.735595703125,-38.587646484375
0.1195,38.247314453125,-2.432373046875,-35.544677734375
0.12,42.010986328125,-11.441162109375,-30.499755859375
0.1205,43.092041015625,-18.087646484375,-25.214599609375
0.121,41.170166015625,-23.212646484375,-18.728271484375
0.1215,40.369384765625,-29.939208984375,-11.561279296875
0.122,36.805908203125,-35.824951171875,-2.232177734375
0.1225,33.202392578125,-40.829833984375,6.376220703125
0.123,27.877197265625,-42.591552734375,13.463134765625
0.1235,22.431884765625,-43.192138671875,19.709228515625
0.124,15.024658203125,-40.669677734375,24.954345703125
0.1245,6.296142578125,-38.587646484375,31.720947265625
0.125,-1.871826171875,-35.384521484375,36.645751953125
0.1255,-10.600341796875,-30.499755859375,40.489501953125
0.126,-17.046630859375,-25.214599609375,41.490478515625
0.1265,-22.091552734375,-18.848388671875,39.728759765625
0.127,-28.417724609375,-11.721435546875,38.807861328125
0.1275,-34.143310546875,-2.272216796875,35.244384765625
0.128,-38.667724609375,5.815673828125,31.881103515625
0.1285,-40.709716796875,13.383056640625,26.595947265625
0.129,-41.550537109375,19.348876953125,21.751220703125
0.1295,-38.947998046875,24.593994140625,14.424072265625
0.13,-37.826904296875,31.520751953125,6.736572265625
0.1305,-34.463623046875,36.485595703125,-1.631591796875
0.131,-30.259521484375,40.769775390625,-10.119873046875
0.1315,-24.894287109375,41.170166015625,-16.085693359375
0.132,-19.288818359375,40.529541015625,-21.410888671875
0.1325,-11.841552734375,38.567626953125,-27.176513671875
0.133,-2.712646484375,35.564697265625,-33.302490234375
0.1335,4.614501953125,32.281494140625,-37.266357421875
0.134,12.902587890625,27.036376953125,-40.229248046875
0.1345,18.548095703125,21.751220703125,-40.349365234375
0.135,23.713134765625,14.944580078125,-38.347412109375
0.1355,29.839111328125,7.537353515625,-37.026123046875
0.136,35.044189453125,-1.591552734375,-33.222412109375
0.1365,38.447509765625,-8.718505859375,-29.658935546875
0.137,39.848876953125,-15.965576171875,-24.173583984375
0.1375,39.248291015625,-20.409912109375,-19.368896484375
0.138,37.126220703125,-26.535888671875,-11.561279296875
0.1385,35.604736328125,-32.701904296875,-4.033935546875
0.139,31.360595703125,-37.146240234375,4.614501953125
0.1395,27.196533203125,-40.069091796875,11.621337890625
0.14,21.430908203125,-39.868896484375,17.386962890625
0.1405,15.705322265625,-38.787841796875,22.351806640625
0.141,7.337158203125,-36.065185546875,28.197509765625
0.1415,-0.430419921875,-33.702880859375,33.602783203125
0.142,-8.478271484375,-29.098388671875,36.926025390625
0.1425,-15.124755859375,-24.373779296875,38.727783203125
0.143,-19.489013671875,-18.808349609375,37.206298828125
0.1435,-25.374755859375,-12.281982421875,36.365478515625
0.144,-30.780029296875,-3.593505859375,33.162353515625
0.1445,-35.304443359375,3.893798828125,30.399658203125
0.145,-37.626708984375,11.220947265625,25.594970703125
0.1455,-38.547607421875,17.226806640625,20.870361328125
0.146,-36.265380859375,21.551025390625,14.744384765625
0.1465,-35.704833984375,27.917236328125,8.017822265625
0.147,-32.181396484375,33.082275390625,-0.590576171875
0.1475,-28.898193359375,36.805908203125,-7.557373046875
0.148,-23.773193359375,38.127197265625,-14.163818359375
0.1485,-19.288818359375,37.726806640625,-18.568115234375
0.149,-11.721435546875,35.364501953125,-24.053466796875
0.1495,-4.714599609375,33.923095703125,-29.658935546875
0.15,3.853759765625,29.759033203125,-34.023193359375
0.1505,10.219970703125,26.035400390625,-36.545654296875
0.151,16.345947265625,20.550048828125,-37.026123046875
0.1515,20.349853515625,15.465087890625,-35.624755859375
0.152,26.315673828125,7.857666015625,-33.903076171875
0.1525,31.120361328125,0.570556640625,-31.460693359375
0.153,35.124267578125,-7.557373046875,-27.496826171875
0.1535,36.165283203125,-13.122802734375,-23.132568359375
0.154,36.005126953125,-18.007568359375,-18.447998046875
0.1545,33.923095703125,-22.852294921875,-11.961669921875
0.155,32.361572265625,-28.818115234375,-4.714599609375
0.1555,29.118408203125,-32.862060546875,2.572509765625
0.156,25.314697265625,-36.225341796875,9.779541015625
0.1565,20.149658203125,-35.945068359375,14.784423828125
0.157,15.625244140625,-35.544677734375,19.148681640625
0.1575,7.817626953125,-32.942138671875,24.513916015625
0.158,0.930908203125,-30.900146484375,29.478759765625
0.1585,-6.756591796875,-26.776123046875,33.002197265625
0.159,-12.522216796875,-22.772216796875,34.603759765625
0.1595,-17.086669921875,-17.767333984375,33.923095703125
0.16,-21.651123046875,-12.041748046875,32.481689453125
0.1605,-26.976318359375,-4.554443359375,30.319580078125
0.161,-30.900146484375,2.212158203125,27.596923828125
0.1615,-34.063232421875,9.619384765625,23.673095703125
0.162,-33.983154296875,14.384033203125,19.068603515625
0.1625,-33.462646484375,18.548095703125,14.784423828125
0.163,-31.380615234375,23.753173828125,7.737548828125
0.1635,-29.658935546875,28.958251953125,1.051025390625
0.164,-25.895263671875,32.401611328125,-6.236083984375
0.1645,-22.171630859375,34.203369140625,-11.841552734375
0.165,-17.326904296875,33.442626953125,-16.165771484375
0.1655,-11.961669921875,32.081298828125,-20.530029296875
0.166,-4.754638671875,30.119384765625,-25.775146484375
0.1665,2.052001953125,27.276611328125,-29.739013671875
0.167,8.898681640625,23.432861328125,-32.701904296875
0.1675,13.703369140625,18.868408203125,-32.741943359375
0.168,17.467041015625,14.864501953125,-32.301513671875
0.1685,22.431884765625,7.697509765625,-30.019287109375
0.169,27.316650390625,1.411376953125,-28.577880859375
0.1695,30.679931640625,-5.795654296875,-24.814208984375
0.17,32.201416015625,-11.040771484375,-21.250732421875
0.1705,32.001220703125,-15.485107421875,-16.926513671875
0.171,30.239501953125,-19.368896484375,-11.681396484375
0.1715,29.158447265625,-24.974365234375,-5.275146484375
0.172,26.075439453125,-28.818115234375,1.611572265625
0.1725,22.872314453125,-31.781005859375,7.777587890625
0.173,18.508056640625,-32.181396484375,12.662353515625
0.1735,14.624267578125,-31.380615234375,15.985595703125
0.174,7.817626953125,-29.538818359375,21.110595703125
0.1745,1.651611328125,-27.656982421875,25.554931640625
0.175,-5.275146484375,-24.333740234375,29.078369140625
0.1755,-10.440185546875,-20.489990234375,30.279541015625
0.176,-14.764404296875,-16.606201171875,30.439697265625
0.1765,-18.207763671875,-11.160888671875,28.277587890625
0.177,-23.332763671875,-5.515380859375,27.596923828125
0.1775,-27.256591796875,1.891845703125,24.433837890625
0.178,-29.378662109375,7.056884765625,21.470947265625
0.1785,-30.619873046875,12.462158203125,17.587158203125
0.179,-28.898193359375,15.224853515625,13.423095703125
