wavelength,x,y,z
0.0,-5.355224609375,2.252197265625,3.253173828125
0.0005,-5.235107421875,3.333251953125,2.212158203125
0.001,-5.034912109375,4.134033203125,1.411376953125
0.0015,-4.514404296875,4.574462890625,0.570556640625
0.002,-3.513427734375,4.814697265625,-0.590576171875
0.0025,-2.512451171875,5.215087890625,-1.911865234375
0.003,-1.311279296875,5.455322265625,-3.353271484375
0.0035,-0.510498046875,5.735595703125,-4.354248046875
0.004,0.290283203125,5.735595703125,-5.155029296875
0.0045,1.331298828125,5.094970703125,-5.595458984375
0.005,2.612548828125,3.933837890625,-5.955810546875
0.0055,3.893798828125,2.692626953125,-6.276123046875
0.006,4.814697265625,1.571533203125,-6.356201171875
0.0065,5.295166015625,0.770751953125,-6.396240234375
0.007,5.335205078125,0.010009765625,-5.915771484375
0.0075,5.135009765625,-1.031005859375,-5.034912109375
0.008,5.094970703125,-2.272216796875,-4.033935546875
0.0085,5.014892578125,-3.713623046875,-2.832763671875
0.009,4.854736328125,-4.754638671875,-1.871826171875
0.0095,4.574462890625,-5.435302734375,-1.071044921875
0.01,3.813720703125,-5.635498046875,0.010009765625
0.0105,2.652587890625,-5.835693359375,1.211181640625
0.011,1.451416015625,-6.196044921875,2.692626953125
0.0115,0.330322265625,-6.356201171875,3.973876953125
0.012,-0.510498046875,-6.556396484375,4.934814453125
0.0125,-1.311279296875,-6.276123046875,5.615478515625
0.013,-2.512451171875,-5.275146484375,5.935791015625
0.0135,-3.873779296875,-4.033935546875,6.256103515625
0.014,-5.114990234375,-2.712646484375,6.456298828125
0.0145,-5.795654296875,-1.631591796875,6.416259765625
0.015,-6.075927734375,-0.830810546875,6.256103515625
0.0155,-5.915771484375,0.130126953125,5.495361328125
0.016,-5.715576171875,1.291259765625,4.334228515625
0.0165,-5.635498046875,2.652587890625,3.173095703125
0.017,-5.435302734375,3.893798828125,1.971923828125
0.0175,-5.195068359375,4.774658203125,1.010986328125
0.018,-4.634521484375,5.255126953125,0.210205078125
0.0185,-3.553466796875,5.415283203125,-0.990966796875
0.019,-2.272216796875,5.615478515625,-2.432373046875
0.0195,-0.950927734375,5.815673828125,-3.993896484375
0.02,0.090087890625,5.935791015625,-5.074951171875
0.0205,0.810791015625,6.015869140625,-5.835693359375
0.021,1.851806640625,5.255126953125,-6.316162109375
0.0215,3.213134765625,3.933837890625,-6.556396484375
0.022,4.534423828125,2.572509765625,-6.796630859375
0.0225,5.535400390625,1.251220703125,-6.796630859375
0.023,5.975830078125,0.290283203125,-6.676513671875
0.0235,6.015869140625,-0.670654296875,-6.196044921875
0.024,5.735595703125,-1.711669921875,-5.155029296875
0.0245,5.455322265625,-3.032958984375,-3.873779296875
0.025,5.295166015625,-4.474365234375,-2.552490234375
0.0255,5.014892578125,-5.515380859375,-1.391357421875
0.026,4.614501953125,-6.115966796875,-0.510498046875
0.0265,3.773681640625,-6.356201171875,0.490478515625
0.027,2.412353515625,-6.396240234375,1.771728515625
0.0275,1.010986328125,-6.556396484375,3.333251953125
0.028,-0.350341796875,-6.636474609375,4.734619140625
0.0285,-1.111083984375,-6.716552734375,5.615478515625
0.029,-1.871826171875,-6.476318359375,6.256103515625
0.0295,-3.032958984375,-5.435302734375,6.536376953125
0.03,-4.354248046875,-3.993896484375,6.696533203125
0.0305,-5.595458984375,-2.552490234375,6.856689453125
0.031,-6.356201171875,-1.311279296875,6.696533203125
0.0315,-6.556396484375,-0.510498046875,6.456298828125
0.032,-6.396240234375,0.450439453125,5.735595703125
0.0325,-5.995849609375,1.531494140625,4.534423828125
0.033,-5.755615234375,2.852783203125,3.213134765625
0.0335,-5.595458984375,4.174072265625,1.931884765625
0.034,-5.195068359375,5.094970703125,0.890869140625
0.0345,-4.714599609375,5.615478515625,0.090087890625
0.035,-3.713623046875,5.735595703125,-0.990966796875
0.0355,-2.352294921875,5.775634765625,-2.352294921875
0.036,-0.990966796875,6.015869140625,-3.913818359375
0.0365,0.210205078125,6.055908203125,-5.114990234375
0.037,0.930908203125,6.095947265625,-5.955810546875
0.0375,1.731689453125,5.655517578125,-6.436279296875
0.038,3.012939453125,4.414306640625,-6.676513671875
0.0385,4.334228515625,3.052978515625,-6.916748046875
0.039,5.455322265625,1.611572265625,-6.996826171875
0.0395,6.055908203125,0.490478515625,-6.796630859375
0.04,6.216064453125,-0.390380859375,-6.516357421875
0.0405,5.935791015625,-1.311279296875,-5.715576171875
0.041,5.615478515625,-2.552490234375,-4.434326171875
0.0415,5.415283203125,-3.953857421875,-3.113037109375
0.042,5.135009765625,-5.114990234375,-1.871826171875
0.0425,4.814697265625,-5.915771484375,-0.870849609375
0.043,4.214111328125,-6.356201171875,0.010009765625
0.0435,3.093017578125,-6.396240234375,1.131103515625
0.044,1.691650390625,-6.516357421875,2.612548828125
0.0445,0.290283203125,-6.676513671875,4.134033203125
0.045,-0.790771484375,-6.716552734375,5.255126953125
0.0455,-1.431396484375,-6.716552734375,6.015869140625
0.046,-2.432373046875,-6.035888671875,6.376220703125
0.0465,-3.713623046875,-4.634521484375,6.576416015625
0.047,-5.034912109375,-3.233154296875,6.816650390625
0.0475,-6.035888671875,-1.911865234375,6.776611328125
0.048,-6.476318359375,-0.950927734375,6.616455078125
0.0485,-6.476318359375,-0.150146484375,6.135986328125
0.049,-6.156005859375,0.930908203125,5.135009765625
0.0495,-5.915771484375,2.212158203125,3.853759765625
0.05,-5.755615234375,3.693603515625,2.532470703125
0.0505,-5.435302734375,4.774658203125,1.331298828125
0.051,-5.074951171875,5.415283203125,0.530517578125
0.0515,-4.234130859375,5.695556640625,-0.510498046875
0.052,-2.992919921875,5.735595703125,-1.711669921875
0.0525,-1.631591796875,5.935791015625,-3.273193359375
0.053,-0.310302734375,6.055908203125,-4.714599609375
0.0535,0.610595703125,6.095947265625,-5.675537109375
0.054,1.331298828125,5.975830078125,-6.316162109375
0.0545,2.492431640625,4.974853515625,-6.636474609375
0.055,3.853759765625,3.533447265625,-6.836669921875
0.0555,5.094970703125,2.092041015625,-7.036865234375
0.056,5.935791015625,0.810791015625,-6.916748046875
0.0565,6.256103515625,-0.150146484375,-6.716552734375
0.057,6.095947265625,-1.031005859375,-6.035888671875
0.0575,5.735595703125,-2.192138671875,-4.874755859375
0.058,5.535400390625,-3.513427734375,-3.553466796875
0.0585,5.295166015625,-4.874755859375,-2.152099609375
0.059,4.974853515625,-5.835693359375,-1.071044921875
0.0595,4.494384765625,-6.396240234375,-0.270263671875
0.06,3.493408203125,-6.476318359375,0.810791015625
0.0605,2.052001953125,-6.556396484375,2.252197265625
0.061,0.650634765625,-6.716552734375,3.853759765625
0.0615,-0.630615234375,-6.716552734375,5.094970703125
0.062,-1.351318359375,-6.796630859375,5.895751953125
0.0625,-2.192138671875,-6.316162109375,6.416259765625
0.063,-3.473388671875,-5.034912109375,6.656494140625
0.0635,-4.794677734375,-3.593505859375,6.856689453125
0.064,-5.915771484375,-2.192138671875,6.896728515625
0.0645,-6.476318359375,-1.111083984375,6.656494140625
0.065,-6.596435546875,-0.310302734375,6.376220703125
0.0655,-6.276123046875,0.650634765625,5.455322265625
0.066,-5.915771484375,1.931884765625,4.174072265625
0.0665,-5.755615234375,3.253173828125,2.892822265625
0.067,-5.435302734375,4.494384765625,1.571533203125
0.0675,-5.114990234375,5.255126953125,0.690673828125
0.068,-4.474365234375,5.575439453125,-0.230224609375
0.0685,-3.353271484375,5.655517578125,-1.271240234375
0.069,-1.991943359375,5.775634765625,-2.712646484375
0.0695,-0.630615234375,5.895751953125,-4.194091796875
0.07,0.370361328125,5.975830078125,-5.235107421875
0.0705,1.010986328125,6.055908203125,-6.035888671875
0.071,1.931884765625,5.335205078125,-6.396240234375
0.0715,3.213134765625,4.013916015625,-6.556396484375
0.072,4.494384765625,2.692626953125,-6.796630859375
0.0725,5.455322265625,1.291259765625,-6.796630859375
0.073,5.895751953125,0.370361328125,-6.676513671875
0.0735,5.935791015625,-0.510498046875,-6.276123046875
0.074,5.655517578125,-1.351318359375,-5.395263671875
0.0745,5.415283203125,-2.552490234375,-4.194091796875
0.075,5.255126953125,-3.953857421875,-2.912841796875
0.0755,5.014892578125,-5.034912109375,-1.751708984375
0.076,4.734619140625,-5.755615234375,-0.910888671875
0.0765,3.973876953125,-6.075927734375,0.010009765625
0.077,2.852783203125,-6.156005859375,1.171142578125
0.0775,1.571533203125,-6.396240234375,2.612548828125
0.078,0.290283203125,-6.476318359375,4.093994140625
0.0785,-0.630615234375,-6.676513671875,5.094970703125
0.079,-1.351318359375,-6.556396484375,5.775634765625
0.0795,-2.392333984375,-5.755615234375,6.135986328125
0.08,-3.713623046875,-4.474365234375,6.416259765625
0.0805,-4.954833984375,-3.193115234375,6.576416015625
0.081,-5.795654296875,-1.951904296875,6.576416015625
0.0815,-6.236083984375,-1.111083984375,6.416259765625
0.082,-6.115966796875,-0.310302734375,5.895751953125
0.0825,-5.835693359375,0.810791015625,4.934814453125
0.083,-5.715576171875,2.092041015625,3.773681640625
0.0835,-5.555419921875,3.453369140625,2.492431640625
0.084,-5.275146484375,4.494384765625,1.451416015625
0.0845,-4.914794921875,5.094970703125,0.650634765625
0.085,-4.073974609375,5.255126953125,-0.310302734375
0.0855,-2.872802734375,5.415283203125,-1.591552734375
0.086,-1.591552734375,5.695556640625,-3.153076171875
0.0865,-0.510498046875,5.775634765625,-4.354248046875
0.087,0.330322265625,5.975830078125,-5.315185546875
0.0875,1.131103515625,5.615478515625,-5.875732421875
0.088,2.292236328125,4.614501953125,-6.156005859375
0.0885,3.573486328125,3.333251953125,-6.436279296875
0.089,4.774658203125,1.971923828125,-6.596435546875
0.0895,5.415283203125,0.970947265625,-6.556396484375
0.09,5.695556640625,0.250244140625,-6.396240234375
0.0905,5.495361328125,-0.630615234375,-5.715576171875
0.091,5.255126953125,-1.751708984375,-4.634521484375
0.0915,5.135009765625,-3.072998046875,-3.473388671875
0.092,4.974853515625,-4.274169921875,-2.272216796875
0.0925,4.734619140625,-5.114990234375,-1.431396484375
0.093,4.294189453125,-5.635498046875,-0.630615234375
0.0935,3.333251953125,-5.755615234375,0.410400390625
0.094,2.212158203125,-5.955810546875,1.731689453125
0.0945,0.930908203125,-6.156005859375,3.173095703125
0.095,0.010009765625,-6.396240234375,4.294189453125
0.0955,-0.750732421875,-6.476318359375,5.094970703125
0.096,-1.591552734375,-5.995849609375,5.535400390625
0.0965,-2.752685546875,-4.954833984375,5.815673828125
0.097,-3.993896484375,-3.793701171875,6.135986328125
0.0975,-5.034912109375,-2.592529296875,6.216064453125
0.098,-5.595458984375,-1.631591796875,6.256103515625
0.0985,-5.715576171875,-0.990966796875,5.975830078125
0.099,-5.555419921875,-0.150146484375,5.255126953125
0.0995,-5.395263671875,0.970947265625,4.334228515625
0.1,-5.355224609375,2.252197265625,3.253173828125
0.1005,-5.195068359375,3.373291015625,2.212158203125
0.101,-5.034912109375,4.174072265625,1.411376953125
0.1015,-4.514404296875,4.614501953125,0.650634765625
0.102,-3.593505859375,4.814697265625,-0.430419921875
0.1025,-2.592529296875,5.175048828125,-1.711669921875
0.103,-1.431396484375,5.415283203125,-3.072998046875
0.1035,-0.630615234375,5.695556640625,-4.154052734375
0.104,0.130126953125,5.775634765625,-4.954833984375
0.1045,1.091064453125,5.135009765625,-5.395263671875
0.105,2.252197265625,4.134033203125,-5.755615234375
0.1055,3.493408203125,2.972900390625,-6.115966796875
0.106,4.494384765625,1.931884765625,-6.236083984375
0.1065,4.974853515625,1.211181640625,-6.276123046875
0.107,5.094970703125,0.450439453125,-5.955810546875
0.1075,5.014892578125,-0.510498046875,-5.275146484375
0.108,4.974853515625,-1.591552734375,-4.434326171875
0.1085,4.934814453125,-2.912841796875,-3.273193359375
0.109,4.814697265625,-3.953857421875,-2.352294921875
0.1095,4.654541015625,-4.754638671875,-1.591552734375
0.11,4.053955078125,-5.114990234375,-0.790771484375
0.1105,3.133056640625,-5.395263671875,0.410400390625
0.111,2.052001953125,-5.795654296875,1.771728515625
0.1115,1.010986328125,-6.075927734375,3.052978515625
0.112,0.290283203125,-6.356201171875,4.053955078125
0.1125,-0.590576171875,-6.276123046875,4.774658203125
0.113,-1.591552734375,-5.555419921875,5.135009765625
0.1135,-2.832763671875,-4.594482421875,5.575439453125
0.114,-3.993896484375,-3.393310546875,5.895751953125
0.1145,-4.834716796875,-2.432373046875,6.015869140625
0.115,-5.235107421875,-1.711669921875,6.015869140625
0.1155,-5.275146484375,-0.990966796875,5.575439453125
0.116,-5.155029296875,0.010009765625,4.814697265625
0.1165,-5.195068359375,1.211181640625,3.973876953125
0.117,-5.195068359375,2.412353515625,2.932861328125
0.1175,-5.074951171875,3.373291015625,2.092041015625
0.118,-4.834716796875,4.013916015625,1.371337890625
0.1185,-4.114013671875,4.334228515625,0.490478515625
0.119,-3.233154296875,4.734619140625,-0.790771484375
0.1195,-2.192138671875,5.094970703125,-2.152099609375
0.12,-1.311279296875,5.415283203125,-3.273193359375
0.1205,-0.630615234375,5.655517578125,-4.274169921875
0.121,0.370361328125,5.375244140625,-4.874755859375
0.1215,1.451416015625,4.494384765625,-5.275146484375
0.122,2.732666015625,3.573486328125,-5.755615234375
0.1225,3.853759765625,2.452392578125,-5.955810546875
0.123,4.534423828125,1.611572265625,-6.115966796875
0.1235,4.854736328125,0.970947265625,-6.075927734375
0.124,4.854736328125,0.130126953125,-5.475341796875
0.1245,4.814697265625,-0.990966796875,-4.754638671875
0.125,4.894775390625,-2.272216796875,-3.793701171875
0.1255,4.814697265625,-3.433349609375,-2.792724609375
0.126,4.774658203125,-4.314208984375,-2.031982421875
0.1265,4.334228515625,-4.834716796875,-1.271240234375
0.127,3.533447265625,-5.155029296875,-0.270263671875
0.1275,2.532470703125,-5.595458984375,1.131103515625
0.128,1.451416015625,-5.875732421875,2.492431640625
0.1285,0.690673828125,-6.236083984375,3.573486328125
0.129,0.010009765625,-6.396240234375,4.454345703125
0.1295,-1.151123046875,-5.835693359375,4.894775390625
0.13,-2.312255859375,-4.834716796875,5.375244140625
0.1305,-3.593505859375,-3.753662109375,5.735595703125
0.131,-4.554443359375,-2.712646484375,5.895751953125
0.1315,-5.114990234375,-1.951904296875,6.015869140625
0.132,-5.275146484375,-1.231201171875,5.735595703125
0.1325,-5.155029296875,-0.350341796875,4.974853515625
0.133,-5.195068359375,0.850830078125,4.174072265625
0.1335,-5.235107421875,2.132080078125,3.173095703125
0.134,-5.114990234375,3.173095703125,2.252197265625
0.1345,-4.954833984375,3.973876953125,1.531494140625
0.135,-4.354248046875,4.334228515625,0.690673828125
0.1355,-3.473388671875,4.614501953125,-0.510498046875
0.136,-2.432373046875,5.094970703125,-1.871826171875
0.1365,-1.431396484375,5.335205078125,-3.113037109375
0.137,-0.710693359375,5.615478515625,-4.154052734375
0.1375,0.130126953125,5.495361328125,-4.834716796875
0.138,1.251220703125,4.774658203125,-5.275146484375
0.1385,2.532470703125,3.773681640625,-5.715576171875
0.139,3.773681640625,2.612548828125,-6.035888671875
0.1395,4.534423828125,1.611572265625,-6.115966796875
0.14,4.934814453125,0.970947265625,-6.115966796875
0.1405,4.934814453125,0.170166015625,-5.635498046875
0.141,4.854736328125,-0.910888671875,-4.834716796875
0.1415,4.934814453125,-2.112060546875,-3.913818359375
0.142,4.854736328125,-3.353271484375,-2.832763671875
0.1425,4.734619140625,-4.314208984375,-1.991943359375
0.143,4.414306640625,-4.914794921875,-1.271240234375
0.1435,3.653564453125,-5.195068359375,-0.310302734375
0.144,2.612548828125,-5.515380859375,1.010986328125
0.1445,1.531494140625,-5.915771484375,2.412353515625
0.145,0.610595703125,-6.236083984375,3.573486328125
0.1455,-0.150146484375,-6.436279296875,4.494384765625
0.146,-1.031005859375,-5.955810546875,5.054931640625
0.1465,-2.272216796875,-5.034912109375,5.415283203125
0.147,-3.553466796875,-3.913818359375,5.815673828125
0.1475,-4.594482421875,-2.752685546875,6.015869140625
0.148,-5.235107421875,-1.911865234375,6.095947265625
0.1485,-5.435302734375,-1.151123046875,5.895751953125
0.149,-5.355224609375,-0.350341796875,5.175048828125
0.1495,-5.275146484375,0.850830078125,4.294189453125
0.15,-5.315185546875,2.172119140625,3.253173828125
0.1505,-5.195068359375,3.293212890625,2.252197265625
0.151,-5.034912109375,4.134033203125,1.451416015625
0.1515,-4.474365234375,4.534423828125,0.650634765625
0.152,-3.553466796875,4.774658203125,-0.510498046875
0.1525,-2.512451171875,5.135009765625,-1.911865234375
0.153,-1.351318359375,5.415283203125,-3.273193359375
0.1535,-0.630615234375,5.655517578125,-4.354248046875
0.154,0.290283203125,5.735595703125,-5.114990234375
0.1545,1.291259765625,5.014892578125,-5.515380859375
0.155,2.612548828125,3.853759765625,-5.915771484375
0.1555,3.893798828125,2.652587890625,-6.276123046875
0.156,4.814697265625,1.531494140625,-6.316162109375
0.1565,5.255126953125,0.770751953125,-6.316162109375
0.157,5.255126953125,0.010009765625,-5.835693359375
0.1575,5.094970703125,-1.111083984375,-4.954833984375
0.158,5.054931640625,-2.352294921875,-3.913818359375
0.1585,4.974853515625,-3.713623046875,-2.712646484375
0.159,4.814697265625,-4.674560546875,-1.791748046875
0.1595,4.494384765625,-5.315185546875,-0.990966796875
0.16,3.733642578125,-5.595458984375,0.010009765625
0.1605,2.572509765625,-5.795654296875,1.251220703125
0.161,1.331298828125,-6.156005859375,2.732666015625
0.1615,0.290283203125,-6.356201171875,3.933837890625
0.162,-0.470458984375,-6.476318359375,4.894775390625
0.1625,-1.271240234375,-6.196044921875,5.455322265625
0.163,-2.512451171875,-5.155029296875,5.775634765625
0.1635,-3.833740234375,-3.913818359375,6.135986328125
0.164,-4.994873046875,-2.632568359375,6.336181640625
0.1645,-5.715576171875,-1.631591796875,6.336181640625
0.165,-5.915771484375,-0.910888671875,6.095947265625
0.1655,-5.755615234375,0.050048828125,5.415283203125
0.166,-5.555419921875,1.211181640625,4.334228515625
0.1665,-5.475341796875,2.532470703125,3.173095703125
0.167,-5.355224609375,3.773681640625,2.052001953125
0.1675,-5.114990234375,4.614501953125,1.131103515625
0.168,-4.554443359375,5.054931640625,0.330322265625
0.1685,-3.553466796875,5.175048828125,-0.790771484375
0.169,-2.312255859375,5.415283203125,-2.272216796875
0.1695,-1.071044921875,5.655517578125,-3.793701171875
0.17,-0.190185546875,5.895751953125,-4.834716796875
0.1705,0.610595703125,5.935791015625,-5.635498046875
0.171,1.611572265625,5.255126953125,-6.115966796875
0.1715,3.012939453125,3.973876953125,-6.356201171875
0.172,4.334228515625,2.652587890625,-6.676513671875
0.1725,5.335205078125,1.371337890625,-6.676513671875
0.173,5.815673828125,0.490478515625,-6.596435546875
0.1735,5.815673828125,-0.470458984375,-6.156005859375
0.174,5.575439453125,-1.471435546875,-5.155029296875
0.1745,5.375244140625,-2.752685546875,-3.953857421875
0.175,5.255126953125,-4.194091796875,-2.632568359375
0.1755,5.014892578125,-5.235107421875,-1.551513671875
0.176,4.614501953125,-5.915771484375,-0.670654296875
0.1765,3.853759765625,-6.236083984375,0.290283203125
0.177,2.532470703125,-6.276123046875,1.571533203125
0.1775,1.131103515625,-6.556396484375,3.173095703125
0.178,-0.190185546875,-6.596435546875,4.534423828125
0.1785,-0.950927734375,-6.676513671875,5.455322265625
0.179,-1.711669921875,-6.436279296875,6.055908203125
0.1795,-2.872802734375,-5.395263671875,6.376220703125
0.18,-4.234130859375,-3.953857421875,6.576416015625
0.1805,-5.515380859375,-2.552490234375,6.776611328125
0.181,-6.196044921875,-1.351318359375,6.656494140625
0.1815,-6.436279296875,-0.590576171875,6.416259765625
0.182,-6.276123046875,0.410400390625,5.655517578125
0.1825,-5.915771484375,1.571533203125,4.454345703125
0.183,-5.755615234375,2.892822265625,3.173095703125
0.1835,-5.515380859375,4.214111328125,1.891845703125
0.184,-5.195068359375,5.094970703125,0.890869140625
0.1845,-4.674560546875,5.495361328125,0.050048828125
0.185,-3.673583984375,5.615478515625,-1.031005859375
0.1855,-2.272216796875,5.695556640625,-2.472412109375
0.186,-0.910888671875,5.975830078125,-4.033935546875
0.1865,0.290283203125,6.015869140625,-5.155029296875
0.187,0.970947265625,6.095947265625,-5.995849609375
0.1875,1.851806640625,5.535400390625,-6.476318359375
0.188,3.133056640625,4.214111328125,-6.716552734375
