wavelength,x,y,z
0.0,-1.041015625,-2.482421875,3.443359375
0.0005,-0.3203125,-2.962890625,3.1630859375
0.001,0.400390625,-3.5634765625,3.04296875
0.0015,1.2412109375,-3.8037109375,2.40234375
0.002,1.76171875,-3.923828125,2.2021484375
0.0025,2.2822265625,-3.9638671875,1.6416015625
0.003,2.6025390625,-3.5634765625,1.0009765625
0.0035,3.123046875,-3.5234375,0.4404296875
0.004,3.36328125,-2.8427734375,-0.48046875
0.0045,3.6435546875,-2.40234375,-1.1611328125
0.005,3.7236328125,-1.8017578125,-1.841796875
0.0055,3.68359375,-1.2412109375,-2.3623046875
0.006,3.36328125,-0.48046875,-2.802734375
0.0065,3.3232421875,0.1201171875,-3.4033203125
0.007,2.6826171875,1.0810546875,-3.7236328125
0.0075,2.3623046875,1.681640625,-3.9638671875
0.008,1.5615234375,2.3623046875,-3.923828125
0.0085,0.7607421875,2.802734375,-3.603515625
0.009,0.0400390625,3.283203125,-3.4033203125
0.0095,-0.80078125,3.68359375,-3.0029296875
0.01,-1.6015625,3.9638671875,-2.4423828125
0.0105,-2.08203125,4.00390625,-2.001953125
0.011,-2.6025390625,3.9638671875,-1.44140625
0.0115,-2.8828125,3.4833984375,-0.720703125
0.012,-3.4833984375,3.36328125,-0.080078125
0.0125,-3.603515625,2.40234375,0.9609375
0.013,-3.84375,2.0419921875,1.6015625
0.0135,-3.8037109375,1.28125,2.2822265625
0.014,-3.5634765625,0.6005859375,2.72265625
0.0145,-3.203125,-0.1201171875,3.1630859375
0.015,-2.9228515625,-0.9208984375,3.6435546875
0.0155,-2.2421875,-1.8017578125,3.8837890625
0.016,-1.7216796875,-2.322265625,3.923828125
0.0165,-0.9208984375,-3.0830078125,3.8037109375
0.017,-0.0400390625,-3.4033203125,3.36328125
0.0175,0.6005859375,-3.923828125,3.1630859375
0.018,1.6416015625,-4.1640625,2.482421875
0.0185,2.2822265625,-4.3642578125,2.0419921875
0.019,2.72265625,-4.1640625,1.44140625
0.0195,3.203125,-4.00390625,0.8408203125
0.02,3.443359375,-3.443359375,0.080078125
0.0205,3.8837890625,-3.203125,-0.6005859375
0.021,3.9638671875,-2.2021484375,-1.6416015625
0.0215,4.083984375,-1.8017578125,-2.2021484375
0.022,3.923828125,-1.0009765625,-2.8427734375
0.0225,3.603515625,-0.240234375,-3.283203125
0.023,3.3232421875,0.48046875,-3.7236328125
0.0235,2.8427734375,1.3212890625,-4.1240234375
0.024,2.2021484375,2.162109375,-4.32421875
0.0245,1.521484375,2.5625,-4.1640625
0.025,0.720703125,3.203125,-4.00390625
0.0255,-0.16015625,3.5234375,-3.443359375
0.026,-0.8408203125,4.083984375,-3.2431640625
0.0265,-1.921875,4.1640625,-2.3623046875
0.027,-2.4423828125,4.2841796875,-1.9619140625
0.0275,-2.8828125,4.0439453125,-1.3212890625
0.028,-3.2431640625,3.8037109375,-0.6806640625
0.0285,-3.5234375,3.2431640625,0.0
0.029,-3.8837890625,2.8427734375,0.8408203125
0.0295,-4.00390625,1.921875,1.841796875
0.03,-3.9638671875,1.44140625,2.2822265625
0.0305,-3.8037109375,0.640625,2.8828125
0.031,-3.36328125,-0.080078125,3.2431640625
0.0315,-3.1630859375,-0.80078125,3.763671875
0.032,-2.4423828125,-1.7216796875,3.9638671875
0.0325,-1.921875,-2.4423828125,4.1240234375
0.033,-1.0810546875,-2.8828125,3.84375
0.0335,-0.3203125,-3.5234375,3.68359375
0.034,0.48046875,-3.7236328125,3.1630859375
0.0345,1.201171875,-4.2041015625,2.962890625
0.035,2.2021484375,-4.32421875,2.1220703125
0.0355,2.5625,-4.32421875,1.76171875
0.036,3.0830078125,-4.083984375,1.0810546875
0.0365,3.36328125,-3.7236328125,0.4404296875
0.037,3.763671875,-3.3232421875,-0.3203125
0.0375,3.9638671875,-2.642578125,-1.1611328125
0.038,4.1240234375,-1.9619140625,-2.001953125
0.0385,3.9638671875,-1.4013671875,-2.4423828125
0.039,3.84375,-0.640625,-3.0830078125
0.0395,3.36328125,0.1201171875,-3.4033203125
0.04,3.2431640625,0.80078125,-3.923828125
0.0405,2.482421875,1.7216796875,-4.1640625
0.041,2.0419921875,2.2822265625,-4.2841796875
0.0415,1.12109375,2.7626953125,-3.9638671875
0.042,0.3603515625,3.3232421875,-3.7236328125
0.0425,-0.48046875,3.68359375,-3.2431640625
0.043,-1.201171875,4.0439453125,-2.8828125
0.0435,-2.08203125,4.1640625,-2.2421875
0.044,-2.40234375,4.083984375,-1.8017578125
0.0445,-2.9228515625,3.8837890625,-1.12109375
0.045,-3.203125,3.443359375,-0.400390625
0.0455,-3.6435546875,3.1630859375,0.2802734375
0.046,-3.8037109375,2.322265625,1.2412109375
0.0465,-4.00390625,1.841796875,1.921875
0.047,-3.7236328125,1.12109375,2.40234375
0.0475,-3.603515625,0.48046875,2.962890625
0.048,-3.1630859375,-0.3603515625,3.3232421875
0.0485,-2.9228515625,-1.041015625,3.8037109375
0.049,-2.162109375,-2.001953125,3.9638671875
0.0495,-1.6416015625,-2.5224609375,3.923828125
0.05,-0.720703125,-3.0830078125,3.7236328125
0.0505,0.0,-3.5634765625,3.4033203125
0.051,0.7607421875,-3.923828125,3.123046875
0.0515,1.6015625,-4.2041015625,2.5224609375
0.052,2.40234375,-4.404296875,2.001953125
0.0525,2.642578125,-4.083984375,1.44140625
0.053,3.203125,-4.00390625,0.8408203125
0.0535,3.4833984375,-3.4033203125,0.0
0.054,3.8837890625,-3.123046875,-0.6806640625
0.0545,4.00390625,-2.2421875,-1.681640625
0.055,4.1240234375,-1.76171875,-2.2822265625
0.0555,3.84375,-0.9208984375,-2.802734375
0.056,3.68359375,-0.2802734375,-3.3232421875
0.0565,3.283203125,0.560546875,-3.7236328125
0.057,2.8828125,1.28125,-4.1240234375
0.0575,2.2021484375,2.162109375,-4.3642578125
0.058,1.44140625,2.6025390625,-4.0439453125
0.0585,0.6005859375,3.2431640625,-3.8837890625
0.059,-0.240234375,3.6435546875,-3.4033203125
0.0595,-1.0009765625,4.0439453125,-3.0830078125
0.06,-1.8818359375,4.2041015625,-2.40234375
0.0605,-2.5625,4.32421875,-1.921875
0.061,-2.8427734375,3.84375,-1.201171875
0.0615,-3.36328125,3.84375,-0.640625
0.062,-3.5634765625,3.1630859375,0.240234375
0.0625,-3.923828125,2.7626953125,0.9609375
0.063,-4.0439453125,1.841796875,1.9619140625
0.0635,-3.9638671875,1.28125,2.482421875
0.064,-3.603515625,0.4404296875,3.0029296875
0.0645,-3.4033203125,-0.240234375,3.443359375
0.065,-2.962890625,-1.041015625,3.8037109375
0.0655,-2.40234375,-1.8818359375,4.00390625
0.066,-1.76171875,-2.642578125,4.2041015625
0.0665,-0.8408203125,-3.0029296875,3.763671875
0.067,-0.1201171875,-3.68359375,3.7236328125
0.0675,0.7607421875,-3.923828125,3.123046875
0.068,1.44140625,-4.32421875,2.802734375
0.0685,2.40234375,-4.4443359375,2.0419921875
0.069,2.9228515625,-4.404296875,1.5615234375
0.0695,3.203125,-3.923828125,0.7607421875
0.07,3.68359375,-3.8037109375,0.16015625
0.0705,3.8837890625,-3.0830078125,-0.6806640625
0.071,4.1240234375,-2.6025390625,-1.44140625
0.0715,4.2841796875,-1.76171875,-2.4423828125
0.072,4.00390625,-1.0810546875,-2.8427734375
0.0725,3.8037109375,-0.3203125,-3.443359375
0.073,3.443359375,0.4404296875,-3.8037109375
0.0735,3.0029296875,1.201171875,-4.2041015625
0.074,2.322265625,2.08203125,-4.3642578125
0.0745,1.6416015625,2.802734375,-4.4443359375
0.075,0.6806640625,3.1630859375,-3.84375
0.0755,0.0,3.763671875,-3.8037109375
0.076,-0.9609375,4.00390625,-3.0830078125
0.0765,-1.6015625,4.244140625,-2.72265625
0.077,-2.5224609375,4.3642578125,-2.001953125
0.0775,-2.8828125,4.1240234375,-1.361328125
0.078,-3.2431640625,3.8037109375,-0.6806640625
0.0785,-3.603515625,3.443359375,0.0
0.079,-3.84375,2.802734375,0.8408203125
0.0795,-4.00390625,2.2021484375,1.5615234375
0.08,-4.1240234375,1.44140625,2.4423828125
0.0805,-3.6435546875,0.6806640625,2.72265625
0.081,-3.5634765625,0.0400390625,3.3232421875
0.0815,-3.04296875,-0.80078125,3.5634765625
0.082,-2.642578125,-1.4814453125,3.9638671875
0.0825,-1.9619140625,-2.2822265625,4.083984375
0.083,-1.28125,-2.8427734375,3.9638671875
0.0835,-0.3603515625,-3.2431640625,3.5234375
0.084,0.2802734375,-3.8037109375,3.443359375
0.0845,1.12109375,-4.00390625,2.802734375
0.085,1.76171875,-4.244140625,2.482421875
0.0855,2.5625,-4.3642578125,1.841796875
0.086,2.8427734375,-4.00390625,1.2412109375
0.0865,3.3232421875,-3.84375,0.6005859375
0.087,3.5634765625,-3.283203125,-0.16015625
0.0875,3.84375,-2.8427734375,-0.9208984375
0.088,3.9638671875,-2.162109375,-1.681640625
0.0885,4.083984375,-1.6015625,-2.4423828125
0.089,3.6435546875,-0.8408203125,-2.7626953125
0.0895,3.68359375,-0.2802734375,-3.4033203125
0.09,3.123046875,0.640625,-3.7236328125
0.0905,2.802734375,1.3212890625,-4.083984375
0.091,2.162109375,2.162109375,-4.2041015625
0.0915,1.361328125,2.5625,-3.923828125
0.092,0.560546875,3.123046875,-3.7236328125
0.0925,-0.2001953125,3.603515625,-3.4033203125
0.093,-1.0009765625,3.8837890625,-2.9228515625
0.0935,-1.681640625,4.083984375,-2.5224609375
0.094,-2.322265625,4.1640625,-1.9619140625
0.0945,-2.6025390625,3.763671875,-1.28125
0.095,-3.203125,3.763671875,-0.720703125
0.0955,-3.4033203125,3.04296875,0.16015625
0.096,-3.763671875,2.6826171875,0.9208984375
0.0965,-3.8837890625,1.921875,1.76171875
0.097,-3.84375,1.3212890625,2.2421875
0.0975,-3.443359375,0.48046875,2.6826171875
0.098,-3.36328125,-0.080078125,3.2431640625
0.0985,-2.802734375,-0.9609375,3.5634765625
0.099,-2.40234375,-1.6015625,3.8837890625
0.0995,-1.681640625,-2.40234375,3.9638671875
0.1,-0.880859375,-2.802734375,3.5634765625
0.1005,-0.2001953125,-3.36328125,3.5234375
0.101,0.640625,-3.763671875,3.04296875
0.1015,1.361328125,-4.0439453125,2.6025390625
0.102,2.0419921875,-4.1640625,2.162109375
0.1025,2.5224609375,-4.1640625,1.6015625
0.103,2.8427734375,-3.7236328125,0.9208984375
0.1035,3.3232421875,-3.68359375,0.3603515625
0.104,3.5234375,-2.8828125,-0.560546875
0.1045,3.84375,-2.6025390625,-1.201171875
0.105,3.923828125,-1.841796875,-2.001953125
0.1055,3.7236328125,-1.2412109375,-2.4423828125
0.106,3.5234375,-0.48046875,-2.962890625
0.1065,3.3232421875,0.2001953125,-3.4833984375
0.107,2.8427734375,1.0009765625,-3.8037109375
0.1075,2.40234375,1.6416015625,-4.00390625
0.108,1.76171875,2.322265625,-4.0439453125
0.1085,0.880859375,2.6826171875,-3.5634765625
0.109,0.240234375,3.3232421875,-3.5634765625
0.1095,-0.6806640625,3.6435546875,-2.962890625
0.11,-1.28125,3.8837890625,-2.72265625
0.1105,-1.9619140625,3.9638671875,-2.1220703125
0.111,-2.322265625,3.84375,-1.6416015625
0.1115,-2.72265625,3.5234375,-1.0009765625
0.112,-3.203125,3.3232421875,-0.3603515625
0.1125,-3.36328125,2.642578125,0.5205078125
0.113,-3.68359375,2.2822265625,1.12109375
0.1135,-3.7236328125,1.5615234375,1.8818359375
0.114,-3.36328125,0.9609375,2.2421875
0.1145,-3.36328125,0.3203125,2.8828125
0.115,-2.9228515625,-0.48046875,3.203125
0.1155,-2.6025390625,-1.1611328125,3.5634765625
0.116,-2.001953125,-1.8017578125,3.68359375
0.1165,-1.44140625,-2.322265625,3.6435546875
0.117,-0.6005859375,-2.7626953125,3.283203125
0.1175,0.0,-3.36328125,3.3232421875
0.118,0.880859375,-3.6435546875,2.6826171875
0.1185,1.4013671875,-3.923828125,2.5224609375
0.119,2.001953125,-4.00390625,1.9619140625
0.1195,2.2822265625,-3.7236328125,1.44140625
0.12,2.8427734375,-3.603515625,0.8408203125
0.1205,3.1630859375,-3.2431640625,0.080078125
0.121,3.4833984375,-2.7626953125,-0.640625
0.1215,3.68359375,-2.322265625,-1.3212890625
0.122,3.7236328125,-1.7216796875,-1.921875
0.1225,3.443359375,-1.0009765625,-2.322265625
0.123,3.5234375,-0.400390625,-3.04296875
0.1235,3.04296875,0.4404296875,-3.36328125
0.124,2.7626953125,1.0810546875,-3.763671875
0.1245,2.162109375,1.76171875,-3.84375
0.125,1.44140625,2.2421875,-3.68359375
0.1255,0.640625,2.802734375,-3.4833984375
0.126,-0.0400390625,3.3232421875,-3.283203125
0.1265,-0.80078125,3.5634765625,-2.802734375
0.127,-1.361328125,3.84375,-2.5625
0.1275,-1.9619140625,3.8837890625,-2.0419921875
0.128,-2.2421875,3.5234375,-1.4013671875
0.1285,-2.8427734375,3.5234375,-0.880859375
0.129,-3.123046875,2.8427734375,0.0
0.1295,-3.4833984375,2.5224609375,0.640625
0.13,-3.5634765625,1.921875,1.4013671875
0.1305,-3.5234375,1.4013671875,1.921875
0.131,-3.203125,0.6806640625,2.40234375
0.1315,-3.203125,0.0400390625,2.962890625
0.132,-2.642578125,-0.80078125,3.283203125
0.1325,-2.3623046875,-1.4013671875,3.5634765625
0.133,-1.681640625,-2.0419921875,3.5634765625
0.1335,-0.9208984375,-2.482421875,3.3232421875
0.134,-0.2802734375,-3.0830078125,3.2431640625
0.1345,0.48046875,-3.4833984375,2.8427734375
0.135,1.12109375,-3.763671875,2.5224609375
0.1355,1.6416015625,-3.84375,2.2021484375
0.136,2.08203125,-3.84375,1.76171875
0.1365,2.40234375,-3.4833984375,1.12109375
0.137,2.962890625,-3.5234375,0.560546875
0.1375,3.123046875,-2.7626953125,-0.3203125
0.138,3.5234375,-2.5625,-0.880859375
0.1385,3.5634765625,-1.8818359375,-1.5615234375
0.139,3.443359375,-1.361328125,-1.9619140625
0.1395,3.3232421875,-0.6806640625,-2.5625
0.14,3.1630859375,0.0,-3.0830078125
0.1405,2.802734375,0.6806640625,-3.443359375
0.141,2.4423828125,1.2412109375,-3.6435546875
0.1415,1.841796875,1.841796875,-3.6435546875
0.142,1.041015625,2.2822265625,-3.36328125
0.1425,0.48046875,2.962890625,-3.4033203125
0.143,-0.3603515625,3.203125,-2.8828125
0.1435,-0.8408203125,3.603515625,-2.7626953125
0.144,-1.4013671875,3.68359375,-2.322265625
0.1445,-1.76171875,3.5634765625,-1.9619140625
0.145,-2.2421875,3.36328125,-1.28125
0.1455,-2.7626953125,3.203125,-0.640625
0.146,-3.0029296875,2.6826171875,0.16015625
0.1465,-3.36328125,2.40234375,0.720703125
0.147,-3.4033203125,1.841796875,1.361328125
0.1475,-3.203125,1.2412109375,1.8017578125
0.148,-3.2431640625,0.6005859375,2.5224609375
0.1485,-2.8828125,-0.2001953125,2.8828125
0.149,-2.642578125,-0.80078125,3.283203125
0.1495,-2.1220703125,-1.44140625,3.4033203125
0.15,-1.5615234375,-1.9619140625,3.36328125
0.1505,-0.80078125,-2.482421875,3.1630859375
0.151,-0.2001953125,-3.123046875,3.203125
0.1515,0.6005859375,-3.36328125,2.6826171875
0.152,1.0810546875,-3.7236328125,2.5625
0.1525,1.6015625,-3.8037109375,2.08203125
0.153,1.921875,-3.6435546875,1.6015625
0.1535,2.5224609375,-3.5634765625,0.9609375
0.154,2.8828125,-3.0830078125,0.240234375
0.1545,3.203125,-2.72265625,-0.400390625
0.155,3.4033203125,-2.2822265625,-1.041015625
0.1555,3.4833984375,-1.8017578125,-1.6015625
0.156,3.283203125,-1.12109375,-2.08203125
0.1565,3.36328125,-0.5205078125,-2.7626953125
0.157,2.9228515625,0.2802734375,-3.123046875
0.1575,2.72265625,0.880859375,-3.4833984375
0.158,2.08203125,1.44140625,-3.5634765625
0.1585,1.44140625,1.9619140625,-3.36328125
0.159,0.7607421875,2.5224609375,-3.283203125
0.1595,0.0400390625,3.04296875,-3.123046875
0.16,-0.6005859375,3.3232421875,-2.7626953125
0.1605,-1.041015625,3.5234375,-2.5625
0.161,-1.521484375,3.5234375,-2.1220703125
0.1615,-1.921875,3.283203125,-1.6015625
0.162,-2.5224609375,3.3232421875,-1.0009765625
0.1625,-2.72265625,2.72265625,-0.16015625
0.163,-3.1630859375,2.5625,0.400390625
0.1635,-3.203125,1.9619140625,1.041015625
0.164,-3.203125,1.5615234375,1.44140625
0.1645,-3.0830078125,0.880859375,2.0419921875
0.165,-3.0830078125,0.2802734375,2.6025390625
0.1655,-2.642578125,-0.48046875,3.0029296875
0.166,-2.40234375,-1.0009765625,3.283203125
0.1665,-1.841796875,-1.6416015625,3.3232421875
0.167,-1.1611328125,-2.1220703125,3.1630859375
0.1675,-0.5205078125,-2.7626953125,3.203125
0.168,0.240234375,-3.1630859375,2.8427734375
0.1685,0.80078125,-3.5634765625,2.6826171875
0.169,1.28125,-3.68359375,2.3623046875
0.1695,1.6416015625,-3.7236328125,1.921875
0.17,2.08203125,-3.4033203125,1.28125
0.1705,2.6826171875,-3.36328125,0.6806640625
0.171,2.9228515625,-2.7626953125,-0.080078125
0.1715,3.3232421875,-2.6025390625,-0.640625
0.172,3.4033203125,-2.001953125,-1.3212890625
0.1725,3.36328125,-1.521484375,-1.8017578125
0.173,3.3232421875,-0.80078125,-2.482421875
0.1735,3.123046875,-0.0400390625,-2.962890625
0.174,2.8427734375,0.6005859375,-3.36328125
0.1745,2.40234375,1.201171875,-3.5234375
0.175,1.76171875,1.8017578125,-3.5234375
0.1755,1.0009765625,2.2822265625,-3.283203125
0.176,0.3603515625,2.962890625,-3.36328125
0.1765,-0.400390625,3.1630859375,-2.8427734375
0.177,-0.9208984375,3.5234375,-2.72265625
0.1775,-1.44140625,3.5234375,-2.2822265625
0.178,-1.8017578125,3.4833984375,-1.8017578125
0.1785,-2.322265625,3.283203125,-1.12109375
0.179,-2.7626953125,2.962890625,-0.3603515625
0.1795,-3.0830078125,2.482421875,0.3603515625
0.18,-3.283203125,2.162109375,0.9609375
0.1805,-3.283203125,1.5615234375,1.521484375
0.181,-3.0830078125,0.9208984375,1.9619140625
0.1815,-3.123046875,0.2802734375,2.6025390625
0.182,-2.642578125,-0.5205078125,2.9228515625
0.1825,-2.40234375,-1.0810546875,3.3232421875
0.183,-1.8017578125,-1.6416015625,3.283203125
0.1835,-1.201171875,-2.162109375,3.203125
0.184,-0.48046875,-2.642578125,3.04296875
0.1845,0.1201171875,-3.203125,2.962890625
0.185,0.9208984375,-3.4833984375,2.482421875
0.1855,1.28125,-3.7236328125,2.2822265625
0.186,1.8017578125,-3.6435546875,1.841796875
0.1865,2.1220703125,-3.4033203125,1.3212890625
0.187,2.6826171875,-3.283203125,0.640625
0.1875,2.9228515625,-2.7626953125,-0.080078125
0.188,3.283203125,-2.482421875,-0.720703125
0.1885,3.3232421875,-2.001953125,-1.28125
0.189,3.36328125,-1.521484375,-1.8017578125
0.1895,3.203125,-0.80078125,-2.2822265625
0.19,3.203125,-0.2001953125,-2.9228515625
0.1905,2.7626953125,0.560546875,-3.2431640625
0.191,2.5224609375,1.12109375,-3.5634765625
0.1915,1.841796875,1.681640625,-3.4833984375
0.192,1.12109375,2.2021484375,-3.3232421875
0.1925,0.48046875,2.72265625,-3.2431640625
0.193,-0.240234375,3.123046875,-2.9228515625
0.1935,-0.8408203125,3.443359375,-2.6826171875
0.194,-1.28125,3.5234375,-2.3623046875
0.1945,-1.76171875,3.5234375,-1.921875
0.195,-2.1220703125,3.2431640625,-1.28125
0.1955,-2.72265625,3.2431640625,-0.640625
0.196,-2.8828125,2.5625,0.16015625
0.1965,-3.283203125,2.3623046875,0.720703125
0.197,-3.2431640625,1.76171875,1.28125
0.1975,-3.203125,1.28125,1.76171875
0.198,-3.0830078125,0.5205078125,2.3623046875
0.1985,-2.8828125,-0.16015625,2.8427734375
0.199,-2.5224609375,-0.8408203125,3.203125
0.1995,-2.08203125,-1.361328125,3.3232421875
0.2,-1.44140625,-1.9619140625,3.3232421875
0.2005,-0.720703125,-2.5224609375,3.123046875
0.201,-0.16015625,-3.123046875,3.1630859375
0.2015,0.640625,-3.4033203125,2.6025390625
0.202,1.201171875,-3.7236328125,2.482421875
0.2025,1.6015625,-3.68359375,2.0419921875
0.203,2.0419921875,-3.6435546875,1.5615234375
0.2035,2.482421875,-3.283203125,0.880859375
0.204,2.962890625,-3.1630859375,0.240234375
0.2045,3.1630859375,-2.5224609375,-0.6005859375
0.205,3.4833984375,-2.2822265625,-1.12109375
0.2055,3.443359375,-1.6015625,-1.76171875
0.206,3.36328125,-1.041015625,-2.2421875
0.2065,3.283203125,-0.3203125,-2.8828125
0.207,2.9228515625,0.4404296875,-3.283203125
0.2075,2.6025390625,1.12109375,-3.68359375
0.208,1.921875,1.6416015625,-3.603515625
0.2085,1.28125,2.2421875,-3.5634765625
0.209,0.48046875,2.6826171875,-3.2431640625
0.2095,-0.16015625,3.2431640625,-3.203125
0.21,-1.0009765625,3.5634765625,-2.5625
0.2105,-1.4814453125,3.763671875,-2.3623046875
0.211,-1.9619140625,3.6435546875,-1.8017578125
0.2115,-2.3623046875,3.4833984375,-1.28125
0.212,-2.8427734375,3.1630859375,-0.5205078125
0.2125,-3.1630859375,2.72265625,0.240234375
0.213,-3.443359375,2.2021484375,1.0810546875
0.2135,-3.4833984375,1.7216796875,1.5615234375
0.214,-3.36328125,1.041015625,2.162109375
0.2145,-3.0830078125,0.3203125,2.5625
0.215,-2.962890625,-0.3203125,3.123046875
0.2155,-2.3623046875,-1.201171875,3.4033203125
0.216,-1.9619140625,-1.8017578125,3.6435546875
0.2165,-1.2412109375,-2.322265625,3.4033203125
0.217,-0.6005859375,-2.8828125,3.3232421875
0.2175,0.16015625,-3.283203125,2.962890625
0.218,0.880859375,-3.7236328125,2.72265625
0.2185,1.7216796875,-3.8837890625,2.162109375
0.219,2.0419921875,-3.8837890625,1.841796875
0.2195,2.5625,-3.8037109375,1.2412109375
0.22,2.8828125,-3.4033203125,0.6005859375
0.2205,3.3232421875,-3.1630859375,-0.080078125
0.221,3.5234375,-2.482421875,-1.0009765625
0.2215,3.763671875,-2.001953125,-1.681640625
0.222,3.5634765625,-1.361328125,-2.162109375
0.2225,3.5634765625,-0.720703125,-2.72265625
0.223,3.203125,0.0,-3.1630859375
0.2235,3.04296875,0.6806640625,-3.68359375
0.224,2.40234375,1.5615234375,-3.923828125
0.2245,1.8818359375,2.08203125,-3.9638671875
0.225,1.041015625,2.642578125,-3.7236328125
0.2255,0.2802734375,3.123046875,-3.5634765625
0.226,-0.5205078125,3.603515625,-3.1630859375
0.2265,-1.28125,3.84375,-2.642578125
0.227,-2.08203125,4.1240234375,-2.1220703125
0.2275,-2.40234375,3.84375,-1.5615234375
0.228,-2.9228515625,3.763671875,-1.0009765625
0.2285,-3.203125,3.283203125,-0.240234375
0.229,-3.603515625,2.9228515625,0.48046875
