wavelength,x,y,z
0.0,-4.114013671875,3.012939453125,0.690673828125
0.0005,-4.234130859375,2.052001953125,1.651611328125
0.001,-4.354248046875,1.651611328125,2.212158203125
0.0015,-4.194091796875,0.730712890625,2.892822265625
0.002,-3.873779296875,0.090087890625,3.253173828125
0.0025,-3.433349609375,-0.790771484375,3.653564453125
0.003,-2.952880859375,-1.471435546875,3.893798828125
0.0035,-2.312255859375,-2.512451171875,4.214111328125
0.004,-1.711669921875,-2.912841796875,3.973876953125
0.0045,-1.071044921875,-3.673583984375,4.093994140625
0.005,-0.270263671875,-3.833740234375,3.453369140625
0.0055,0.450439453125,-4.314208984375,3.213134765625
0.006,1.571533203125,-4.514404296875,2.292236328125
0.0065,2.252197265625,-4.714599609375,1.851806640625
0.007,2.812744140625,-4.434326171875,1.051025390625
0.0075,3.213134765625,-4.394287109375,0.610595703125
0.008,3.453369140625,-3.793701171875,-0.230224609375
0.0085,3.693603515625,-3.473388671875,-0.830810546875
0.009,3.973876953125,-2.712646484375,-1.871826171875
0.0095,3.853759765625,-2.031982421875,-2.432373046875
0.01,3.813720703125,-1.151123046875,-3.153076171875
0.0105,3.173095703125,-0.310302734375,-3.353271484375
0.011,2.892822265625,0.450439453125,-3.753662109375
0.0115,2.212158203125,1.331298828125,-3.913818359375
0.012,1.651611328125,2.172119140625,-4.194091796875
0.0125,0.890869140625,2.572509765625,-3.833740234375
0.013,0.410400390625,3.173095703125,-3.913818359375
0.0135,-0.470458984375,3.293212890625,-3.193115234375
0.014,-1.151123046875,3.693603515625,-2.872802734375
0.0145,-2.272216796875,3.853759765625,-1.951904296875
0.015,-2.832763671875,3.893798828125,-1.471435546875
0.0155,-3.353271484375,3.693603515625,-0.750732421875
0.016,-3.553466796875,3.413330078125,-0.310302734375
0.0165,-3.753662109375,2.892822265625,0.370361328125
0.017,-3.913818359375,2.372314453125,1.051025390625
0.0175,-4.234130859375,1.811767578125,1.931884765625
0.018,-3.953857421875,1.131103515625,2.412353515625
0.0185,-4.033935546875,0.490478515625,3.052978515625
0.019,-3.313232421875,-0.430419921875,3.213134765625
0.0195,-3.193115234375,-0.990966796875,3.693603515625
0.02,-2.432373046875,-1.991943359375,3.853759765625
0.0205,-1.991943359375,-2.592529296875,3.973876953125
0.021,-1.231201171875,-3.153076171875,3.773681640625
0.0215,-0.710693359375,-3.593505859375,3.693603515625
0.022,0.130126953125,-3.833740234375,3.052978515625
0.0225,0.930908203125,-4.194091796875,2.692626953125
0.023,1.971923828125,-4.514404296875,1.931884765625
0.0235,2.412353515625,-4.354248046875,1.371337890625
0.024,3.012939453125,-4.394287109375,0.770751953125
0.0245,3.173095703125,-3.913818359375,0.170166015625
0.025,3.493408203125,-3.593505859375,-0.510498046875
0.0255,3.653564453125,-2.912841796875,-1.351318359375
0.026,3.973876953125,-2.352294921875,-2.152099609375
0.0265,3.573486328125,-1.431396484375,-2.632568359375
0.027,3.573486328125,-0.830810546875,-3.233154296875
0.0275,2.812744140625,0.170166015625,-3.433349609375
0.028,2.612548828125,0.810791015625,-3.833740234375
0.0285,1.851806640625,1.891845703125,-4.114013671875
0.029,1.251220703125,2.412353515625,-3.993896484375
0.0295,0.570556640625,2.932861328125,-3.873779296875
0.03,-0.110107421875,3.253173828125,-3.553466796875
0.0305,-0.950927734375,3.533447265625,-2.952880859375
0.031,-1.791748046875,3.813720703125,-2.352294921875
0.0315,-2.792724609375,4.053955078125,-1.631591796875
0.032,-3.153076171875,3.653564453125,-0.910888671875
0.0325,-3.633544921875,3.693603515625,-0.510498046875
0.033,-3.713623046875,2.972900390625,0.250244140625
0.0335,-3.993896484375,2.692626953125,0.810791015625
0.034,-4.154052734375,1.931884765625,1.771728515625
0.0345,-4.194091796875,1.371337890625,2.412353515625
0.035,-3.833740234375,0.450439453125,2.892822265625
0.0355,-3.753662109375,-0.150146484375,3.333251953125
0.036,-3.072998046875,-0.990966796875,3.493408203125
0.0365,-2.712646484375,-1.711669921875,3.853759765625
0.037,-1.951904296875,-2.712646484375,4.053955078125
0.0375,-1.271240234375,-3.113037109375,3.773681640625
0.038,-0.790771484375,-3.673583984375,3.813720703125
0.0385,0.050048828125,-3.873779296875,3.173095703125
0.039,0.810791015625,-4.194091796875,2.772705078125
0.0395,1.771728515625,-4.434326171875,2.052001953125
0.04,2.572509765625,-4.594482421875,1.411376953125
0.0405,2.932861328125,-4.194091796875,0.690673828125
0.041,3.333251953125,-4.274169921875,0.290283203125
0.0415,3.453369140625,-3.513427734375,-0.590576171875
0.042,3.733642578125,-3.113037109375,-1.151123046875
0.0425,3.933837890625,-2.272216796875,-2.192138671875
0.043,3.813720703125,-1.551513671875,-2.712646484375
0.0435,3.533447265625,-0.710693359375,-3.273193359375
0.044,3.133056640625,0.050048828125,-3.553466796875
0.0445,2.532470703125,0.890869140625,-3.833740234375
0.045,2.011962890625,1.691650390625,-4.114013671875
0.0455,1.291259765625,2.612548828125,-4.314208984375
0.046,0.490478515625,3.012939453125,-3.833740234375
0.0465,0.010009765625,3.533447265625,-3.873779296875
0.047,-1.031005859375,3.693603515625,-2.992919921875
0.0475,-1.791748046875,3.973876953125,-2.552490234375
0.048,-2.832763671875,4.134033203125,-1.671630859375
0.0485,-3.473388671875,4.093994140625,-0.990966796875
0.049,-3.793701171875,3.613525390625,-0.310302734375
0.0495,-4.073974609375,3.453369140625,0.170166015625
0.05,-4.154052734375,2.612548828125,1.131103515625
0.0505,-4.354248046875,2.172119140625,1.731689453125
0.051,-4.554443359375,1.291259765625,2.732666015625
0.0515,-4.114013671875,0.450439453125,3.173095703125
0.052,-3.913818359375,-0.310302734375,3.693603515625
0.0525,-3.233154296875,-1.151123046875,3.853759765625
0.053,-2.672607421875,-1.991943359375,4.053955078125
0.0535,-1.951904296875,-2.832763671875,4.134033203125
0.054,-1.231201171875,-3.593505859375,4.214111328125
0.0545,-0.470458984375,-3.833740234375,3.693603515625
0.055,0.090087890625,-4.354248046875,3.653564453125
0.0555,1.291259765625,-4.434326171875,2.572509765625
0.056,1.931884765625,-4.634521484375,2.172119140625
0.0565,2.892822265625,-4.794677734375,1.251220703125
0.057,3.373291015625,-4.514404296875,0.610595703125
0.0575,3.653564453125,-4.194091796875,0.010009765625
0.058,3.853759765625,-3.753662109375,-0.630615234375
0.0585,3.973876953125,-2.952880859375,-1.591552734375
0.059,4.013916015625,-2.352294921875,-2.192138671875
0.0595,4.214111328125,-1.591552734375,-3.153076171875
0.06,3.573486328125,-0.590576171875,-3.513427734375
0.0605,3.453369140625,0.130126953125,-3.993896484375
0.061,2.532470703125,1.171142578125,-4.114013671875
0.0615,2.052001953125,1.931884765625,-4.354248046875
0.062,1.251220703125,2.772705078125,-4.354248046875
0.0625,0.490478515625,3.493408203125,-4.314208984375
0.063,-0.310302734375,3.693603515625,-3.753662109375
0.0635,-0.990966796875,4.134033203125,-3.553466796875
0.064,-2.232177734375,4.214111328125,-2.392333984375
0.0645,-2.832763671875,4.334228515625,-1.951904296875
0.065,-3.833740234375,4.374267578125,-0.990966796875
0.0655,-4.154052734375,3.893798828125,-0.270263671875
0.066,-4.434326171875,3.653564453125,0.370361328125
0.0665,-4.554443359375,2.932861328125,1.211181640625
0.067,-4.754638671875,2.212158203125,2.132080078125
0.0675,-4.634521484375,1.411376953125,2.812744140625
0.068,-4.754638671875,0.610595703125,3.693603515625
0.0685,-3.913818359375,-0.510498046875,3.893798828125
0.069,-3.833740234375,-1.151123046875,4.334228515625
0.0695,-2.632568359375,-2.392333984375,4.414306640625
0.07,-2.152099609375,-3.072998046875,4.614501953125
0.0705,-1.151123046875,-3.873779296875,4.414306640625
0.071,-0.350341796875,-4.514404296875,4.214111328125
0.0715,0.370361328125,-4.594482421875,3.573486328125
0.072,1.251220703125,-4.994873046875,3.133056640625
0.0725,2.532470703125,-5.114990234375,1.931884765625
0.073,3.093017578125,-5.074951171875,1.331298828125
0.0735,3.973876953125,-5.074951171875,0.450439453125
0.074,4.134033203125,-4.354248046875,-0.310302734375
0.0745,4.334228515625,-3.993896484375,-0.870849609375
0.075,4.414306640625,-3.072998046875,-1.871826171875
0.0755,4.534423828125,-2.352294921875,-2.712646484375
0.076,4.254150390625,-1.431396484375,-3.353271484375
0.0765,4.254150390625,-0.590576171875,-4.114013671875
0.077,3.253173828125,0.490478515625,-4.194091796875
0.0775,3.052978515625,1.131103515625,-4.594482421875
0.078,1.811767578125,2.452392578125,-4.634521484375
0.0785,1.291259765625,3.052978515625,-4.714599609375
0.079,0.330322265625,3.813720703125,-4.434326171875
0.0795,-0.470458984375,4.214111328125,-4.114013671875
0.08,-1.231201171875,4.374267578125,-3.513427734375
0.0805,-2.152099609375,4.614501953125,-2.832763671875
0.081,-3.353271484375,4.734619140625,-1.791748046875
0.0815,-3.873779296875,4.454345703125,-1.031005859375
0.082,-4.674560546875,4.494384765625,-0.190185546875
0.0825,-4.754638671875,3.693603515625,0.610595703125
0.083,-4.994873046875,3.373291015625,1.211181640625
0.0835,-4.994873046875,2.252197265625,2.292236328125
0.084,-5.114990234375,1.571533203125,3.052978515625
0.0845,-4.754638671875,0.570556640625,3.693603515625
0.085,-4.634521484375,-0.310302734375,4.414306640625
0.0855,-3.673583984375,-1.351318359375,4.494384765625
0.086,-3.353271484375,-2.031982421875,4.814697265625
0.0865,-2.072021484375,-3.393310546875,4.854736328125
0.087,-1.431396484375,-3.993896484375,4.774658203125
0.0875,-0.430419921875,-4.674560546875,4.494384765625
0.088,0.370361328125,-5.034912109375,4.013916015625
0.0885,1.171142578125,-5.195068359375,3.333251953125
0.089,2.292236328125,-5.435302734375,2.492431640625
0.0895,3.493408203125,-5.635498046875,1.411376953125
0.09,3.933837890625,-5.074951171875,0.570556640625
0.0905,4.614501953125,-4.994873046875,-0.190185546875
0.091,4.574462890625,-4.114013671875,-0.990966796875
0.0915,4.774658203125,-3.713623046875,-1.591552734375
0.092,4.814697265625,-2.472412109375,-2.832763671875
0.0925,4.814697265625,-1.711669921875,-3.553466796875
0.093,4.214111328125,-0.590576171875,-4.154052734375
0.0935,3.973876953125,0.290283203125,-4.634521484375
0.094,2.932861328125,1.291259765625,-4.594482421875
0.0945,2.492431640625,2.011962890625,-4.834716796875
0.095,1.331298828125,3.333251953125,-4.994873046875
0.0955,0.530517578125,3.773681640625,-4.594482421875
0.096,-0.310302734375,4.414306640625,-4.394287109375
0.0965,-1.151123046875,4.494384765625,-3.793701171875
0.097,-1.911865234375,4.654541015625,-3.153076171875
0.0975,-3.032958984375,4.734619140625,-2.152099609375
0.098,-4.114013671875,4.934814453125,-1.231201171875
0.0985,-4.434326171875,4.294189453125,-0.310302734375
0.099,-4.994873046875,4.294189453125,0.330322265625
0.0995,-4.914794921875,3.293212890625,1.171142578125
0.1,-5.074951171875,2.892822265625,1.731689453125
0.1005,-5.155029296875,1.771728515625,2.932861328125
0.101,-4.994873046875,1.010986328125,3.493408203125
0.1015,-4.594482421875,-0.070068359375,4.134033203125
0.102,-4.194091796875,-0.870849609375,4.494384765625
0.1025,-3.353271484375,-1.791748046875,4.574462890625
0.103,-2.792724609375,-2.592529296875,4.774658203125
0.1035,-1.751708984375,-3.833740234375,4.974853515625
0.104,-0.910888671875,-4.194091796875,4.454345703125
0.1045,-0.150146484375,-4.954833984375,4.334228515625
0.105,0.770751953125,-5.074951171875,3.573486328125
0.1055,1.571533203125,-5.275146484375,3.052978515625
0.106,2.772705078125,-5.395263671875,1.971923828125
0.1065,3.733642578125,-5.475341796875,1.131103515625
0.107,4.093994140625,-4.834716796875,0.170166015625
0.1075,4.614501953125,-4.754638671875,-0.390380859375
0.108,4.534423828125,-3.793701171875,-1.271240234375
0.1085,4.614501953125,-3.233154296875,-1.951904296875
0.109,4.814697265625,-2.112060546875,-3.193115234375
0.1095,4.494384765625,-1.271240234375,-3.713623046875
0.11,4.093994140625,-0.230224609375,-4.314208984375
0.1105,3.493408203125,0.690673828125,-4.514404296875
0.111,2.692626953125,1.571533203125,-4.594482421875
0.1115,1.971923828125,2.452392578125,-4.714599609375
0.112,1.091064453125,3.533447265625,-4.874755859375
0.1125,0.130126953125,3.813720703125,-4.194091796875
0.113,-0.510498046875,4.334228515625,-4.234130859375
0.1135,-1.511474609375,4.334228515625,-3.233154296875
0.114,-2.192138671875,4.534423828125,-2.712646484375
0.1145,-3.393310546875,4.614501953125,-1.591552734375
0.115,-4.033935546875,4.534423828125,-0.870849609375
0.1155,-4.394287109375,3.973876953125,0.010009765625
0.116,-4.674560546875,3.773681640625,0.490478515625
0.1165,-4.634521484375,2.892822265625,1.291259765625
0.117,-4.754638671875,2.372314453125,1.931884765625
0.1175,-4.954833984375,1.451416015625,3.052978515625
0.118,-4.474365234375,0.570556640625,3.373291015625
0.1185,-4.314208984375,-0.270263671875,4.013916015625
0.119,-3.553466796875,-1.151123046875,4.134033203125
0.1195,-3.113037109375,-1.871826171875,4.374267578125
0.12,-2.272216796875,-2.792724609375,4.454345703125
0.1205,-1.551513671875,-3.673583984375,4.534423828125
0.121,-0.670654296875,-3.993896484375,3.973876953125
0.1215,-0.150146484375,-4.554443359375,4.013916015625
0.122,0.890869140625,-4.594482421875,3.093017578125
0.1225,1.571533203125,-4.914794921875,2.732666015625
0.123,2.812744140625,-5.074951171875,1.651611328125
0.1235,3.293212890625,-4.834716796875,0.970947265625
0.124,3.813720703125,-4.594482421875,0.250244140625
0.1245,3.973876953125,-4.194091796875,-0.350341796875
0.125,4.134033203125,-3.553466796875,-1.191162109375
0.1255,4.214111328125,-2.872802734375,-1.951904296875
0.126,4.494384765625,-2.072021484375,-2.952880859375
0.1265,3.893798828125,-1.031005859375,-3.353271484375
0.127,3.853759765625,-0.310302734375,-3.993896484375
0.1275,2.932861328125,0.690673828125,-4.033935546875
0.128,2.572509765625,1.411376953125,-4.394287109375
0.1285,1.731689453125,2.412353515625,-4.514404296875
0.129,0.970947265625,3.133056640625,-4.474365234375
0.1295,0.130126953125,3.453369140625,-3.993896484375
0.13,-0.470458984375,3.893798828125,-3.793701171875
0.1305,-1.511474609375,3.973876953125,-2.832763671875
0.131,-2.192138671875,4.214111328125,-2.392333984375
0.1315,-3.353271484375,4.374267578125,-1.431396484375
0.132,-3.673583984375,3.933837890625,-0.670654296875
0.1325,-4.073974609375,3.813720703125,-0.150146484375
0.133,-4.114013671875,3.173095703125,0.530517578125
0.1335,-4.314208984375,2.692626953125,1.211181640625
0.134,-4.354248046875,1.891845703125,2.011962890625
0.1345,-4.514404296875,1.291259765625,2.812744140625
0.135,-3.913818359375,0.290283203125,3.173095703125
0.1355,-3.953857421875,-0.270263671875,3.693603515625
0.136,-3.072998046875,-1.191162109375,3.693603515625
0.1365,-2.832763671875,-1.871826171875,4.053955078125
0.137,-1.951904296875,-2.872802734375,4.134033203125
0.1375,-1.311279296875,-3.313232421875,3.973876953125
0.138,-0.670654296875,-3.753662109375,3.853759765625
0.1385,0.010009765625,-4.033935546875,3.453369140625
0.139,0.890869140625,-4.274169921875,2.772705078125
0.1395,1.651611328125,-4.514404296875,2.252197265625
0.14,2.612548828125,-4.754638671875,1.571533203125
0.1405,2.892822265625,-4.274169921875,0.850830078125
0.141,3.413330078125,-4.434326171875,0.450439453125
0.1415,3.453369140625,-3.593505859375,-0.390380859375
0.142,3.853759765625,-3.353271484375,-1.031005859375
0.1425,3.933837890625,-2.512451171875,-1.991943359375
0.143,4.013916015625,-1.911865234375,-2.592529296875
0.1435,3.533447265625,-0.910888671875,-3.113037109375
0.144,3.373291015625,-0.270263671875,-3.553466796875
0.1445,2.612548828125,0.650634765625,-3.793701171875
0.145,2.332275390625,1.411376953125,-4.154052734375
0.1455,1.531494140625,2.372314453125,-4.314208984375
0.146,0.770751953125,2.812744140625,-3.913818359375
0.1465,0.250244140625,3.333251953125,-3.873779296875
0.147,-0.670654296875,3.533447265625,-3.193115234375
0.1475,-1.511474609375,3.853759765625,-2.712646484375
0.148,-2.392333984375,3.973876953125,-1.951904296875
0.1485,-3.153076171875,4.093994140625,-1.311279296875
0.149,-3.393310546875,3.573486328125,-0.590576171875
0.1495,-3.833740234375,3.573486328125,-0.190185546875
0.15,-3.833740234375,2.732666015625,0.690673828125
0.1505,-4.154052734375,2.412353515625,1.291259765625
0.151,-4.274169921875,1.571533203125,2.252197265625
0.1515,-4.114013671875,0.930908203125,2.732666015625
0.152,-3.833740234375,0.050048828125,3.213134765625
0.1525,-3.433349609375,-0.630615234375,3.453369140625
0.153,-2.832763671875,-1.471435546875,3.693603515625
0.1535,-2.312255859375,-2.232177734375,3.893798828125
0.154,-1.631591796875,-2.952880859375,4.013916015625
0.1545,-0.950927734375,-3.273193359375,3.613525390625
0.155,-0.510498046875,-3.833740234375,3.693603515625
0.1555,0.530517578125,-3.913818359375,2.812744140625
0.156,1.211181640625,-4.314208984375,2.532470703125
0.1565,2.172119140625,-4.394287109375,1.691650390625
0.157,2.652587890625,-4.394287109375,1.171142578125
0.1575,2.972900390625,-4.033935546875,0.530517578125
0.158,3.253173828125,-3.913818359375,0.090087890625
0.1585,3.453369140625,-3.193115234375,-0.790771484375
0.159,3.693603515625,-2.792724609375,-1.391357421875
0.1595,3.893798828125,-2.072021484375,-2.352294921875
0.16,3.493408203125,-1.271240234375,-2.752685546875
0.1605,3.373291015625,-0.630615234375,-3.353271484375
0.161,2.812744140625,0.290283203125,-3.553466796875
0.1615,2.412353515625,1.051025390625,-3.953857421875
0.162,1.771728515625,1.931884765625,-4.033935546875
0.1625,1.171142578125,2.612548828125,-4.154052734375
0.163,0.410400390625,2.932861328125,-3.713623046875
0.1635,-0.150146484375,3.453369140625,-3.673583984375
0.164,-1.271240234375,3.573486328125,-2.672607421875
0.1645,-1.951904296875,3.933837890625,-2.352294921875
0.165,-2.872802734375,4.013916015625,-1.511474609375
0.1655,-3.233154296875,3.773681640625,-0.950927734375
0.166,-3.633544921875,3.533447265625,-0.310302734375
0.1665,-3.833740234375,3.093017578125,0.290283203125
0.167,-4.073974609375,2.492431640625,1.171142578125
0.1675,-4.154052734375,1.891845703125,1.851806640625
0.168,-4.354248046875,1.211181640625,2.652587890625
0.1685,-3.793701171875,0.250244140625,2.972900390625
0.169,-3.793701171875,-0.310302734375,3.493408203125
0.1695,-2.872802734375,-1.311279296875,3.533447265625
0.17,-2.592529296875,-1.991943359375,3.973876953125
0.1705,-1.791748046875,-2.752685546875,3.893798828125
0.171,-1.151123046875,-3.353271484375,3.853759765625
0.1715,-0.510498046875,-3.593505859375,3.493408203125
0.172,0.210205078125,-4.033935546875,3.173095703125
0.1725,1.291259765625,-4.194091796875,2.332275390625
0.173,1.931884765625,-4.434326171875,1.931884765625
0.1735,2.692626953125,-4.514404296875,1.211181640625
0.174,2.972900390625,-4.114013671875,0.570556640625
0.1745,3.333251953125,-3.993896484375,0.090087890625
0.175,3.453369140625,-3.273193359375,-0.710693359375
0.1755,3.773681640625,-2.872802734375,-1.431396484375
0.176,3.733642578125,-2.072021484375,-2.192138671875
0.1765,3.853759765625,-1.471435546875,-2.912841796875
0.177,3.133056640625,-0.550537109375,-3.193115234375
0.1775,3.133056640625,0.050048828125,-3.713623046875
0.178,2.212158203125,1.211181640625,-3.793701171875
0.1785,1.931884765625,1.811767578125,-4.154052734375
0.179,1.131103515625,2.612548828125,-4.073974609375
0.1795,0.450439453125,3.052978515625,-3.833740234375
0.18,-0.190185546875,3.413330078125,-3.553466796875
0.1805,-1.111083984375,3.693603515625,-2.952880859375
0.181,-2.072021484375,3.973876953125,-2.272216796875
0.1815,-2.752685546875,3.973876953125,-1.591552734375
0.182,-3.513427734375,4.053955078125,-0.990966796875
0.1825,-3.673583984375,3.493408203125,-0.230224609375
0.183,-4.073974609375,3.373291015625,0.250244140625
0.1835,-4.154052734375,2.492431640625,1.251220703125
0.184,-4.434326171875,2.052001953125,1.931884765625
0.1845,-4.314208984375,1.131103515625,2.652587890625
0.185,-4.194091796875,0.410400390625,3.253173828125
0.1855,-3.553466796875,-0.510498046875,3.533447265625
0.186,-3.353271484375,-1.151123046875,3.893798828125
0.1865,-2.392333984375,-2.272216796875,4.093994140625
0.187,-1.911865234375,-2.872802734375,4.134033203125
0.1875,-1.111083984375,-3.673583984375,4.093994140625
0.188,-0.390380859375,-3.913818359375,3.693603515625
