wavelength,x,y,z
0.0,3.94384765625,3.50341796875,-6.90673828125
0.0005,4.98486328125,2.06201171875,-6.98681640625
0.001,5.66552734375,0.74072265625,-6.62646484375
0.0015,5.90576171875,-0.18017578125,-6.30615234375
0.002,5.90576171875,-1.14111328125,-5.70556640625
0.0025,5.74560546875,-2.38232421875,-4.62451171875
0.003,5.58544921875,-3.70361328125,-3.38330078125
0.0035,5.18505859375,-4.82470703125,-2.06201171875
0.004,4.66455078125,-5.58544921875,-0.98095703125
0.0045,4.14404296875,-6.10595703125,0.02001953125
0.005,3.30322265625,-6.38623046875,0.98095703125
0.0055,1.94189453125,-6.54638671875,2.42236328125
0.006,0.62060546875,-6.66650390625,3.86376953125
0.0065,-0.62060546875,-6.46630859375,4.86474609375
0.007,-1.26123046875,-6.46630859375,5.62548828125
0.0075,-2.18212890625,-6.10595703125,6.26611328125
0.008,-3.46337890625,-5.02490234375,6.70654296875
0.0085,-4.74462890625,-3.70361328125,6.90673828125
0.009,-5.74560546875,-2.26220703125,6.74658203125
0.0095,-6.26611328125,-1.10107421875,6.46630859375
0.01,-6.38623046875,-0.22021484375,6.10595703125
0.0105,-6.34619140625,0.86083984375,5.38525390625
0.011,-6.10595703125,2.10205078125,4.22412109375
0.0115,-5.86572265625,3.34326171875,3.02294921875
0.012,-5.42529296875,4.42431640625,1.70166015625
0.0125,-4.94482421875,5.10498046875,0.70068359375
0.013,-4.34423828125,5.54541015625,-0.30029296875
0.0135,-3.34326171875,5.78564453125,-1.42138671875
0.014,-1.98193359375,5.98583984375,-2.90283203125
0.0145,-0.62060546875,5.94580078125,-4.26416015625
0.015,0.38037109375,5.86572265625,-5.14501953125
0.0155,1.10107421875,5.78564453125,-5.86572265625
0.016,2.18212890625,5.18505859375,-6.46630859375
0.0165,3.50341796875,3.98388671875,-6.82666015625
0.017,4.66455078125,2.66259765625,-7.02685546875
0.0175,5.46533203125,1.30126953125,-6.74658203125
0.018,5.90576171875,0.30029296875,-6.46630859375
0.0185,5.98583984375,-0.70068359375,-6.02587890625
0.019,5.90576171875,-1.66162109375,-5.26513671875
0.0195,5.70556640625,-2.98291015625,-4.06396484375
0.02,5.42529296875,-4.26416015625,-2.74267578125
0.0205,4.94482421875,-5.18505859375,-1.54150390625
0.021,4.50439453125,-5.82568359375,-0.62060546875
0.0215,3.82373046875,-6.22607421875,0.42041015625
0.022,2.70263671875,-6.42626953125,1.62158203125
0.0225,1.34130859375,-6.66650390625,3.14306640625
0.023,0.02001953125,-6.50634765625,4.38427734375
0.0235,-0.90087890625,-6.50634765625,5.22509765625
0.024,-1.66162109375,-6.34619140625,5.94580078125
0.0245,-2.74267578125,-5.70556640625,6.50634765625
0.025,-4.18408203125,-4.34423828125,6.86669921875
0.0255,-5.30517578125,-2.94287109375,6.90673828125
0.026,-6.02587890625,-1.58154296875,6.62646484375
0.0265,-6.34619140625,-0.66064453125,6.34619140625
0.027,-6.38623046875,0.34033203125,5.78564453125
0.0275,-6.26611328125,1.54150390625,4.82470703125
0.028,-6.06591796875,2.86279296875,3.58349609375
0.0285,-5.70556640625,4.06396484375,2.22216796875
0.029,-5.14501953125,4.94482421875,1.06103515625
0.0295,-4.66455078125,5.46533203125,0.14013671875
0.03,-3.82373046875,5.82568359375,-0.98095703125
0.0305,-2.50244140625,6.02587890625,-2.50244140625
0.031,-1.14111328125,6.18603515625,-3.98388671875
0.0315,0.18017578125,5.98583984375,-5.06494140625
0.032,0.94091796875,5.94580078125,-5.82568359375
0.0325,1.90185546875,5.50537109375,-6.50634765625
0.033,3.18310546875,4.50439453125,-6.98681640625
0.0335,4.50439453125,3.10302734375,-7.18701171875
0.034,5.54541015625,1.58154296875,-7.06689453125
0.0345,6.02587890625,0.38037109375,-6.70654296875
0.035,6.14599609375,-0.62060546875,-6.26611328125
0.0355,6.10595703125,-1.62158203125,-5.50537109375
0.036,5.90576171875,-2.94287109375,-4.30419921875
0.0365,5.66552734375,-4.26416015625,-2.98291015625
0.037,5.14501953125,-5.30517578125,-1.62158203125
0.0375,4.62451171875,-5.98583984375,-0.62060546875
0.038,3.98388671875,-6.38623046875,0.38037109375
0.0385,2.94287109375,-6.58642578125,1.50146484375
0.039,1.50146484375,-6.74658203125,3.06298828125
0.0395,0.10009765625,-6.70654296875,4.42431640625
0.04,-0.98095703125,-6.50634765625,5.30517578125
0.0405,-1.66162109375,-6.42626953125,5.98583984375
0.041,-2.74267578125,-5.74560546875,6.54638671875
0.0415,-4.10400390625,-4.50439453125,6.90673828125
0.042,-5.22509765625,-3.18310546875,7.02685546875
0.0425,-6.02587890625,-1.78173828125,6.74658203125
0.043,-6.38623046875,-0.74072265625,6.42626953125
0.0435,-6.42626953125,0.18017578125,5.90576171875
0.044,-6.30615234375,1.18115234375,5.18505859375
0.0445,-6.06591796875,2.46240234375,3.90380859375
0.045,-5.74560546875,3.70361328125,2.58251953125
0.0455,-5.18505859375,4.62451171875,1.34130859375
0.046,-4.74462890625,5.22509765625,0.46044921875
0.0465,-4.02392578125,5.58544921875,-0.58056640625
0.047,-2.94287109375,5.74560546875,-1.78173828125
0.0475,-1.66162109375,5.98583984375,-3.18310546875
0.048,-0.34033203125,5.82568359375,-4.42431640625
0.0485,0.58056640625,5.74560546875,-5.26513671875
0.049,1.26123046875,5.62548828125,-5.90576171875
0.0495,2.30224609375,5.02490234375,-6.46630859375
0.05,3.62353515625,3.78369140625,-6.74658203125
0.0505,4.70458984375,2.46240234375,-6.86669921875
0.051,5.42529296875,1.14111328125,-6.58642578125
0.0515,5.74560546875,0.30029296875,-6.34619140625
0.052,5.82568359375,-0.66064453125,-5.86572265625
0.0525,5.74560546875,-1.70166015625,-5.10498046875
0.053,5.54541015625,-2.94287109375,-3.94384765625
0.0535,5.26513671875,-4.14404296875,-2.70263671875
0.054,4.82470703125,-4.98486328125,-1.54150390625
0.0545,4.42431640625,-5.66552734375,-0.66064453125
0.055,3.74365234375,-6.06591796875,0.34033203125
0.0555,2.58251953125,-6.30615234375,1.62158203125
0.056,1.34130859375,-6.46630859375,3.02294921875
0.0565,0.14013671875,-6.38623046875,4.14404296875
0.057,-0.70068359375,-6.50634765625,5.02490234375
0.0575,-1.58154296875,-6.26611328125,5.74560546875
0.058,-2.70263671875,-5.46533203125,6.26611328125
0.0585,-4.02392578125,-4.18408203125,6.58642578125
0.059,-5.06494140625,-2.86279296875,6.58642578125
0.0595,-5.70556640625,-1.66162109375,6.38623046875
0.06,-5.98583984375,-0.90087890625,6.14599609375
0.0605,-6.02587890625,0.14013671875,5.62548828125
0.061,-5.90576171875,1.26123046875,4.66455078125
0.0615,-5.74560546875,2.50244140625,3.54345703125
0.062,-5.38525390625,3.58349609375,2.26220703125
0.0625,-4.98486328125,4.42431640625,1.26123046875
0.063,-4.50439453125,4.98486328125,0.38037109375
0.0635,-3.74365234375,5.34521484375,-0.70068359375
0.064,-2.54248046875,5.62548828125,-2.10205078125
0.0645,-1.30126953125,5.62548828125,-3.46337890625
0.065,-0.30029296875,5.58544921875,-4.42431640625
0.0655,0.50048828125,5.66552734375,-5.18505859375
0.066,1.42138671875,5.26513671875,-5.82568359375
0.0665,2.66259765625,4.30419921875,-6.26611328125
0.067,3.86376953125,3.14306640625,-6.54638671875
0.0675,4.74462890625,1.86181640625,-6.42626953125
0.068,5.22509765625,0.82080078125,-6.22607421875
0.0685,5.42529296875,0.06005859375,-5.94580078125
0.069,5.42529296875,-0.94091796875,-5.42529296875
0.0695,5.34521484375,-2.06201171875,-4.42431640625
0.07,5.14501953125,-3.26318359375,-3.26318359375
0.0705,4.78466796875,-4.26416015625,-2.10205078125
0.071,4.50439453125,-4.98486328125,-1.26123046875
0.0715,3.98388671875,-5.46533203125,-0.38037109375
0.072,3.10302734375,-5.82568359375,0.78076171875
0.0725,2.06201171875,-6.14599609375,2.06201171875
0.073,0.82080078125,-6.10595703125,3.26318359375
0.0735,0.02001953125,-6.14599609375,4.14404296875
0.074,-0.82080078125,-6.18603515625,4.94482421875
0.0745,-1.78173828125,-5.74560546875,5.62548828125
0.075,-3.06298828125,-4.78466796875,6.06591796875
0.0755,-4.14404296875,-3.58349609375,6.26611328125
0.076,-4.94482421875,-2.42236328125,6.10595703125
0.0765,-5.42529296875,-1.54150390625,6.02587890625
0.077,-5.62548828125,-0.78076171875,5.74560546875
0.0775,-5.66552734375,0.30029296875,5.10498046875
0.078,-5.62548828125,1.38134765625,4.22412109375
0.0785,-5.38525390625,2.54248046875,3.14306640625
0.079,-5.06494140625,3.46337890625,2.06201171875
0.0795,-4.78466796875,4.18408203125,1.26123046875
0.08,-4.22412109375,4.70458984375,0.38037109375
0.0805,-3.34326171875,5.02490234375,-0.90087890625
0.081,-2.30224609375,5.34521484375,-2.18212890625
0.0815,-1.26123046875,5.38525390625,-3.26318359375
0.082,-0.46044921875,5.54541015625,-4.18408203125
0.0825,0.46044921875,5.50537109375,-4.98486328125
0.083,1.54150390625,4.94482421875,-5.62548828125
0.0835,2.74267578125,3.90380859375,-6.06591796875
0.084,3.82373046875,2.70263671875,-6.14599609375
0.0845,4.54443359375,1.62158203125,-6.10595703125
0.085,4.94482421875,0.90087890625,-6.02587890625
0.0855,5.10498046875,0.06005859375,-5.62548828125
0.086,5.10498046875,-1.02099609375,-4.98486328125
0.0865,5.10498046875,-2.18212890625,-4.10400390625
0.087,4.86474609375,-3.22314453125,-2.98291015625
0.0875,4.58447265625,-4.10400390625,-2.06201171875
0.088,4.34423828125,-4.82470703125,-1.26123046875
0.0885,3.78369140625,-5.30517578125,-0.34033203125
0.089,2.86279296875,-5.70556640625,0.98095703125
0.0895,1.66162109375,-5.86572265625,2.22216796875
0.09,0.78076171875,-5.94580078125,3.26318359375
0.0905,0.10009765625,-6.14599609375,4.14404296875
0.091,-0.94091796875,-5.94580078125,4.94482421875
0.0915,-2.06201171875,-5.26513671875,5.46533203125
0.092,-3.26318359375,-4.26416015625,5.86572265625
0.0925,-4.22412109375,-3.06298828125,5.90576171875
0.093,-4.86474609375,-2.10205078125,5.86572265625
0.0935,-5.26513671875,-1.38134765625,5.78564453125
0.094,-5.42529296875,-0.62060546875,5.42529296875
0.0945,-5.42529296875,0.58056640625,4.70458984375
0.095,-5.42529296875,1.74169921875,3.74365234375
0.0955,-5.14501953125,2.74267578125,2.70263671875
0.096,-4.86474609375,3.58349609375,1.78173828125
0.0965,-4.50439453125,4.14404296875,0.94091796875
0.097,-3.82373046875,4.62451171875,-0.14013671875
0.0975,-2.90283203125,5.10498046875,-1.42138671875
0.098,-1.78173828125,5.22509765625,-2.62255859375
0.0985,-0.98095703125,5.38525390625,-3.62353515625
0.099,-0.22021484375,5.50537109375,-4.50439453125
0.0995,0.86083984375,5.18505859375,-5.22509765625
0.1,2.10205078125,4.34423828125,-5.74560546875
0.1005,3.22314453125,3.26318359375,-6.02587890625
0.101,4.14404296875,2.06201171875,-6.02587890625
0.1015,4.66455078125,1.26123046875,-5.94580078125
0.102,4.94482421875,0.46044921875,-5.74560546875
0.1025,5.06494140625,-0.58056640625,-5.22509765625
0.103,5.10498046875,-1.62158203125,-4.46435546875
0.1035,4.94482421875,-2.82275390625,-3.38330078125
0.104,4.70458984375,-3.78369140625,-2.42236328125
0.1045,4.46435546875,-4.58447265625,-1.58154296875
0.105,3.98388671875,-5.14501953125,-0.70068359375
0.1055,3.10302734375,-5.46533203125,0.58056640625
0.106,2.10205078125,-5.82568359375,1.82177734375
0.1065,1.06103515625,-5.90576171875,2.90283203125
0.107,0.34033203125,-6.10595703125,3.86376953125
0.1075,-0.62060546875,-6.10595703125,4.66455078125
0.108,-1.66162109375,-5.54541015625,5.34521484375
0.1085,-2.94287109375,-4.54443359375,5.82568359375
0.109,-4.06396484375,-3.34326171875,5.94580078125
0.1095,-4.78466796875,-2.30224609375,5.90576171875
0.11,-5.22509765625,-1.54150390625,5.82568359375
0.1105,-5.42529296875,-0.70068359375,5.50537109375
0.111,-5.42529296875,0.42041015625,4.82470703125
0.1115,-5.42529296875,1.54150390625,3.94384765625
0.112,-5.18505859375,2.62255859375,2.86279296875
0.1125,-4.94482421875,3.46337890625,1.90185546875
0.113,-4.62451171875,4.10400390625,1.10107421875
0.1135,-4.02392578125,4.62451171875,0.18017578125
0.114,-3.06298828125,5.02490234375,-1.14111328125
0.1145,-1.98193359375,5.26513671875,-2.42236328125
0.115,-1.06103515625,5.34521484375,-3.50341796875
0.1155,-0.30029296875,5.46533203125,-4.38427734375
0.116,0.70068359375,5.26513671875,-5.14501953125
0.1165,1.94189453125,4.50439453125,-5.70556640625
0.117,3.10302734375,3.50341796875,-6.10595703125
0.1175,4.06396484375,2.26220703125,-6.06591796875
0.118,4.66455078125,1.30126953125,-6.02587890625
0.1185,4.98486328125,0.58056640625,-5.82568359375
0.119,5.10498046875,-0.38037109375,-5.42529296875
0.1195,5.10498046875,-1.46142578125,-4.62451171875
0.12,5.06494140625,-2.70263671875,-3.58349609375
0.1205,4.78466796875,-3.74365234375,-2.54248046875
0.121,4.50439453125,-4.54443359375,-1.62158203125
0.1215,4.10400390625,-5.10498046875,-0.78076171875
0.122,3.34326171875,-5.46533203125,0.34033203125
0.1225,2.30224609375,-5.86572265625,1.66162109375
0.123,1.18115234375,-5.98583984375,2.86279296875
0.1235,0.34033203125,-6.10595703125,3.82373046875
0.124,-0.50048828125,-6.14599609375,4.70458984375
0.1245,-1.54150390625,-5.74560546875,5.38525390625
0.125,-2.86279296875,-4.78466796875,5.90576171875
0.1255,-3.98388671875,-3.58349609375,6.14599609375
0.126,-4.82470703125,-2.42236328125,6.06591796875
0.1265,-5.30517578125,-1.58154296875,5.98583984375
0.127,-5.58544921875,-0.78076171875,5.70556640625
0.1275,-5.62548828125,0.30029296875,5.06494140625
0.128,-5.58544921875,1.50146484375,4.10400390625
0.1285,-5.38525390625,2.70263671875,2.98291015625
0.129,-5.06494140625,3.58349609375,1.90185546875
0.1295,-4.74462890625,4.34423828125,1.06103515625
0.13,-4.14404296875,4.82470703125,0.10009765625
0.1305,-3.14306640625,5.14501953125,-1.26123046875
0.131,-2.06201171875,5.46533203125,-2.58251953125
0.1315,-0.98095703125,5.46533203125,-3.70361328125
0.132,-0.18017578125,5.58544921875,-4.58447265625
0.1325,0.78076171875,5.42529296875,-5.38525390625
0.133,1.94189453125,4.74462890625,-5.90576171875
0.1335,3.26318359375,3.58349609375,-6.34619140625
0.134,4.34423828125,2.26220703125,-6.38623046875
0.1345,4.98486328125,1.18115234375,-6.26611328125
0.135,5.30517578125,0.38037109375,-6.06591796875
0.1355,5.42529296875,-0.62060546875,-5.54541015625
0.136,5.38525390625,-1.78173828125,-4.62451171875
0.1365,5.26513671875,-3.06298828125,-3.58349609375
0.137,4.98486328125,-4.14404296875,-2.38232421875
0.1375,4.58447265625,-4.86474609375,-1.42138671875
0.138,4.14404296875,-5.50537109375,-0.58056640625
0.1385,3.38330078125,-5.82568359375,0.54052734375
0.139,2.18212890625,-6.10595703125,1.94189453125
0.1395,0.98095703125,-6.26611328125,3.30322265625
0.14,0.02001953125,-6.26611328125,4.30419921875
0.1405,-0.78076171875,-6.34619140625,5.10498046875
0.141,-1.86181640625,-5.90576171875,5.78564453125
0.1415,-3.18310546875,-4.82470703125,6.26611328125
0.142,-4.42431640625,-3.62353515625,6.54638671875
0.1425,-5.30517578125,-2.26220703125,6.42626953125
0.143,-5.78564453125,-1.30126953125,6.26611328125
0.1435,-6.02587890625,-0.46044921875,5.90576171875
0.144,-6.02587890625,0.62060546875,5.26513671875
0.1445,-5.86572265625,1.90185546875,4.10400390625
0.145,-5.70556640625,3.18310546875,2.86279296875
0.1455,-5.26513671875,4.18408203125,1.66162109375
0.146,-4.86474609375,4.86474609375,0.78076171875
0.1465,-4.18408203125,5.30517578125,-0.30029296875
0.147,-3.10302734375,5.62548828125,-1.54150390625
0.1475,-1.86181640625,5.86572265625,-3.06298828125
0.148,-0.58056640625,5.82568359375,-4.30419921875
0.1485,0.38037109375,5.78564453125,-5.14501953125
0.149,1.14111328125,5.62548828125,-5.86572265625
0.1495,2.34228515625,4.90478515625,-6.46630859375
0.15,3.74365234375,3.58349609375,-6.82666015625
0.1505,4.86474609375,2.26220703125,-6.90673828125
0.151,5.54541015625,0.98095703125,-6.62646484375
0.1515,5.82568359375,0.06005859375,-6.34619140625
0.152,5.86572265625,-0.98095703125,-5.74560546875
0.1525,5.74560546875,-2.18212890625,-4.82470703125
0.153,5.58544921875,-3.54345703125,-3.54345703125
0.1535,5.22509765625,-4.74462890625,-2.26220703125
0.154,4.78466796875,-5.42529296875,-1.14111328125
0.1545,4.26416015625,-6.02587890625,-0.30029296875
0.155,3.38330078125,-6.30615234375,0.86083984375
0.1555,2.06201171875,-6.50634765625,2.30224609375
0.156,0.78076171875,-6.66650390625,3.74365234375
0.1565,-0.50048828125,-6.46630859375,4.82470703125
0.157,-1.22119140625,-6.46630859375,5.54541015625
0.1575,-2.14208984375,-6.10595703125,6.22607421875
0.158,-3.38330078125,-5.10498046875,6.70654296875
0.1585,-4.74462890625,-3.70361328125,6.98681640625
0.159,-5.70556640625,-2.30224609375,6.86669921875
0.1595,-6.22607421875,-1.14111328125,6.54638671875
0.16,-6.38623046875,-0.26025390625,6.14599609375
0.1605,-6.34619140625,0.78076171875,5.42529296875
0.161,-6.14599609375,2.06201171875,4.22412109375
0.1615,-5.94580078125,3.38330078125,2.98291015625
0.162,-5.42529296875,4.50439453125,1.66162109375
0.1625,-4.94482421875,5.18505859375,0.62060546875
0.163,-4.34423828125,5.62548828125,-0.34033203125
0.1635,-3.38330078125,5.86572265625,-1.46142578125
0.164,-1.94189453125,6.06591796875,-3.02294921875
0.1645,-0.58056640625,6.06591796875,-4.42431640625
0.165,0.54052734375,5.90576171875,-5.30517578125
0.1655,1.22119140625,5.78564453125,-6.02587890625
0.166,2.26220703125,5.18505859375,-6.58642578125
0.1665,3.66357421875,3.94384765625,-6.94677734375
0.167,4.82470703125,2.62255859375,-7.10693359375
0.1675,5.66552734375,1.22119140625,-6.90673828125
0.168,6.02587890625,0.18017578125,-6.54638671875
0.1685,6.10595703125,-0.82080078125,-6.10595703125
0.169,5.98583984375,-1.90185546875,-5.26513671875
0.1695,5.74560546875,-3.22314453125,-4.02392578125
0.17,5.42529296875,-4.46435546875,-2.62255859375
0.1705,4.94482421875,-5.38525390625,-1.42138671875
0.171,4.46435546875,-5.94580078125,-0.50048828125
0.1715,3.70361328125,-6.34619140625,0.54052734375
0.172,2.58251953125,-6.50634765625,1.78173828125
0.1725,1.26123046875,-6.70654296875,3.30322265625
0.173,-0.22021484375,-6.54638671875,4.50439453125
0.1735,-1.02099609375,-6.46630859375,5.38525390625
0.174,-1.74169921875,-6.34619140625,6.02587890625
0.1745,-2.86279296875,-5.62548828125,6.58642578125
0.175,-4.26416015625,-4.30419921875,6.90673828125
0.1755,-5.38525390625,-2.90283203125,6.98681640625
0.176,-6.10595703125,-1.58154296875,6.66650390625
0.1765,-6.38623046875,-0.70068359375,6.38623046875
0.177,-6.38623046875,0.30029296875,5.82568359375
0.1775,-6.26611328125,1.42138671875,4.86474609375
0.178,-6.02587890625,2.78271484375,3.66357421875
0.1785,-5.70556640625,3.98388671875,2.30224609375
0.179,-5.14501953125,4.82470703125,1.14111328125
0.1795,-4.66455078125,5.42529296875,0.26025390625
0.18,-3.86376953125,5.74560546875,-0.90087890625
0.1805,-2.58251953125,5.90576171875,-2.26220703125
0.181,-1.26123046875,6.10595703125,-3.74365234375
0.1815,0.06005859375,5.90576171875,-4.82470703125
0.182,0.82080078125,5.90576171875,-5.62548828125
0.1825,1.66162109375,5.58544921875,-6.34619140625
0.183,2.90283203125,4.62451171875,-6.82666015625
0.1835,4.26416015625,3.26318359375,-7.06689453125
0.184,5.30517578125,1.86181640625,-7.02685546875
0.1845,5.86572265625,0.62060546875,-6.70654296875
0.185,6.06591796875,-0.42041015625,-6.34619140625
0.1855,6.02587890625,-1.42138671875,-5.70556640625
0.186,5.86572265625,-2.62255859375,-4.54443359375
0.1865,5.62548828125,-3.90380859375,-3.26318359375
0.187,5.22509765625,-5.02490234375,-1.94189453125
0.1875,4.70458984375,-5.74560546875,-0.86083984375
0.188,4.14404296875,-6.26611328125,0.10009765625
0.1885,3.18310546875,-6.50634765625,1.22119140625
0.189,1.78173828125,-6.70654296875,2.74267578125
0.1895,0.38037109375,-6.70654296875,4.14404296875
0.19,-0.78076171875,-6.54638671875,5.10498046875
0.1905,-1.46142578125,-6.46630859375,5.82568359375
0.191,-2.50244140625,-5.90576171875,6.42626953125
0.1915,-3.86376953125,-4.70458984375,6.86669921875
0.192,-5.10498046875,-3.34326171875,7.02685546875
0.1925,-5.90576171875,-1.98193359375,6.78662109375
0.193,-6.34619140625,-0.94091796875,6.46630859375
0.1935,-6.42626953125,0.02001953125,6.02587890625
0.194,-6.34619140625,1.06103515625,5.26513671875
0.1945,-6.10595703125,2.38232421875,3.98388671875
0.195,-5.82568359375,3.66357421875,2.70263671875
0.1955,-5.30517578125,4.62451171875,1.42138671875
0.196,-4.78466796875,5.26513671875,0.50048828125
0.1965,-4.10400390625,5.62548828125,-0.58056640625
0.197,-2.98291015625,5.82568359375,-1.78173828125
0.1975,-1.66162109375,6.02587890625,-3.26318359375
0.198,-0.30029296875,5.90576171875,-4.50439453125
0.1985,0.62060546875,5.78564453125,-5.34521484375
0.199,1.34130859375,5.70556640625,-6.02587890625
