wavelength,x,y,z
0.0,3.173095703125,-6.115966796875,0.930908203125
0.0005,1.931884765625,-6.396240234375,2.372314453125
0.001,0.610595703125,-6.476318359375,3.773681640625
0.0015,-0.590576171875,-6.396240234375,4.734619140625
0.002,-1.271240234375,-6.356201171875,5.535400390625
0.0025,-2.272216796875,-5.835693359375,6.216064453125
0.003,-3.593505859375,-4.754638671875,6.656494140625
0.0035,-4.834716796875,-3.433349609375,6.896728515625
0.004,-5.675537109375,-2.072021484375,6.656494140625
0.0045,-6.115966796875,-0.990966796875,6.336181640625
0.005,-6.196044921875,-0.150146484375,5.935791015625
0.0055,-6.115966796875,0.970947265625,5.135009765625
0.006,-5.915771484375,2.252197265625,3.893798828125
0.0065,-5.635498046875,3.493408203125,2.612548828125
0.007,-5.114990234375,4.494384765625,1.291259765625
0.0075,-4.634521484375,5.094970703125,0.370361328125
0.008,-3.993896484375,5.495361328125,-0.630615234375
0.0085,-2.872802734375,5.695556640625,-1.911865234375
0.009,-1.591552734375,5.895751953125,-3.353271484375
0.0095,-0.310302734375,5.775634765625,-4.594482421875
0.01,0.690673828125,5.735595703125,-5.435302734375
0.0105,1.411376953125,5.615478515625,-6.115966796875
0.011,2.532470703125,4.854736328125,-6.676513671875
0.0115,3.853759765625,3.613525390625,-6.996826171875
0.012,4.974853515625,2.292236328125,-7.076904296875
0.0125,5.615478515625,0.930908203125,-6.716552734375
0.013,5.895751953125,0.010009765625,-6.396240234375
0.0135,5.895751953125,-0.990966796875,-5.875732421875
0.014,5.735595703125,-1.991943359375,-4.994873046875
0.0145,5.495361328125,-3.313232421875,-3.713623046875
0.015,5.135009765625,-4.554443359375,-2.312255859375
0.0155,4.614501953125,-5.435302734375,-1.111083984375
0.016,4.134033203125,-5.995849609375,-0.190185546875
0.0165,3.373291015625,-6.356201171875,0.850830078125
0.017,2.212158203125,-6.556396484375,2.132080078125
0.0175,0.890869140625,-6.716552734375,3.573486328125
0.018,-0.510498046875,-6.436279296875,4.734619140625
0.0185,-1.231201171875,-6.436279296875,5.495361328125
0.019,-2.031982421875,-6.196044921875,6.216064453125
0.0195,-3.193115234375,-5.355224609375,6.696533203125
0.02,-4.554443359375,-3.953857421875,6.976806640625
0.0205,-5.555419921875,-2.592529296875,6.896728515625
0.021,-6.115966796875,-1.311279296875,6.536376953125
0.0215,-6.316162109375,-0.510498046875,6.216064453125
0.022,-6.276123046875,0.570556640625,5.575439453125
0.0225,-6.115966796875,1.731689453125,4.494384765625
0.023,-5.835693359375,3.012939453125,3.253173828125
0.0235,-5.395263671875,4.134033203125,1.891845703125
0.024,-4.874755859375,4.854736328125,0.770751953125
0.0245,-4.354248046875,5.415283203125,-0.230224609375
0.025,-3.513427734375,5.655517578125,-1.271240234375
0.0255,-2.192138671875,5.815673828125,-2.712646484375
0.026,-0.870849609375,5.975830078125,-4.114013671875
0.0265,0.330322265625,5.775634765625,-5.114990234375
0.027,1.051025390625,5.775634765625,-5.875732421875
0.0275,2.052001953125,5.295166015625,-6.516357421875
0.028,3.293212890625,4.214111328125,-6.916748046875
0.0285,4.534423828125,2.932861328125,-7.156982421875
0.029,5.415283203125,1.531494140625,-6.916748046875
0.0295,5.815673828125,0.370361328125,-6.596435546875
0.03,6.015869140625,-0.590576171875,-6.236083984375
0.0305,5.895751953125,-1.551513671875,-5.475341796875
0.031,5.695556640625,-2.872802734375,-4.234130859375
0.0315,5.415283203125,-4.154052734375,-2.872802734375
0.032,4.854736328125,-5.155029296875,-1.551513671875
0.0325,4.414306640625,-5.915771484375,-0.590576171875
0.033,3.813720703125,-6.316162109375,0.450439453125
0.0335,2.732666015625,-6.556396484375,1.571533203125
0.034,1.371337890625,-6.716552734375,3.173095703125
0.0345,0.010009765625,-6.596435546875,4.454345703125
0.035,-0.990966796875,-6.476318359375,5.335205078125
0.0355,-1.791748046875,-6.396240234375,6.095947265625
0.036,-2.872802734375,-5.675537109375,6.656494140625
0.0365,-4.234130859375,-4.434326171875,7.016845703125
0.037,-5.395263671875,-3.072998046875,7.096923828125
0.0375,-6.115966796875,-1.631591796875,6.736572265625
0.038,-6.396240234375,-0.670654296875,6.416259765625
0.0385,-6.436279296875,0.290283203125,5.895751953125
0.039,-6.276123046875,1.411376953125,4.974853515625
0.0395,-6.035888671875,2.732666015625,3.653564453125
0.04,-5.635498046875,3.973876953125,2.292236328125
0.0405,-5.074951171875,4.814697265625,1.010986328125
0.041,-4.554443359375,5.415283203125,0.050048828125
0.0415,-3.793701171875,5.735595703125,-1.071044921875
0.042,-2.552490234375,5.975830078125,-2.392333984375
0.0425,-1.191162109375,6.095947265625,-3.873779296875
0.043,0.210205078125,5.895751953125,-4.994873046875
0.0435,1.010986328125,5.815673828125,-5.755615234375
0.044,1.851806640625,5.575439453125,-6.476318359375
0.0445,3.012939453125,4.654541015625,-6.956787109375
0.045,4.334228515625,3.253173828125,-7.197021484375
0.0455,5.295166015625,1.851806640625,-7.076904296875
0.046,5.815673828125,0.610595703125,-6.716552734375
0.0465,6.015869140625,-0.390380859375,-6.356201171875
0.047,5.935791015625,-1.271240234375,-5.675537109375
0.0475,5.735595703125,-2.392333984375,-4.634521484375
0.048,5.455322265625,-3.713623046875,-3.313232421875
0.0485,4.974853515625,-4.834716796875,-1.951904296875
0.049,4.454345703125,-5.595458984375,-0.830810546875
0.0495,3.933837890625,-6.156005859375,0.050048828125
0.05,3.173095703125,-6.356201171875,1.051025390625
0.0505,1.891845703125,-6.476318359375,2.412353515625
0.051,0.610595703125,-6.556396484375,3.813720703125
0.0515,-0.630615234375,-6.396240234375,4.814697265625
0.052,-1.311279296875,-6.396240234375,5.575439453125
0.0525,-2.232177734375,-6.035888671875,6.216064453125
0.053,-3.393310546875,-5.074951171875,6.656494140625
0.0535,-4.634521484375,-3.753662109375,6.856689453125
0.054,-5.475341796875,-2.392333984375,6.696533203125
0.0545,-5.955810546875,-1.271240234375,6.376220703125
0.055,-6.156005859375,-0.510498046875,6.095947265625
0.0555,-6.115966796875,0.490478515625,5.415283203125
0.056,-5.915771484375,1.651611328125,4.414306640625
0.0565,-5.715576171875,2.852783203125,3.173095703125
0.057,-5.155029296875,3.893798828125,1.851806640625
0.0575,-4.834716796875,4.654541015625,0.850830078125
0.058,-4.274169921875,5.215087890625,0.010009765625
0.0585,-3.393310546875,5.495361328125,-1.151123046875
0.059,-2.232177734375,5.735595703125,-2.552490234375
0.0595,-0.910888671875,5.735595703125,-3.833740234375
0.06,0.170166015625,5.695556640625,-4.834716796875
0.0605,0.850830078125,5.735595703125,-5.595458984375
0.061,1.851806640625,5.175048828125,-6.236083984375
0.0615,3.133056640625,4.134033203125,-6.676513671875
0.062,4.254150390625,2.932861328125,-6.836669921875
0.0625,5.054931640625,1.571533203125,-6.596435546875
0.063,5.535400390625,0.610595703125,-6.396240234375
0.0635,5.695556640625,-0.350341796875,-6.035888671875
0.064,5.615478515625,-1.311279296875,-5.315185546875
0.0645,5.455322265625,-2.552490234375,-4.194091796875
0.065,5.175048828125,-3.833740234375,-2.912841796875
0.0655,4.694580078125,-4.754638671875,-1.751708984375
0.066,4.374267578125,-5.435302734375,-0.830810546875
0.0665,3.733642578125,-5.795654296875,0.170166015625
0.067,2.732666015625,-6.115966796875,1.331298828125
0.0675,1.531494140625,-6.356201171875,2.732666015625
0.068,0.250244140625,-6.236083984375,3.893798828125
0.0685,-0.630615234375,-6.276123046875,4.814697265625
0.069,-1.391357421875,-6.196044921875,5.535400390625
0.0695,-2.472412109375,-5.555419921875,6.135986328125
0.07,-3.793701171875,-4.354248046875,6.456298828125
0.0705,-4.834716796875,-3.072998046875,6.536376953125
0.071,-5.475341796875,-1.871826171875,6.256103515625
0.0715,-5.795654296875,-1.031005859375,6.095947265625
0.072,-5.835693359375,-0.230224609375,5.615478515625
0.0725,-5.755615234375,0.890869140625,4.774658203125
0.073,-5.635498046875,2.052001953125,3.733642578125
0.0735,-5.275146484375,3.173095703125,2.412353515625
0.074,-4.834716796875,4.053955078125,1.371337890625
0.0745,-4.474365234375,4.654541015625,0.570556640625
0.075,-3.833740234375,5.094970703125,-0.430419921875
0.0755,-2.792724609375,5.335205078125,-1.671630859375
0.076,-1.631591796875,5.535400390625,-2.992919921875
0.0765,-0.550537109375,5.415283203125,-3.993896484375
0.077,0.290283203125,5.535400390625,-4.874755859375
0.0775,1.091064453125,5.335205078125,-5.595458984375
0.078,2.212158203125,4.614501953125,-6.115966796875
0.0785,3.373291015625,3.533447265625,-6.436279296875
0.079,4.334228515625,2.252197265625,-6.396240234375
0.0795,4.934814453125,1.211181640625,-6.236083984375
0.08,5.255126953125,0.450439453125,-6.075927734375
0.0805,5.255126953125,-0.510498046875,-5.595458984375
0.081,5.175048828125,-1.551513671875,-4.754638671875
0.0815,5.094970703125,-2.752685546875,-3.753662109375
0.082,4.734619140625,-3.713623046875,-2.512451171875
0.0825,4.414306640625,-4.554443359375,-1.591552734375
0.083,4.093994140625,-5.155029296875,-0.790771484375
0.0835,3.373291015625,-5.555419921875,0.290283203125
0.084,2.412353515625,-5.875732421875,1.491455078125
0.0845,1.251220703125,-6.035888671875,2.732666015625
0.085,0.330322265625,-6.035888671875,3.733642578125
0.0855,-0.510498046875,-6.236083984375,4.614501953125
0.086,-1.391357421875,-5.915771484375,5.335205078125
0.0865,-2.592529296875,-5.114990234375,5.855712890625
0.087,-3.713623046875,-4.033935546875,6.135986328125
0.0875,-4.594482421875,-2.832763671875,6.055908203125
0.088,-5.155029296875,-1.871826171875,6.015869140625
0.0885,-5.435302734375,-1.191162109375,5.815673828125
0.089,-5.515380859375,-0.350341796875,5.335205078125
0.0895,-5.475341796875,0.810791015625,4.494384765625
0.09,-5.315185546875,2.011962890625,3.453369140625
0.0905,-4.994873046875,3.012939453125,2.292236328125
0.091,-4.754638671875,3.853759765625,1.411376953125
0.0915,-4.274169921875,4.414306640625,0.570556640625
0.092,-3.553466796875,4.814697265625,-0.590576171875
0.0925,-2.552490234375,5.175048828125,-1.871826171875
0.093,-1.431396484375,5.255126953125,-3.032958984375
0.0935,-0.630615234375,5.415283203125,-3.953857421875
0.094,0.210205078125,5.455322265625,-4.834716796875
0.0945,1.171142578125,5.094970703125,-5.475341796875
0.095,2.372314453125,4.134033203125,-5.915771484375
0.0955,3.493408203125,3.052978515625,-6.115966796875
0.096,4.254150390625,1.891845703125,-6.035888671875
0.0965,4.734619140625,1.010986328125,-5.995849609375
0.097,4.974853515625,0.250244140625,-5.715576171875
0.0975,4.974853515625,-0.710693359375,-5.114990234375
0.098,4.974853515625,-1.791748046875,-4.274169921875
0.0985,4.774658203125,-2.912841796875,-3.193115234375
0.099,4.494384765625,-3.793701171875,-2.192138671875
0.0995,4.254150390625,-4.554443359375,-1.391357421875
0.1,3.813720703125,-5.074951171875,-0.550537109375
0.1005,2.932861328125,-5.435302734375,0.650634765625
0.101,1.971923828125,-5.755615234375,1.931884765625
0.1015,0.930908203125,-5.795654296875,2.972900390625
0.102,0.170166015625,-6.035888671875,3.893798828125
0.1025,-0.710693359375,-5.995849609375,4.734619140625
0.103,-1.791748046875,-5.435302734375,5.375244140625
0.1035,-2.952880859375,-4.514404296875,5.775634765625
0.104,-3.993896484375,-3.393310546875,5.895751953125
0.1045,-4.674560546875,-2.392333984375,5.815673828125
0.105,-5.114990234375,-1.631591796875,5.775634765625
0.1055,-5.355224609375,-0.910888671875,5.455322265625
0.106,-5.315185546875,0.250244140625,4.814697265625
0.1065,-5.315185546875,1.331298828125,3.973876953125
0.107,-5.074951171875,2.412353515625,2.852783203125
0.1075,-4.834716796875,3.333251953125,1.931884765625
0.108,-4.514404296875,4.013916015625,1.131103515625
0.1085,-3.993896484375,4.494384765625,0.170166015625
0.109,-3.072998046875,4.934814453125,-1.151123046875
0.1095,-1.991943359375,5.135009765625,-2.352294921875
0.11,-1.151123046875,5.255126953125,-3.353271484375
0.1105,-0.350341796875,5.415283203125,-4.314208984375
0.111,0.650634765625,5.175048828125,-5.074951171875
0.1115,1.851806640625,4.494384765625,-5.635498046875
0.112,2.972900390625,3.533447265625,-6.035888671875
0.1125,3.893798828125,2.292236328125,-5.995849609375
0.113,4.494384765625,1.411376953125,-5.955810546875
0.1135,4.814697265625,0.610595703125,-5.875732421875
0.114,4.974853515625,-0.270263671875,-5.435302734375
0.1145,4.974853515625,-1.311279296875,-4.634521484375
0.115,4.854736328125,-2.512451171875,-3.593505859375
0.1155,4.574462890625,-3.513427734375,-2.552490234375
0.116,4.374267578125,-4.314208984375,-1.671630859375
0.1165,3.973876953125,-4.914794921875,-0.870849609375
0.117,3.253173828125,-5.315185546875,0.290283203125
0.1175,2.372314453125,-5.715576171875,1.531494140625
0.118,1.251220703125,-5.795654296875,2.692626953125
0.1185,0.450439453125,-5.955810546875,3.653564453125
0.119,-0.470458984375,-6.115966796875,4.534423828125
0.1195,-1.431396484375,-5.755615234375,5.255126953125
0.12,-2.672607421875,-4.794677734375,5.735595703125
0.1205,-3.793701171875,-3.713623046875,5.975830078125
0.121,-4.594482421875,-2.592529296875,5.895751953125
0.1215,-5.114990234375,-1.791748046875,5.815673828125
0.122,-5.395263671875,-0.990966796875,5.575439453125
0.1225,-5.395263671875,0.050048828125,5.014892578125
0.123,-5.395263671875,1.171142578125,4.134033203125
0.1235,-5.155029296875,2.292236328125,3.052978515625
0.124,-4.834716796875,3.253173828125,2.011962890625
0.1245,-4.594482421875,3.973876953125,1.211181640625
0.125,-4.114013671875,4.494384765625,0.290283203125
0.1255,-3.193115234375,4.854736328125,-0.990966796875
0.126,-2.192138671875,5.255126953125,-2.272216796875
0.1265,-1.151123046875,5.255126953125,-3.353271484375
0.127,-0.390380859375,5.455322265625,-4.314208984375
0.1275,0.570556640625,5.375244140625,-5.114990234375
0.128,1.651611328125,4.774658203125,-5.715576171875
0.1285,2.892822265625,3.653564453125,-6.156005859375
0.129,3.973876953125,2.412353515625,-6.236083984375
0.1295,4.614501953125,1.411376953125,-6.115966796875
0.13,5.014892578125,0.610595703125,-5.995849609375
0.1305,5.094970703125,-0.310302734375,-5.515380859375
0.131,5.094970703125,-1.351318359375,-4.754638671875
0.1315,5.054931640625,-2.552490234375,-3.753662109375
0.132,4.774658203125,-3.633544921875,-2.552490234375
0.1325,4.454345703125,-4.474365234375,-1.591552734375
0.133,4.093994140625,-5.114990234375,-0.790771484375
0.1335,3.373291015625,-5.515380859375,0.290283203125
0.134,2.332275390625,-5.835693359375,1.571533203125
0.1345,1.211181640625,-6.035888671875,2.852783203125
0.135,0.250244140625,-6.115966796875,3.893798828125
0.1355,-0.590576171875,-6.196044921875,4.774658203125
0.136,-1.551513671875,-5.795654296875,5.455322265625
0.1365,-2.832763671875,-4.954833984375,5.975830078125
0.137,-3.993896484375,-3.833740234375,6.296142578125
0.1375,-4.954833984375,-2.552490234375,6.216064453125
0.138,-5.435302734375,-1.551513671875,6.055908203125
0.1385,-5.635498046875,-0.750732421875,5.775634765625
0.139,-5.635498046875,0.250244140625,5.175048828125
0.1395,-5.555419921875,1.411376953125,4.174072265625
0.14,-5.435302734375,2.612548828125,3.052978515625
0.1405,-4.994873046875,3.653564453125,1.851806640625
0.141,-4.674560546875,4.334228515625,0.970947265625
0.1415,-4.114013671875,4.814697265625,0.090087890625
0.142,-3.193115234375,5.135009765625,-1.151123046875
0.1425,-2.072021484375,5.495361328125,-2.552490234375
0.143,-0.910888671875,5.495361328125,-3.753662109375
0.1435,0.010009765625,5.535400390625,-4.674560546875
0.144,0.810791015625,5.495361328125,-5.475341796875
0.1445,1.931884765625,4.854736328125,-6.115966796875
0.145,3.213134765625,3.733642578125,-6.476318359375
0.1455,4.294189453125,2.452392578125,-6.676513671875
0.146,5.014892578125,1.291259765625,-6.396240234375
0.1465,5.415283203125,0.450439453125,-6.236083984375
0.147,5.455322265625,-0.510498046875,-5.755615234375
0.1475,5.415283203125,-1.591552734375,-4.914794921875
0.148,5.255126953125,-2.872802734375,-3.793701171875
0.1485,4.974853515625,-4.073974609375,-2.512451171875
0.149,4.534423828125,-4.954833984375,-1.391357421875
0.1495,4.174072265625,-5.595458984375,-0.510498046875
0.15,3.453369140625,-5.915771484375,0.530517578125
0.1505,2.292236328125,-6.196044921875,1.891845703125
0.151,1.091064453125,-6.436279296875,3.253173828125
0.1515,-0.190185546875,-6.356201171875,4.334228515625
0.152,-0.910888671875,-6.396240234375,5.175048828125
0.1525,-1.791748046875,-6.115966796875,5.895751953125
0.153,-3.072998046875,-5.195068359375,6.456298828125
0.1535,-4.434326171875,-3.913818359375,6.696533203125
0.154,-5.395263671875,-2.472412109375,6.696533203125
0.1545,-5.955810546875,-1.311279296875,6.416259765625
0.155,-6.156005859375,-0.510498046875,6.095947265625
0.1555,-6.115966796875,0.570556640625,5.415283203125
0.156,-5.915771484375,1.811767578125,4.294189453125
0.1565,-5.755615234375,3.093017578125,3.052978515625
0.157,-5.275146484375,4.174072265625,1.731689453125
0.1575,-4.834716796875,4.934814453125,0.650634765625
0.158,-4.234130859375,5.415283203125,-0.350341796875
0.1585,-3.233154296875,5.655517578125,-1.471435546875
0.159,-1.911865234375,5.895751953125,-3.032958984375
0.1595,-0.630615234375,5.895751953125,-4.354248046875
0.16,0.450439453125,5.775634765625,-5.235107421875
0.1605,1.171142578125,5.695556640625,-5.955810546875
0.161,2.252197265625,5.014892578125,-6.556396484375
0.1615,3.613525390625,3.853759765625,-6.956787109375
0.162,4.814697265625,2.532470703125,-7.116943359375
0.1625,5.575439453125,1.131103515625,-6.796630859375
0.163,5.895751953125,0.130126953125,-6.436279296875
0.1635,5.935791015625,-0.830810546875,-6.035888671875
0.164,5.815673828125,-1.871826171875,-5.155029296875
0.1645,5.575439453125,-3.193115234375,-3.833740234375
0.165,5.255126953125,-4.474365234375,-2.512451171875
0.1655,4.734619140625,-5.395263671875,-1.231201171875
0.166,4.254150390625,-5.995849609375,-0.310302734375
0.1665,3.493408203125,-6.316162109375,0.730712890625
0.167,2.332275390625,-6.476318359375,1.971923828125
0.1675,0.970947265625,-6.676513671875,3.533447265625
0.168,-0.390380859375,-6.556396484375,4.694580078125
0.1685,-1.231201171875,-6.476318359375,5.495361328125
0.169,-1.951904296875,-6.316162109375,6.135986328125
0.1695,-3.193115234375,-5.555419921875,6.696533203125
0.17,-4.474365234375,-4.154052734375,7.016845703125
0.1705,-5.475341796875,-2.752685546875,7.016845703125
0.171,-6.115966796875,-1.431396484375,6.616455078125
0.1715,-6.356201171875,-0.550537109375,6.296142578125
0.172,-6.356201171875,0.490478515625,5.695556640625
0.1725,-6.115966796875,1.571533203125,4.694580078125
0.173,-5.915771484375,2.892822265625,3.413330078125
0.1735,-5.475341796875,4.093994140625,2.052001953125
0.174,-4.994873046875,4.854736328125,0.890869140625
0.1745,-4.474365234375,5.415283203125,0.010009765625
0.175,-3.633544921875,5.695556640625,-1.111083984375
0.1755,-2.352294921875,5.895751953125,-2.472412109375
0.176,-1.071044921875,6.015869140625,-3.873779296875
0.1765,0.250244140625,5.775634765625,-4.994873046875
0.177,0.970947265625,5.775634765625,-5.755615234375
0.1775,1.771728515625,5.335205078125,-6.436279296875
0.178,3.052978515625,4.494384765625,-6.876708984375
0.1785,4.334228515625,3.173095703125,-7.076904296875
0.179,5.255126953125,1.771728515625,-6.996826171875
0.1795,5.735595703125,0.610595703125,-6.596435546875
0.18,5.935791015625,-0.350341796875,-6.276123046875
0.1805,5.855712890625,-1.271240234375,-5.635498046875
0.181,5.655517578125,-2.472412109375,-4.514404296875
0.1815,5.415283203125,-3.793701171875,-3.193115234375
0.182,4.974853515625,-4.834716796875,-1.871826171875
0.1825,4.494384765625,-5.635498046875,-0.790771484375
0.183,3.973876953125,-6.115966796875,0.130126953125
0.1835,3.052978515625,-6.396240234375,1.211181640625
0.184,1.771728515625,-6.556396484375,2.612548828125
0.1845,0.410400390625,-6.636474609375,4.013916015625
0.185,-0.710693359375,-6.516357421875,5.014892578125
0.1855,-1.431396484375,-6.476318359375,5.735595703125
0.186,-2.472412109375,-5.915771484375,6.416259765625
0.1865,-3.793701171875,-4.794677734375,6.776611328125
0.187,-4.994873046875,-3.513427734375,7.056884765625
0.1875,-5.795654296875,-2.072021484375,6.776611328125
0.188,-6.276123046875,-1.031005859375,6.456298828125
