wavelength,x,y,z
0.0,-3.90380859375,4.74462890625,0.06005859375
0.0005,-2.74267578125,4.86474609375,-1.34130859375
0.001,-1.54150390625,5.10498046875,-2.74267578125
0.0015,-0.70068359375,5.34521484375,-3.82373046875
0.002,0.02001953125,5.66552734375,-4.74462890625
0.0025,0.90087890625,5.38525390625,-5.38525390625
0.003,1.94189453125,4.58447265625,-5.82568359375
0.0035,3.14306640625,3.34326171875,-6.02587890625
0.004,4.18408203125,2.06201171875,-6.06591796875
0.0045,4.78466796875,1.30126953125,-6.14599609375
0.005,5.06494140625,0.66064453125,-6.10595703125
0.0055,5.02490234375,-0.18017578125,-5.58544921875
0.006,4.82470703125,-1.26123046875,-4.50439453125
0.0065,4.54443359375,-2.50244140625,-3.34326171875
0.007,4.50439453125,-3.66357421875,-2.30224609375
0.0075,4.42431640625,-4.42431640625,-1.62158203125
0.008,3.98388671875,-4.94482421875,-0.86083984375
0.0085,3.22314453125,-5.30517578125,0.22021484375
0.009,2.14208984375,-5.58544921875,1.46142578125
0.0095,0.94091796875,-5.74560546875,2.82275390625
0.01,0.30029296875,-6.06591796875,3.82373046875
0.0105,-0.46044921875,-6.26611328125,4.66455078125
0.011,-1.38134765625,-5.82568359375,5.26513671875
0.0115,-2.54248046875,-4.82470703125,5.66552734375
0.012,-3.70361328125,-3.62353515625,5.78564453125
0.0125,-4.66455078125,-2.50244140625,5.94580078125
0.013,-5.10498046875,-1.90185546875,6.06591796875
0.0135,-5.30517578125,-1.22119140625,5.78564453125
0.014,-5.26513671875,-0.42041015625,5.26513671875
0.0145,-5.10498046875,0.82080078125,4.22412109375
0.015,-4.90478515625,2.10205078125,2.98291015625
0.0155,-4.82470703125,3.14306640625,2.10205078125
0.016,-4.70458984375,3.90380859375,1.42138671875
0.0165,-4.18408203125,4.34423828125,0.62060546875
0.017,-3.26318359375,4.62451171875,-0.66064453125
0.0175,-2.22216796875,4.86474609375,-1.94189453125
0.018,-1.14111328125,5.18505859375,-3.22314453125
0.0185,-0.58056640625,5.54541015625,-4.14404296875
0.019,0.34033203125,5.50537109375,-4.98486328125
0.0195,1.30126953125,5.06494140625,-5.58544921875
0.02,2.54248046875,3.86376953125,-5.82568359375
0.0205,3.74365234375,2.54248046875,-5.94580078125
0.021,4.50439453125,1.62158203125,-6.10595703125
0.0215,4.90478515625,1.02099609375,-6.10595703125
0.022,4.94482421875,0.30029296875,-5.74560546875
0.0225,4.82470703125,-0.78076171875,-4.94482421875
0.023,4.66455078125,-1.94189453125,-3.86376953125
0.0235,4.54443359375,-3.22314453125,-2.70263671875
0.024,4.50439453125,-4.10400390625,-1.94189453125
0.0245,4.22412109375,-4.82470703125,-1.18115234375
0.025,3.62353515625,-5.26513671875,-0.34033203125
0.0255,2.54248046875,-5.50537109375,1.02099609375
0.026,1.30126953125,-5.62548828125,2.42236328125
0.0265,0.50048828125,-5.98583984375,3.54345703125
0.027,-0.26025390625,-6.30615234375,4.50439453125
0.0275,-1.14111328125,-5.94580078125,5.14501953125
0.028,-2.26220703125,-5.18505859375,5.66552734375
0.0285,-3.46337890625,-4.02392578125,5.86572265625
0.029,-4.54443359375,-2.70263671875,5.90576171875
0.0295,-5.10498046875,-1.98193359375,6.06591796875
0.03,-5.38525390625,-1.30126953125,5.94580078125
0.0305,-5.38525390625,-0.54052734375,5.46533203125
0.031,-5.14501953125,0.70068359375,4.42431640625
0.0315,-4.98486328125,1.94189453125,3.18310546875
0.032,-4.90478515625,3.14306640625,2.14208984375
0.0325,-4.74462890625,3.90380859375,1.42138671875
0.033,-4.30419921875,4.38427734375,0.62060546875
0.0335,-3.54345703125,4.74462890625,-0.50048828125
0.034,-2.30224609375,4.98486328125,-1.86181640625
0.0345,-1.14111328125,5.22509765625,-3.22314453125
0.035,-0.46044921875,5.50537109375,-4.22412109375
0.0355,0.38037109375,5.62548828125,-5.10498046875
0.036,1.34130859375,5.10498046875,-5.70556640625
0.0365,2.62255859375,3.98388671875,-6.02587890625
0.037,3.78369140625,2.70263671875,-6.14599609375
0.0375,4.66455078125,1.54150390625,-6.22607421875
0.038,5.10498046875,0.90087890625,-6.22607421875
0.0385,5.18505859375,0.14013671875,-5.86572265625
0.039,5.06494140625,-0.82080078125,-5.14501953125
0.0395,4.82470703125,-2.06201171875,-3.90380859375
0.04,4.58447265625,-3.42333984375,-2.58251953125
0.0405,4.50439453125,-4.46435546875,-1.70166015625
0.041,4.30419921875,-5.10498046875,-0.98095703125
0.0415,3.58349609375,-5.42529296875,-0.18017578125
0.042,2.54248046875,-5.66552734375,1.14111328125
0.0425,1.30126953125,-5.78564453125,2.54248046875
0.043,0.26025390625,-6.02587890625,3.82373046875
0.0435,-0.46044921875,-6.26611328125,4.66455078125
0.044,-1.30126953125,-6.10595703125,5.42529296875
0.0445,-2.34228515625,-5.42529296875,5.90576171875
0.045,-3.66357421875,-4.06396484375,6.14599609375
0.0455,-4.78466796875,-2.66259765625,6.14599609375
0.046,-5.42529296875,-1.74169921875,6.22607421875
0.0465,-5.70556640625,-1.14111328125,6.10595703125
0.047,-5.62548828125,-0.30029296875,5.54541015625
0.0475,-5.42529296875,0.86083984375,4.54443359375
0.048,-5.14501953125,2.10205078125,3.26318359375
0.0485,-4.94482421875,3.34326171875,1.98193359375
0.049,-4.78466796875,4.14404296875,1.22119140625
0.0495,-4.38427734375,4.70458984375,0.42041015625
0.05,-3.62353515625,5.02490234375,-0.54052734375
0.0505,-2.26220703125,5.18505859375,-1.98193359375
0.051,-1.02099609375,5.34521484375,-3.38330078125
0.0515,-0.18017578125,5.58544921875,-4.50439453125
0.052,0.50048828125,5.74560546875,-5.26513671875
0.0525,1.50146484375,5.26513671875,-5.90576171875
0.053,2.62255859375,4.34423828125,-6.34619140625
0.0535,3.90380859375,2.94287109375,-6.42626953125
0.054,4.94482421875,1.54150390625,-6.38623046875
0.0545,5.42529296875,0.70068359375,-6.38623046875
0.055,5.58544921875,0.02001953125,-6.14599609375
0.0555,5.42529296875,-0.98095703125,-5.42529296875
0.056,5.10498046875,-2.22216796875,-4.14404296875
0.0565,4.82470703125,-3.54345703125,-2.78271484375
0.057,4.62451171875,-4.74462890625,-1.62158203125
0.0575,4.38427734375,-5.42529296875,-0.94091796875
0.058,3.78369140625,-5.74560546875,0.14013671875
0.0585,2.78271484375,-5.98583984375,1.22119140625
0.059,1.34130859375,-6.14599609375,2.70263671875
0.0595,0.06005859375,-6.26611328125,4.14404296875
0.06,-0.70068359375,-6.42626953125,5.10498046875
0.0605,-1.46142578125,-6.38623046875,5.82568359375
0.061,-2.58251953125,-5.62548828125,6.34619140625
0.0615,-3.90380859375,-4.26416015625,6.58642578125
0.062,-5.10498046875,-2.82275390625,6.58642578125
0.0625,-5.90576171875,-1.54150390625,6.50634765625
0.063,-6.14599609375,-0.82080078125,6.38623046875
0.0635,-6.10595703125,0.10009765625,5.82568359375
0.064,-5.90576171875,1.10107421875,4.86474609375
0.0645,-5.50537109375,2.50244140625,3.34326171875
0.065,-5.14501953125,3.86376953125,1.86181640625
0.0655,-4.94482421875,4.78466796875,0.86083984375
0.066,-4.50439453125,5.30517578125,0.14013671875
0.0665,-3.58349609375,5.50537109375,-0.98095703125
0.067,-2.22216796875,5.66552734375,-2.42236328125
0.0675,-0.78076171875,5.74560546875,-3.90380859375
0.068,0.42041015625,5.74560546875,-5.10498046875
0.0685,1.02099609375,5.86572265625,-5.90576171875
0.069,1.94189453125,5.46533203125,-6.54638671875
0.0695,3.06298828125,4.50439453125,-6.90673828125
0.07,4.46435546875,2.90283203125,-6.98681640625
0.0705,5.46533203125,1.34130859375,-6.78662109375
0.071,6.02587890625,0.30029296875,-6.66650390625
0.0715,6.06591796875,-0.50048828125,-6.38623046875
0.072,5.82568359375,-1.38134765625,-5.54541015625
0.0725,5.46533203125,-2.62255859375,-4.30419921875
0.073,5.06494140625,-3.98388671875,-2.74267578125
0.0735,4.66455078125,-5.22509765625,-1.38134765625
0.074,4.34423828125,-5.86572265625,-0.50048828125
0.0745,3.82373046875,-6.26611328125,0.38037109375
0.075,2.82275390625,-6.42626953125,1.42138671875
0.0755,1.26123046875,-6.46630859375,3.02294921875
0.076,-0.30029296875,-6.42626953125,4.50439453125
0.0765,-1.14111328125,-6.50634765625,5.46533203125
0.077,-1.78173828125,-6.50634765625,6.14599609375
0.0775,-2.78271484375,-5.82568359375,6.70654296875
0.078,-3.98388671875,-4.62451171875,6.94677734375
0.0785,-5.18505859375,-3.10302734375,6.94677734375
0.079,-6.10595703125,-1.58154296875,6.70654296875
0.0795,-6.42626953125,-0.74072265625,6.54638671875
0.08,-6.42626953125,0.10009765625,6.14599609375
0.0805,-6.14599609375,0.98095703125,5.22509765625
0.081,-5.74560546875,2.34228515625,3.70361328125
0.0815,-5.30517578125,3.66357421875,2.18212890625
0.082,-5.02490234375,4.82470703125,0.98095703125
0.0825,-4.62451171875,5.38525390625,0.22021484375
0.083,-3.90380859375,5.66552734375,-0.78076171875
0.0835,-2.78271484375,5.78564453125,-1.94189453125
0.084,-1.22119140625,5.82568359375,-3.46337890625
0.0845,0.26025390625,5.78564453125,-4.90478515625
0.085,0.94091796875,5.90576171875,-5.74560546875
0.0855,1.58154296875,5.78564453125,-6.38623046875
0.086,2.70263671875,4.98486328125,-6.86669921875
0.0865,3.98388671875,3.54345703125,-7.02685546875
0.087,5.10498046875,2.02197265625,-6.94677734375
0.0875,5.90576171875,0.70068359375,-6.74658203125
0.088,6.10595703125,0.02001953125,-6.58642578125
0.0885,5.98583984375,-0.98095703125,-6.02587890625
0.089,5.70556640625,-1.94189453125,-5.06494140625
0.0895,5.26513671875,-3.34326171875,-3.54345703125
0.09,4.86474609375,-4.70458984375,-1.94189453125
0.0905,4.62451171875,-5.62548828125,-0.90087890625
0.091,4.22412109375,-6.14599609375,0.02001953125
0.0915,3.34326171875,-6.34619140625,0.90087890625
0.092,1.98193359375,-6.42626953125,2.26220703125
0.0925,0.46044921875,-6.42626953125,3.82373046875
0.093,-0.78076171875,-6.46630859375,5.06494140625
0.0935,-1.38134765625,-6.58642578125,5.82568359375
0.094,-2.26220703125,-6.26611328125,6.46630859375
0.0945,-3.34326171875,-5.30517578125,6.90673828125
0.095,-4.74462890625,-3.74365234375,6.98681640625
0.0955,-5.82568359375,-2.18212890625,6.86669921875
0.096,-6.42626953125,-1.10107421875,6.70654296875
0.0965,-6.50634765625,-0.42041015625,6.42626953125
0.097,-6.26611328125,0.62060546875,5.62548828125
0.0975,-6.02587890625,1.78173828125,4.42431640625
0.098,-5.58544921875,3.18310546875,2.90283203125
0.0985,-5.18505859375,4.50439453125,1.42138671875
0.099,-4.86474609375,5.26513671875,0.50048828125
0.0995,-4.30419921875,5.70556640625,-0.46044921875
0.1,-3.34326171875,5.86572265625,-1.46142578125
0.1005,-1.70166015625,5.90576171875,-3.06298828125
0.101,-0.22021484375,5.90576171875,-4.58447265625
0.1015,0.82080078125,5.98583984375,-5.70556640625
0.102,1.38134765625,5.98583984375,-6.38623046875
0.1025,2.46240234375,5.30517578125,-6.90673828125
0.103,3.70361328125,4.14404296875,-7.18701171875
0.1035,4.94482421875,2.50244140625,-7.18701171875
0.104,5.90576171875,0.90087890625,-6.94677734375
0.1045,6.26611328125,0.02001953125,-6.74658203125
0.105,6.26611328125,-0.90087890625,-6.34619140625
0.1055,5.90576171875,-1.86181640625,-5.38525390625
0.106,5.46533203125,-3.18310546875,-3.82373046875
0.1065,5.02490234375,-4.50439453125,-2.26220703125
0.107,4.70458984375,-5.58544921875,-0.98095703125
0.1075,4.30419921875,-6.14599609375,-0.22021484375
0.108,3.54345703125,-6.42626953125,0.78076171875
0.1085,2.38232421875,-6.54638671875,1.90185546875
0.109,0.78076171875,-6.46630859375,3.50341796875
0.1095,-0.70068359375,-6.42626953125,4.90478515625
0.11,-1.42138671875,-6.50634765625,5.74560546875
0.1105,-2.06201171875,-6.42626953125,6.38623046875
0.111,-3.14306640625,-5.50537109375,6.78662109375
0.1115,-4.42431640625,-4.14404296875,6.90673828125
0.112,-5.46533203125,-2.62255859375,6.82666015625
0.1125,-6.26611328125,-1.34130859375,6.66650390625
0.113,-6.38623046875,-0.62060546875,6.42626953125
0.1135,-6.34619140625,0.18017578125,5.86572265625
0.114,-6.02587890625,1.18115234375,4.98486328125
0.1145,-5.54541015625,2.54248046875,3.46337890625
0.115,-5.14501953125,3.86376953125,1.94189453125
0.1155,-4.86474609375,4.82470703125,0.90087890625
0.116,-4.50439453125,5.34521484375,0.18017578125
0.1165,-3.70361328125,5.50537109375,-0.78076171875
0.117,-2.46240234375,5.62548828125,-2.06201171875
0.1175,-1.06103515625,5.66552734375,-3.54345703125
0.118,0.26025390625,5.70556640625,-4.82470703125
0.1185,0.82080078125,5.82568359375,-5.62548828125
0.119,1.58154296875,5.62548828125,-6.26611328125
0.1195,2.58251953125,4.86474609375,-6.66650390625
0.12,3.90380859375,3.34326171875,-6.74658203125
0.1205,4.98486328125,1.86181640625,-6.70654296875
0.121,5.66552734375,0.78076171875,-6.58642578125
0.1215,5.78564453125,0.14013671875,-6.50634765625
0.122,5.70556640625,-0.74072265625,-5.82568359375
0.1225,5.42529296875,-1.78173828125,-4.82470703125
0.123,5.06494140625,-3.06298828125,-3.46337890625
0.1235,4.78466796875,-4.42431640625,-1.98193359375
0.124,4.54443359375,-5.26513671875,-1.14111328125
0.1245,4.14404296875,-5.78564453125,-0.34033203125
0.125,3.34326171875,-6.06591796875,0.62060546875
0.1255,1.98193359375,-6.14599609375,2.06201171875
0.126,0.58056640625,-6.18603515625,3.54345703125
0.1265,-0.50048828125,-6.34619140625,4.66455078125
0.127,-1.06103515625,-6.54638671875,5.46533203125
0.1275,-1.94189453125,-6.10595703125,6.06591796875
0.128,-3.14306640625,-5.14501953125,6.46630859375
0.1285,-4.42431640625,-3.70361328125,6.54638671875
0.129,-5.42529296875,-2.26220703125,6.46630859375
0.1295,-5.90576171875,-1.42138671875,6.42626953125
0.13,-6.06591796875,-0.66064453125,6.18603515625
0.1305,-5.90576171875,0.26025390625,5.46533203125
0.131,-5.54541015625,1.46142578125,4.22412109375
0.1315,-5.22509765625,2.74267578125,2.86279296875
0.132,-4.98486328125,3.94384765625,1.62158203125
0.1325,-4.78466796875,4.62451171875,0.90087890625
0.133,-4.14404296875,5.06494140625,0.02001953125
0.1335,-3.26318359375,5.26513671875,-1.06103515625
0.134,-1.90185546875,5.38525390625,-2.50244140625
0.1345,-0.58056640625,5.46533203125,-3.94384765625
0.135,0.30029296875,5.66552734375,-4.90478515625
0.1355,0.86083984375,5.74560546875,-5.62548828125
0.136,1.86181640625,5.10498046875,-6.10595703125
0.1365,3.06298828125,3.86376953125,-6.42626953125
0.137,4.18408203125,2.54248046875,-6.42626953125
0.1375,5.10498046875,1.26123046875,-6.38623046875
0.138,5.42529296875,0.62060546875,-6.34619140625
0.1385,5.46533203125,-0.18017578125,-5.98583984375
0.139,5.26513671875,-1.02099609375,-5.26513671875
0.1395,4.98486328125,-2.26220703125,-3.98388671875
0.14,4.62451171875,-3.58349609375,-2.54248046875
0.1405,4.50439453125,-4.58447265625,-1.58154296875
0.141,4.26416015625,-5.26513671875,-0.90087890625
0.1415,3.66357421875,-5.54541015625,0.02001953125
0.142,2.62255859375,-5.74560546875,1.14111328125
0.1425,1.30126953125,-5.86572265625,2.50244140625
0.143,0.22021484375,-6.02587890625,3.78369140625
0.1435,-0.50048828125,-6.26611328125,4.66455078125
0.144,-1.22119140625,-6.26611328125,5.42529296875
0.1445,-2.14208984375,-5.70556640625,5.86572265625
0.145,-3.42333984375,-4.42431640625,6.10595703125
0.1455,-4.58447265625,-3.06298828125,6.10595703125
0.146,-5.30517578125,-1.98193359375,6.22607421875
0.1465,-5.58544921875,-1.38134765625,6.10595703125
0.147,-5.58544921875,-0.62060546875,5.70556640625
0.1475,-5.42529296875,0.38037109375,4.94482421875
0.148,-5.18505859375,1.58154296875,3.78369140625
0.1485,-4.98486328125,2.86279296875,2.46240234375
0.149,-4.82470703125,3.78369140625,1.58154296875
0.1495,-4.54443359375,4.42431640625,0.90087890625
0.15,-3.94384765625,4.74462890625,0.06005859375
0.1505,-2.82275390625,4.98486328125,-1.30126953125
0.151,-1.58154296875,5.10498046875,-2.70263671875
0.1515,-0.62060546875,5.38525390625,-3.82373046875
0.152,0.06005859375,5.62548828125,-4.66455078125
0.1525,0.86083984375,5.42529296875,-5.38525390625
0.153,1.90185546875,4.70458984375,-5.86572265625
0.1535,3.06298828125,3.46337890625,-6.10595703125
0.154,4.18408203125,2.18212890625,-6.10595703125
0.1545,4.82470703125,1.30126953125,-6.18603515625
0.155,5.10498046875,0.74072265625,-6.10595703125
0.1555,5.06494140625,0.02001953125,-5.62548828125
0.156,4.82470703125,-1.14111328125,-4.66455078125
0.1565,4.62451171875,-2.34228515625,-3.50341796875
0.157,4.50439453125,-3.54345703125,-2.42236328125
0.1575,4.42431640625,-4.34423828125,-1.70166015625
0.158,4.10400390625,-4.94482421875,-0.94091796875
0.1585,3.42333984375,-5.26513671875,0.06005859375
0.159,2.26220703125,-5.50537109375,1.34130859375
0.1595,1.02099609375,-5.70556640625,2.70263671875
0.16,0.34033203125,-6.06591796875,3.78369140625
0.1605,-0.38037109375,-6.30615234375,4.62451171875
0.161,-1.30126953125,-5.90576171875,5.26513671875
0.1615,-2.42236328125,-5.06494140625,5.62548828125
0.162,-3.58349609375,-3.82373046875,5.82568359375
0.1625,-4.58447265625,-2.62255859375,5.94580078125
0.163,-5.10498046875,-1.94189453125,6.06591796875
0.1635,-5.30517578125,-1.30126953125,5.90576171875
0.164,-5.26513671875,-0.50048828125,5.38525390625
0.1645,-5.10498046875,0.70068359375,4.34423828125
0.165,-4.90478515625,1.94189453125,3.14306640625
0.1655,-4.82470703125,3.06298828125,2.18212890625
0.166,-4.74462890625,3.82373046875,1.50146484375
0.1665,-4.26416015625,4.30419921875,0.66064453125
0.167,-3.38330078125,4.62451171875,-0.50048828125
0.1675,-2.34228515625,4.94482421875,-1.78173828125
0.168,-1.22119140625,5.14501953125,-3.14306640625
0.1685,-0.58056640625,5.46533203125,-4.06396484375
0.169,0.26025390625,5.54541015625,-4.94482421875
0.1695,1.14111328125,5.10498046875,-5.50537109375
0.17,2.42236328125,3.98388671875,-5.78564453125
0.1705,3.62353515625,2.70263671875,-5.94580078125
0.171,4.50439453125,1.66162109375,-6.10595703125
0.1715,4.82470703125,1.10107421875,-6.14599609375
0.172,4.94482421875,0.34033203125,-5.74560546875
0.1725,4.82470703125,-0.62060546875,-5.10498046875
0.173,4.66455078125,-1.78173828125,-4.02392578125
0.1735,4.50439453125,-3.14306640625,-2.78271484375
0.174,4.46435546875,-4.02392578125,-1.94189453125
0.1745,4.26416015625,-4.74462890625,-1.26123046875
0.175,3.70361328125,-5.14501953125,-0.46044921875
0.1755,2.66259765625,-5.42529296875,0.90087890625
0.176,1.46142578125,-5.62548828125,2.26220703125
0.1765,0.58056640625,-5.94580078125,3.46337890625
0.177,0.02001953125,-6.26611328125,4.34423828125
0.1775,-1.02099609375,-6.10595703125,5.06494140625
0.178,-1.98193359375,-5.38525390625,5.58544921875
0.1785,-3.26318359375,-4.14404296875,5.82568359375
0.179,-4.42431640625,-2.86279296875,5.90576171875
0.1795,-5.06494140625,-2.02197265625,6.06591796875
0.18,-5.38525390625,-1.34130859375,5.98583984375
0.1805,-5.30517578125,-0.62060546875,5.50537109375
0.181,-5.14501953125,0.50048828125,4.50439453125
0.1815,-4.98486328125,1.74169921875,3.38330078125
0.182,-4.86474609375,2.94287109375,2.26220703125
0.1825,-4.74462890625,3.82373046875,1.54150390625
0.183,-4.34423828125,4.34423828125,0.74072265625
0.1835,-3.66357421875,4.66455078125,-0.30029296875
0.184,-2.50244140625,4.94482421875,-1.58154296875
0.1845,-1.30126953125,5.10498046875,-3.02294921875
0.185,-0.58056640625,5.42529296875,-4.02392578125
0.1855,0.14013671875,5.58544921875,-4.90478515625
0.186,1.14111328125,5.18505859375,-5.50537109375
0.1865,2.30224609375,4.22412109375,-5.86572265625
0.187,3.50341796875,3.02294921875,-6.06591796875
0.1875,4.50439453125,1.74169921875,-6.10595703125
0.188,4.94482421875,1.10107421875,-6.18603515625
0.1885,5.10498046875,0.38037109375,-5.90576171875
0.189,5.02490234375,-0.54052734375,-5.34521484375
0.1895,4.82470703125,-1.74169921875,-4.18408203125
0.19,4.62451171875,-3.06298828125,-2.90283203125
0.1905,4.50439453125,-4.10400390625,-1.94189453125
0.191,4.34423828125,-4.82470703125,-1.26123046875
0.1915,3.78369140625,-5.18505859375,-0.46044921875
0.192,2.86279296875,-5.46533203125,0.74072265625
0.1925,1.62158203125,-5.70556640625,2.06201171875
0.193,0.54052734375,-5.94580078125,3.46337890625
0.1935,-0.22021484375,-6.26611328125,4.34423828125
0.194,-0.98095703125,-6.22607421875,5.14501953125
0.1945,-1.94189453125,-5.62548828125,5.70556640625
0.195,-3.26318359375,-4.34423828125,5.98583984375
0.1955,-4.46435546875,-3.02294921875,6.10595703125
0.196,-5.22509765625,-1.98193359375,6.18603515625
0.1965,-5.54541015625,-1.34130859375,6.14599609375
0.197,-5.58544921875,-0.62060546875,5.66552734375
0.1975,-5.38525390625,0.46044921875,4.82470703125
0.198,-5.14501953125,1.66162109375,3.58349609375
0.1985,-4.98486328125,3.06298828125,2.30224609375
0.199,-4.82470703125,3.98388671875,1.42138671875
0.1995,-4.50439453125,4.54443359375,0.70068359375
