wavelength,x,y,z
0.0,11.8115234375,-8.087890625,-4.083984375
0.0005,11.0107421875,-9.12890625,-2.2421875
0.001,10.650390625,-10.3701171875,-0.48046875
0.0015,9.4091796875,-11.05078125,1.6015625
0.002,7.20703125,-10.330078125,3.1630859375
0.0025,5.4853515625,-10.4501953125,5.0849609375
0.003,3.0029296875,-10.2099609375,7.4072265625
0.0035,1.0810546875,-9.3291015625,8.5283203125
0.004,-1.041015625,-9.12890625,10.3701171875
0.0045,-3.04296875,-7.3271484375,10.6103515625
0.005,-4.564453125,-5.765625,10.5703125
0.0055,-7.3271484375,-3.4833984375,11.0107421875
0.006,-9.12890625,-1.2412109375,10.5302734375
0.0065,-10.2099609375,0.640625,9.849609375
0.007,-11.5712890625,2.2822265625,9.5693359375
0.0075,-11.3310546875,4.2841796875,7.3271484375
0.008,-11.37109375,5.845703125,5.7255859375
0.0085,-11.6513671875,8.2080078125,3.5634765625
0.009,-10.5703125,9.048828125,1.6416015625
0.0095,-10.330078125,10.2099609375,0.1201171875
0.01,-8.8486328125,10.6103515625,-1.9619140625
0.0105,-6.646484375,9.9697265625,-3.5634765625
0.011,-4.8447265625,10.08984375,-5.60546875
0.0115,-2.4423828125,9.8095703125,-7.767578125
0.012,-0.6005859375,8.888671875,-8.6884765625
0.0125,1.28125,8.6884765625,-10.3701171875
0.013,3.36328125,6.6865234375,-10.490234375
0.0135,5.125,4.96484375,-10.490234375
0.014,7.84765625,2.6826171875,-10.9306640625
0.0145,9.4091796875,0.3603515625,-10.1298828125
0.015,10.41015625,-1.28125,-9.5693359375
0.0155,11.4912109375,-2.8828125,-9.0087890625
0.016,11.2109375,-4.96484375,-6.7265625
0.0165,11.2109375,-6.6064453125,-4.9248046875
0.017,11.4912109375,-8.96875,-2.8828125
0.0175,10.1298828125,-9.44921875,-1.0009765625
0.018,9.9697265625,-10.5302734375,0.4404296875
0.0185,8.0478515625,-10.6103515625,2.5625
0.019,5.8056640625,-9.9697265625,4.2041015625
0.0195,4.00390625,-10.1298828125,6.24609375
0.02,1.6015625,-9.6494140625,8.2880859375
0.0205,-0.2001953125,-8.6884765625,9.0888671875
0.021,-1.8818359375,-8.328125,10.490234375
0.0215,-4.0439453125,-6.166015625,10.490234375
0.022,-6.0458984375,-4.1640625,10.41015625
0.0225,-8.6884765625,-2.001953125,10.890625
0.023,-9.8896484375,0.3203125,9.8095703125
0.0235,-10.7705078125,1.5615234375,9.44921875
0.024,-11.53125,3.203125,8.568359375
0.0245,-11.1708984375,5.28515625,6.1259765625
0.025,-11.2509765625,7.0869140625,4.244140625
0.0255,-11.4111328125,9.3291015625,2.162109375
0.026,-9.8095703125,9.609375,0.3203125
0.0265,-9.689453125,10.490234375,-0.880859375
0.027,-7.4873046875,10.330078125,-3.0830078125
0.0275,-5.1650390625,9.7294921875,-4.884765625
0.028,-3.283203125,9.9697265625,-7.0869140625
0.0285,-0.880859375,9.2490234375,-8.8486328125
0.029,0.7607421875,8.2880859375,-9.4892578125
0.0295,2.2822265625,7.8876953125,-10.5703125
0.03,4.6044921875,5.5654296875,-10.5703125
0.0305,6.6865234375,3.443359375,-10.5302734375
0.031,9.4091796875,1.041015625,-10.810546875
0.0315,10.25,-1.201171875,-9.4892578125
0.032,10.9306640625,-2.2421875,-9.2490234375
0.0325,11.53125,-4.0439453125,-7.8876953125
0.033,11.130859375,-6.24609375,-5.4453125
0.0335,11.2109375,-8.0478515625,-3.5234375
0.034,11.0908203125,-10.0498046875,-1.3212890625
0.0345,9.44921875,-10.009765625,0.400390625
0.035,9.208984375,-10.6904296875,1.4814453125
0.0355,6.6865234375,-10.3701171875,3.763671875
0.036,4.3642578125,-9.8095703125,5.60546875
0.0365,2.40234375,-10.009765625,7.84765625
0.037,0.0,-9.0888671875,9.3291015625
0.0375,-1.4013671875,-8.16796875,9.8095703125
0.038,-3.0029296875,-7.3671875,10.6103515625
0.0385,-5.4052734375,-4.884765625,10.5302734375
0.039,-7.447265625,-2.8427734375,10.490234375
0.0395,-10.0498046875,-0.4404296875,10.650390625
0.04,-10.5703125,1.5615234375,9.2490234375
0.0405,-11.1708984375,2.40234375,8.96875
0.041,-11.5712890625,4.484375,7.20703125
0.0415,-11.2509765625,6.56640625,4.8447265625
0.042,-11.2509765625,8.568359375,2.8427734375
0.0425,-10.890625,10.2099609375,0.6806640625
0.043,-9.2490234375,10.0498046875,-0.8408203125
0.0435,-8.80859375,10.5302734375,-1.9619140625
0.044,-6.0859375,10.2099609375,-4.4443359375
0.0445,-3.84375,9.7294921875,-6.24609375
0.045,-1.6416015625,9.8896484375,-8.6484375
0.0455,0.720703125,8.6884765625,-9.76953125
0.046,1.76171875,7.8876953125,-10.1298828125
0.0465,3.5634765625,6.7666015625,-10.7705078125
0.047,6.1259765625,4.1640625,-10.7705078125
0.0475,8.1279296875,2.0419921875,-10.5703125
0.048,10.5703125,-0.48046875,-10.5703125
0.0485,10.890625,-2.2822265625,-9.0087890625
0.049,11.37109375,-3.283203125,-8.6083984375
0.0495,11.6513671875,-5.7255859375,-6.3662109375
0.05,11.2509765625,-7.4072265625,-4.2041015625
0.0505,11.2109375,-9.369140625,-2.162109375
0.051,10.5302734375,-10.8505859375,0.1201171875
0.0515,8.9287109375,-10.41015625,1.4013671875
0.052,8.087890625,-10.6904296875,2.6025390625
0.0525,5.1650390625,-10.330078125,5.28515625
0.053,3.04296875,-9.8095703125,7.046875
0.0535,0.720703125,-9.8095703125,9.369140625
0.054,-1.4814453125,-8.5283203125,10.2099609375
0.0545,-2.482421875,-7.607421875,10.3701171875
0.055,-4.64453125,-5.9658203125,10.8505859375
0.0555,-7.0869140625,-3.4833984375,10.7705078125
0.056,-8.8486328125,-1.44140625,10.490234375
0.0565,-11.0107421875,0.880859375,10.41015625
0.057,-11.1708984375,2.5224609375,8.80859375
0.0575,-11.53125,3.763671875,8.0078125
0.058,-11.7314453125,6.40625,5.5654296875
0.0585,-11.2509765625,7.8076171875,3.6435546875
0.059,-11.0908203125,9.609375,1.6015625
0.0595,-10.25,10.810546875,-0.6005859375
0.06,-8.5283203125,10.25,-1.841796875
0.0605,-7.3671875,10.490234375,-3.36328125
0.061,-4.484375,10.169921875,-6.0458984375
0.0615,-2.482421875,9.609375,-7.52734375
0.062,-0.2001953125,9.44921875,-9.7294921875
0.0625,1.841796875,8.087890625,-10.330078125
0.063,2.8427734375,7.046875,-10.3701171875
0.0635,5.4453125,5.044921875,-10.890625
0.064,7.6474609375,2.6826171875,-10.73046875
0.0645,9.2490234375,0.6005859375,-10.25
0.065,11.130859375,-1.5615234375,-10.1298828125
0.0655,11.130859375,-3.2431640625,-8.328125
0.066,11.37109375,-4.564453125,-7.2470703125
0.0665,11.5712890625,-7.126953125,-4.8046875
0.067,10.9306640625,-8.328125,-3.0029296875
0.0675,10.73046875,-9.8896484375,-1.1611328125
0.068,9.6494140625,-10.73046875,0.9609375
0.0685,7.84765625,-10.1298828125,2.2421875
0.069,6.3662109375,-10.2900390625,4.083984375
0.0695,3.763671875,-9.9296875,6.3662109375
0.07,1.921875,-9.369140625,7.7275390625
0.0705,-0.3603515625,-9.12890625,9.7294921875
0.071,-2.2021484375,-7.7275390625,10.08984375
0.0715,-3.36328125,-6.486328125,10.169921875
0.072,-6.1259765625,-4.32421875,10.6103515625
0.0725,-7.927734375,-2.2421875,10.2900390625
0.073,-9.369140625,-0.3603515625,9.849609375
0.0735,-10.890625,1.5615234375,9.609375
0.074,-10.810546875,3.2431640625,7.767578125
0.0745,-11.05078125,4.724609375,6.5263671875
0.075,-11.2509765625,7.0869140625,4.32421875
0.0755,-10.5302734375,8.0478515625,2.6025390625
0.076,-10.3701171875,9.5693359375,0.9208984375
0.0765,-9.12890625,10.08984375,-1.041015625
0.077,-7.4072265625,9.5693359375,-2.2822265625
0.0775,-5.6455078125,9.7294921875,-4.3642578125
0.078,-3.36328125,9.4091796875,-6.40625
0.0785,-1.6015625,8.8486328125,-7.6875
0.079,0.4404296875,8.6484375,-9.4892578125
0.0795,2.162109375,7.126953125,-9.689453125
0.08,3.603515625,5.8857421875,-9.8896484375
0.0805,6.3662109375,3.5634765625,-10.330078125
0.081,7.8876953125,1.521484375,-9.8896484375
0.0815,9.2890625,-0.240234375,-9.529296875
0.082,10.5302734375,-1.921875,-9.048828125
0.0825,10.41015625,-3.5634765625,-7.2470703125
0.083,10.650390625,-5.205078125,-5.8056640625
0.0835,10.810546875,-7.4072265625,-3.8037109375
0.084,10.0498046875,-8.16796875,-2.2021484375
0.0845,9.9697265625,-9.609375,-0.640625
0.085,8.3681640625,-9.76953125,1.28125
0.0855,6.7666015625,-9.369140625,2.6025390625
0.086,4.8447265625,-9.5693359375,4.8046875
0.0865,2.802734375,-9.2490234375,6.646484375
0.087,1.12109375,-8.6884765625,7.84765625
0.0875,-0.8408203125,-8.3681640625,9.44921875
0.088,-2.6025390625,-6.7265625,9.529296875
0.0885,-4.32421875,-5.28515625,9.76953125
0.089,-6.966796875,-3.1630859375,10.2099609375
0.0895,-8.2880859375,-1.0810546875,9.5693359375
0.09,-9.6494140625,0.48046875,9.4091796875
0.0905,-10.5703125,2.1220703125,8.6484375
0.091,-10.41015625,3.84375,6.806640625
0.0915,-10.6904296875,5.7255859375,5.1650390625
0.092,-10.810546875,7.7275390625,3.203125
0.0925,-9.8095703125,8.2880859375,1.6015625
0.093,-9.849609375,9.6494140625,0.2001953125
0.0935,-7.8876953125,9.6494140625,-1.8818359375
0.094,-6.166015625,9.3291015625,-3.4033203125
0.0945,-4.2041015625,9.5693359375,-5.6455078125
0.095,-2.0419921875,9.048828125,-7.4072265625
0.0955,-0.48046875,8.4482421875,-8.408203125
0.096,1.361328125,8.0078125,-9.8095703125
0.0965,3.3232421875,6.0859375,-9.849609375
0.097,5.3251953125,4.244140625,-10.08984375
0.0975,7.9677734375,2.1220703125,-10.4501953125
0.098,9.0888671875,0.0,-9.369140625
0.0985,10.2099609375,-1.3212890625,-9.3291015625
0.099,10.9306640625,-3.1630859375,-8.2080078125
0.0995,10.6904296875,-5.0048828125,-6.0859375
0.1,10.890625,-6.9267578125,-4.32421875
0.1005,10.8505859375,-8.9287109375,-2.2822265625
0.101,9.5693359375,-9.208984375,-0.640625
0.1015,9.529296875,-10.2900390625,0.720703125
0.102,7.1669921875,-10.0498046875,2.8828125
0.1025,5.125,-9.609375,4.564453125
0.103,3.203125,-9.8095703125,6.806640625
0.1035,0.9609375,-9.0087890625,8.328125
0.104,-0.6005859375,-8.3681640625,9.1689453125
0.1045,-2.322265625,-7.7275390625,10.25
0.105,-4.484375,-5.525390625,10.169921875
0.1055,-6.56640625,-3.4833984375,10.2099609375
0.106,-9.12890625,-1.2412109375,10.5302734375
0.1065,-9.8095703125,0.880859375,9.208984375
0.107,-10.7705078125,1.8017578125,9.2490234375
0.1075,-11.2509765625,3.8037109375,7.6875
0.108,-10.890625,5.7255859375,5.365234375
0.1085,-11.0908203125,7.7275390625,3.5634765625
0.109,-10.7705078125,9.4892578125,1.4013671875
0.1095,-9.369140625,9.529296875,-0.16015625
0.11,-9.1689453125,10.3701171875,-1.3212890625
0.1105,-6.6064453125,9.9697265625,-3.603515625
0.111,-4.484375,9.5693359375,-5.4052734375
0.1115,-2.482421875,9.8095703125,-7.7275390625
0.112,-0.2001953125,8.6884765625,-8.96875
0.1125,1.0810546875,8.087890625,-9.609375
0.113,2.8828125,7.0869140625,-10.5302734375
0.1135,5.0849609375,4.8447265625,-10.3701171875
0.114,7.3271484375,2.6826171875,-10.41015625
0.1145,9.76953125,0.3203125,-10.490234375
0.115,10.2099609375,-1.6015625,-9.0087890625
0.1155,11.05078125,-2.482421875,-9.0087890625
0.116,11.37109375,-4.724609375,-7.046875
0.1165,11.0107421875,-6.6064453125,-4.8046875
0.117,11.1708984375,-8.6884765625,-2.8427734375
0.1175,10.5302734375,-10.1298828125,-0.6806640625
0.118,9.1689453125,-9.9697265625,0.6806640625
0.1185,8.6484375,-10.6103515625,1.9619140625
0.119,5.8857421875,-10.1298828125,4.3642578125
0.1195,3.763671875,-9.7294921875,6.1259765625
0.12,1.5615234375,-9.9296875,8.568359375
0.1205,-0.6806640625,-8.6083984375,9.4892578125
0.121,-1.76171875,-8.0478515625,9.9697265625
0.1215,-3.7236328125,-6.6865234375,10.6103515625
0.122,-6.0859375,-4.2041015625,10.490234375
0.1225,-8.2080078125,-2.08203125,10.5302734375
0.123,-10.4501953125,0.2802734375,10.3701171875
0.1235,-10.650390625,1.921875,8.9287109375
0.124,-11.3310546875,2.8828125,8.6884765625
0.1245,-11.5712890625,5.4453125,6.326171875
0.125,-11.1708984375,7.0869140625,4.32421875
0.1255,-11.2509765625,9.2490234375,2.162109375
0.126,-10.330078125,10.3701171875,0.0
0.1265,-9.0087890625,10.08984375,-1.1611328125
0.127,-8.1279296875,10.5302734375,-2.6025390625
0.1275,-5.205078125,10.08984375,-5.1650390625
0.128,-3.1630859375,9.609375,-6.9267578125
0.1285,-0.80078125,9.6494140625,-9.2890625
0.129,1.28125,8.16796875,-9.9697265625
0.1295,2.2021484375,7.6875,-10.2900390625
0.13,4.5244140625,5.8857421875,-10.8505859375
0.1305,6.7666015625,3.4833984375,-10.650390625
0.131,8.888671875,1.2412109375,-10.490234375
0.1315,10.8505859375,-1.0810546875,-10.2099609375
0.132,10.8505859375,-2.6025390625,-8.6884765625
0.1325,11.4912109375,-3.84375,-8.0478515625
0.133,11.5712890625,-6.486328125,-5.4453125
0.1335,11.0908203125,-7.8076171875,-3.68359375
0.134,11.0908203125,-9.8896484375,-1.4814453125
0.1345,9.9296875,-10.73046875,0.640625
0.135,8.5283203125,-10.2900390625,1.681640625
0.1355,7.2470703125,-10.5703125,3.36328125
0.136,4.404296875,-10.1298828125,5.8056640625
0.1365,2.3623046875,-9.6494140625,7.52734375
0.137,0.1201171875,-9.5693359375,9.6494140625
0.1375,-1.8017578125,-8.0478515625,10.08984375
0.138,-2.802734375,-7.2470703125,10.330078125
0.1385,-5.4453125,-5.125,10.810546875
0.139,-7.4072265625,-2.8828125,10.5302734375
0.1395,-9.3291015625,-0.80078125,10.330078125
0.14,-11.0107421875,1.3212890625,9.9296875
0.1405,-10.970703125,2.8427734375,8.328125
0.141,-11.451171875,4.2841796875,7.4072265625
0.1415,-11.5712890625,6.9267578125,4.8447265625
0.142,-10.970703125,8.0078125,3.1630859375
0.1425,-10.9306640625,9.9296875,1.12109375
0.143,-9.6494140625,10.5302734375,-0.9609375
0.1435,-8.16796875,10.08984375,-2.08203125
0.144,-6.486328125,10.2900390625,-4.1240234375
0.1445,-3.923828125,9.8896484375,-6.326171875
0.145,-1.9619140625,9.4091796875,-7.9677734375
0.1455,0.3203125,9.208984375,-9.9296875
0.146,2.1220703125,7.6474609375,-10.2099609375
0.1465,3.3232421875,6.646484375,-10.4501953125
0.147,6.326171875,4.2041015625,-10.9306640625
0.1475,8.0478515625,2.08203125,-10.5302734375
0.148,9.76953125,0.0400390625,-10.2099609375
0.1485,11.2509765625,-1.9619140625,-9.689453125
0.149,11.1708984375,-3.7236328125,-7.84765625
0.1495,11.53125,-5.28515625,-6.6064453125
0.15,11.5712890625,-7.767578125,-4.1640625
0.1505,10.8505859375,-8.728515625,-2.4423828125
0.151,10.73046875,-10.41015625,-0.560546875
0.1515,9.208984375,-10.7705078125,1.521484375
0.152,7.4873046875,-10.2900390625,2.802734375
0.1525,5.525390625,-10.490234375,5.0849609375
0.153,3.04296875,-10.1298828125,7.1669921875
0.1535,1.12109375,-9.4091796875,8.568359375
0.154,-1.0810546875,-9.0888671875,10.41015625
0.1545,-2.9228515625,-7.3271484375,10.5302734375
0.155,-4.5244140625,-5.92578125,10.6904296875
0.1555,-7.447265625,-3.4833984375,11.130859375
0.156,-9.0087890625,-1.28125,10.490234375
0.1565,-10.4501953125,0.6005859375,10.08984375
0.157,-11.69140625,2.482421875,9.4892578125
0.1575,-11.4912109375,4.32421875,7.3671875
0.158,-11.6513671875,6.0859375,5.765625
0.1585,-11.8115234375,8.4482421875,3.5234375
0.159,-10.73046875,9.2490234375,1.6416015625
0.1595,-10.6103515625,10.6904296875,0.0
0.16,-8.80859375,10.8505859375,-2.2421875
0.1605,-6.806640625,10.2900390625,-3.7236328125
0.161,-4.7646484375,10.41015625,-6.1259765625
0.1615,-2.2822265625,10.009765625,-8.1279296875
0.162,-0.4404296875,9.12890625,-9.208984375
0.1625,1.6015625,8.80859375,-10.890625
0.163,3.763671875,6.7265625,-10.9306640625
0.1635,5.60546875,4.96484375,-10.970703125
0.164,8.48828125,2.5625,-11.451171875
0.1645,9.9296875,0.1201171875,-10.41015625
0.165,11.130859375,-1.6015625,-9.9697265625
0.1655,12.171875,-3.36328125,-9.1689453125
0.166,11.771484375,-5.4052734375,-6.7666015625
0.1665,11.8115234375,-7.287109375,-4.9248046875
0.167,11.9716796875,-9.6494140625,-2.6826171875
0.1675,10.490234375,-10.0498046875,-0.6806640625
0.168,10.3701171875,-11.2509765625,0.8408203125
0.1685,8.16796875,-11.291015625,3.1630859375
0.169,5.8857421875,-10.6103515625,4.8046875
0.1695,3.84375,-10.6904296875,7.0869140625
0.17,1.28125,-10.08984375,9.0888671875
0.1705,-0.640625,-9.0087890625,9.849609375
0.171,-2.4423828125,-8.6083984375,11.291015625
0.1715,-4.724609375,-6.2060546875,11.2109375
0.172,-6.7666015625,-4.1240234375,11.130859375
0.1725,-9.5693359375,-1.76171875,11.53125
0.173,-10.650390625,0.7607421875,10.2099609375
0.1735,-11.5712890625,2.0419921875,9.8095703125
0.174,-12.3720703125,3.8837890625,8.728515625
0.1745,-11.8916015625,6.0458984375,6.0859375
0.175,-11.8916015625,7.9677734375,4.1640625
0.1755,-11.931640625,10.2099609375,1.921875
0.176,-10.169921875,10.2900390625,-0.16015625
0.1765,-10.0498046875,11.291015625,-1.3212890625
0.177,-7.5673828125,11.05078125,-3.8037109375
0.1775,-5.125,10.3701171875,-5.5654296875
0.178,-3.1630859375,10.5302734375,-7.84765625
0.1785,-0.560546875,9.7294921875,-9.6494140625
0.179,1.1611328125,8.6083984375,-10.2099609375
0.1795,2.8427734375,8.087890625,-11.37109375
0.18,5.2451171875,5.5654296875,-11.2509765625
0.1805,7.3671875,3.3232421875,-11.05078125
0.181,10.169921875,0.880859375,-11.37109375
0.1815,10.9306640625,-1.5615234375,-9.8095703125
0.182,11.6513671875,-2.5625,-9.5693359375
0.1825,12.2119140625,-4.564453125,-8.087890625
0.183,11.7314453125,-6.7265625,-5.4453125
0.1835,11.771484375,-8.6484375,-3.5234375
0.184,11.53125,-10.650390625,-1.201171875
0.1845,9.76953125,-10.5703125,0.640625
0.185,9.529296875,-11.4111328125,1.76171875
0.1855,6.806640625,-10.9306640625,4.2041015625
0.186,4.4443359375,-10.2900390625,6.0458984375
0.1865,2.3623046875,-10.4501953125,8.3681640625
0.187,-0.16015625,-9.369140625,9.76953125
0.1875,-1.6015625,-8.408203125,10.2900390625
0.188,-3.36328125,-7.5673828125,11.1708984375
0.1885,-5.765625,-5.0048828125,11.0107421875
0.189,-7.84765625,-2.802734375,10.8505859375
0.1895,-10.4501953125,-0.3603515625,11.0107421875
0.19,-10.9306640625,1.7216796875,9.44921875
0.1905,-11.611328125,2.5625,9.2890625
0.191,-11.9716796875,4.8046875,7.4072265625
0.1915,-11.53125,6.7666015625,4.96484375
0.192,-11.5712890625,8.80859375,2.9228515625
0.1925,-11.05078125,10.490234375,0.6806640625
0.193,-9.4892578125,10.25,-0.880859375
0.1935,-9.0087890625,10.8505859375,-2.0419921875
0.194,-6.2060546875,10.4501953125,-4.5244140625
0.1945,-4.00390625,9.9296875,-6.326171875
0.195,-1.8017578125,10.1298828125,-8.728515625
0.1955,0.6005859375,8.80859375,-9.8095703125
0.196,1.7216796875,8.1279296875,-10.25
0.1965,3.6435546875,6.88671875,-10.9306640625
0.197,6.0458984375,4.3642578125,-10.810546875
0.1975,8.2080078125,2.1220703125,-10.73046875
0.198,10.6103515625,-0.3603515625,-10.650390625
0.1985,10.8505859375,-2.1220703125,-9.12890625
0.199,11.4912109375,-3.04296875,-8.8486328125
0.1995,11.69140625,-5.525390625,-6.56640625
0.2,11.3310546875,-7.287109375,-4.4443359375
0.2005,11.37109375,-9.4091796875,-2.2822265625
0.201,10.5703125,-10.7705078125,-0.16015625
0.2015,9.0888671875,-10.330078125,1.1611328125
0.202,8.2880859375,-10.7705078125,2.482421875
0.2025,5.4052734375,-10.2900390625,5.044921875
0.203,3.283203125,-9.8896484375,6.806640625
0.2035,1.0009765625,-9.9697265625,9.208984375
0.204,-1.2412109375,-8.568359375,10.009765625
0.2045,-2.2021484375,-7.84765625,10.330078125
0.205,-4.3642578125,-6.24609375,10.8505859375
0.2055,-6.7265625,-3.8037109375,10.6904296875
0.206,-8.80859375,-1.6015625,10.6103515625
0.2065,-10.890625,0.720703125,10.41015625
0.207,-10.970703125,2.3623046875,8.9287109375
0.2075,-11.4912109375,3.36328125,8.328125
0.208,-11.69140625,6.1259765625,5.8056640625
0.2085,-11.2509765625,7.52734375,3.8837890625
0.209,-11.291015625,9.609375,1.76171875
0.2095,-10.330078125,10.6904296875,-0.400390625
0.21,-8.80859375,10.2099609375,-1.5615234375
0.2105,-7.6474609375,10.5703125,-3.203125
0.211,-4.724609375,10.2099609375,-5.8056640625
0.2115,-2.6826171875,9.7294921875,-7.4873046875
0.212,-0.400390625,9.6494140625,-9.7294921875
0.2125,1.681640625,8.248046875,-10.330078125
0.213,2.6826171875,7.3671875,-10.5302734375
0.2135,5.365234375,5.2451171875,-11.05078125
0.214,7.52734375,2.9228515625,-10.890625
0.2145,9.4091796875,0.7607421875,-10.5302734375
0.215,11.3310546875,-1.4814453125,-10.25
0.2155,11.3310546875,-3.203125,-8.48828125
0.216,11.6513671875,-4.5244140625,-7.5673828125
0.2165,11.8515625,-7.4072265625,-4.96484375
0.217,11.2509765625,-8.5283203125,-3.1630859375
0.2175,11.130859375,-10.2900390625,-1.12109375
0.218,10.009765625,-11.1708984375,1.0810546875
0.2185,8.16796875,-10.5302734375,2.3623046875
0.219,6.646484375,-10.7705078125,4.2841796875
0.2195,3.84375,-10.41015625,6.7666015625
0.22,1.841796875,-9.8095703125,8.2880859375
0.2205,-0.5205078125,-9.609375,10.3701171875
0.221,-2.5224609375,-8.0078125,10.7705078125
0.2215,-3.763671875,-6.7666015625,10.810546875
0.222,-6.7265625,-4.404296875,11.3310546875
0.2225,-8.6884765625,-2.08203125,11.0107421875
