wavelength,x,y,z
0.0,4.96484375,-10.7705078125,5.8857421875
0.0005,2.2421875,-10.5302734375,8.4482421875
0.001,0.2802734375,-9.4892578125,9.44921875
0.0015,-1.5615234375,-9.369140625,11.130859375
0.002,-3.763671875,-7.52734375,11.4912109375
0.0025,-5.3251953125,-5.525390625,11.130859375
0.003,-8.0478515625,-3.1630859375,11.4912109375
0.0035,-9.9296875,-0.640625,10.8505859375
0.004,-10.7705078125,1.2412109375,9.8896484375
0.0045,-12.0517578125,2.6826171875,9.7294921875
0.005,-11.69140625,4.7646484375,7.20703125
0.0055,-11.4111328125,6.24609375,5.4052734375
0.006,-11.69140625,8.8486328125,3.0029296875
0.0065,-10.5302734375,9.689453125,0.9208984375
0.007,-10.169921875,10.650390625,-0.560546875
0.0075,-8.7685546875,11.1708984375,-2.5625
0.008,-6.2861328125,10.25,-4.244140625
0.0085,-4.3642578125,10.2099609375,-6.24609375
0.009,-1.8017578125,9.9697265625,-8.6083984375
0.0095,0.16015625,8.888671875,-9.44921875
0.01,1.6416015625,8.8486328125,-10.890625
0.0105,3.84375,6.88671875,-11.0908203125
0.011,5.5654296875,4.8046875,-10.7705078125
0.0115,8.328125,2.3623046875,-11.1708984375
0.012,9.9296875,-0.16015625,-10.25
0.0125,10.650390625,-1.6416015625,-9.4892578125
0.013,11.6513671875,-3.04296875,-9.12890625
0.0135,11.2109375,-5.0849609375,-6.56640625
0.014,11.0107421875,-6.7265625,-4.64453125
0.0145,11.291015625,-9.208984375,-2.40234375
0.015,9.9296875,-9.7294921875,-0.4404296875
0.0155,9.7294921875,-10.5703125,0.8408203125
0.016,7.9677734375,-10.7705078125,2.802734375
0.0165,5.4853515625,-9.9697265625,4.5244140625
0.017,3.603515625,-10.08984375,6.56640625
0.0175,1.1611328125,-9.76953125,8.6884765625
0.018,-0.640625,-8.6884765625,9.44921875
0.0185,-2.001953125,-8.48828125,10.73046875
0.019,-4.2041015625,-6.326171875,10.73046875
0.0195,-6.0859375,-4.2041015625,10.490234375
0.02,-8.80859375,-1.841796875,10.8505859375
0.0205,-10.009765625,0.48046875,9.8095703125
0.021,-10.6103515625,1.6015625,9.2890625
0.0215,-11.4111328125,3.0830078125,8.6083984375
0.022,-10.890625,5.1650390625,6.0458984375
0.0225,-10.8505859375,7.0068359375,4.00390625
0.023,-11.05078125,9.3291015625,1.841796875
0.0235,-9.609375,9.609375,0.0
0.024,-9.44921875,10.3701171875,-1.041015625
0.0245,-7.4072265625,10.2900390625,-3.123046875
0.025,-4.9248046875,9.609375,-4.96484375
0.0255,-2.9228515625,9.7294921875,-7.20703125
0.026,-0.6005859375,9.2890625,-9.0888671875
0.0265,0.9609375,8.2880859375,-9.6494140625
0.027,2.2421875,8.0078125,-10.650390625
0.0275,4.6044921875,5.6455078125,-10.650390625
0.028,6.56640625,3.443359375,-10.41015625
0.0285,9.3291015625,0.9609375,-10.6904296875
0.029,10.2099609375,-1.28125,-9.4892578125
0.0295,10.73046875,-2.1220703125,-9.0087890625
0.03,11.2509765625,-3.8037109375,-7.8876953125
0.0305,10.810546875,-5.92578125,-5.28515625
0.031,10.73046875,-7.84765625,-3.203125
0.0315,10.810546875,-9.9697265625,-1.0810546875
0.032,9.208984375,-9.9697265625,0.6806640625
0.0325,8.9287109375,-10.490234375,1.5615234375
0.033,6.56640625,-10.2900390625,3.763671875
0.0335,4.1240234375,-9.689453125,5.60546875
0.034,2.001953125,-9.76953125,7.9677734375
0.0345,-0.3603515625,-9.12890625,9.609375
0.035,-1.6015625,-8.1279296875,9.9296875
0.0355,-2.9228515625,-7.52734375,10.6103515625
0.036,-5.4453125,-4.96484375,10.6103515625
0.0365,-7.3671875,-2.72265625,10.3701171875
0.037,-9.9296875,-0.3603515625,10.5302734375
0.0375,-10.5703125,1.6015625,9.2490234375
0.038,-10.8505859375,2.40234375,8.7685546875
0.0385,-11.2509765625,4.32421875,7.1669921875
0.039,-10.8505859375,6.40625,4.64453125
0.0395,-10.73046875,8.2880859375,2.5625
0.04,-10.6103515625,10.2099609375,0.4404296875
0.0405,-8.96875,9.9697265625,-1.1611328125
0.041,-8.4482421875,10.25,-2.0419921875
0.0415,-5.92578125,10.08984375,-4.5244140625
0.042,-3.5234375,9.529296875,-6.326171875
0.0425,-1.3212890625,9.6494140625,-8.6884765625
0.043,0.9208984375,8.80859375,-10.08984375
0.0435,1.921875,7.8076171875,-10.169921875
0.044,3.5634765625,6.7666015625,-10.7705078125
0.0445,6.2861328125,4.083984375,-10.7705078125
0.045,7.9677734375,1.921875,-10.2900390625
0.0455,10.3701171875,-0.4404296875,-10.41015625
0.046,10.8505859375,-2.2822265625,-9.0087890625
0.0465,10.970703125,-3.203125,-8.248046875
0.047,11.2509765625,-5.4453125,-6.2861328125
0.0475,10.8505859375,-7.3671875,-3.84375
0.048,10.6103515625,-9.0087890625,-1.9619140625
0.0485,10.2900390625,-10.73046875,0.240234375
0.049,8.5283203125,-10.2900390625,1.681640625
0.0495,7.6875,-10.41015625,2.6826171875
0.05,4.9248046875,-10.2099609375,5.4052734375
0.0505,2.72265625,-9.5693359375,7.046875
0.051,0.6005859375,-9.6494140625,9.2490234375
0.0515,-1.5615234375,-8.6484375,10.3701171875
0.052,-2.642578125,-7.4873046875,10.3701171875
0.0525,-4.6044921875,-5.92578125,10.7705078125
0.053,-7.20703125,-3.283203125,10.7705078125
0.0535,-8.6884765625,-1.28125,10.169921875
0.054,-10.7705078125,0.80078125,10.25
0.0545,-11.05078125,2.6025390625,8.7685546875
0.055,-11.05078125,3.6435546875,7.6875
0.0555,-11.291015625,6.0458984375,5.4853515625
0.056,-10.8505859375,7.8076171875,3.1630859375
0.0565,-10.5302734375,9.12890625,1.44140625
0.057,-10.1298828125,10.650390625,-0.640625
0.0575,-8.2080078125,10.1298828125,-2.162109375
0.058,-6.9267578125,10.169921875,-3.4833984375
0.0585,-4.244140625,10.08984375,-6.1259765625
0.059,-2.1220703125,9.369140625,-7.607421875
0.0595,-0.16015625,9.3291015625,-9.609375
0.06,1.921875,8.2880859375,-10.5703125
0.0605,3.203125,6.88671875,-10.490234375
0.061,5.4853515625,4.96484375,-10.8505859375
0.0615,7.9677734375,2.40234375,-10.810546875
0.062,9.208984375,0.2802734375,-9.9296875
0.0625,11.0107421875,-1.44140625,-10.0498046875
0.063,11.1708984375,-3.36328125,-8.2880859375
0.0635,11.05078125,-4.564453125,-6.9267578125
0.064,11.2509765625,-7.046875,-4.64453125
0.0645,10.73046875,-8.6484375,-2.4423828125
0.065,10.2099609375,-9.689453125,-0.80078125
0.0655,9.689453125,-10.9306640625,1.12109375
0.066,7.4072265625,-10.25,2.8427734375
0.0665,5.92578125,-10.169921875,4.32421875
0.067,3.3232421875,-10.1298828125,6.9267578125
0.0675,1.28125,-9.2890625,8.248046875
0.068,-0.6005859375,-9.208984375,9.9697265625
0.0685,-2.5625,-7.9677734375,10.7705078125
0.069,-4.1240234375,-6.2060546875,10.5703125
0.0695,-6.4462890625,-4.1640625,10.8505859375
0.07,-8.80859375,-1.681640625,10.73046875
0.0705,-9.689453125,0.3603515625,9.6494140625
0.071,-11.2509765625,1.76171875,9.849609375
0.0715,-11.2509765625,3.7236328125,7.8076171875
0.072,-10.970703125,5.0849609375,6.1259765625
0.0725,-11.2509765625,7.52734375,3.8837890625
0.073,-10.5703125,8.96875,1.7216796875
0.0735,-9.9296875,9.76953125,0.240234375
0.074,-9.3291015625,10.7705078125,-1.6015625
0.0745,-6.88671875,10.08984375,-3.443359375
0.075,-5.1650390625,9.9296875,-5.0849609375
0.0755,-2.642578125,9.9697265625,-7.6474609375
0.076,-0.640625,8.96875,-8.728515625
0.0765,0.9609375,8.888671875,-10.25
0.077,3.0029296875,7.52734375,-10.890625
0.0775,4.7646484375,5.4853515625,-10.6103515625
0.078,7.20703125,3.203125,-10.890625
0.0785,9.44921875,0.720703125,-10.5703125
0.079,10.08984375,-1.201171875,-9.369140625
0.0795,11.451171875,-2.3623046875,-9.529296875
0.08,11.2509765625,-4.5244140625,-7.20703125
0.0805,10.9306640625,-6.1259765625,-5.28515625
0.081,11.2509765625,-8.5283203125,-3.123046875
0.0815,10.330078125,-9.6494140625,-0.9609375
0.082,9.6494140625,-10.25,0.48046875
0.0825,8.7685546875,-10.970703125,2.2021484375
0.083,6.0859375,-10.2099609375,4.1240234375
0.0835,4.244140625,-9.9697265625,5.8857421875
0.084,1.8017578125,-10.009765625,8.408203125
0.0845,-0.3203125,-8.80859375,9.2890625
0.085,-1.6015625,-8.6884765625,10.5302734375
0.0855,-3.7236328125,-7.046875,11.0107421875
0.086,-5.60546875,-4.8447265625,10.6904296875
0.0865,-8.2080078125,-2.482421875,10.890625
0.087,-10.1298828125,0.0,10.3701171875
0.0875,-10.5302734375,1.6015625,9.2490234375
0.088,-11.5712890625,2.642578125,9.2490234375
0.0885,-11.3310546875,4.9248046875,6.6865234375
0.089,-10.970703125,6.56640625,4.564453125
0.0895,-11.3310546875,9.0888671875,2.40234375
0.09,-10.1298828125,9.9296875,0.2001953125
0.0905,-9.4892578125,10.330078125,-1.0009765625
0.091,-8.328125,10.810546875,-2.72265625
0.0915,-5.525390625,10.0498046875,-4.8046875
0.092,-3.4833984375,9.849609375,-6.7265625
0.0925,-1.12109375,9.8896484375,-9.1689453125
0.093,0.9609375,8.4482421875,-9.76953125
0.0935,1.9619140625,8.4482421875,-10.7705078125
0.094,4.2841796875,6.40625,-11.130859375
0.0945,6.24609375,4.083984375,-10.7705078125
0.095,8.96875,1.521484375,-10.890625
0.0955,10.6904296875,-0.9609375,-10.2099609375
0.096,10.810546875,-2.2822265625,-9.048828125
0.0965,11.6513671875,-3.4033203125,-8.728515625
0.097,11.37109375,-5.845703125,-5.9658203125
0.0975,10.9306640625,-7.5673828125,-3.763671875
0.098,11.2509765625,-9.9697265625,-1.5615234375
0.0985,9.76953125,-10.5302734375,0.640625
0.099,9.0888671875,-10.6103515625,1.521484375
0.0995,7.5673828125,-10.8505859375,3.3232421875
0.1,4.724609375,-10.08984375,5.4853515625
0.1005,2.5224609375,-9.8896484375,7.52734375
0.101,0.240234375,-9.8095703125,9.76953125
0.1015,-1.6416015625,-8.2880859375,10.1298828125
0.102,-2.5625,-8.0478515625,10.8505859375
0.1025,-5.0849609375,-5.765625,11.05078125
0.103,-7.0068359375,-3.4033203125,10.650390625
0.1035,-9.609375,-0.9208984375,10.73046875
0.104,-10.9306640625,1.3212890625,9.9296875
0.1045,-10.890625,2.40234375,8.80859375
0.105,-11.53125,3.68359375,8.087890625
0.1055,-11.2509765625,6.24609375,5.28515625
0.106,-10.8505859375,7.8076171875,3.1630859375
0.1065,-11.05078125,10.1298828125,0.9609375
0.107,-9.44921875,10.3701171875,-1.0009765625
0.1075,-8.728515625,10.3701171875,-1.8017578125
0.108,-6.88671875,10.41015625,-3.84375
0.1085,-4.2041015625,9.76953125,-5.845703125
0.109,-1.9619140625,9.609375,-8.0078125
0.1095,0.3203125,9.3291015625,-9.9697265625
0.11,1.8017578125,7.927734375,-10.1298828125
0.1105,2.802734375,7.4873046875,-10.6904296875
0.111,5.5654296875,4.9248046875,-10.890625
0.1115,7.2470703125,2.72265625,-10.41015625
0.112,9.7294921875,0.2001953125,-10.5703125
0.1125,10.810546875,-1.8017578125,-9.4892578125
0.113,10.73046875,-2.8828125,-8.408203125
0.1135,11.2109375,-4.404296875,-7.20703125
0.114,10.890625,-6.7265625,-4.564453125
0.1145,10.5302734375,-8.16796875,-2.642578125
0.115,10.5703125,-10.25,-0.640625
0.1155,8.9287109375,-10.2099609375,1.201171875
0.116,8.16796875,-10.1298828125,1.9619140625
0.1165,5.9658203125,-10.1298828125,4.2041015625
0.117,3.5634765625,-9.529296875,6.0859375
0.1175,1.44140625,-9.44921875,8.2080078125
0.118,-0.720703125,-8.96875,9.849609375
0.1185,-2.001953125,-7.7275390625,9.8896484375
0.119,-3.2431640625,-6.88671875,10.330078125
0.1195,-6.005859375,-4.2841796875,10.5302734375
0.12,-7.6474609375,-2.322265625,10.1298828125
0.1205,-9.76953125,-0.2001953125,10.169921875
0.121,-10.490234375,1.8017578125,9.12890625
0.1215,-10.5302734375,2.72265625,8.0478515625
0.122,-10.890625,4.6044921875,6.4462890625
0.1225,-10.6103515625,6.7265625,4.1240234375
0.123,-10.2900390625,8.087890625,2.322265625
0.1235,-10.25,9.8896484375,0.3603515625
0.124,-8.568359375,9.7294921875,-1.28125
0.1245,-7.6875,9.7294921875,-2.2021484375
0.125,-5.2451171875,9.7294921875,-4.724609375
0.1255,-3.123046875,9.208984375,-6.40625
0.126,-1.1611328125,9.1689453125,-8.3681640625
0.1265,0.9208984375,8.5283203125,-9.76953125
0.127,2.162109375,7.3271484375,-9.8095703125
0.1275,3.8037109375,6.0458984375,-10.25
0.128,6.5263671875,3.5234375,-10.3701171875
0.1285,7.9677734375,1.4013671875,-9.76953125
0.129,9.9296875,-0.5205078125,-10.009765625
0.1295,10.41015625,-2.2421875,-8.6884765625
0.13,10.3701171875,-3.36328125,-7.447265625
0.1305,10.650390625,-5.4853515625,-5.60546875
0.131,10.41015625,-7.3671875,-3.36328125
0.1315,10.009765625,-8.48828125,-1.8017578125
0.132,9.849609375,-10.0498046875,0.1201171875
0.1325,7.9677734375,-9.689453125,1.7216796875
0.133,6.7666015625,-9.609375,2.8828125
0.1335,4.32421875,-9.6494140625,5.4052734375
0.134,2.3623046875,-9.048828125,6.88671875
0.1345,0.560546875,-9.0087890625,8.6484375
0.135,-1.44140625,-8.2080078125,9.849609375
0.1355,-2.7626953125,-6.7666015625,9.7294921875
0.136,-4.64453125,-5.1650390625,10.08984375
0.1365,-7.1669921875,-2.8427734375,10.2099609375
0.137,-8.3681640625,-1.0009765625,9.4091796875
0.1375,-10.0498046875,0.6806640625,9.609375
0.138,-10.330078125,2.482421875,8.16796875
0.1385,-10.25,3.6435546875,6.8466796875
0.139,-10.4501953125,5.845703125,4.8046875
0.1395,-10.2099609375,7.52734375,2.802734375
0.14,-9.6494140625,8.4482421875,1.28125
0.1405,-9.44921875,9.7294921875,-0.400390625
0.141,-7.4072265625,9.2890625,-2.08203125
0.1415,-6.0859375,9.208984375,-3.36328125
0.142,-3.7236328125,9.2490234375,-5.845703125
0.1425,-1.8818359375,8.6884765625,-7.1669921875
0.143,-0.2802734375,8.6484375,-8.7685546875
0.1435,1.6015625,7.6875,-9.689453125
0.144,3.04296875,6.2060546875,-9.609375
0.1445,5.2451171875,4.2841796875,-9.9296875
0.145,7.4873046875,2.0419921875,-9.9697265625
0.1455,8.48828125,0.2001953125,-9.0888671875
0.146,9.9697265625,-1.1611328125,-9.3291015625
0.1465,10.1298828125,-2.9228515625,-7.607421875
0.147,9.9697265625,-4.244140625,-6.1259765625
0.1475,10.2900390625,-6.486328125,-4.1640625
0.148,9.8896484375,-7.927734375,-2.2822265625
0.1485,9.4091796875,-8.7685546875,-0.8408203125
0.149,8.9287109375,-9.76953125,0.7607421875
0.1495,6.7666015625,-9.2490234375,2.4423828125
0.15,5.28515625,-9.1689453125,3.9638671875
0.1505,3.04296875,-9.2890625,6.3662109375
0.151,1.28125,-8.6083984375,7.52734375
0.1515,-0.2802734375,-8.6083984375,9.0087890625
0.152,-2.162109375,-7.4072265625,9.7294921875
0.1525,-3.7236328125,-5.7255859375,9.609375
0.153,-6.1259765625,-3.7236328125,9.9296875
0.1535,-8.2080078125,-1.4814453125,9.8896484375
0.154,-9.0087890625,0.2802734375,8.96875
0.1545,-10.2900390625,1.361328125,9.208984375
0.155,-10.25,3.3232421875,7.20703125
0.1555,-10.1298828125,4.8447265625,5.4853515625
0.156,-10.5302734375,7.20703125,3.4833984375
0.1565,-9.8896484375,8.4482421875,1.5615234375
0.157,-9.3291015625,9.12890625,0.240234375
0.1575,-8.6884765625,9.9296875,-1.361328125
0.158,-6.24609375,9.2890625,-3.283203125
0.1585,-4.5244140625,9.2490234375,-5.044921875
0.159,-2.2822265625,9.4091796875,-7.4873046875
0.1595,-0.3603515625,8.408203125,-8.408203125
0.16,0.9609375,8.3681640625,-9.6494140625
0.1605,2.9228515625,6.88671875,-10.25
0.161,4.7646484375,4.8046875,-10.1298828125
0.1615,7.3671875,2.5625,-10.330078125
0.162,9.369140625,0.240234375,-10.009765625
0.1625,9.849609375,-1.4013671875,-8.9287109375
0.163,10.890625,-2.40234375,-8.96875
0.1635,10.73046875,-4.6044921875,-6.56640625
0.164,10.4501953125,-6.3662109375,-4.5244140625
0.1645,10.8505859375,-8.728515625,-2.40234375
0.165,9.76953125,-9.6494140625,-0.3603515625
0.1655,9.0888671875,-9.9697265625,0.80078125
0.166,8.087890625,-10.4501953125,2.40234375
0.1665,5.365234375,-9.76953125,4.484375
0.167,3.3232421875,-9.5693359375,6.40625
0.1675,1.0810546875,-9.6494140625,8.80859375
0.168,-0.9609375,-8.328125,9.44921875
0.1685,-1.8818359375,-8.2880859375,10.3701171875
0.169,-4.1240234375,-6.40625,10.650390625
0.1695,-6.1259765625,-4.0439453125,10.3701171875
0.17,-8.6884765625,-1.6416015625,10.5703125
0.1705,-10.41015625,0.6806640625,10.009765625
0.171,-10.5302734375,1.9619140625,8.80859375
0.1715,-11.291015625,3.0029296875,8.6083984375
0.172,-11.05078125,5.4052734375,5.8857421875
0.1725,-10.6904296875,7.0869140625,3.763671875
0.173,-10.970703125,9.5693359375,1.5615234375
0.1735,-9.689453125,10.169921875,-0.5205078125
0.174,-8.96875,10.2099609375,-1.4013671875
0.1745,-7.5673828125,10.4501953125,-3.123046875
0.175,-4.7646484375,9.76953125,-5.3251953125
0.1755,-2.5625,9.5693359375,-7.3671875
0.176,-0.3203125,9.529296875,-9.609375
0.1765,1.4814453125,8.0478515625,-9.9697265625
0.177,2.2822265625,7.84765625,-10.650390625
0.1775,4.8447265625,5.60546875,-10.890625
0.178,6.7265625,3.3232421875,-10.5302734375
0.1785,9.2890625,0.8408203125,-10.5703125
0.179,10.7705078125,-1.4013671875,-9.849609375
0.1795,10.73046875,-2.6025390625,-8.6083984375
0.18,11.3310546875,-3.84375,-7.9677734375
0.1805,11.0908203125,-6.3662109375,-5.125
0.181,10.6103515625,-7.84765625,-3.1630859375
0.1815,10.8505859375,-10.1298828125,-1.0009765625
0.182,9.4091796875,-10.4501953125,0.9609375
0.1825,8.568359375,-10.3701171875,1.841796875
0.183,6.7666015625,-10.41015625,3.763671875
0.1835,4.0439453125,-9.76953125,5.8857421875
0.184,1.921875,-9.609375,7.8876953125
0.1845,-0.3603515625,-9.4091796875,9.9296875
0.185,-1.921875,-8.0478515625,10.0498046875
0.1855,-2.8828125,-7.447265625,10.5302734375
0.186,-5.6455078125,-4.9248046875,10.810546875
0.1865,-7.3671875,-2.7626953125,10.3701171875
0.187,-9.6494140625,-0.5205078125,10.41015625
0.1875,-10.890625,1.5615234375,9.609375
0.188,-10.810546875,2.72265625,8.3681640625
0.1885,-11.2509765625,4.2041015625,7.287109375
0.189,-11.0107421875,6.6865234375,4.5244140625
0.1895,-10.5703125,8.0078125,2.6826171875
0.19,-10.650390625,10.1298828125,0.6005859375
0.1905,-9.12890625,10.2099609375,-1.2412109375
0.191,-8.2080078125,10.08984375,-2.08203125
0.1915,-6.0458984375,10.169921875,-4.404296875
0.192,-3.5634765625,9.609375,-6.3662109375
0.1925,-1.44140625,9.4091796875,-8.328125
0.193,0.720703125,9.0087890625,-10.2099609375
0.1935,2.2021484375,7.6875,-10.25
0.194,3.443359375,6.7666015625,-10.6103515625
0.1945,6.40625,4.083984375,-10.890625
0.195,7.9677734375,1.921875,-10.330078125
0.1955,10.0498046875,-0.240234375,-10.2900390625
0.196,11.130859375,-2.2021484375,-9.369140625
0.1965,10.970703125,-3.5234375,-7.8876953125
0.197,11.2509765625,-5.2451171875,-6.40625
0.1975,11.0908203125,-7.6474609375,-3.8037109375
0.198,10.5302734375,-8.7685546875,-2.0419921875
0.1985,10.5302734375,-10.6103515625,0.0
0.199,8.7685546875,-10.6103515625,1.8818359375
0.1995,7.4072265625,-10.330078125,2.9228515625
0.2,5.044921875,-10.41015625,5.4453125
0.2005,2.6025390625,-9.8095703125,7.3671875
0.201,0.720703125,-9.5693359375,8.96875
0.2015,-1.44140625,-9.048828125,10.73046875
0.202,-3.1630859375,-7.3671875,10.6904296875
0.2025,-4.6845703125,-5.9658203125,10.890625
0.203,-7.7275390625,-3.2431640625,11.1708984375
0.2035,-9.0888671875,-1.041015625,10.3701171875
0.204,-10.7705078125,0.880859375,10.2099609375
0.2045,-11.69140625,2.72265625,9.2490234375
0.205,-11.37109375,4.32421875,7.3271484375
0.2055,-11.4912109375,6.166015625,5.5654296875
0.206,-11.4111328125,8.6083984375,3.0029296875
0.2065,-10.4501953125,9.4091796875,1.1611328125
0.207,-10.4501953125,10.970703125,-0.640625
0.2075,-8.3681640625,10.890625,-2.72265625
0.208,-6.6064453125,10.3701171875,-4.0439453125
0.2085,-4.2041015625,10.4501953125,-6.6064453125
0.209,-1.7216796875,9.76953125,-8.5283203125
0.2095,0.1201171875,9.2490234375,-9.7294921875
0.21,2.0419921875,8.80859375,-11.2509765625
0.2105,4.083984375,6.6865234375,-11.2109375
0.211,5.845703125,4.884765625,-11.1708984375
0.2115,8.888671875,2.2021484375,-11.4912109375
0.212,10.0498046875,-0.3203125,-10.25
0.2125,11.37109375,-1.841796875,-10.009765625
0.213,12.1318359375,-3.68359375,-8.888671875
0.2135,11.5712890625,-5.4853515625,-6.5263671875
0.214,11.5712890625,-7.4072265625,-4.564453125
0.2145,11.4912109375,-9.7294921875,-2.0419921875
0.215,10.169921875,-10.169921875,-0.2001953125
0.2155,10.08984375,-11.4912109375,1.3212890625
0.216,7.7275390625,-11.2509765625,3.5634765625
0.2165,5.60546875,-10.5302734375,5.044921875
0.217,3.2431640625,-10.650390625,7.4873046875
0.2175,0.7607421875,-9.849609375,9.3291015625
0.218,-1.0009765625,-9.0087890625,10.2099609375
0.2185,-2.72265625,-8.6083984375,11.5712890625
0.219,-4.96484375,-6.166015625,11.37109375
0.2195,-6.88671875,-4.00390625,11.1708984375
0.22,-9.76953125,-1.4814453125,11.4912109375
0.2205,-10.650390625,0.9609375,10.0498046875
0.221,-11.69140625,2.162109375,9.8896484375
0.2215,-12.2119140625,3.9638671875,8.48828125
0.222,-11.6513671875,5.9658203125,5.92578125
0.2225,-11.5712890625,7.9677734375,3.84375
0.223,-11.53125,10.2099609375,1.4013671875
0.2235,-9.8896484375,10.3701171875,-0.5205078125
0.224,-9.849609375,11.37109375,-1.7216796875
0.2245,-7.287109375,11.0107421875,-4.00390625
