wavelength,x,y,z
0.0,-3.273193359375,2.452392578125,0.770751953125
0.0005,-3.273193359375,1.851806640625,1.411376953125
0.001,-3.353271484375,1.451416015625,1.891845703125
0.0015,-3.153076171875,0.610595703125,2.412353515625
0.002,-2.952880859375,0.050048828125,2.892822265625
0.0025,-2.552490234375,-0.790771484375,3.253173828125
0.003,-2.152099609375,-1.311279296875,3.453369140625
0.0035,-1.471435546875,-1.951904296875,3.373291015625
0.004,-0.790771484375,-2.432373046875,3.213134765625
0.0045,-0.110107421875,-2.952880859375,3.052978515625
0.005,0.690673828125,-3.273193359375,2.612548828125
0.0055,1.291259765625,-3.633544921875,2.412353515625
0.006,1.651611328125,-3.593505859375,2.011962890625
0.0065,2.172119140625,-3.713623046875,1.571533203125
0.007,2.492431640625,-3.273193359375,0.890869140625
0.0075,2.972900390625,-3.153076171875,0.250244140625
0.008,3.173095703125,-2.432373046875,-0.790771484375
0.0085,3.493408203125,-2.232177734375,-1.271240234375
0.009,3.333251953125,-1.471435546875,-1.871826171875
0.0095,3.253173828125,-1.151123046875,-2.352294921875
0.01,2.932861328125,-0.230224609375,-2.872802734375
0.0105,2.692626953125,0.490478515625,-3.233154296875
0.011,2.292236328125,1.251220703125,-3.593505859375
0.0115,1.771728515625,1.771728515625,-3.553466796875
0.012,1.131103515625,2.372314453125,-3.553466796875
0.0125,0.370361328125,2.772705078125,-3.193115234375
0.013,-0.310302734375,3.213134765625,-3.072998046875
0.0135,-1.151123046875,3.493408203125,-2.512451171875
0.014,-1.591552734375,3.733642578125,-2.312255859375
0.0145,-1.951904296875,3.573486328125,-1.791748046875
0.015,-2.392333984375,3.573486328125,-1.351318359375
0.0155,-2.672607421875,3.133056640625,-0.590576171875
0.016,-3.072998046875,2.852783203125,0.170166015625
0.0165,-3.273193359375,2.252197265625,1.010986328125
0.017,-3.393310546875,1.931884765625,1.531494140625
0.0175,-3.353271484375,1.251220703125,2.092041015625
0.018,-3.153076171875,0.650634765625,2.492431640625
0.0185,-2.912841796875,0.010009765625,2.972900390625
0.019,-2.512451171875,-0.830810546875,3.293212890625
0.0195,-2.152099609375,-1.511474609375,3.573486328125
0.02,-1.431396484375,-1.951904296875,3.373291015625
0.0205,-0.870849609375,-2.592529296875,3.413330078125
0.021,0.010009765625,-2.912841796875,2.972900390625
0.0215,0.610595703125,-3.393310546875,2.812744140625
0.022,1.411376953125,-3.593505859375,2.252197265625
0.0225,1.771728515625,-3.753662109375,2.052001953125
0.023,2.212158203125,-3.673583984375,1.531494140625
0.0235,2.532470703125,-3.473388671875,0.970947265625
0.024,2.892822265625,-3.072998046875,0.250244140625
0.0245,3.213134765625,-2.592529296875,-0.590576171875
0.025,3.453369140625,-2.192138671875,-1.311279296875
0.0255,3.373291015625,-1.631591796875,-1.791748046875
0.026,3.373291015625,-1.111083984375,-2.392333984375
0.0265,3.012939453125,-0.350341796875,-2.752685546875
0.027,2.852783203125,0.330322265625,-3.233154296875
0.0275,2.332275390625,1.131103515625,-3.553466796875
0.028,1.971923828125,1.651611328125,-3.713623046875
0.0285,1.211181640625,2.172119140625,-3.513427734375
0.029,0.610595703125,2.692626953125,-3.393310546875
0.0295,-0.150146484375,3.052978515625,-3.072998046875
0.03,-0.790771484375,3.453369140625,-2.752685546875
0.0305,-1.551513671875,3.693603515625,-2.352294921875
0.031,-1.791748046875,3.653564453125,-1.991943359375
0.0315,-2.312255859375,3.653564453125,-1.471435546875
0.032,-2.592529296875,3.253173828125,-0.830810546875
0.0325,-3.032958984375,3.052978515625,0.010009765625
0.033,-3.193115234375,2.412353515625,0.770751953125
0.0335,-3.513427734375,2.092041015625,1.291259765625
0.034,-3.273193359375,1.451416015625,1.811767578125
0.0345,-3.393310546875,1.010986328125,2.332275390625
0.035,-2.952880859375,0.170166015625,2.812744140625
0.0355,-2.792724609375,-0.510498046875,3.213134765625
0.036,-2.272216796875,-1.311279296875,3.533447265625
0.0365,-1.791748046875,-1.791748046875,3.533447265625
0.037,-1.031005859375,-2.432373046875,3.413330078125
0.0375,-0.350341796875,-2.872802734375,3.173095703125
0.038,0.450439453125,-3.273193359375,2.892822265625
0.0385,1.171142578125,-3.553466796875,2.492431640625
0.039,1.771728515625,-3.873779296875,2.172119140625
0.0395,2.052001953125,-3.673583984375,1.651611328125
0.04,2.572509765625,-3.753662109375,1.211181640625
0.0405,2.812744140625,-3.193115234375,0.490478515625
0.041,3.253173828125,-2.952880859375,-0.310302734375
0.0415,3.453369140625,-2.232177734375,-1.231201171875
0.042,3.573486328125,-1.871826171875,-1.791748046875
0.0425,3.333251953125,-1.151123046875,-2.312255859375
0.043,3.253173828125,-0.590576171875,-2.792724609375
0.0435,2.852783203125,0.290283203125,-3.193115234375
0.044,2.532470703125,0.970947265625,-3.553466796875
0.0445,2.052001953125,1.731689453125,-3.873779296875
0.045,1.411376953125,2.172119140625,-3.593505859375
0.0455,0.730712890625,2.812744140625,-3.553466796875
0.046,-0.070068359375,3.133056640625,-3.193115234375
0.0465,-0.790771484375,3.533447265625,-2.912841796875
0.047,-1.551513671875,3.733642578125,-2.392333984375
0.0475,-2.031982421875,3.853759765625,-1.991943359375
0.048,-2.312255859375,3.573486328125,-1.431396484375
0.0485,-2.792724609375,3.573486328125,-0.910888671875
0.049,-3.032958984375,2.972900390625,0.010009765625
0.0495,-3.393310546875,2.692626953125,0.690673828125
0.05,-3.553466796875,1.971923828125,1.531494140625
0.0505,-3.513427734375,1.531494140625,1.931884765625
0.051,-3.353271484375,0.850830078125,2.492431640625
0.0515,-3.153076171875,0.250244140625,2.852783203125
0.052,-2.792724609375,-0.590576171875,3.333251953125
0.0525,-2.312255859375,-1.311279296875,3.573486328125
0.053,-1.871826171875,-1.991943359375,3.813720703125
0.0535,-1.031005859375,-2.392333984375,3.373291015625
0.054,-0.430419921875,-3.032958984375,3.453369140625
0.0545,0.450439453125,-3.273193359375,2.852783203125
0.055,1.091064453125,-3.673583984375,2.652587890625
0.0555,1.891845703125,-3.873779296875,2.052001953125
0.056,2.252197265625,-3.873779296875,1.691650390625
0.0565,2.572509765625,-3.673583984375,1.131103515625
0.057,2.932861328125,-3.513427734375,0.610595703125
0.0575,3.133056640625,-2.952880859375,-0.270263671875
0.058,3.493408203125,-2.432373046875,-1.071044921875
0.0585,3.693603515625,-1.871826171875,-1.911865234375
0.059,3.373291015625,-1.271240234375,-2.232177734375
0.0595,3.373291015625,-0.670654296875,-2.832763671875
0.06,2.932861328125,0.130126953125,-3.072998046875
0.0605,2.692626953125,0.770751953125,-3.553466796875
0.061,2.132080078125,1.571533203125,-3.793701171875
0.0615,1.611572265625,2.092041015625,-3.793701171875
0.062,0.850830078125,2.532470703125,-3.473388671875
0.0625,0.250244140625,3.052978515625,-3.353271484375
0.063,-0.590576171875,3.333251953125,-2.872802734375
0.0635,-1.151123046875,3.613525390625,-2.592529296875
0.064,-1.871826171875,3.853759765625,-2.112060546875
0.0645,-2.152099609375,3.613525390625,-1.631591796875
0.065,-2.592529296875,3.573486328125,-1.151123046875
0.0655,-2.872802734375,3.133056640625,-0.470458984375
0.066,-3.193115234375,2.812744140625,0.250244140625
0.0665,-3.313232421875,2.252197265625,1.010986328125
0.067,-3.553466796875,1.891845703125,1.611572265625
0.0675,-3.233154296875,1.251220703125,1.931884765625
0.068,-3.313232421875,0.770751953125,2.532470703125
0.0685,-2.872802734375,0.010009765625,2.892822265625
0.069,-2.632568359375,-0.710693359375,3.293212890625
0.0695,-2.152099609375,-1.471435546875,3.533447265625
0.07,-1.591552734375,-1.871826171875,3.453369140625
0.0705,-0.910888671875,-2.432373046875,3.293212890625
0.071,-0.270263671875,-2.872802734375,3.093017578125
0.0715,0.570556640625,-3.233154296875,2.772705078125
0.072,1.131103515625,-3.553466796875,2.452392578125
0.0725,1.651611328125,-3.833740234375,2.212158203125
0.073,1.931884765625,-3.553466796875,1.731689453125
0.0735,2.372314453125,-3.713623046875,1.291259765625
0.074,2.692626953125,-3.072998046875,0.450439453125
0.0745,3.133056640625,-2.872802734375,-0.310302734375
0.075,3.333251953125,-2.272216796875,-1.151123046875
0.0755,3.453369140625,-1.951904296875,-1.591552734375
0.076,3.213134765625,-1.231201171875,-2.072021484375
0.0765,3.253173828125,-0.750732421875,-2.552490234375
0.077,2.852783203125,0.130126953125,-3.032958984375
0.0775,2.572509765625,0.770751953125,-3.393310546875
0.078,2.172119140625,1.451416015625,-3.713623046875
0.0785,1.531494140625,1.891845703125,-3.473388671875
0.079,0.890869140625,2.532470703125,-3.553466796875
0.0795,0.130126953125,2.932861328125,-3.153076171875
0.08,-0.590576171875,3.333251953125,-2.952880859375
0.0805,-1.271240234375,3.573486328125,-2.472412109375
0.081,-1.711669921875,3.733642578125,-2.192138671875
0.0815,-2.112060546875,3.453369140625,-1.591552734375
0.082,-2.552490234375,3.573486328125,-1.191162109375
0.0825,-2.832763671875,2.972900390625,-0.310302734375
0.083,-3.233154296875,2.732666015625,0.450439453125
0.0835,-3.473388671875,2.092041015625,1.291259765625
0.084,-3.393310546875,1.691650390625,1.651611328125
0.0845,-3.353271484375,1.010986328125,2.292236328125
0.085,-3.153076171875,0.370361328125,2.732666015625
0.0855,-2.792724609375,-0.510498046875,3.213134765625
0.086,-2.392333984375,-1.191162109375,3.493408203125
0.0865,-1.871826171875,-1.871826171875,3.693603515625
0.087,-1.111083984375,-2.272216796875,3.333251953125
0.0875,-0.470458984375,-2.952880859375,3.373291015625
0.088,0.450439453125,-3.233154296875,2.812744140625
0.0885,1.051025390625,-3.713623046875,2.612548828125
0.089,1.851806640625,-3.873779296875,2.132080078125
0.0895,2.132080078125,-3.873779296875,1.651611328125
0.09,2.572509765625,-3.593505859375,1.051025390625
0.0905,2.972900390625,-3.353271484375,0.490478515625
0.091,3.253173828125,-2.792724609375,-0.510498046875
0.0915,3.533447265625,-2.352294921875,-1.231201171875
0.092,3.653564453125,-1.671630859375,-2.072021484375
0.0925,3.333251953125,-1.031005859375,-2.392333984375
0.093,3.333251953125,-0.470458984375,-2.992919921875
0.0935,2.852783203125,0.370361328125,-3.193115234375
0.094,2.532470703125,1.051025390625,-3.633544921875
0.0945,1.931884765625,1.811767578125,-3.833740234375
0.095,1.331298828125,2.372314453125,-3.793701171875
0.0955,0.530517578125,2.772705078125,-3.353271484375
0.096,-0.150146484375,3.293212890625,-3.353271484375
0.0965,-0.990966796875,3.493408203125,-2.592529296875
0.097,-1.511474609375,3.733642578125,-2.392333984375
0.0975,-2.272216796875,3.893798828125,-1.791748046875
0.098,-2.432373046875,3.613525390625,-1.351318359375
0.0985,-2.872802734375,3.533447265625,-0.830810546875
0.099,-3.072998046875,3.012939453125,0.010009765625
0.0995,-3.353271484375,2.532470703125,0.690673828125
0.1,-3.513427734375,2.011962890625,1.411376953125
0.1005,-3.553466796875,1.531494140625,2.011962890625
0.101,-3.193115234375,0.850830078125,2.332275390625
0.1015,-3.233154296875,0.330322265625,2.892822265625
0.102,-2.672607421875,-0.510498046875,3.173095703125
0.1025,-2.432373046875,-1.151123046875,3.493408203125
0.103,-1.831787109375,-1.871826171875,3.653564453125
0.1035,-1.231201171875,-2.272216796875,3.453369140625
0.104,-0.510498046875,-2.752685546875,3.213134765625
0.1045,0.250244140625,-3.153076171875,3.052978515625
0.105,0.970947265625,-3.473388671875,2.572509765625
0.1055,1.451416015625,-3.673583984375,2.292236328125
0.106,1.971923828125,-3.833740234375,1.891845703125
0.1065,2.212158203125,-3.473388671875,1.331298828125
0.107,2.692626953125,-3.553466796875,0.890869140625
0.1075,2.852783203125,-2.872802734375,0.050048828125
0.108,3.253173828125,-2.632568359375,-0.630615234375
0.1085,3.373291015625,-1.991943359375,-1.431396484375
0.109,3.373291015625,-1.671630859375,-1.791748046875
0.1095,3.173095703125,-0.990966796875,-2.272216796875
0.11,3.133056640625,-0.510498046875,-2.712646484375
0.1105,2.692626953125,0.370361328125,-3.153076171875
0.111,2.492431640625,0.970947265625,-3.473388671875
0.1115,1.931884765625,1.571533203125,-3.593505859375
0.112,1.331298828125,1.971923828125,-3.353271484375
0.1125,0.690673828125,2.652587890625,-3.353271484375
0.113,0.010009765625,2.932861328125,-2.952880859375
0.1135,-0.630615234375,3.333251953125,-2.832763671875
0.114,-1.271240234375,3.533447265625,-2.512451171875
0.1145,-1.631591796875,3.653564453125,-2.192138671875
0.115,-1.951904296875,3.413330078125,-1.631591796875
0.1155,-2.432373046875,3.493408203125,-1.151123046875
0.116,-2.752685546875,2.852783203125,-0.270263671875
0.1165,-3.153076171875,2.692626953125,0.370361328125
0.117,-3.353271484375,2.092041015625,1.131103515625
0.1175,-3.273193359375,1.771728515625,1.451416015625
0.118,-3.233154296875,1.091064453125,2.172119140625
0.1185,-3.072998046875,0.450439453125,2.612548828125
0.119,-2.792724609375,-0.350341796875,3.093017578125
0.1195,-2.432373046875,-0.990966796875,3.373291015625
0.12,-1.951904296875,-1.591552734375,3.493408203125
0.1205,-1.151123046875,-2.072021484375,3.253173828125
0.121,-0.590576171875,-2.752685546875,3.333251953125
0.1215,0.330322265625,-3.072998046875,2.812744140625
0.122,0.890869140625,-3.513427734375,2.692626953125
0.1225,1.491455078125,-3.713623046875,2.252197265625
0.123,1.851806640625,-3.673583984375,1.931884765625
0.1235,2.292236328125,-3.553466796875,1.291259765625
0.124,2.692626953125,-3.233154296875,0.650634765625
0.1245,3.052978515625,-2.752685546875,-0.310302734375
0.125,3.333251953125,-2.432373046875,-0.990966796875
0.1255,3.493408203125,-1.871826171875,-1.671630859375
0.126,3.213134765625,-1.231201171875,-2.072021484375
0.1265,3.253173828125,-0.630615234375,-2.712646484375
0.127,2.812744140625,0.210205078125,-3.072998046875
0.1275,2.532470703125,0.890869140625,-3.513427734375
0.128,2.052001953125,1.571533203125,-3.673583984375
0.1285,1.451416015625,2.092041015625,-3.593505859375
0.129,0.650634765625,2.572509765625,-3.273193359375
0.1295,0.010009765625,3.093017578125,-3.193115234375
0.13,-0.830810546875,3.333251953125,-2.672607421875
0.1305,-1.351318359375,3.693603515625,-2.512451171875
0.131,-1.991943359375,3.813720703125,-1.951904296875
0.1315,-2.272216796875,3.533447265625,-1.431396484375
0.132,-2.752685546875,3.453369140625,-0.870849609375
0.1325,-2.992919921875,2.892822265625,0.010009765625
0.133,-3.273193359375,2.532470703125,0.730712890625
0.1335,-3.473388671875,1.971923828125,1.411376953125
0.134,-3.513427734375,1.451416015625,1.971923828125
0.1345,-3.153076171875,0.770751953125,2.372314453125
0.135,-3.153076171875,0.210205078125,2.932861328125
0.1355,-2.592529296875,-0.710693359375,3.213134765625
0.136,-2.272216796875,-1.311279296875,3.573486328125
0.1365,-1.631591796875,-2.031982421875,3.653564453125
0.137,-0.990966796875,-2.472412109375,3.373291015625
0.1375,-0.310302734375,-3.032958984375,3.173095703125
0.138,0.570556640625,-3.353271484375,2.812744140625
0.1385,1.291259765625,-3.593505859375,2.372314453125
0.139,1.771728515625,-3.793701171875,2.092041015625
0.1395,2.252197265625,-3.833740234375,1.611572265625
0.14,2.492431640625,-3.433349609375,1.010986328125
0.1405,2.972900390625,-3.393310546875,0.490478515625
0.141,3.133056640625,-2.632568359375,-0.510498046875
0.1415,3.453369140625,-2.392333984375,-1.111083984375
0.142,3.493408203125,-1.671630859375,-1.831787109375
0.1425,3.373291015625,-1.231201171875,-2.232177734375
0.143,3.093017578125,-0.510498046875,-2.632568359375
0.1435,2.932861328125,0.090087890625,-3.113037109375
0.144,2.452392578125,0.930908203125,-3.393310546875
0.1445,2.132080078125,1.411376953125,-3.593505859375
0.145,1.531494140625,2.052001953125,-3.593505859375
0.1455,0.770751953125,2.412353515625,-3.273193359375
0.146,0.170166015625,3.012939453125,-3.273193359375
0.1465,-0.630615234375,3.253173828125,-2.792724609375
0.147,-1.191162109375,3.573486328125,-2.552490234375
0.1475,-1.671630859375,3.653564453125,-2.152099609375
0.148,-2.072021484375,3.653564453125,-1.751708984375
0.1485,-2.352294921875,3.293212890625,-1.151123046875
0.149,-2.792724609375,3.253173828125,-0.630615234375
0.1495,-2.952880859375,2.572509765625,0.330322265625
0.15,-3.313232421875,2.412353515625,0.850830078125
0.1505,-3.353271484375,1.771728515625,1.571533203125
0.151,-3.233154296875,1.331298828125,1.931884765625
0.1515,-3.153076171875,0.650634765625,2.492431640625
0.152,-2.872802734375,0.010009765625,2.852783203125
0.1525,-2.552490234375,-0.790771484375,3.253173828125
0.153,-2.112060546875,-1.311279296875,3.413330078125
0.1535,-1.631591796875,-1.951904296875,3.453369140625
0.154,-0.830810546875,-2.352294921875,3.173095703125
0.1545,-0.270263671875,-2.912841796875,3.173095703125
0.155,0.610595703125,-3.193115234375,2.612548828125
0.1555,1.091064453125,-3.553466796875,2.572509765625
0.156,1.571533203125,-3.633544921875,2.092041015625
0.1565,1.931884765625,-3.593505859375,1.771728515625
0.157,2.372314453125,-3.393310546875,1.091064453125
0.1575,2.732666015625,-3.153076171875,0.410400390625
0.158,3.052978515625,-2.632568359375,-0.470458984375
0.1585,3.333251953125,-2.312255859375,-1.031005859375
0.159,3.373291015625,-1.751708984375,-1.671630859375
0.1595,3.173095703125,-1.191162109375,-2.072021484375
0.16,3.173095703125,-0.590576171875,-2.712646484375
0.1605,2.772705078125,0.250244140625,-3.032958984375
0.161,2.532470703125,0.890869140625,-3.473388671875
0.1615,1.931884765625,1.411376953125,-3.553466796875
0.162,1.411376953125,2.052001953125,-3.513427734375
0.1625,0.650634765625,2.532470703125,-3.233154296875
0.163,0.050048828125,3.012939453125,-3.193115234375
0.1635,-0.790771484375,3.293212890625,-2.672607421875
0.164,-1.231201171875,3.613525390625,-2.552490234375
0.1645,-1.791748046875,3.653564453125,-2.072021484375
0.165,-2.072021484375,3.453369140625,-1.591552734375
0.1655,-2.592529296875,3.373291015625,-0.990966796875
0.166,-2.832763671875,2.852783203125,-0.150146484375
0.1665,-3.193115234375,2.532470703125,0.610595703125
0.167,-3.273193359375,2.011962890625,1.251220703125
0.1675,-3.353271484375,1.571533203125,1.771728515625
0.168,-3.113037109375,0.930908203125,2.252197265625
0.1685,-3.072998046875,0.290283203125,2.812744140625
0.169,-2.592529296875,-0.590576171875,3.173095703125
0.1695,-2.352294921875,-1.231201171875,3.453369140625
0.17,-1.671630859375,-1.831787109375,3.453369140625
0.1705,-1.031005859375,-2.312255859375,3.293212890625
0.171,-0.310302734375,-2.872802734375,3.133056640625
0.1715,0.490478515625,-3.233154296875,2.772705078125
0.172,1.171142578125,-3.553466796875,2.412353515625
0.1725,1.571533203125,-3.713623046875,2.172119140625
0.173,2.092041015625,-3.713623046875,1.731689453125
0.1735,2.372314453125,-3.393310546875,1.091064453125
0.174,2.892822265625,-3.273193359375,0.490478515625
0.1745,3.093017578125,-2.592529296875,-0.550537109375
0.175,3.453369140625,-2.352294921875,-1.151123046875
0.1755,3.373291015625,-1.631591796875,-1.791748046875
0.176,3.333251953125,-1.191162109375,-2.232177734375
0.1765,3.052978515625,-0.470458984375,-2.712646484375
0.177,2.892822265625,0.250244140625,-3.113037109375
0.1775,2.372314453125,0.970947265625,-3.513427734375
0.178,2.011962890625,1.571533203125,-3.633544921875
0.1785,1.331298828125,2.212158203125,-3.593505859375
0.179,0.610595703125,2.612548828125,-3.273193359375
0.1795,0.010009765625,3.133056640625,-3.193115234375
0.18,-0.910888671875,3.333251953125,-2.632568359375
0.1805,-1.431396484375,3.693603515625,-2.432373046875
0.181,-1.871826171875,3.613525390625,-1.951904296875
0.1815,-2.272216796875,3.653564453125,-1.551513671875
0.182,-2.552490234375,3.253173828125,-0.870849609375
0.1825,-2.992919921875,3.052978515625,-0.270263671875
0.183,-3.153076171875,2.412353515625,0.690673828125
0.1835,-3.433349609375,2.172119140625,1.251220703125
0.184,-3.353271484375,1.451416015625,1.891845703125
0.1845,-3.193115234375,0.970947265625,2.252197265625
0.185,-3.032958984375,0.250244140625,2.812744140625
0.1855,-2.752685546875,-0.590576171875,3.173095703125
0.186,-2.312255859375,-1.231201171875,3.493408203125
0.1865,-1.791748046875,-1.751708984375,3.453369140625
0.187,-1.151123046875,-2.312255859375,3.453369140625
0.1875,-0.390380859375,-2.712646484375,3.052978515625
0.188,0.290283203125,-3.233154296875,2.972900390625
