wavelength,x,y,z
0.0,2.172119140625,-3.072998046875,0.410400390625
0.0005,1.411376953125,-3.233154296875,1.331298828125
0.001,0.770751953125,-3.513427734375,2.132080078125
0.0015,0.410400390625,-3.713623046875,2.692626953125
0.002,0.010009765625,-3.433349609375,2.932861328125
0.0025,-0.630615234375,-2.912841796875,3.052978515625
0.003,-1.471435546875,-2.232177734375,3.173095703125
0.0035,-2.312255859375,-1.471435546875,3.293212890625
0.004,-2.872802734375,-0.990966796875,3.413330078125
0.0045,-3.193115234375,-0.670654296875,3.333251953125
0.005,-3.193115234375,-0.310302734375,3.012939453125
0.0055,-3.113037109375,0.450439453125,2.252197265625
0.006,-3.193115234375,1.251220703125,1.491455078125
0.0065,-3.353271484375,2.092041015625,0.810791015625
0.007,-3.473388671875,2.612548828125,0.450439453125
0.0075,-3.193115234375,2.812744140625,0.010009765625
0.008,-2.792724609375,2.892822265625,-0.510498046875
0.0085,-1.991943359375,2.932861328125,-1.431396484375
0.009,-1.271240234375,3.133056640625,-2.312255859375
0.0095,-0.750732421875,3.253173828125,-3.032958984375
0.01,-0.390380859375,3.453369140625,-3.433349609375
0.0105,0.130126953125,3.093017578125,-3.553466796875
0.011,0.770751953125,2.412353515625,-3.593505859375
0.0115,1.571533203125,1.731689453125,-3.713623046875
0.012,2.412353515625,1.091064453125,-3.833740234375
0.0125,2.812744140625,0.690673828125,-3.873779296875
0.013,2.972900390625,0.330322265625,-3.713623046875
0.0135,2.972900390625,0.010009765625,-3.353271484375
0.014,2.892822265625,-0.790771484375,-2.552490234375
0.0145,2.932861328125,-1.591552734375,-1.791748046875
0.015,3.133056640625,-2.352294921875,-1.271240234375
0.0155,3.213134765625,-2.832763671875,-0.910888671875
0.016,2.932861328125,-2.952880859375,-0.510498046875
0.0165,2.412353515625,-3.032958984375,0.090087890625
0.017,1.691650390625,-3.193115234375,0.930908203125
0.0175,1.010986328125,-3.353271484375,1.771728515625
0.018,0.570556640625,-3.553466796875,2.452392578125
0.0185,0.210205078125,-3.553466796875,2.812744140625
0.019,-0.270263671875,-3.193115234375,2.972900390625
0.0195,-1.071044921875,-2.472412109375,3.012939453125
0.02,-1.871826171875,-1.831787109375,3.173095703125
0.0205,-2.632568359375,-1.271240234375,3.333251953125
0.021,-3.032958984375,-0.950927734375,3.453369140625
0.0215,-3.072998046875,-0.550537109375,3.133056640625
0.022,-3.113037109375,0.010009765625,2.612548828125
0.0225,-3.113037109375,0.810791015625,1.851806640625
0.023,-3.193115234375,1.611572265625,1.131103515625
0.0235,-3.393310546875,2.292236328125,0.650634765625
0.024,-3.393310546875,2.692626953125,0.290283203125
0.0245,-3.032958984375,2.772705078125,-0.190185546875
0.025,-2.312255859375,2.812744140625,-0.950927734375
0.0255,-1.631591796875,2.972900390625,-1.871826171875
0.026,-1.031005859375,3.293212890625,-2.672607421875
0.0265,-0.630615234375,3.373291015625,-3.193115234375
0.027,-0.190185546875,3.213134765625,-3.433349609375
0.0275,0.410400390625,2.812744140625,-3.553466796875
0.028,1.291259765625,1.971923828125,-3.633544921875
0.0285,2.052001953125,1.331298828125,-3.793701171875
0.029,2.652587890625,0.850830078125,-3.873779296875
0.0295,2.932861328125,0.610595703125,-3.873779296875
0.03,2.892822265625,0.130126953125,-3.473388671875
0.0305,2.852783203125,-0.510498046875,-2.792724609375
0.031,2.892822265625,-1.271240234375,-2.072021484375
0.0315,3.052978515625,-2.112060546875,-1.431396484375
0.032,3.173095703125,-2.592529296875,-1.071044921875
0.0325,3.052978515625,-2.912841796875,-0.670654296875
0.033,2.652587890625,-2.952880859375,-0.230224609375
0.0335,1.851806640625,-3.072998046875,0.610595703125
0.034,1.211181640625,-3.193115234375,1.531494140625
0.0345,0.690673828125,-3.473388671875,2.252197265625
0.035,0.330322265625,-3.553466796875,2.692626953125
0.0355,-0.150146484375,-3.233154296875,2.852783203125
0.036,-0.750732421875,-2.712646484375,2.932861328125
0.0365,-1.591552734375,-1.991943359375,3.052978515625
0.037,-2.312255859375,-1.431396484375,3.213134765625
0.0375,-2.832763671875,-1.031005859375,3.333251953125
0.038,-3.072998046875,-0.710693359375,3.253173828125
0.0385,-3.072998046875,-0.310302734375,2.852783203125
0.039,-3.032958984375,0.450439453125,2.092041015625
0.0395,-3.153076171875,1.251220703125,1.411376953125
0.04,-3.353271484375,2.052001953125,0.890869140625
0.0405,-3.353271484375,2.452392578125,0.490478515625
0.041,-3.153076171875,2.652587890625,0.010009765625
0.0415,-2.712646484375,2.772705078125,-0.590576171875
0.042,-1.871826171875,2.932861328125,-1.471435546875
0.0425,-1.271240234375,3.173095703125,-2.312255859375
0.043,-0.790771484375,3.373291015625,-2.992919921875
0.0435,-0.470458984375,3.413330078125,-3.353271484375
0.044,0.130126953125,3.012939453125,-3.513427734375
0.0445,0.890869140625,2.372314453125,-3.593505859375
0.045,1.771728515625,1.571533203125,-3.713623046875
0.0455,2.452392578125,1.051025390625,-3.913818359375
0.046,2.812744140625,0.690673828125,-3.873779296875
0.0465,2.932861328125,0.330322265625,-3.673583984375
0.047,2.892822265625,-0.190185546875,-3.153076171875
0.0475,2.852783203125,-1.031005859375,-2.312255859375
0.048,3.012939453125,-1.791748046875,-1.671630859375
0.0485,3.173095703125,-2.552490234375,-1.151123046875
0.049,3.173095703125,-2.872802734375,-0.870849609375
0.0495,2.732666015625,-2.952880859375,-0.390380859375
0.05,2.172119140625,-2.952880859375,0.330322265625
0.0505,1.371337890625,-3.072998046875,1.251220703125
0.051,0.890869140625,-3.353271484375,1.971923828125
0.0515,0.450439453125,-3.473388671875,2.532470703125
0.052,0.130126953125,-3.353271484375,2.772705078125
0.0525,-0.510498046875,-2.872802734375,2.852783203125
0.053,-1.271240234375,-2.192138671875,2.932861328125
0.0535,-1.991943359375,-1.591552734375,3.093017578125
0.054,-2.632568359375,-1.151123046875,3.293212890625
0.0545,-2.872802734375,-0.870849609375,3.253173828125
0.055,-2.952880859375,-0.470458984375,2.892822265625
0.0555,-2.952880859375,0.090087890625,2.412353515625
0.056,-2.992919921875,0.930908203125,1.611572265625
0.0565,-3.193115234375,1.611572265625,1.091064453125
0.057,-3.273193359375,2.172119140625,0.650634765625
0.0575,-3.273193359375,2.492431640625,0.290283203125
0.058,-2.832763671875,2.612548828125,-0.190185546875
0.0585,-2.232177734375,2.772705078125,-0.990966796875
0.059,-1.551513671875,2.932861328125,-1.791748046875
0.0595,-1.071044921875,3.213134765625,-2.552490234375
0.06,-0.710693359375,3.333251953125,-2.992919921875
0.0605,-0.310302734375,3.173095703125,-3.233154296875
0.061,0.330322265625,2.692626953125,-3.393310546875
0.0615,1.171142578125,1.931884765625,-3.513427734375
0.062,1.931884765625,1.411376953125,-3.713623046875
0.0625,2.492431640625,1.010986328125,-3.833740234375
0.063,2.692626953125,0.690673828125,-3.793701171875
0.0635,2.732666015625,0.250244140625,-3.353271484375
0.064,2.772705078125,-0.430419921875,-2.792724609375
0.0645,2.852783203125,-1.311279296875,-2.072021484375
0.065,3.052978515625,-2.072021484375,-1.591552734375
0.0655,3.133056640625,-2.512451171875,-1.191162109375
0.066,3.012939453125,-2.712646484375,-0.790771484375
0.0665,2.492431640625,-2.872802734375,-0.270263671875
0.067,1.851806640625,-2.952880859375,0.650634765625
0.0675,1.251220703125,-3.193115234375,1.451416015625
0.068,0.810791015625,-3.473388671875,2.172119140625
0.0685,0.450439453125,-3.473388671875,2.532470703125
0.069,0.010009765625,-3.153076171875,2.692626953125
0.0695,-0.710693359375,-2.592529296875,2.852783203125
0.07,-1.591552734375,-1.911865234375,3.012939453125
0.0705,-2.272216796875,-1.431396484375,3.173095703125
0.071,-2.712646484375,-1.071044921875,3.253173828125
0.0715,-2.872802734375,-0.750732421875,3.133056640625
0.072,-2.872802734375,-0.270263671875,2.572509765625
0.0725,-2.912841796875,0.490478515625,1.931884765625
0.073,-3.072998046875,1.251220703125,1.331298828125
0.0735,-3.273193359375,1.931884765625,0.850830078125
0.074,-3.233154296875,2.292236328125,0.530517578125
0.0745,-2.952880859375,2.532470703125,0.090087890625
0.075,-2.472412109375,2.652587890625,-0.590576171875
0.0755,-1.791748046875,2.812744140625,-1.471435546875
0.076,-1.271240234375,3.052978515625,-2.232177734375
0.0765,-0.870849609375,3.293212890625,-2.832763671875
0.077,-0.510498046875,3.253173828125,-3.153076171875
0.0775,0.050048828125,2.852783203125,-3.233154296875
0.078,0.770751953125,2.252197265625,-3.433349609375
0.0785,1.611572265625,1.571533203125,-3.593505859375
0.079,2.252197265625,1.171142578125,-3.793701171875
0.0795,2.572509765625,0.810791015625,-3.793701171875
0.08,2.692626953125,0.450439453125,-3.553466796875
0.0805,2.732666015625,-0.190185546875,-3.032958984375
0.081,2.732666015625,-0.990966796875,-2.312255859375
0.0815,2.972900390625,-1.751708984375,-1.791748046875
0.082,3.173095703125,-2.312255859375,-1.311279296875
0.0825,3.093017578125,-2.592529296875,-0.990966796875
0.083,2.692626953125,-2.752685546875,-0.470458984375
0.0835,2.172119140625,-2.872802734375,0.290283203125
0.084,1.451416015625,-3.072998046875,1.171142578125
0.0845,0.970947265625,-3.353271484375,1.891845703125
0.085,0.610595703125,-3.473388671875,2.372314453125
0.0855,0.210205078125,-3.353271484375,2.612548828125
0.086,-0.470458984375,-2.792724609375,2.732666015625
0.0865,-1.271240234375,-2.192138671875,2.892822265625
0.087,-1.991943359375,-1.591552734375,3.133056640625
0.0875,-2.592529296875,-1.231201171875,3.293212890625
0.088,-2.752685546875,-0.910888671875,3.173095703125
0.0885,-2.872802734375,-0.510498046875,2.812744140625
0.089,-2.872802734375,0.170166015625,2.252197265625
0.0895,-2.992919921875,0.970947265625,1.491455078125
0.09,-3.193115234375,1.731689453125,1.091064453125
0.0905,-3.273193359375,2.212158203125,0.650634765625
0.091,-3.153076171875,2.452392578125,0.290283203125
0.0915,-2.592529296875,2.532470703125,-0.350341796875
0.092,-2.031982421875,2.732666015625,-1.111083984375
0.0925,-1.431396484375,3.012939453125,-1.951904296875
0.093,-0.990966796875,3.213134765625,-2.592529296875
0.0935,-0.630615234375,3.213134765625,-2.952880859375
0.094,-0.230224609375,3.012939453125,-3.193115234375
0.0945,0.490478515625,2.412353515625,-3.353271484375
0.095,1.291259765625,1.771728515625,-3.473388671875
0.0955,1.971923828125,1.291259765625,-3.673583984375
0.096,2.452392578125,0.930908203125,-3.793701171875
0.0965,2.612548828125,0.610595703125,-3.673583984375
0.097,2.612548828125,0.050048828125,-3.153076171875
0.0975,2.692626953125,-0.630615234375,-2.592529296875
0.098,2.852783203125,-1.431396484375,-1.951904296875
0.0985,3.052978515625,-2.031982421875,-1.471435546875
0.099,3.093017578125,-2.472412109375,-1.111083984375
0.0995,2.852783203125,-2.672607421875,-0.710693359375
0.1,2.292236328125,-2.752685546875,-0.070068359375
0.1005,1.691650390625,-2.952880859375,0.770751953125
0.101,1.211181640625,-3.193115234375,1.571533203125
0.1015,0.810791015625,-3.473388671875,2.212158203125
0.102,0.410400390625,-3.353271484375,2.492431640625
0.1025,-0.150146484375,-3.032958984375,2.612548828125
0.103,-0.870849609375,-2.472412109375,2.852783203125
0.1035,-1.711669921875,-1.791748046875,3.012939453125
0.104,-2.312255859375,-1.431396484375,3.173095703125
0.1045,-2.632568359375,-1.111083984375,3.173095703125
0.105,-2.752685546875,-0.790771484375,2.972900390625
0.1055,-2.792724609375,-0.190185546875,2.412353515625
0.106,-2.872802734375,0.610595703125,1.851806640625
0.1065,-3.113037109375,1.411376953125,1.291259765625
0.107,-3.233154296875,1.971923828125,0.850830078125
0.1075,-3.193115234375,2.292236328125,0.490478515625
0.108,-2.832763671875,2.492431640625,0.010009765625
0.1085,-2.272216796875,2.612548828125,-0.750732421875
0.109,-1.671630859375,2.852783203125,-1.591552734375
0.1095,-1.231201171875,3.093017578125,-2.272216796875
0.11,-0.870849609375,3.253173828125,-2.792724609375
0.1105,-0.510498046875,3.133056640625,-3.072998046875
0.111,0.170166015625,2.612548828125,-3.153076171875
0.1115,0.890869140625,2.052001953125,-3.353271484375
0.112,1.691650390625,1.531494140625,-3.553466796875
0.1125,2.212158203125,1.131103515625,-3.793701171875
0.113,2.452392578125,0.770751953125,-3.673583984375
0.1135,2.572509765625,0.330322265625,-3.393310546875
0.114,2.612548828125,-0.230224609375,-2.832763671875
0.1145,2.732666015625,-0.990966796875,-2.232177734375
0.115,2.972900390625,-1.671630859375,-1.751708984375
0.1155,3.133056640625,-2.272216796875,-1.311279296875
0.116,2.972900390625,-2.512451171875,-0.950927734375
0.1165,2.532470703125,-2.632568359375,-0.350341796875
0.117,2.011962890625,-2.872802734375,0.330322265625
0.1175,1.411376953125,-3.113037109375,1.211181640625
0.118,0.970947265625,-3.353271484375,1.851806640625
0.1185,0.610595703125,-3.393310546875,2.292236328125
0.119,0.170166015625,-3.233154296875,2.532470703125
0.1195,-0.510498046875,-2.632568359375,2.692626953125
0.12,-1.311279296875,-2.112060546875,2.892822265625
0.1205,-2.031982421875,-1.631591796875,3.133056640625
0.121,-2.552490234375,-1.311279296875,3.253173828125
0.1215,-2.712646484375,-0.990966796875,3.052978515625
0.122,-2.792724609375,-0.350341796875,2.652587890625
0.1225,-2.872802734375,0.330322265625,2.092041015625
0.123,-3.032958984375,1.131103515625,1.451416015625
0.1235,-3.193115234375,1.771728515625,1.010986328125
0.124,-3.273193359375,2.252197265625,0.610595703125
0.1245,-3.072998046875,2.492431640625,0.210205078125
0.125,-2.472412109375,2.572509765625,-0.510498046875
0.1255,-1.911865234375,2.812744140625,-1.311279296875
0.126,-1.311279296875,3.093017578125,-2.152099609375
0.1265,-0.990966796875,3.293212890625,-2.752685546875
0.127,-0.550537109375,3.173095703125,-3.072998046875
0.1275,0.010009765625,2.852783203125,-3.233154296875
0.128,0.810791015625,2.212158203125,-3.393310546875
0.1285,1.571533203125,1.531494140625,-3.593505859375
0.129,2.252197265625,1.091064453125,-3.753662109375
0.1295,2.612548828125,0.850830078125,-3.833740234375
0.13,2.652587890625,0.450439453125,-3.513427734375
0.1305,2.652587890625,-0.190185546875,-2.872802734375
0.131,2.772705078125,-0.950927734375,-2.272216796875
0.1315,2.972900390625,-1.791748046875,-1.671630859375
0.132,3.133056640625,-2.312255859375,-1.271240234375
0.1325,3.012939453125,-2.592529296875,-0.910888671875
0.133,2.692626953125,-2.752685546875,-0.470458984375
0.1335,2.052001953125,-2.872802734375,0.370361328125
0.134,1.371337890625,-3.072998046875,1.211181640625
0.1345,0.890869140625,-3.353271484375,1.931884765625
0.135,0.570556640625,-3.513427734375,2.452392578125
0.1355,0.130126953125,-3.233154296875,2.652587890625
0.136,-0.510498046875,-2.752685546875,2.772705078125
0.1365,-1.311279296875,-2.112060546875,2.932861328125
0.137,-2.112060546875,-1.591552734375,3.133056640625
0.1375,-2.632568359375,-1.151123046875,3.253173828125
0.138,-2.872802734375,-0.830810546875,3.173095703125
0.1385,-2.912841796875,-0.430419921875,2.852783203125
0.139,-2.872802734375,0.290283203125,2.132080078125
0.1395,-3.032958984375,1.091064453125,1.531494140625
0.14,-3.233154296875,1.891845703125,0.970947265625
0.1405,-3.353271484375,2.332275390625,0.610595703125
0.141,-3.113037109375,2.532470703125,0.170166015625
0.1415,-2.632568359375,2.652587890625,-0.430419921875
0.142,-1.951904296875,2.812744140625,-1.271240234375
0.1425,-1.351318359375,3.052978515625,-2.112060546875
0.143,-0.910888671875,3.253173828125,-2.752685546875
0.1435,-0.550537109375,3.333251953125,-3.193115234375
0.144,0.010009765625,2.972900390625,-3.313232421875
0.1445,0.650634765625,2.292236328125,-3.393310546875
0.145,1.491455078125,1.651611328125,-3.553466796875
0.1455,2.252197265625,1.131103515625,-3.793701171875
0.146,2.612548828125,0.810791015625,-3.833740234375
0.1465,2.732666015625,0.450439453125,-3.593505859375
0.147,2.812744140625,0.010009765625,-3.153076171875
0.1475,2.772705078125,-0.830810546875,-2.392333984375
0.148,2.932861328125,-1.591552734375,-1.791748046875
0.1485,3.133056640625,-2.272216796875,-1.271240234375
0.149,3.173095703125,-2.672607421875,-0.990966796875
0.1495,2.812744140625,-2.752685546875,-0.510498046875
0.15,2.212158203125,-2.872802734375,0.170166015625
0.1505,1.531494140625,-3.072998046875,1.010986328125
0.151,1.010986328125,-3.353271484375,1.851806640625
0.1515,0.570556640625,-3.473388671875,2.412353515625
0.152,0.210205078125,-3.353271484375,2.692626953125
0.1525,-0.350341796875,-3.032958984375,2.852783203125
0.153,-1.151123046875,-2.312255859375,2.892822265625
0.1535,-1.951904296875,-1.671630859375,3.093017578125
0.154,-2.592529296875,-1.191162109375,3.253173828125
0.1545,-2.912841796875,-0.910888671875,3.293212890625
0.155,-2.952880859375,-0.510498046875,2.892822265625
0.1555,-2.912841796875,0.130126953125,2.372314453125
0.156,-3.032958984375,0.930908203125,1.651611328125
0.1565,-3.193115234375,1.691650390625,1.091064453125
0.157,-3.313232421875,2.252197265625,0.650634765625
0.1575,-3.233154296875,2.572509765625,0.290283203125
0.158,-2.832763671875,2.652587890625,-0.270263671875
0.1585,-2.152099609375,2.732666015625,-1.031005859375
0.159,-1.511474609375,2.972900390625,-1.911865234375
0.1595,-1.031005859375,3.253173828125,-2.632568359375
0.16,-0.630615234375,3.333251953125,-3.113037109375
0.1605,-0.190185546875,3.052978515625,-3.273193359375
0.161,0.450439453125,2.532470703125,-3.473388671875
0.1615,1.291259765625,1.891845703125,-3.553466796875
0.162,2.011962890625,1.291259765625,-3.713623046875
0.1625,2.572509765625,0.890869140625,-3.833740234375
0.163,2.772705078125,0.610595703125,-3.793701171875
0.1635,2.772705078125,0.130126953125,-3.313232421875
0.164,2.772705078125,-0.590576171875,-2.632568359375
0.1645,2.852783203125,-1.351318359375,-1.951904296875
0.165,3.093017578125,-2.112060546875,-1.431396484375
0.1655,3.133056640625,-2.552490234375,-1.071044921875
0.166,2.932861328125,-2.792724609375,-0.630615234375
0.1665,2.492431640625,-2.872802734375,-0.110107421875
0.167,1.771728515625,-2.992919921875,0.770751953125
0.1675,1.131103515625,-3.233154296875,1.571533203125
0.168,0.690673828125,-3.513427734375,2.252197265625
0.1685,0.330322265625,-3.553466796875,2.692626953125
0.169,-0.190185546875,-3.193115234375,2.812744140625
0.1695,-0.910888671875,-2.552490234375,2.932861328125
0.17,-1.791748046875,-1.831787109375,3.133056640625
0.1705,-2.512451171875,-1.351318359375,3.293212890625
0.171,-2.912841796875,-0.990966796875,3.333251953125
0.1715,-3.072998046875,-0.630615234375,3.173095703125
0.172,-3.032958984375,-0.070068359375,2.612548828125
0.1725,-3.032958984375,0.730712890625,1.891845703125
0.173,-3.193115234375,1.571533203125,1.251220703125
0.1735,-3.393310546875,2.292236328125,0.690673828125
0.174,-3.353271484375,2.612548828125,0.330322265625
0.1745,-3.032958984375,2.772705078125,-0.150146484375
0.175,-2.392333984375,2.852783203125,-0.910888671875
0.1755,-1.591552734375,3.012939453125,-1.871826171875
0.176,-1.031005859375,3.333251953125,-2.552490234375
0.1765,-0.630615234375,3.373291015625,-3.193115234375
0.177,-0.270263671875,3.293212890625,-3.513427734375
0.1775,0.410400390625,2.732666015625,-3.553466796875
0.178,1.291259765625,2.011962890625,-3.713623046875
0.1785,2.132080078125,1.291259765625,-3.793701171875
0.179,2.732666015625,0.850830078125,-3.993896484375
0.1795,2.932861328125,0.490478515625,-3.833740234375
0.18,2.972900390625,0.130126953125,-3.473388671875
0.1805,2.932861328125,-0.550537109375,-2.832763671875
0.181,2.932861328125,-1.391357421875,-1.951904296875
0.1815,3.093017578125,-2.152099609375,-1.431396484375
0.182,3.173095703125,-2.752685546875,-0.990966796875
0.1825,3.093017578125,-2.952880859375,-0.630615234375
0.183,2.532470703125,-2.952880859375,-0.110107421875
0.1835,1.931884765625,-3.072998046875,0.690673828125
0.184,1.010986328125,-3.313232421875,1.691650390625
0.1845,0.650634765625,-3.553466796875,2.292236328125
0.185,0.290283203125,-3.513427734375,2.812744140625
0.1855,-0.150146484375,-3.313232421875,2.932861328125
0.186,-0.830810546875,-2.712646484375,3.012939453125
0.1865,-1.671630859375,-1.951904296875,3.133056640625
0.187,-2.432373046875,-1.351318359375,3.253173828125
0.1875,-2.952880859375,-0.990966796875,3.453369140625
0.188,-3.113037109375,-0.630615234375,3.253173828125
