wavelength,x,y,z
0.0,23.057495117188,-9.7344970703125,-11.215942382812
0.0005,21.255737304688,-5.3302001953125,-15.139770507812
0.001,20.535034179688,-1.5665283203125,-18.302856445312
0.0015,18.853393554688,2.6375732421875,-20.665161132812
0.002,16.370971679688,5.8807373046875,-21.465942382812
0.0025,13.247924804688,9.2440185546875,-21.746215820312
0.003,9.2840576171875,12.847534179688,-21.586059570312
0.0035,4.1190185546875,16.691284179688,-20.384887695312
0.004,-0.6055908203125,19.293823242188,-18.583129882812
0.0045,-4.1690673828125,20.815307617188,-16.821411132812
0.005,-7.4122314453125,21.295776367188,-14.298950195312
0.0055,-10.895629882812,20.935424804688,-10.655395507812
0.006,-14.859497070312,20.374877929688,-6.3311767578125
0.0065,-18.302856445312,19.253784179688,-1.9268798828125
0.007,-20.825317382812,17.211791992188,2.5975341796875
0.0075,-21.666137695312,15.009643554688,5.6805419921875
0.008,-22.106567382812,11.926635742188,9.0838623046875
0.0085,-22.066528320312,8.1629638671875,12.727416992188
0.009,-21.305786132812,3.7586669921875,16.531127929688
0.0095,-19.984497070312,-0.3253173828125,19.333862304688
0.01,-18.182739257812,-4.0089111328125,21.295776367188
0.0105,-15.460083007812,-7.2120361328125,21.816284179688
0.011,-11.896606445312,-10.575317382812,21.696166992188
0.0115,-7.5723876953125,-14.338989257812,21.255737304688
0.012,-2.6075439453125,-17.862426757812,20.014526367188
0.0125,2.0770263671875,-20.024536132812,17.772338867188
0.013,5.2000732421875,-20.985473632812,15.850463867188
0.0135,8.5233154296875,-21.305786132812,13.127807617188
0.014,12.166870117188,-20.785278320312,9.2039794921875
0.0145,15.890502929688,-19.944458007812,4.7996826171875
0.015,18.973510742188,-18.583129882812,0.4754638671875
0.0155,21.055541992188,-16.581176757812,-3.6485595703125
0.016,21.455932617188,-12.817504882812,-6.4913330078125
0.0165,21.656127929688,-10.815551757812,-10.014770507812
0.017,21.375854492188,-6.8917236328125,-13.818481445312
0.0175,20.775268554688,-2.7276611328125,-17.301879882812
0.018,19.053588867188,1.3963623046875,-19.624145507812
0.0185,17.131713867188,4.6795654296875,-21.105590820312
0.019,14.369018554688,7.9227294921875,-21.546020507812
0.0195,10.405151367188,11.366088867188,-21.185668945312
0.02,5.9608154296875,15.049682617188,-19.223754882812
0.0205,1.2362060546875,18.212768554688,-17.942504882812
0.021,-3.0880126953125,20.174682617188,-17.141723632812
0.0215,-5.9307861328125,20.615112304688,-15.019653320312
0.022,-9.3341064453125,20.855346679688,-12.056762695312
0.0225,-13.217895507812,20.254760742188,-7.8126220703125
0.023,-16.741333007812,19.333862304688,-3.5284423828125
0.0235,-19.504028320312,17.732299804688,0.7957763671875
0.024,-21.145629882812,15.730346679688,4.4393310546875
0.0245,-21.505981445312,12.967651367188,7.4822998046875
0.025,-21.586059570312,9.4842529296875,11.005737304688
0.0255,-21.145629882812,5.4403076171875,14.729370117188
0.026,-20.384887695312,1.4364013671875,18.052612304688
0.0265,-18.543090820312,-2.6475830078125,20.214721679688
0.027,-16.340942382812,-5.6505126953125,21.095581054688
0.0275,-13.458129882812,-7.6925048828125,21.576049804688
0.028,-9.0137939453125,-12.537231445312,21.055541992188
0.0285,-4.4493408203125,-16.140747070312,20.014526367188
0.029,0.1151123046875,-18.783325195312,18.493041992188
0.0295,3.9588623046875,-20.545043945312,16.571166992188
0.03,6.8817138671875,-20.665161132812,14.048706054688
0.0305,10.204956054688,-20.665161132812,10.885620117188
0.031,14.288940429688,-20.104614257812,6.4412841796875
0.0315,17.612182617188,-18.903442382812,2.0369873046875
0.032,19.894409179688,-17.181762695312,-1.9268798828125
0.0325,21.015502929688,-15.099731445312,-5.0899658203125
0.033,21.335815429688,-12.216918945312,-8.4132080078125
0.0335,21.255737304688,-8.2130126953125,-12.216918945312
0.034,20.655151367188,-4.3292236328125,-15.580200195312
0.0345,19.694213867188,-0.3253173828125,-18.583129882812
0.035,17.772338867188,3.5584716796875,-20.545043945312
0.0355,15.089721679688,6.5213623046875,-20.865356445312
0.036,12.206909179688,9.7244873046875,-21.305786132812
0.0365,7.3221435546875,13.848510742188,-20.665161132812
0.037,2.7977294921875,17.051635742188,-19.544067382812
0.0375,-1.4864501953125,19.173706054688,-17.702270507812
0.038,-4.9298095703125,20.535034179688,-15.860473632812
0.0385,-7.9727783203125,20.535034179688,-13.017700195312
0.039,-10.255004882812,20.294799804688,-9.3741455078125
0.0395,-15.219848632812,19.614135742188,-5.2501220703125
0.04,-18.543090820312,18.212768554688,-0.6456298828125
0.0405,-20.545043945312,16.290893554688,3.2781982421875
0.041,-21.145629882812,13.888549804688,6.2010498046875
0.0415,-21.505981445312,10.885620117188,9.6043701171875
0.042,-21.185668945312,6.5213623046875,13.688354492188
0.0425,-19.223754882812,2.7176513671875,16.851440429688
0.043,-19.063598632812,-1.1661376953125,19.253784179688
0.0435,-17.141723632812,-4.8497314453125,21.055541992188
0.044,-12.817504882812,-7.8526611328125,21.095581054688
0.0445,-10.775512695312,-11.095825195312,21.135620117188
0.045,-5.9708251953125,-15.019653320312,20.374877929688
0.0455,-1.1260986328125,-18.062622070312,18.893432617188
0.046,2.7977294921875,-19.744262695312,16.931518554688
0.0465,5.8006591796875,-20.585083007812,14.889526367188
0.047,9.1239013671875,-20.665161132812,11.886596679688
0.0475,13.087768554688,-19.944458007812,7.5223388671875
0.048,16.330932617188,-19.263793945312,3.6785888671875
0.0485,19.053588867188,-17.702270507812,-0.6055908203125
0.049,20.695190429688,-15.740356445312,-4.2091064453125
0.0495,20.815307617188,-12.857543945312,-7.0919189453125
0.05,21.095581054688,-9.8145751953125,-10.455200195312
0.0505,20.615112304688,-5.4102783203125,-14.419067382812
0.051,19.854370117188,-1.4864501953125,-17.742309570312
0.0515,18.092651367188,2.1571044921875,-19.423950195312
0.052,16.130737304688,5.3602294921875,-20.705200195312
0.0525,12.967651367188,8.5633544921875,-20.825317382812
0.053,8.8436279296875,12.166870117188,-19.223754882812
0.0535,4.6795654296875,15.450073242188,-19.824340820312
0.054,1.2762451171875,18.292846679688,-18.102661132812
0.0545,-3.7286376953125,19.854370117188,-16.220825195312
0.055,-6.5313720703125,20.054565429688,-13.818481445312
0.0555,-9.7344970703125,20.254760742188,-11.055786132812
0.056,-13.938598632812,19.453979492188,-6.2911376953125
0.0565,-17.021606445312,18.372924804688,-2.2872314453125
0.057,-19.303833007812,16.771362304688,1.5565185546875
0.0575,-20.625122070312,14.769409179688,4.8797607421875
0.058,-20.745239257812,11.806518554688,7.9227294921875
0.0585,-20.865356445312,8.2830810546875,11.646362304688
0.059,-20.665161132812,4.3992919921875,15.169799804688
0.0595,-19.383911132812,0.3553466796875,18.172729492188
0.06,-17.502075195312,-3.2481689453125,19.854370117188
0.0605,-15.219848632812,-6.1710205078125,20.535034179688
0.061,-12.377075195312,-9.3341064453125,20.895385742188
0.0615,-7.2921142578125,-13.458129882812,20.134643554688
0.062,-3.2081298828125,-16.421020507812,19.173706054688
0.0625,0.9959716796875,-18.663208007812,17.492065429688
0.063,4.4793701171875,-20.064575195312,15.610229492188
0.0635,7.4022216796875,-20.064575195312,12.727416992188
0.064,10.765502929688,-19.944458007812,9.6043701171875
0.0645,14.729370117188,-19.303833007812,5.2000732421875
0.065,17.732299804688,-16.661254882812,0.9158935546875
0.0655,19.494018554688,-16.180786132812,-2.6075439453125
0.066,20.374877929688,-13.938598632812,-5.6505126953125
0.0665,20.535034179688,-10.975708007812,-8.7335205078125
0.067,20.214721679688,-6.7716064453125,-11.536254882812
0.0675,19.894409179688,-3.2882080078125,-15.860473632812
0.068,18.693237304688,0.5955810546875,-18.463012695312
0.0685,16.691284179688,4.0789794921875,-20.024536132812
0.069,13.888549804688,6.9617919921875,-20.184692382812
0.0695,11.005737304688,10.164916992188,-20.585083007812
0.07,5.8807373046875,14.248901367188,-19.744262695312
0.0705,1.5164794921875,17.131713867188,-18.422973632812
0.071,-2.0469970703125,18.853393554688,-16.821411132812
0.0715,-5.3302001953125,19.934448242188,-14.659301757812
0.072,-8.4132080078125,19.734252929688,-11.776489257812
0.0725,-12.216918945312,19.333862304688,-7.8526611328125
0.073,-15.700317382812,18.733276367188,-4.0089111328125
0.0735,-18.382934570312,17.211791992188,0.3553466796875
0.074,-19.904418945312,15.289916992188,3.6785888671875
0.0745,-20.384887695312,12.687377929688,6.6815185546875
0.075,-20.585083007812,9.9246826171875,9.8446044921875
0.0755,-20.264770507812,5.3201904296875,14.048706054688
0.076,-19.504028320312,1.6365966796875,16.931518554688
0.0765,-18.022583007812,-1.8468017578125,18.973510742188
0.077,-16.100708007812,-3.8487548828125,20.414916992188
0.0775,-11.536254882812,-8.2130126953125,20.214721679688
0.078,-9.2940673828125,-11.616333007812,20.214721679688
0.0785,-4.6895751953125,-15.299926757812,19.453979492188
0.079,0.0350341796875,-17.982543945312,17.612182617188
0.0795,3.2381591796875,-19.263793945312,15.970581054688
0.08,6.2410888671875,-19.864379882812,13.768432617188
0.0805,9.3240966796875,-19.824340820312,10.845581054688
0.081,13.488159179688,-19.103637695312,6.0809326171875
0.0815,16.531127929688,-18.102661132812,2.3973388671875
0.082,18.733276367188,-16.581176757812,-1.4063720703125
0.0825,19.854370117188,-14.579223632812,-4.4893798828125
0.083,19.814331054688,-11.656372070312,-7.4122314453125
0.0835,20.174682617188,-8.4932861328125,-10.895629882812
0.084,19.774291992188,-4.4493408203125,-14.579223632812
0.0845,18.613159179688,-0.5655517578125,-17.341918945312
0.085,16.931518554688,2.5975341796875,-18.863403320312
0.0855,14.849487304688,5.6805419921875,-19.864379882812
0.086,11.806518554688,8.6834716796875,-19.864379882812
0.0865,7.2020263671875,12.567260742188,-19.303833007812
0.087,3.3582763671875,15.610229492188,-18.623168945312
0.0875,-0.8858642578125,17.852416992188,-16.941528320312
0.088,-4.0089111328125,18.933471679688,-15.139770507812
0.0885,-6.8917236328125,19.093627929688,-12.577270507812
0.089,-10.134887695312,19.133666992188,-9.6544189453125
0.0895,-12.817504882812,18.453002929688,-3.8487548828125
0.09,-16.981567382812,17.211791992188,-1.0460205078125
0.0905,-18.743286132812,15.650268554688,2.1571044921875
0.091,-19.624145507812,13.568237304688,5.0799560546875
0.0915,-19.744262695312,10.605346679688,8.1229248046875
0.092,-19.704223632812,6.8817138671875,11.886596679688
0.0925,-19.423950195312,3.3983154296875,15.169799804688
0.093,-18.222778320312,-0.4854736328125,17.732299804688
0.0935,-16.340942382812,-3.5684814453125,19.053588867188
0.094,-13.858520507812,-6.4913330078125,19.574096679688
0.0945,-10.975708007812,-9.6544189453125,19.854370117188
0.095,-5.9307861328125,-13.618286132812,18.893432617188
0.0955,-1.8868408203125,-16.380981445312,17.812377929688
0.096,1.6766357421875,-18.222778320312,16.330932617188
0.0965,4.7596435546875,-19.183715820312,14.449096679688
0.097,7.8026123046875,-19.103637695312,11.486206054688
0.0975,11.366088867188,-18.903442382812,7.9627685546875
0.098,14.889526367188,-18.262817382812,3.9588623046875
0.0985,17.612182617188,-16.701293945312,-0.1651611328125
0.099,18.893432617188,-15.099731445312,-3.0079345703125
0.0995,19.534057617188,-12.737426757812,-6.0509033203125
0.1,19.694213867188,-9.8145751953125,-9.1339111328125
0.1005,19.373901367188,-5.5303955078125,-13.137817382812
0.101,18.853393554688,-2.0870361328125,-16.020629882812
0.1015,17.572143554688,1.3963623046875,-18.222778320312
0.102,15.530151367188,4.4793701171875,-19.303833007812
0.1025,12.607299804688,8.9637451171875,-17.942504882812
0.103,9.2039794921875,10.925659179688,-19.624145507812
0.1035,4.5194091796875,14.689331054688,-18.863403320312
0.104,0.1551513671875,17.211791992188,-17.181762695312
0.1045,-2.8878173828125,18.573120117188,-15.780395507812
0.105,-5.9708251953125,19.333862304688,-13.738403320312
0.1055,-9.1739501953125,19.173706054688,-10.575317382812
0.106,-13.137817382812,18.693237304688,-6.2911376953125
0.1065,-16.380981445312,19.213745117188,-2.3673095703125
0.107,-18.743286132812,16.250854492188,1.6365966796875
0.1075,-19.744262695312,14.328979492188,4.4793701171875
0.108,-20.184692382812,11.446166992188,7.7225341796875
0.1085,-20.344848632812,8.2830810546875,11.125854492188
0.109,-19.904418945312,4.1190185546875,14.849487304688
0.1095,-18.743286132812,0.2352294921875,17.652221679688
0.11,-17.181762695312,-3.0880126953125,19.373901367188
0.1105,-14.899536132812,-6.1309814453125,20.334838867188
0.111,-10.255004882812,-9.4141845703125,20.174682617188
0.1115,-7.3321533203125,-13.137817382812,19.774291992188
0.112,-2.8477783203125,-16.541137695312,18.893432617188
0.1125,1.6365966796875,-18.743286132812,16.931518554688
0.113,4.4793701171875,-19.624145507812,15.129760742188
0.1135,8.9637451171875,-20.024536132812,12.607299804688
0.114,11.205932617188,-19.744262695312,10.244995117188
0.1145,15.129760742188,-18.943481445312,4.5594482421875
0.115,17.972534179688,-17.702270507812,0.4754638671875
0.1155,19.934448242188,-15.980590820312,-3.2081298828125
0.116,20.454956054688,-13.578247070312,-6.1309814453125
0.1165,20.615112304688,-10.335083007812,-9.5343017578125
0.117,20.454956054688,-6.5313720703125,-13.097778320312
0.1175,19.974487304688,-2.6475830078125,-16.581176757812
0.118,18.292846679688,1.3963623046875,-18.983520507812
0.1185,16.451049804688,4.5194091796875,-20.064575195312
0.119,13.768432617188,7.6424560546875,-20.785278320312
0.1195,9.9647216796875,11.045776367188,-19.223754882812
0.12,5.3201904296875,14.729370117188,-19.584106445312
0.1205,0.9559326171875,17.652221679688,-18.463012695312
0.121,-3.1280517578125,19.574096679688,-16.541137695312
0.1215,-5.9708251953125,19.974487304688,-14.379028320312
0.122,-9.2940673828125,20.014526367188,-11.496215820312
0.1225,-13.017700195312,19.614135742188,-7.3721923828125
0.123,-16.501098632812,18.693237304688,-3.0880126953125
0.1235,-19.103637695312,16.971557617188,1.1961669921875
0.124,-19.223754882812,15.089721679688,4.3992919921875
0.1245,-20.905395507812,12.447143554688,7.4822998046875
0.125,-20.905395507812,10.244995117188,11.005737304688
0.1255,-20.424926757812,4.9197998046875,14.529174804688
0.126,-19.704223632812,1.1160888671875,17.612182617188
0.1265,-17.982543945312,-2.8878173828125,19.814331054688
0.127,-15.620239257812,-5.7305908203125,20.454956054688
0.1275,-12.777465820312,-9.0137939453125,20.855346679688
0.128,-8.6134033203125,-12.577270507812,20.454956054688
0.1285,-3.8887939453125,-16.020629882812,19.333862304688
0.129,0.4754638671875,-18.342895507812,17.652221679688
0.1295,3.9588623046875,-19.904418945312,15.970581054688
0.13,7.0819091796875,-19.944458007812,13.488159179688
0.1305,10.204956054688,-20.024536132812,10.164916992188
0.131,14.048706054688,-19.463989257812,6.0809326171875
0.1315,17.291870117188,-18.342895507812,1.8367919921875
0.132,19.534057617188,-16.541137695312,-2.2471923828125
0.1325,20.334838867188,-14.419067382812,-5.0899658203125
0.133,20.775268554688,-10.255004882812,-8.3331298828125
0.1335,20.655151367188,-7.7325439453125,-12.136840820312
0.134,20.014526367188,-3.9288330078125,-15.420043945312
0.1345,18.933471679688,1.2762451171875,-18.142700195312
0.135,17.291870117188,3.5985107421875,-20.104614257812
0.1355,14.729370117188,6.4813232421875,-19.223754882812
0.136,12.807495117188,9.7244873046875,-20.625122070312
0.1365,7.0418701171875,13.608276367188,-20.184692382812
0.137,2.3973388671875,16.931518554688,-19.063598632812
0.1375,-1.8067626953125,18.933471679688,-17.181762695312
0.138,-3.8487548828125,20.134643554688,-15.299926757812
0.1385,-8.0928955078125,20.294799804688,-12.697387695312
0.139,-11.816528320312,19.854370117188,-8.7335205078125
0.1395,-14.098754882812,20.494995117188,-4.7696533203125
0.14,-18.463012695312,19.213745117188,-0.4053955078125
0.1405,-19.223754882812,15.970581054688,3.5584716796875
0.141,-20.985473632812,13.568237304688,7.6824951171875
0.1415,-21.345825195312,10.485229492188,9.8446044921875
0.142,-20.825317382812,6.2410888671875,13.848510742188
0.1425,-20.384887695312,2.3572998046875,17.211791992188
0.143,-18.783325195312,-1.5665283203125,19.453979492188
0.1435,-16.861450195312,-4.9698486328125,21.095581054688
0.144,-13.818481445312,-8.2130126953125,21.255737304688
0.1445,-10.134887695312,-11.736450195312,21.055541992188
0.145,-5.5704345703125,-15.339965820312,20.334838867188
0.1455,-0.6456298828125,-18.503051757812,18.813354492188
0.146,3.3582763671875,-20.064575195312,16.971557617188
0.1465,6.2811279296875,-20.785278320312,14.649291992188
0.147,9.7244873046875,-20.945434570312,11.646362304688
0.1475,13.808471679688,-20.224731445312,7.0018310546875
0.148,17.131713867188,-19.303833007812,2.9979248046875
0.1485,19.734252929688,-17.702270507812,-1.2462158203125
0.149,21.375854492188,-15.660278320312,-4.8897705078125
0.1495,21.495971679688,-12.657348632812,-7.9727783203125
0.15,21.536010742188,-9.2940673828125,-11.576293945312
0.1505,21.095581054688,-4.8897705078125,-15.420043945312
0.151,20.174682617188,-0.8057861328125,-18.623168945312
0.1515,18.132690429688,2.8778076171875,-19.223754882812
0.152,15.970581054688,6.1610107421875,-21.465942382812
0.1525,14.088745117188,9.5643310546875,-21.706176757812
0.153,8.0428466796875,13.528198242188,-21.105590820312
0.1535,5.1199951171875,16.771362304688,-20.184692382812
0.154,-1.0059814453125,19.413940429688,-18.422973632812
0.1545,-4.7696533203125,20.975463867188,-16.380981445312
0.155,-7.7325439453125,20.975463867188,-13.658325195312
0.1555,-11.175903320312,21.055541992188,-10.575317382812
0.156,-15.460083007812,20.174682617188,-5.5303955078125
0.1565,-18.663208007812,18.853393554688,-1.1661376953125
0.157,-20.785278320312,17.011596679688,2.8377685546875
0.1575,-21.946411132812,14.769409179688,6.2410888671875
0.158,-21.946411132812,11.486206054688,9.4842529296875
0.1585,-21.906372070312,7.4822998046875,13.448120117188
0.159,-21.225708007812,3.4783935546875,16.811401367188
0.1595,-19.944458007812,-0.8057861328125,19.854370117188
0.16,-17.782348632812,-4.6094970703125,21.455932617188
0.1605,-15.059692382812,-6.4112548828125,23.057495117188
0.161,-11.976684570312,-10.975708007812,22.056518554688
0.1615,-6.4913330078125,-15.259887695312,21.055541992188
0.162,-1.9669189453125,-18.182739257812,19.734252929688
0.1625,2.3172607421875,-20.224731445312,17.852416992188
0.163,5.9207763671875,-21.505981445312,15.730346679688
0.1635,9.0438232421875,-21.185668945312,12.487182617188
0.164,12.647338867188,-20.905395507812,8.8035888671875
0.1645,16.531127929688,-20.144653320312,4.3192138671875
0.165,19.574096679688,-18.463012695312,-0.3653564453125
0.1655,21.295776367188,-16.380981445312,-3.9288330078125
0.166,21.816284179688,-13.938598632812,-7.0919189453125
0.1665,21.936401367188,-10.655395507812,-10.415161132812
0.167,21.495971679688,-5.9708251953125,-14.739379882812
0.1675,20.615112304688,-2.3272705078125,-17.662231445312
0.168,19.253784179688,1.7166748046875,-20.144653320312
0.1685,17.051635742188,5.3602294921875,-21.666137695312
0.169,13.728393554688,8.4432373046875,-21.505981445312
0.1695,10.325073242188,11.806518554688,-21.706176757812
0.17,5.2000732421875,15.970581054688,-20.665161132812
0.1705,0.4354248046875,18.853393554688,-19.063598632812
0.171,-3.2481689453125,20.414916992188,-17.221801757812
0.1715,-6.6915283203125,21.295776367188,-15.019653320312
0.172,-9.9747314453125,21.095581054688,-11.656372070312
0.1725,-14.058715820312,20.414916992188,-7.1319580078125
0.173,-17.542114257812,19.574096679688,-3.0880126953125
0.1735,-20.224731445312,17.772338867188,1.3963623046875
0.174,-21.666137695312,15.650268554688,4.9598388671875
0.1745,-21.906372070312,12.687377929688,8.2030029296875
0.175,-22.146606445312,9.5643310546875,11.606323242188
0.1755,-21.505981445312,4.6395263671875,15.810424804688
0.176,-20.464965820312,0.5955810546875,18.893432617188
0.1765,-18.663208007812,-3.0880126953125,20.775268554688
0.177,-16.501098632812,-6.4913330078125,22.136596679688
0.1775,-12.737426757812,-10.014770507812,23.057495117188
0.178,-8.6134033203125,-13.618286132812,21.536010742188
