wavelength,x,y,z
0.0,-0.350341796875,3.293212890625,-3.353271484375
0.0005,0.210205078125,2.932861328125,-3.593505859375
0.001,0.890869140625,2.292236328125,-3.593505859375
0.0015,1.531494140625,1.571533203125,-3.753662109375
0.002,2.412353515625,1.010986328125,-3.833740234375
0.0025,2.812744140625,0.690673828125,-3.913818359375
0.003,2.932861328125,0.290283203125,-3.673583984375
0.0035,3.052978515625,-0.150146484375,-3.313232421875
0.004,3.012939453125,-0.950927734375,-2.512451171875
0.0045,3.052978515625,-1.751708984375,-1.791748046875
0.005,3.173095703125,-2.432373046875,-1.271240234375
0.0055,3.213134765625,-2.872802734375,-0.830810546875
0.006,2.932861328125,-3.032958984375,-0.470458984375
0.0065,2.332275390625,-3.072998046875,0.290283203125
0.007,1.651611328125,-3.233154296875,1.131103515625
0.0075,0.970947265625,-3.393310546875,1.931884765625
0.008,0.530517578125,-3.553466796875,2.492431640625
0.0085,0.130126953125,-3.433349609375,2.812744140625
0.009,-0.470458984375,-3.193115234375,3.012939453125
0.0095,-1.231201171875,-2.472412109375,2.972900390625
0.01,-1.991943359375,-1.751708984375,3.173095703125
0.0105,-2.712646484375,-1.151123046875,3.333251953125
0.011,-3.032958984375,-0.870849609375,3.333251953125
0.0115,-3.072998046875,-0.430419921875,3.012939453125
0.012,-3.072998046875,0.170166015625,2.452392578125
0.0125,-3.153076171875,0.930908203125,1.771728515625
0.013,-3.193115234375,1.731689453125,1.051025390625
0.0135,-3.313232421875,2.252197265625,0.610595703125
0.014,-3.233154296875,2.652587890625,0.210205078125
0.0145,-2.912841796875,2.812744140625,-0.270263671875
0.015,-2.232177734375,2.852783203125,-1.031005859375
0.0155,-1.591552734375,3.012939453125,-1.871826171875
0.016,-0.990966796875,3.173095703125,-2.632568359375
0.0165,-0.630615234375,3.293212890625,-3.113037109375
0.017,-0.150146484375,3.052978515625,-3.353271484375
0.0175,0.490478515625,2.652587890625,-3.593505859375
0.018,1.291259765625,1.971923828125,-3.673583984375
0.0185,1.971923828125,1.331298828125,-3.713623046875
0.019,2.532470703125,0.890869140625,-3.833740234375
0.0195,2.812744140625,0.610595703125,-3.793701171875
0.02,2.892822265625,0.170166015625,-3.433349609375
0.0205,2.852783203125,-0.550537109375,-2.752685546875
0.021,2.932861328125,-1.271240234375,-2.152099609375
0.0215,3.052978515625,-2.072021484375,-1.471435546875
0.022,3.173095703125,-2.552490234375,-1.071044921875
0.0225,3.012939453125,-2.872802734375,-0.630615234375
0.023,2.612548828125,-2.992919921875,-0.150146484375
0.0235,1.891845703125,-3.072998046875,0.730712890625
0.024,1.211181640625,-3.193115234375,1.531494140625
0.0245,0.690673828125,-3.473388671875,2.212158203125
0.025,0.370361328125,-3.553466796875,2.572509765625
0.0255,-0.150146484375,-3.193115234375,2.732666015625
0.026,-0.790771484375,-2.672607421875,2.932861328125
0.0265,-1.591552734375,-1.991943359375,3.052978515625
0.027,-2.272216796875,-1.431396484375,3.173095703125
0.0275,-2.712646484375,-1.031005859375,3.213134765625
0.028,-2.912841796875,-0.670654296875,3.133056640625
0.0285,-3.032958984375,-0.270263671875,2.772705078125
0.029,-2.992919921875,0.490478515625,2.052001953125
0.0295,-3.072998046875,1.251220703125,1.411376953125
0.03,-3.233154296875,1.971923828125,0.890869140625
0.0305,-3.273193359375,2.372314453125,0.530517578125
0.031,-3.072998046875,2.572509765625,0.050048828125
0.0315,-2.592529296875,2.732666015625,-0.550537109375
0.032,-1.951904296875,2.892822265625,-1.391357421875
0.0325,-1.311279296875,3.012939453125,-2.152099609375
0.033,-0.870849609375,3.133056640625,-2.752685546875
0.0335,-0.510498046875,3.173095703125,-3.153076171875
0.034,0.010009765625,2.892822265625,-3.353271484375
0.0345,0.770751953125,2.292236328125,-3.473388671875
0.035,1.531494140625,1.691650390625,-3.593505859375
0.0355,2.212158203125,1.211181640625,-3.793701171875
0.036,2.532470703125,0.850830078125,-3.793701171875
0.0365,2.732666015625,0.450439453125,-3.553466796875
0.037,2.812744140625,-0.110107421875,-3.153076171875
0.0375,2.852783203125,-0.870849609375,-2.432373046875
0.038,2.932861328125,-1.591552734375,-1.831787109375
0.0385,3.133056640625,-2.232177734375,-1.351318359375
0.039,3.133056640625,-2.632568359375,-0.990966796875
0.0395,2.772705078125,-2.792724609375,-0.510498046875
0.04,2.212158203125,-2.912841796875,0.250244140625
0.0405,1.571533203125,-3.153076171875,1.091064453125
0.041,1.010986328125,-3.353271484375,1.811767578125
0.0415,0.610595703125,-3.473388671875,2.252197265625
0.042,0.210205078125,-3.313232421875,2.612548828125
0.0425,-0.390380859375,-2.952880859375,2.852783203125
0.043,-1.231201171875,-2.272216796875,2.972900390625
0.0435,-1.911865234375,-1.671630859375,3.093017578125
0.044,-2.512451171875,-1.231201171875,3.213134765625
0.0445,-2.792724609375,-0.950927734375,3.173095703125
0.045,-2.872802734375,-0.510498046875,2.852783203125
0.0455,-2.912841796875,0.130126953125,2.332275390625
0.046,-3.032958984375,0.890869140625,1.651611328125
0.0465,-3.153076171875,1.571533203125,1.131103515625
0.047,-3.193115234375,2.092041015625,0.690673828125
0.0475,-3.153076171875,2.412353515625,0.290283203125
0.048,-2.792724609375,2.572509765625,-0.230224609375
0.0485,-2.112060546875,2.652587890625,-0.990966796875
0.049,-1.551513671875,2.852783203125,-1.751708984375
0.0495,-1.111083984375,3.052978515625,-2.472412109375
0.05,-0.710693359375,3.173095703125,-2.832763671875
0.0505,-0.270263671875,2.972900390625,-3.113037109375
0.051,0.330322265625,2.572509765625,-3.273193359375
0.0515,1.131103515625,1.931884765625,-3.473388671875
0.052,1.771728515625,1.411376953125,-3.593505859375
0.0525,2.252197265625,1.051025390625,-3.713623046875
0.053,2.532470703125,0.730712890625,-3.673583984375
0.0535,2.652587890625,0.290283203125,-3.353271484375
0.054,2.692626953125,-0.390380859375,-2.752685546875
0.0545,2.852783203125,-1.151123046875,-2.152099609375
0.055,3.012939453125,-1.871826171875,-1.631591796875
0.0555,3.052978515625,-2.272216796875,-1.271240234375
0.056,2.892822265625,-2.592529296875,-0.790771484375
0.0565,2.572509765625,-2.792724609375,-0.230224609375
0.057,1.931884765625,-2.952880859375,0.570556640625
0.0575,1.331298828125,-3.193115234375,1.291259765625
0.058,0.890869140625,-3.353271484375,1.931884765625
0.0585,0.530517578125,-3.393310546875,2.372314453125
0.059,0.010009765625,-3.113037109375,2.612548828125
0.0595,-0.710693359375,-2.632568359375,2.812744140625
0.06,-1.471435546875,-1.991943359375,2.972900390625
0.0605,-2.112060546875,-1.551513671875,3.133056640625
0.061,-2.552490234375,-1.151123046875,3.173095703125
0.0615,-2.752685546875,-0.790771484375,3.052978515625
0.062,-2.872802734375,-0.270263671875,2.612548828125
0.0625,-2.872802734375,0.490478515625,1.971923828125
0.063,-3.072998046875,1.211181640625,1.411376953125
0.0635,-3.193115234375,1.891845703125,0.970947265625
0.064,-3.193115234375,2.252197265625,0.570556640625
0.0645,-2.912841796875,2.412353515625,0.090087890625
0.065,-2.512451171875,2.572509765625,-0.590576171875
0.0655,-1.831787109375,2.772705078125,-1.431396484375
0.066,-1.351318359375,3.012939453125,-2.112060546875
0.0665,-0.950927734375,3.173095703125,-2.632568359375
0.067,-0.550537109375,3.133056640625,-3.032958984375
0.0675,0.050048828125,2.772705078125,-3.193115234375
0.068,0.810791015625,2.212158203125,-3.353271484375
0.0685,1.531494140625,1.571533203125,-3.553466796875
0.069,2.132080078125,1.211181640625,-3.713623046875
0.0695,2.412353515625,0.890869140625,-3.713623046875
0.07,2.612548828125,0.450439453125,-3.433349609375
0.0705,2.692626953125,-0.150146484375,-2.952880859375
0.071,2.772705078125,-0.950927734375,-2.312255859375
0.0715,2.932861328125,-1.591552734375,-1.791748046875
0.072,3.093017578125,-2.192138671875,-1.311279296875
0.0725,3.012939453125,-2.592529296875,-0.990966796875
0.073,2.612548828125,-2.752685546875,-0.470458984375
0.0735,2.052001953125,-2.952880859375,0.290283203125
0.074,1.411376953125,-3.072998046875,1.171142578125
0.0745,1.010986328125,-3.353271484375,1.851806640625
0.075,0.610595703125,-3.393310546875,2.292236328125
0.0755,0.170166015625,-3.233154296875,2.572509765625
0.076,-0.510498046875,-2.792724609375,2.812744140625
0.0765,-1.271240234375,-2.152099609375,2.932861328125
0.077,-1.991943359375,-1.631591796875,3.093017578125
0.0775,-2.552490234375,-1.231201171875,3.253173828125
0.078,-2.752685546875,-0.910888671875,3.133056640625
0.0785,-2.872802734375,-0.390380859375,2.772705078125
0.079,-2.952880859375,0.290283203125,2.212158203125
0.0795,-3.072998046875,1.131103515625,1.531494140625
0.08,-3.233154296875,1.771728515625,1.010986328125
0.0805,-3.233154296875,2.212158203125,0.610595703125
0.081,-3.113037109375,2.492431640625,0.170166015625
0.0815,-2.632568359375,2.612548828125,-0.510498046875
0.082,-1.991943359375,2.852783203125,-1.271240234375
0.0825,-1.351318359375,3.052978515625,-2.072021484375
0.083,-0.990966796875,3.253173828125,-2.712646484375
0.0835,-0.550537109375,3.173095703125,-3.032958984375
0.084,0.010009765625,2.892822265625,-3.273193359375
0.0845,0.690673828125,2.372314453125,-3.473388671875
0.085,1.571533203125,1.651611328125,-3.593505859375
0.0855,2.172119140625,1.211181640625,-3.713623046875
0.086,2.572509765625,0.810791015625,-3.753662109375
0.0865,2.732666015625,0.490478515625,-3.553466796875
0.087,2.772705078125,-0.150146484375,-3.072998046875
0.0875,2.852783203125,-0.870849609375,-2.432373046875
0.088,2.932861328125,-1.631591796875,-1.791748046875
0.0885,3.133056640625,-2.312255859375,-1.311279296875
0.089,3.052978515625,-2.672607421875,-0.990966796875
0.0895,2.772705078125,-2.872802734375,-0.510498046875
0.09,2.252197265625,-2.952880859375,0.250244140625
0.0905,1.491455078125,-3.113037109375,1.091064453125
0.091,0.970947265625,-3.273193359375,1.811767578125
0.0915,0.610595703125,-3.473388671875,2.372314453125
0.092,0.170166015625,-3.273193359375,2.612548828125
0.0925,-0.390380859375,-2.872802734375,2.812744140625
0.093,-1.151123046875,-2.312255859375,2.972900390625
0.0935,-1.951904296875,-1.631591796875,3.093017578125
0.094,-2.512451171875,-1.231201171875,3.213134765625
0.0945,-2.752685546875,-0.870849609375,3.173095703125
0.095,-2.912841796875,-0.510498046875,2.892822265625
0.0955,-2.912841796875,0.130126953125,2.332275390625
0.096,-2.992919921875,0.890869140625,1.651611328125
0.0965,-3.153076171875,1.571533203125,1.091064453125
0.097,-3.233154296875,2.132080078125,0.650634765625
0.0975,-3.153076171875,2.372314453125,0.290283203125
0.098,-2.792724609375,2.572509765625,-0.230224609375
0.0985,-2.272216796875,2.772705078125,-0.990966796875
0.099,-1.551513671875,2.932861328125,-1.831787109375
0.0995,-1.111083984375,3.173095703125,-2.432373046875
0.1,-0.710693359375,3.213134765625,-2.912841796875
0.1005,-0.270263671875,3.093017578125,-3.193115234375
0.101,0.410400390625,2.532470703125,-3.353271484375
0.1015,1.171142578125,1.971923828125,-3.513427734375
0.102,1.931884765625,1.371337890625,-3.673583984375
0.1025,2.412353515625,1.010986328125,-3.833740234375
0.103,2.612548828125,0.650634765625,-3.673583984375
0.1035,2.772705078125,0.210205078125,-3.353271484375
0.104,2.852783203125,-0.510498046875,-2.792724609375
0.1045,2.892822265625,-1.311279296875,-2.072021484375
0.105,3.052978515625,-1.991943359375,-1.591552734375
0.1055,3.133056640625,-2.552490234375,-1.151123046875
0.106,2.932861328125,-2.712646484375,-0.710693359375
0.1065,2.452392578125,-2.872802734375,0.010009765625
0.107,1.851806640625,-3.072998046875,0.690673828125
0.1075,1.171142578125,-3.233154296875,1.571533203125
0.108,0.810791015625,-3.433349609375,2.172119140625
0.1085,0.370361328125,-3.353271484375,2.532470703125
0.109,-0.150146484375,-3.153076171875,2.772705078125
0.1095,-0.950927734375,-2.512451171875,2.932861328125
0.11,-1.671630859375,-1.911865234375,3.052978515625
0.1105,-2.352294921875,-1.351318359375,3.173095703125
0.111,-2.752685546875,-0.990966796875,3.253173828125
0.1115,-2.872802734375,-0.630615234375,3.012939453125
0.112,-2.952880859375,-0.070068359375,2.532470703125
0.1125,-2.992919921875,0.610595703125,1.931884765625
0.113,-3.153076171875,1.411376953125,1.211181640625
0.1135,-3.273193359375,1.971923828125,0.770751953125
0.114,-3.193115234375,2.452392578125,0.370361328125
0.1145,-2.992919921875,2.612548828125,0.010009765625
0.115,-2.352294921875,2.732666015625,-0.790771484375
0.1155,-1.751708984375,2.932861328125,-1.591552734375
0.116,-1.151123046875,3.133056640625,-2.392333984375
0.1165,-0.790771484375,3.253173828125,-2.912841796875
0.117,-0.310302734375,3.093017578125,-3.193115234375
0.1175,0.250244140625,2.812744140625,-3.393310546875
0.118,1.051025390625,2.132080078125,-3.553466796875
0.1185,1.811767578125,1.451416015625,-3.673583984375
0.119,2.372314453125,1.010986328125,-3.793701171875
0.1195,2.692626953125,0.650634765625,-3.753662109375
0.12,2.812744140625,0.290283203125,-3.473388671875
0.1205,2.812744140625,-0.430419921875,-2.872802734375
0.121,2.932861328125,-1.151123046875,-2.272216796875
0.1215,3.052978515625,-1.991943359375,-1.591552734375
0.122,3.173095703125,-2.472412109375,-1.231201171875
0.1225,3.012939453125,-2.752685546875,-0.750732421875
0.123,2.692626953125,-2.912841796875,-0.310302734375
0.1235,1.971923828125,-3.072998046875,0.610595703125
0.124,1.291259765625,-3.193115234375,1.451416015625
0.1245,0.770751953125,-3.393310546875,2.092041015625
0.125,0.450439453125,-3.553466796875,2.572509765625
0.1255,-0.110107421875,-3.233154296875,2.812744140625
0.126,-0.790771484375,-2.712646484375,2.932861328125
0.1265,-1.591552734375,-2.031982421875,3.093017578125
0.127,-2.312255859375,-1.431396484375,3.213134765625
0.1275,-2.752685546875,-1.031005859375,3.293212890625
0.128,-2.992919921875,-0.670654296875,3.133056640625
0.1285,-3.072998046875,-0.270263671875,2.812744140625
0.129,-3.072998046875,0.490478515625,2.052001953125
0.1295,-3.153076171875,1.251220703125,1.331298828125
0.13,-3.273193359375,2.052001953125,0.810791015625
0.1305,-3.353271484375,2.532470703125,0.450439453125
0.131,-3.072998046875,2.692626953125,0.010009765625
0.1315,-2.552490234375,2.812744140625,-0.670654296875
0.132,-1.871826171875,2.972900390625,-1.551513671875
0.1325,-1.191162109375,3.173095703125,-2.392333984375
0.133,-0.710693359375,3.253173828125,-2.912841796875
0.1335,-0.350341796875,3.253173828125,-3.273193359375
0.134,0.250244140625,2.892822265625,-3.513427734375
0.1345,1.010986328125,2.212158203125,-3.593505859375
0.135,1.771728515625,1.571533203125,-3.713623046875
0.1355,2.492431640625,1.010986328125,-3.833740234375
0.136,2.812744140625,0.650634765625,-3.873779296875
0.1365,2.892822265625,0.210205078125,-3.553466796875
0.137,2.972900390625,-0.350341796875,-3.113037109375
0.1375,2.932861328125,-1.191162109375,-2.312255859375
0.138,3.052978515625,-1.911865234375,-1.631591796875
0.1385,3.173095703125,-2.512451171875,-1.151123046875
0.139,3.173095703125,-2.912841796875,-0.790771484375
0.1395,2.772705078125,-3.032958984375,-0.310302734375
0.14,2.092041015625,-3.072998046875,0.490478515625
0.1405,1.371337890625,-3.193115234375,1.331298828125
0.141,0.770751953125,-3.393310546875,2.132080078125
0.1415,0.370361328125,-3.473388671875,2.612548828125
0.142,0.010009765625,-3.313232421875,2.852783203125
0.1425,-0.630615234375,-2.912841796875,3.052978515625
0.143,-1.551513671875,-2.112060546875,3.173095703125
0.1435,-2.192138671875,-1.511474609375,3.213134765625
0.144,-2.832763671875,-0.990966796875,3.293212890625
0.1445,-3.072998046875,-0.790771484375,3.253173828125
0.145,-3.072998046875,-0.310302734375,2.852783203125
0.1455,-3.072998046875,0.290283203125,2.252197265625
0.146,-3.153076171875,1.131103515625,1.571533203125
0.1465,-3.233154296875,1.891845703125,0.930908203125
0.147,-3.273193359375,2.412353515625,0.490478515625
0.1475,-3.193115234375,2.692626953125,0.090087890625
0.148,-2.832763671875,2.812744140625,-0.390380859375
0.1485,-2.072021484375,2.892822265625,-1.231201171875
0.149,-1.431396484375,3.052978515625,-2.072021484375
0.1495,-0.910888671875,3.253173828125,-2.752685546875
0.15,-0.510498046875,3.333251953125,-3.193115234375
0.1505,0.010009765625,3.052978515625,-3.393310546875
0.151,0.610595703125,2.532470703125,-3.553466796875
0.1515,1.491455078125,1.811767578125,-3.713623046875
0.152,2.172119140625,1.251220703125,-3.793701171875
0.1525,2.692626953125,0.770751953125,-3.873779296875
0.153,2.892822265625,0.450439453125,-3.833740234375
0.1535,2.932861328125,0.010009765625,-3.393310546875
0.154,2.932861328125,-0.750732421875,-2.632568359375
0.1545,3.012939453125,-1.551513671875,-1.951904296875
0.155,3.173095703125,-2.312255859375,-1.351318359375
0.1555,3.173095703125,-2.752685546875,-0.990966796875
0.156,2.932861328125,-2.952880859375,-0.510498046875
0.1565,2.492431640625,-3.113037109375,0.130126953125
0.157,1.651611328125,-3.233154296875,1.091064453125
0.1575,1.010986328125,-3.353271484375,1.851806640625
0.158,0.570556640625,-3.553466796875,2.492431640625
0.1585,0.170166015625,-3.513427734375,2.852783203125
0.159,-0.430419921875,-3.072998046875,2.972900390625
0.1595,-1.231201171875,-2.472412109375,3.173095703125
0.16,-2.072021484375,-1.671630859375,3.213134765625
0.1605,-2.672607421875,-1.231201171875,3.293212890625
0.161,-3.032958984375,-0.790771484375,3.293212890625
0.1615,-3.193115234375,-0.510498046875,3.052978515625
0.162,-3.153076171875,0.170166015625,2.532470703125
0.1625,-3.153076171875,0.970947265625,1.731689453125
0.163,-3.193115234375,1.691650390625,1.091064453125
0.1635,-3.353271484375,2.372314453125,0.570556640625
0.164,-3.273193359375,2.652587890625,0.210205078125
0.1645,-2.872802734375,2.812744140625,-0.350341796875
0.165,-2.312255859375,2.892822265625,-0.990966796875
0.1655,-1.551513671875,3.052978515625,-1.951904296875
0.166,-0.990966796875,3.173095703125,-2.592529296875
0.1665,-0.550537109375,3.253173828125,-3.153076171875
0.167,-0.190185546875,3.213134765625,-3.393310546875
0.1675,0.490478515625,2.732666015625,-3.553466796875
0.168,1.291259765625,2.011962890625,-3.713623046875
0.1685,2.052001953125,1.291259765625,-3.753662109375
0.169,2.652587890625,0.850830078125,-3.953857421875
0.1695,2.892822265625,0.490478515625,-3.833740234375
0.17,3.012939453125,0.130126953125,-3.513427734375
0.1705,3.012939453125,-0.550537109375,-2.912841796875
0.171,3.052978515625,-1.391357421875,-2.072021484375
0.1715,3.173095703125,-2.112060546875,-1.511474609375
0.172,3.213134765625,-2.712646484375,-0.990966796875
0.1725,3.173095703125,-2.992919921875,-0.630615234375
0.173,2.652587890625,-3.113037109375,-0.070068359375
0.1735,1.931884765625,-3.233154296875,0.770751953125
0.174,1.131103515625,-3.353271484375,1.731689453125
0.1745,0.650634765625,-3.553466796875,2.412353515625
0.175,0.250244140625,-3.553466796875,2.812744140625
0.1755,-0.270263671875,-3.353271484375,3.052978515625
0.176,-0.990966796875,-2.712646484375,3.173095703125
0.1765,-1.871826171875,-1.951904296875,3.213134765625
0.177,-2.592529296875,-1.311279296875,3.293212890625
0.1775,-3.072998046875,-0.910888671875,3.373291015625
0.178,-3.193115234375,-0.510498046875,3.213134765625
0.1785,-3.233154296875,0.010009765625,2.732666015625
0.179,-3.193115234375,0.730712890625,2.052001953125
0.1795,-3.233154296875,1.611572265625,1.211181640625
0.18,-3.353271484375,2.252197265625,0.690673828125
0.1805,-3.313232421875,2.692626953125,0.250244140625
0.181,-3.113037109375,2.852783203125,-0.150146484375
0.1815,-2.472412109375,2.892822265625,-0.830810546875
0.182,-1.751708984375,3.052978515625,-1.671630859375
0.1825,-1.031005859375,3.173095703125,-2.512451171875
0.183,-0.630615234375,3.333251953125,-3.072998046875
0.1835,-0.270263671875,3.173095703125,-3.393310546875
0.184,0.290283203125,2.892822265625,-3.553466796875
0.1845,1.010986328125,2.212158203125,-3.713623046875
0.185,1.891845703125,1.451416015625,-3.793701171875
0.1855,2.452392578125,0.930908203125,-3.873779296875
0.186,2.852783203125,0.610595703125,-3.833740234375
0.1865,2.972900390625,0.290283203125,-3.673583984375
0.187,2.972900390625,-0.310302734375,-3.113037109375
0.1875,3.012939453125,-1.031005859375,-2.392333984375
0.188,3.052978515625,-1.911865234375,-1.631591796875
