wavelength,x,y,z
0.0,-5.195068359375,3.573486328125,2.132080078125
0.0005,-4.834716796875,4.374267578125,1.131103515625
0.001,-4.234130859375,4.894775390625,0.170166015625
0.0015,-3.353271484375,5.014892578125,-1.031005859375
0.002,-1.951904296875,5.455322265625,-2.592529296875
0.0025,-0.870849609375,5.735595703125,-3.913818359375
0.003,0.130126953125,5.735595703125,-4.834716796875
0.0035,0.850830078125,5.735595703125,-5.635498046875
0.004,1.971923828125,4.974853515625,-6.236083984375
0.0045,3.413330078125,3.853759765625,-6.716552734375
0.005,4.574462890625,2.732666015625,-7.076904296875
0.0055,5.295166015625,1.531494140625,-6.916748046875
0.006,5.655517578125,0.570556640625,-6.596435546875
0.0065,5.695556640625,-0.390380859375,-6.115966796875
0.007,5.535400390625,-1.511474609375,-5.155029296875
0.0075,5.335205078125,-2.952880859375,-3.793701171875
0.008,5.175048828125,-4.154052734375,-2.632568359375
0.0085,4.734619140625,-5.114990234375,-1.551513671875
0.009,4.254150390625,-5.755615234375,-0.590576171875
0.0095,3.413330078125,-6.075927734375,0.410400390625
0.01,2.212158203125,-6.156005859375,1.891845703125
0.0105,0.850830078125,-6.436279296875,3.453369140625
0.011,-0.430419921875,-6.396240234375,4.614501953125
0.0115,-1.151123046875,-6.396240234375,5.375244140625
0.012,-1.911865234375,-6.196044921875,6.055908203125
0.0125,-3.153076171875,-5.275146484375,6.536376953125
0.013,-4.514404296875,-3.873779296875,6.896728515625
0.0135,-5.475341796875,-2.832763671875,7.056884765625
0.014,-5.955810546875,-1.671630859375,6.696533203125
0.0145,-6.236083984375,-0.790771484375,6.416259765625
0.015,-6.115966796875,0.250244140625,5.695556640625
0.0155,-5.875732421875,1.331298828125,4.654541015625
0.016,-5.675537109375,2.732666015625,3.333251953125
0.0165,-5.315185546875,3.893798828125,2.052001953125
0.017,-4.874755859375,4.654541015625,1.010986328125
0.0175,-4.354248046875,5.335205078125,0.090087890625
0.018,-3.393310546875,5.415283203125,-1.031005859375
0.0185,-1.991943359375,5.615478515625,-2.552490234375
0.019,-0.950927734375,5.935791015625,-3.953857421875
0.0195,0.290283203125,5.815673828125,-4.994873046875
0.02,0.970947265625,5.815673828125,-5.755615234375
0.0205,1.891845703125,5.375244140625,-6.356201171875
0.021,3.173095703125,4.334228515625,-6.836669921875
0.0215,4.494384765625,3.012939453125,-7.156982421875
0.022,5.335205078125,1.851806640625,-7.156982421875
0.0225,5.735595703125,0.770751953125,-6.836669921875
0.023,5.935791015625,-0.150146484375,-6.516357421875
0.0235,5.735595703125,-1.191162109375,-5.635498046875
0.024,5.495361328125,-2.512451171875,-4.354248046875
0.0245,5.415283203125,-3.793701171875,-3.193115234375
0.025,4.934814453125,-4.874755859375,-1.911865234375
0.0255,4.454345703125,-5.515380859375,-0.790771484375
0.026,3.813720703125,-6.075927734375,0.170166015625
0.0265,2.732666015625,-6.236083984375,1.291259765625
0.027,1.291259765625,-6.436279296875,2.932861328125
0.0275,0.130126953125,-6.556396484375,4.294189453125
0.028,-0.910888671875,-6.436279296875,5.135009765625
0.0285,-1.591552734375,-6.436279296875,5.895751953125
0.029,-2.632568359375,-5.715576171875,6.376220703125
0.0295,-3.993896484375,-4.514404296875,6.776611328125
0.03,-5.114990234375,-3.393310546875,7.096923828125
0.0305,-5.835693359375,-2.112060546875,6.896728515625
0.031,-6.196044921875,-1.151123046875,6.616455078125
0.0315,-6.196044921875,-0.270263671875,6.095947265625
0.032,-6.035888671875,0.890869140625,5.175048828125
0.0325,-5.755615234375,2.292236328125,3.813720703125
0.033,-5.595458984375,3.493408203125,2.612548828125
0.0335,-5.275146484375,4.414306640625,1.531494140625
0.034,-4.674560546875,5.135009765625,0.450439453125
0.0345,-3.793701171875,5.415283203125,-0.670654296875
0.035,-2.632568359375,5.615478515625,-1.951904296875
0.0355,-1.391357421875,5.895751953125,-3.473388671875
0.036,0.010009765625,5.855712890625,-4.714599609375
0.0365,0.730712890625,5.855712890625,-5.515380859375
0.037,1.531494140625,5.695556640625,-6.236083984375
0.0375,2.732666015625,4.734619140625,-6.716552734375
0.038,4.174072265625,3.373291015625,-7.076904296875
0.0385,5.094970703125,2.332275390625,-7.317138671875
0.039,5.695556640625,1.091064453125,-6.956787109375
0.0395,5.975830078125,0.210205078125,-6.716552734375
0.04,5.855712890625,-0.870849609375,-5.915771484375
0.0405,5.655517578125,-2.072021484375,-4.914794921875
0.041,5.455322265625,-3.473388671875,-3.593505859375
0.0415,5.014892578125,-4.834716796875,-2.272216796875
0.042,4.654541015625,-5.435302734375,-1.151123046875
0.0425,4.134033203125,-6.115966796875,-0.270263671875
0.043,3.093017578125,-6.236083984375,0.970947265625
0.0435,1.731689453125,-6.436279296875,2.532470703125
0.044,0.530517578125,-6.716552734375,3.973876953125
0.0445,-0.750732421875,-6.556396484375,5.054931640625
0.045,-1.431396484375,-6.556396484375,5.815673828125
0.0455,-2.352294921875,-6.035888671875,6.416259765625
0.046,-3.633544921875,-4.994873046875,6.896728515625
0.0465,-4.994873046875,-3.633544921875,7.177001953125
0.047,-5.835693359375,-2.432373046875,7.136962890625
0.0475,-6.276123046875,-1.311279296875,6.776611328125
0.048,-6.396240234375,-0.510498046875,6.416259765625
0.0485,-6.196044921875,0.610595703125,5.455322265625
0.049,-5.915771484375,1.971923828125,4.134033203125
0.0495,-5.755615234375,3.093017578125,2.932861328125
0.05,-5.275146484375,4.334228515625,1.651611328125
0.0505,-4.834716796875,5.094970703125,0.610595703125
0.051,-4.114013671875,5.455322265625,-0.470458984375
0.0515,-3.032958984375,5.615478515625,-1.551513671875
0.052,-1.551513671875,5.815673828125,-3.193115234375
0.0525,-0.430419921875,5.975830078125,-4.514404296875
0.053,0.650634765625,5.815673828125,-5.355224609375
0.0535,1.291259765625,5.775634765625,-6.115966796875
0.054,2.412353515625,4.974853515625,-6.596435546875
0.0545,3.733642578125,3.813720703125,-6.996826171875
0.055,4.814697265625,2.652587890625,-7.237060546875
0.0555,5.535400390625,1.411376953125,-7.036865234375
0.056,5.855712890625,0.450439453125,-6.716552734375
0.0565,5.895751953125,-0.630615234375,-6.276123046875
0.057,5.655517578125,-1.591552734375,-5.275146484375
0.0575,5.535400390625,-2.912841796875,-4.033935546875
0.058,5.175048828125,-4.114013671875,-2.792724609375
0.0585,4.734619140625,-5.034912109375,-1.591552734375
0.059,4.294189453125,-5.715576171875,-0.630615234375
0.0595,3.453369140625,-5.995849609375,0.490478515625
0.06,2.372314453125,-6.196044921875,1.651611328125
0.0605,1.091064453125,-6.396240234375,3.173095703125
0.061,-0.270263671875,-6.396240234375,4.374267578125
0.0615,-1.031005859375,-6.396240234375,5.175048828125
0.062,-1.751708984375,-6.276123046875,5.895751953125
0.0625,-2.872802734375,-5.435302734375,6.376220703125
0.063,-4.194091796875,-4.194091796875,6.736572265625
0.0635,-5.114990234375,-3.193115234375,6.976806640625
0.064,-5.715576171875,-1.991943359375,6.696533203125
0.0645,-6.035888671875,-1.151123046875,6.456298828125
0.065,-6.035888671875,-0.270263671875,5.815673828125
0.0655,-5.835693359375,0.970947265625,5.054931640625
0.066,-5.635498046875,2.212158203125,3.733642578125
0.0665,-5.395263671875,3.413330078125,2.532470703125
0.067,-4.994873046875,4.294189453125,1.411376953125
0.0675,-4.554443359375,4.934814453125,0.490478515625
0.068,-3.673583984375,5.175048828125,-0.630615234375
0.0685,-2.432373046875,5.415283203125,-1.991943359375
0.069,-1.431396484375,5.735595703125,-3.353271484375
0.0695,-0.270263671875,5.655517578125,-4.434326171875
0.07,0.610595703125,5.735595703125,-5.275146484375
0.0705,1.451416015625,5.415283203125,-5.915771484375
0.071,2.612548828125,4.534423828125,-6.436279296875
0.0715,3.933837890625,3.333251953125,-6.796630859375
0.072,4.774658203125,2.252197265625,-6.876708984375
0.0725,5.255126953125,1.131103515625,-6.596435546875
0.073,5.575439453125,0.330322265625,-6.436279296875
0.0735,5.295166015625,-0.830810546875,-5.635498046875
0.074,5.255126953125,-1.831787109375,-4.634521484375
0.0745,5.175048828125,-2.992919921875,-3.593505859375
0.075,4.814697265625,-4.114013671875,-2.352294921875
0.0755,4.454345703125,-4.914794921875,-1.351318359375
0.076,3.933837890625,-5.435302734375,-0.470458984375
0.0765,3.012939453125,-5.755615234375,0.690673828125
0.077,1.771728515625,-5.955810546875,2.092041015625
0.0775,0.770751953125,-6.196044921875,3.333251953125
0.078,-0.310302734375,-6.115966796875,4.294189453125
0.0785,-0.990966796875,-6.276123046875,5.135009765625
0.079,-1.911865234375,-5.755615234375,5.655517578125
0.0795,-3.072998046875,-4.834716796875,6.135986328125
0.08,-4.154052734375,-3.873779296875,6.536376953125
0.0805,-4.994873046875,-2.792724609375,6.456298828125
0.081,-5.435302734375,-1.871826171875,6.296142578125
0.0815,-5.675537109375,-1.151123046875,5.895751953125
0.082,-5.515380859375,0.010009765625,5.335205078125
0.0825,-5.395263671875,1.171142578125,4.214111328125
0.083,-5.315185546875,2.252197265625,3.333251953125
0.0835,-4.994873046875,3.213134765625,2.252197265625
0.084,-4.714599609375,4.093994140625,1.291259765625
0.0845,-4.033935546875,4.494384765625,0.290283203125
0.085,-3.193115234375,4.854736328125,-0.830810546875
0.0855,-2.272216796875,5.255126953125,-2.072021484375
0.086,-1.151123046875,5.375244140625,-3.273193359375
0.0865,-0.350341796875,5.455322265625,-4.234130859375
0.087,0.450439453125,5.535400390625,-5.074951171875
0.0875,1.531494140625,4.974853515625,-5.635498046875
0.088,2.732666015625,3.973876953125,-6.115966796875
0.0885,3.773681640625,3.052978515625,-6.516357421875
0.089,4.454345703125,1.971923828125,-6.396240234375
0.0895,5.054931640625,1.251220703125,-6.396240234375
0.09,5.094970703125,0.330322265625,-5.915771484375
0.0905,5.094970703125,-0.670654296875,-5.275146484375
0.091,5.014892578125,-1.791748046875,-4.354248046875
0.0915,4.814697265625,-2.952880859375,-3.273193359375
0.092,4.534423828125,-3.873779296875,-2.232177734375
0.0925,4.334228515625,-4.754638671875,-1.351318359375
0.093,3.573486328125,-5.114990234375,-0.390380859375
0.0935,2.612548828125,-5.435302734375,0.970947265625
0.094,1.731689453125,-5.835693359375,2.172119140625
0.0945,0.650634765625,-5.915771484375,3.253173828125
0.095,-0.190185546875,-6.115966796875,4.174072265625
0.0955,-0.990966796875,-5.955810546875,4.934814453125
0.096,-2.031982421875,-5.395263671875,5.535400390625
0.0965,-3.193115234375,-4.434326171875,6.015869140625
0.097,-4.154052734375,-3.513427734375,6.176025390625
0.0975,-4.794677734375,-2.512451171875,6.135986328125
0.098,-5.195068359375,-1.711669921875,6.055908203125
0.0985,-5.275146484375,-0.830810546875,5.495361328125
0.099,-5.195068359375,0.290283203125,4.734619140625
0.0995,-5.235107421875,1.331298828125,3.933837890625
0.1,-4.994873046875,2.412353515625,2.852783203125
0.1005,-4.794677734375,3.333251953125,1.931884765625
0.101,-4.354248046875,4.013916015625,1.010986328125
0.1015,-3.713623046875,4.414306640625,0.050048828125
0.102,-2.752685546875,4.814697265625,-1.271240234375
0.1025,-1.871826171875,5.135009765625,-2.472412109375
0.103,-0.990966796875,5.255126953125,-3.473388671875
0.1035,-0.270263671875,5.455322265625,-4.434326171875
0.104,0.810791015625,5.094970703125,-5.074951171875
0.1045,1.851806640625,4.334228515625,-5.635498046875
0.105,3.012939453125,3.573486328125,-6.156005859375
0.1055,3.853759765625,2.532470703125,-6.196044921875
0.106,4.494384765625,1.651611328125,-6.156005859375
0.1065,4.814697265625,0.890869140625,-6.035888671875
0.107,4.814697265625,0.010009765625,-5.475341796875
0.1075,4.814697265625,-1.191162109375,-4.634521484375
0.108,4.814697265625,-2.272216796875,-3.793701171875
0.1085,4.574462890625,-3.233154296875,-2.792724609375
0.109,4.414306640625,-4.154052734375,-1.911865234375
0.1095,3.853759765625,-4.674560546875,-0.950927734375
0.11,3.093017578125,-5.114990234375,0.210205078125
0.1105,2.252197265625,-5.555419921875,1.411376953125
0.111,1.251220703125,-5.755615234375,2.572509765625
0.1115,0.450439453125,-5.955810546875,3.573486328125
0.112,-0.390380859375,-6.075927734375,4.494384765625
0.1125,-1.391357421875,-5.715576171875,5.014892578125
0.113,-2.632568359375,-4.794677734375,5.655517578125
0.1135,-3.633544921875,-3.993896484375,6.055908203125
0.114,-4.394287109375,-2.912841796875,6.055908203125
0.1145,-4.914794921875,-2.112060546875,6.095947265625
0.115,-5.114990234375,-1.271240234375,5.695556640625
0.1155,-5.155029296875,-0.390380859375,5.094970703125
0.116,-5.155029296875,0.810791015625,4.294189453125
0.1165,-5.074951171875,1.931884765625,3.333251953125
0.117,-4.834716796875,2.892822265625,2.372314453125
0.1175,-4.634521484375,3.693603515625,1.491455078125
0.118,-3.953857421875,4.134033203125,0.490478515625
0.1185,-3.072998046875,4.574462890625,-0.790771484375
0.119,-2.312255859375,5.094970703125,-1.951904296875
0.1195,-1.311279296875,5.175048828125,-3.072998046875
0.12,-0.590576171875,5.415283203125,-4.033935546875
0.1205,0.290283203125,5.255126953125,-4.834716796875
0.121,1.451416015625,4.734619140625,-5.475341796875
0.1215,2.732666015625,3.773681640625,-6.035888671875
0.122,3.653564453125,2.852783203125,-6.236083984375
0.1225,4.334228515625,1.891845703125,-6.196044921875
0.123,4.814697265625,1.091064453125,-6.156005859375
0.1235,4.854736328125,0.210205078125,-5.595458984375
0.124,4.814697265625,-0.990966796875,-4.834716796875
0.1245,4.894775390625,-2.031982421875,-4.033935546875
0.125,4.654541015625,-3.153076171875,-2.952880859375
0.1255,4.414306640625,-4.033935546875,-1.991943359375
0.126,4.053955078125,-4.754638671875,-1.111083984375
0.1265,3.293212890625,-5.114990234375,0.010009765625
0.127,2.292236328125,-5.475341796875,1.291259765625
0.1275,1.331298828125,-5.795654296875,2.532470703125
0.128,0.490478515625,-5.915771484375,3.533447265625
0.1285,-0.310302734375,-6.236083984375,4.334228515625
0.129,-1.311279296875,-5.755615234375,5.094970703125
0.1295,-2.512451171875,-4.954833984375,5.655517578125
0.13,-3.633544921875,-4.073974609375,6.135986328125
0.1305,-4.474365234375,-2.992919921875,6.135986328125
0.131,-5.034912109375,-2.072021484375,6.135986328125
0.1315,-5.315185546875,-1.271240234375,5.855712890625
0.132,-5.275146484375,-0.390380859375,5.255126953125
0.1325,-5.235107421875,0.930908203125,4.294189453125
0.133,-5.195068359375,2.011962890625,3.373291015625
0.1335,-4.994873046875,3.012939453125,2.372314453125
0.134,-4.714599609375,3.853759765625,1.411376953125
0.1345,-4.033935546875,4.334228515625,0.450439453125
0.135,-3.193115234375,4.694580078125,-0.750732421875
0.1355,-2.272216796875,5.094970703125,-2.031982421875
0.136,-1.231201171875,5.295166015625,-3.273193359375
0.1365,-0.390380859375,5.535400390625,-4.154052734375
0.137,0.450439453125,5.415283203125,-5.074951171875
0.1375,1.571533203125,4.814697265625,-5.635498046875
0.138,2.892822265625,3.813720703125,-6.156005859375
0.1385,3.853759765625,2.892822265625,-6.476318359375
0.139,4.534423828125,1.851806640625,-6.396240234375
0.1395,5.054931640625,0.970947265625,-6.316162109375
0.14,5.094970703125,0.090087890625,-5.795654296875
0.1405,5.054931640625,-0.990966796875,-4.994873046875
0.141,4.974853515625,-2.232177734375,-3.993896484375
0.1415,4.814697265625,-3.353271484375,-2.912841796875
0.142,4.494384765625,-4.274169921875,-1.871826171875
0.1425,4.174072265625,-5.034912109375,-0.990966796875
0.143,3.373291015625,-5.315185546875,0.130126953125
0.1435,2.252197265625,-5.675537109375,1.411376953125
0.144,1.291259765625,-6.075927734375,2.732666015625
0.1445,0.210205078125,-6.196044921875,3.693603515625
0.145,-0.590576171875,-6.236083984375,4.654541015625
0.1455,-1.391357421875,-5.995849609375,5.375244140625
0.146,-2.592529296875,-5.114990234375,5.895751953125
0.1465,-3.873779296875,-4.033935546875,6.376220703125
0.147,-4.754638671875,-2.952880859375,6.416259765625
0.1475,-5.275146484375,-1.991943359375,6.336181640625
0.148,-5.635498046875,-1.231201171875,6.095947265625
0.1485,-5.595458984375,-0.270263671875,5.415283203125
0.149,-5.435302734375,1.010986328125,4.414306640625
0.1495,-5.435302734375,2.212158203125,3.453369140625
0.15,-5.114990234375,3.293212890625,2.292236328125
0.1505,-4.834716796875,4.174072265625,1.291259765625
0.151,-4.234130859375,4.654541015625,0.370361328125
0.1515,-3.353271484375,4.974853515625,-0.790771484375
0.152,-2.192138671875,5.335205078125,-2.272216796875
0.1525,-1.031005859375,5.615478515625,-3.633544921875
0.153,-0.230224609375,5.575439453125,-4.514404296875
0.1535,0.610595703125,5.615478515625,-5.395263671875
0.154,1.731689453125,5.094970703125,-5.995849609375
0.1545,3.052978515625,3.973876953125,-6.476318359375
0.155,4.174072265625,3.012939453125,-6.916748046875
0.1555,4.974853515625,1.771728515625,-6.756591796875
0.156,5.415283203125,0.810791015625,-6.596435546875
0.1565,5.575439453125,-0.150146484375,-6.156005859375
0.157,5.455322265625,-1.231201171875,-5.275146484375
0.1575,5.255126953125,-2.632568359375,-3.993896484375
0.158,5.175048828125,-3.833740234375,-2.912841796875
0.1585,4.774658203125,-4.754638671875,-1.791748046875
0.159,4.334228515625,-5.515380859375,-0.790771484375
0.1595,3.493408203125,-5.835693359375,0.330322265625
0.16,2.332275390625,-6.075927734375,1.651611328125
0.1605,0.970947265625,-6.476318359375,3.173095703125
0.161,-0.190185546875,-6.436279296875,4.414306640625
0.1615,-0.990966796875,-6.436279296875,5.215087890625
0.162,-1.791748046875,-6.236083984375,5.975830078125
0.1625,-3.072998046875,-5.275146484375,6.496337890625
0.163,-4.474365234375,-3.913818359375,6.856689453125
0.1635,-5.395263671875,-2.872802734375,7.016845703125
0.164,-5.915771484375,-1.751708984375,6.696533203125
0.1645,-6.156005859375,-0.830810546875,6.416259765625
0.165,-6.075927734375,0.250244140625,5.695556640625
0.1655,-5.875732421875,1.411376953125,4.614501953125
0.166,-5.715576171875,2.812744140625,3.253173828125
0.1665,-5.395263671875,3.973876953125,2.011962890625
0.167,-4.954833984375,4.774658203125,0.930908203125
0.1675,-4.394287109375,5.335205078125,0.010009765625
0.168,-3.313232421875,5.495361328125,-1.191162109375
0.1685,-1.911865234375,5.735595703125,-2.792724609375
0.169,-0.790771484375,5.935791015625,-4.154052734375
0.1695,0.370361328125,5.775634765625,-5.155029296875
0.17,1.091064453125,5.815673828125,-5.915771484375
0.1705,2.052001953125,5.255126953125,-6.516357421875
0.171,3.373291015625,4.174072265625,-6.996826171875
0.1715,4.734619140625,2.852783203125,-7.237060546875
0.172,5.495361328125,1.651611328125,-7.156982421875
0.1725,5.895751953125,0.570556640625,-6.836669921875
0.173,6.055908203125,-0.390380859375,-6.476318359375
0.1735,5.775634765625,-1.431396484375,-5.515380859375
0.174,5.535400390625,-2.792724609375,-4.194091796875
0.1745,5.375244140625,-3.993896484375,-3.032958984375
0.175,4.934814453125,-5.074951171875,-1.711669921875
0.1755,4.374267578125,-5.755615234375,-0.670654296875
0.176,3.693603515625,-6.156005859375,0.370361328125
0.1765,2.612548828125,-6.356201171875,1.571533203125
0.177,1.091064453125,-6.556396484375,3.173095703125
0.1775,-0.150146484375,-6.676513671875,4.494384765625
0.178,-1.111083984375,-6.476318359375,5.295166015625
0.1785,-1.791748046875,-6.436279296875,6.095947265625
0.179,-2.872802734375,-5.635498046875,6.536376953125
0.1795,-4.194091796875,-4.434326171875,6.936767578125
0.18,-5.275146484375,-3.273193359375,7.177001953125
0.1805,-5.955810546875,-1.991943359375,6.936767578125
0.181,-6.276123046875,-1.031005859375,6.616455078125
0.1815,-6.276123046875,-0.150146484375,6.095947265625
0.182,-6.115966796875,1.010986328125,5.135009765625
0.1825,-5.755615234375,2.452392578125,3.693603515625
0.183,-5.635498046875,3.613525390625,2.572509765625
0.1835,-5.114990234375,4.494384765625,1.411376953125
0.184,-4.674560546875,5.175048828125,0.450439453125
0.1845,-3.753662109375,5.455322265625,-0.710693359375
0.185,-2.592529296875,5.655517578125,-1.991943359375
0.1855,-1.311279296875,5.895751953125,-3.553466796875
0.186,0.010009765625,5.895751953125,-4.754638671875
0.1865,0.770751953125,5.855712890625,-5.595458984375
0.187,1.571533203125,5.695556640625,-6.276123046875
0.1875,2.812744140625,4.734619140625,-6.796630859375
0.188,4.214111328125,3.373291015625,-7.116943359375
