wavelength,x,y,z
0.0,-0.94091796875,5.46533203125,-3.70361328125
0.0005,-0.26025390625,5.62548828125,-4.62451171875
0.001,0.74072265625,5.42529296875,-5.38525390625
0.0015,1.86181640625,4.74462890625,-5.90576171875
0.002,3.14306640625,3.58349609375,-6.26611328125
0.0025,4.22412109375,2.26220703125,-6.26611328125
0.003,4.90478515625,1.30126953125,-6.26611328125
0.0035,5.18505859375,0.54052734375,-6.06591796875
0.004,5.22509765625,-0.38037109375,-5.58544921875
0.0045,5.10498046875,-1.50146484375,-4.62451171875
0.005,5.06494140625,-2.74267578125,-3.54345703125
0.0055,4.82470703125,-3.86376953125,-2.38232421875
0.006,4.54443359375,-4.70458984375,-1.54150390625
0.0065,4.14404296875,-5.26513671875,-0.70068359375
0.007,3.34326171875,-5.62548828125,0.42041015625
0.0075,2.26220703125,-5.94580078125,1.78173828125
0.008,1.02099609375,-6.10595703125,3.14306640625
0.0085,0.18017578125,-6.34619140625,4.14404296875
0.009,-0.62060546875,-6.38623046875,4.98486328125
0.0095,-1.66162109375,-5.90576171875,5.66552734375
0.01,-2.90283203125,-4.86474609375,6.10595703125
0.0105,-4.14404296875,-3.70361328125,6.38623046875
0.011,-5.10498046875,-2.38232421875,6.26611328125
0.0115,-5.58544921875,-1.50146484375,6.22607421875
0.012,-5.74560546875,-0.70068359375,5.90576171875
0.0125,-5.74560546875,0.30029296875,5.22509765625
0.013,-5.62548828125,1.54150390625,4.14404296875
0.0135,-5.42529296875,2.86279296875,2.86279296875
0.014,-5.14501953125,3.90380859375,1.74169921875
0.0145,-4.82470703125,4.62451171875,0.90087890625
0.015,-4.18408203125,5.06494140625,0.02001953125
0.0155,-3.18310546875,5.38525390625,-1.34130859375
0.016,-1.94189453125,5.70556640625,-2.82275390625
0.0165,-0.70068359375,5.70556640625,-4.10400390625
0.017,0.14013671875,5.82568359375,-5.02490234375
0.0175,0.98095703125,5.74560546875,-5.74560546875
0.018,2.10205078125,4.98486328125,-6.38623046875
0.0185,3.54345703125,3.66357421875,-6.66650390625
0.019,4.70458984375,2.26220703125,-6.74658203125
0.0195,5.42529296875,1.02099609375,-6.54638671875
0.02,5.70556640625,0.22021484375,-6.38623046875
0.0205,5.70556640625,-0.78076171875,-5.74560546875
0.021,5.54541015625,-1.94189453125,-4.74462890625
0.0215,5.38525390625,-3.34326171875,-3.46337890625
0.022,5.06494140625,-4.54443359375,-2.10205078125
0.0225,4.66455078125,-5.38525390625,-1.10107421875
0.023,4.18408203125,-5.90576171875,-0.30029296875
0.0235,3.34326171875,-6.26611328125,0.90087890625
0.024,1.98193359375,-6.42626953125,2.34228515625
0.0245,0.62060546875,-6.58642578125,3.86376953125
0.025,-0.50048828125,-6.54638671875,4.90478515625
0.0255,-1.22119140625,-6.54638671875,5.66552734375
0.026,-2.26220703125,-6.02587890625,6.30615234375
0.0265,-3.54345703125,-4.90478515625,6.74658203125
0.027,-4.82470703125,-3.54345703125,6.94677734375
0.0275,-5.78564453125,-2.06201171875,6.78662109375
0.028,-6.26611328125,-1.02099609375,6.50634765625
0.0285,-6.34619140625,-0.22021484375,6.10595703125
0.029,-6.22607421875,0.90087890625,5.30517578125
0.0295,-5.90576171875,2.14208984375,4.02392578125
0.03,-5.66552734375,3.54345703125,2.66259765625
0.0305,-5.22509765625,4.62451171875,1.34130859375
0.031,-4.78466796875,5.26513671875,0.42041015625
0.0315,-4.14404296875,5.62548828125,-0.58056640625
0.032,-3.06298828125,5.82568359375,-1.74169921875
0.0325,-1.66162109375,5.98583984375,-3.30322265625
0.033,-0.30029296875,6.02587890625,-4.66455078125
0.0335,0.62060546875,5.98583984375,-5.54541015625
0.034,1.38134765625,5.82568359375,-6.22607421875
0.0345,2.46240234375,5.10498046875,-6.74658203125
0.035,3.86376953125,3.78369140625,-7.06689453125
0.0355,4.98486328125,2.34228515625,-7.10693359375
0.036,5.78564453125,0.98095703125,-6.86669921875
0.0365,6.10595703125,0.02001953125,-6.54638671875
0.037,6.02587890625,-0.94091796875,-6.06591796875
0.0375,5.82568359375,-1.94189453125,-5.10498046875
0.038,5.50537109375,-3.26318359375,-3.70361328125
0.0385,5.22509765625,-4.62451171875,-2.30224609375
0.039,4.82470703125,-5.54541015625,-1.14111328125
0.0395,4.34423828125,-6.10595703125,-0.30029296875
0.04,3.54345703125,-6.38623046875,0.78076171875
0.0405,2.30224609375,-6.58642578125,2.06201171875
0.041,0.94091796875,-6.74658203125,3.62353515625
0.0415,-0.46044921875,-6.62646484375,4.82470703125
0.042,-1.18115234375,-6.62646484375,5.62548828125
0.0425,-1.94189453125,-6.34619140625,6.26611328125
0.043,-3.14306640625,-5.50537109375,6.74658203125
0.0435,-4.50439453125,-4.06396484375,7.02685546875
0.044,-5.62548828125,-2.62255859375,6.98681640625
0.0445,-6.26611328125,-1.30126953125,6.66650390625
0.045,-6.42626953125,-0.54052734375,6.38623046875
0.0455,-6.34619140625,0.46044921875,5.74560546875
0.046,-6.10595703125,1.58154296875,4.62451171875
0.0465,-5.78564453125,2.94287109375,3.26318359375
0.047,-5.42529296875,4.18408203125,1.90185546875
0.0475,-4.98486328125,4.98486328125,0.82080078125
0.048,-4.50439453125,5.50537109375,0.02001953125
0.0485,-3.66357421875,5.74560546875,-1.14111328125
0.049,-2.26220703125,5.90576171875,-2.58251953125
0.0495,-0.94091796875,6.06591796875,-4.10400390625
0.05,0.30029296875,5.94580078125,-5.14501953125
0.0505,0.98095703125,5.98583984375,-5.90576171875
0.051,1.94189453125,5.50537109375,-6.50634765625
0.0515,3.18310546875,4.42431640625,-6.90673828125
0.052,4.50439453125,3.02294921875,-7.10693359375
0.0525,5.46533203125,1.54150390625,-6.98681640625
0.053,5.94580078125,0.46044921875,-6.70654296875
0.0535,6.06591796875,-0.50048828125,-6.34619140625
0.054,5.90576171875,-1.38134765625,-5.58544921875
0.0545,5.66552734375,-2.70263671875,-4.34423828125
0.055,5.42529296875,-4.06396484375,-2.94287109375
0.0555,4.98486328125,-5.14501953125,-1.58154296875
0.056,4.54443359375,-5.86572265625,-0.66064453125
0.0565,3.94384765625,-6.34619140625,0.30029296875
0.057,2.90283203125,-6.54638671875,1.46142578125
0.0575,1.46142578125,-6.70654296875,3.02294921875
0.058,0.10009765625,-6.66650390625,4.46435546875
0.0585,-0.90087890625,-6.62646484375,5.38525390625
0.059,-1.58154296875,-6.54638671875,6.06591796875
0.0595,-2.70263671875,-5.82568359375,6.62646484375
0.06,-4.10400390625,-4.54443359375,6.98681640625
0.0605,-5.26513671875,-3.14306640625,7.06689453125
0.061,-6.10595703125,-1.70166015625,6.78662109375
0.0615,-6.42626953125,-0.78076171875,6.54638671875
0.062,-6.42626953125,0.14013671875,6.06591796875
0.0625,-6.26611328125,1.22119140625,5.14501953125
0.063,-6.02587890625,2.58251953125,3.78369140625
0.0635,-5.62548828125,3.98388671875,2.26220703125
0.064,-5.18505859375,4.86474609375,1.10107421875
0.0645,-4.74462890625,5.46533203125,0.18017578125
0.065,-3.94384765625,5.78564453125,-0.90087890625
0.0655,-2.70263671875,5.98583984375,-2.26220703125
0.066,-1.30126953125,6.14599609375,-3.78369140625
0.0665,0.14013671875,6.02587890625,-5.06494140625
0.067,0.90087890625,6.02587890625,-5.82568359375
0.0675,1.66162109375,5.74560546875,-6.46630859375
0.068,2.86279296875,4.86474609375,-6.94677734375
0.0685,4.22412109375,3.38330078125,-7.10693359375
0.069,5.30517578125,1.90185546875,-7.06689453125
0.0695,5.90576171875,0.62060546875,-6.74658203125
0.07,6.10595703125,-0.30029296875,-6.42626953125
0.0705,5.98583984375,-1.22119140625,-5.74560546875
0.071,5.74560546875,-2.34228515625,-4.62451171875
0.0715,5.42529296875,-3.66357421875,-3.30322265625
0.072,5.06494140625,-4.86474609375,-1.94189453125
0.0725,4.62451171875,-5.70556640625,-0.90087890625
0.073,4.10400390625,-6.14599609375,0.02001953125
0.0735,3.26318359375,-6.38623046875,0.98095703125
0.074,1.94189453125,-6.50634765625,2.42236328125
0.0745,0.54052734375,-6.58642578125,3.86376953125
0.075,-0.62060546875,-6.50634765625,4.94482421875
0.0755,-1.26123046875,-6.54638671875,5.70556640625
0.076,-2.18212890625,-6.10595703125,6.26611328125
0.0765,-3.38330078125,-5.10498046875,6.66650390625
0.077,-4.62451171875,-3.74365234375,6.86669921875
0.0775,-5.62548828125,-2.26220703125,6.70654296875
0.078,-6.10595703125,-1.26123046875,6.46630859375
0.0785,-6.22607421875,-0.50048828125,6.18603515625
0.079,-6.10595703125,0.50048828125,5.54541015625
0.0795,-5.90576171875,1.62158203125,4.42431640625
0.08,-5.62548828125,2.98291015625,3.06298828125
0.0805,-5.26513671875,4.10400390625,1.78173828125
0.081,-4.94482421875,4.82470703125,0.82080078125
0.0815,-4.38427734375,5.30517578125,0.02001953125
0.082,-3.46337890625,5.62548828125,-1.18115234375
0.0825,-2.22216796875,5.82568359375,-2.58251953125
0.083,-0.78076171875,5.86572265625,-4.02392578125
0.0835,0.18017578125,5.90576171875,-5.02490234375
0.084,0.90087890625,5.86572265625,-5.74560546875
0.0845,1.94189453125,5.30517578125,-6.34619140625
0.085,3.18310546875,4.14404296875,-6.70654296875
0.0855,4.42431640625,2.86279296875,-6.86669921875
0.086,5.26513671875,1.46142578125,-6.70654296875
0.0865,5.70556640625,0.54052734375,-6.46630859375
0.087,5.74560546875,-0.38037109375,-6.10595703125
0.0875,5.66552734375,-1.30126953125,-5.30517578125
0.088,5.42529296875,-2.58251953125,-4.14404296875
0.0885,5.14501953125,-3.98388671875,-2.78271484375
0.089,4.82470703125,-4.98486328125,-1.62158203125
0.0895,4.46435546875,-5.58544921875,-0.78076171875
0.09,3.78369140625,-5.94580078125,0.26025390625
0.0905,2.74267578125,-6.14599609375,1.42138671875
0.091,1.42138671875,-6.38623046875,2.86279296875
0.0915,0.22021484375,-6.38623046875,4.14404296875
0.092,-0.66064453125,-6.42626953125,4.98486328125
0.0925,-1.42138671875,-6.30615234375,5.66552734375
0.093,-2.46240234375,-5.62548828125,6.18603515625
0.0935,-3.82373046875,-4.34423828125,6.54638671875
0.094,-4.94482421875,-3.02294921875,6.54638671875
0.0945,-5.62548828125,-1.78173828125,6.34619140625
0.095,-5.86572265625,-1.06103515625,6.14599609375
0.0955,-5.86572265625,-0.26025390625,5.70556640625
0.096,-5.70556640625,0.86083984375,4.82470703125
0.0965,-5.50537109375,2.06201171875,3.66357421875
0.097,-5.26513671875,3.26318359375,2.38232421875
0.0975,-4.90478515625,4.14404296875,1.34130859375
0.098,-4.54443359375,4.82470703125,0.62060546875
0.0985,-3.90380859375,5.10498046875,-0.38037109375
0.099,-2.78271484375,5.34521484375,-1.66162109375
0.0995,-1.58154296875,5.58544921875,-3.06298828125
0.1,-0.50048828125,5.62548828125,-4.14404296875
0.1005,0.22021484375,5.74560546875,-4.98486328125
0.101,1.06103515625,5.46533203125,-5.62548828125
0.1015,2.18212890625,4.70458984375,-6.10595703125
0.102,3.38330078125,3.54345703125,-6.38623046875
0.1025,4.42431640625,2.22216796875,-6.38623046875
0.103,5.02490234375,1.22119140625,-6.26611328125
0.1035,5.26513671875,0.50048828125,-6.10595703125
0.104,5.30517578125,-0.38037109375,-5.62548828125
0.1045,5.14501953125,-1.46142578125,-4.74462890625
0.105,5.06494140625,-2.70263671875,-3.70361328125
0.1055,4.78466796875,-3.78369140625,-2.50244140625
0.106,4.54443359375,-4.62451171875,-1.62158203125
0.1065,4.18408203125,-5.18505859375,-0.82080078125
0.107,3.50341796875,-5.54541015625,0.26025390625
0.1075,2.46240234375,-5.90576171875,1.50146484375
0.108,1.26123046875,-6.06591796875,2.82275390625
0.1085,0.38037109375,-6.18603515625,3.86376953125
0.109,-0.38037109375,-6.34619140625,4.70458984375
0.1095,-1.34130859375,-6.02587890625,5.38525390625
0.11,-2.54248046875,-5.14501953125,5.82568359375
0.1105,-3.70361328125,-3.98388671875,6.10595703125
0.111,-4.66455078125,-2.74267578125,6.10595703125
0.1115,-5.18505859375,-1.94189453125,6.10595703125
0.112,-5.46533203125,-1.18115234375,5.90576171875
0.1125,-5.50537109375,-0.42041015625,5.38525390625
0.113,-5.42529296875,0.78076171875,4.50439453125
0.1135,-5.26513671875,2.10205078125,3.34326171875
0.114,-5.06494140625,3.18310546875,2.26220703125
0.1145,-4.82470703125,3.94384765625,1.46142578125
0.115,-4.42431640625,4.46435546875,0.62060546875
0.1155,-3.54345703125,4.82470703125,-0.58056640625
0.116,-2.58251953125,5.26513671875,-1.86181640625
0.1165,-1.42138671875,5.34521484375,-3.10302734375
0.117,-0.66064453125,5.58544921875,-4.06396484375
0.1175,0.22021484375,5.58544921875,-4.86474609375
0.118,1.18115234375,5.14501953125,-5.50537109375
0.1185,2.42236328125,4.14404296875,-5.90576171875
0.119,3.54345703125,2.94287109375,-6.10595703125
0.1195,4.34423828125,1.86181640625,-6.10595703125
0.12,4.82470703125,1.10107421875,-6.06591796875
0.1205,4.98486328125,0.30029296875,-5.74560546875
0.121,4.94482421875,-0.70068359375,-5.10498046875
0.1215,4.90478515625,-1.78173828125,-4.18408203125
0.122,4.78466796875,-2.98291015625,-3.06298828125
0.1225,4.62451171875,-3.90380859375,-2.18212890625
0.123,4.38427734375,-4.62451171875,-1.42138671875
0.1235,3.86376953125,-5.14501953125,-0.58056640625
0.124,2.98291015625,-5.46533203125,0.66064453125
0.1245,1.94189453125,-5.82568359375,1.98193359375
0.125,0.94091796875,-5.98583984375,3.14306640625
0.1255,0.26025390625,-6.22607421875,4.06396484375
0.126,-0.70068359375,-6.10595703125,4.82470703125
0.1265,-1.78173828125,-5.46533203125,5.42529296875
0.127,-3.02294921875,-4.50439453125,5.78564453125
0.1275,-4.10400390625,-3.26318359375,5.94580078125
0.128,-4.82470703125,-2.30224609375,5.94580078125
0.1285,-5.18505859375,-1.62158203125,5.90576171875
0.129,-5.30517578125,-0.90087890625,5.58544921875
0.1295,-5.30517578125,0.26025390625,4.82470703125
0.13,-5.26513671875,1.42138671875,3.86376953125
0.1305,-5.06494140625,2.58251953125,2.70263671875
0.131,-4.90478515625,3.50341796875,1.90185546875
0.1315,-4.58447265625,4.14404296875,1.10107421875
0.132,-3.98388671875,4.58447265625,0.14013671875
0.1325,-3.06298828125,4.98486328125,-1.22119140625
0.133,-1.94189453125,5.22509765625,-2.50244140625
0.1335,-1.06103515625,5.42529296875,-3.54345703125
0.134,-0.38037109375,5.62548828125,-4.46435546875
0.1345,0.66064453125,5.34521484375,-5.14501953125
0.135,1.90185546875,4.50439453125,-5.70556640625
0.1355,3.14306640625,3.38330078125,-6.02587890625
0.136,4.06396484375,2.26220703125,-6.06591796875
0.1365,4.62451171875,1.34130859375,-6.10595703125
0.137,4.86474609375,0.62060546875,-5.90576171875
0.1375,4.98486328125,-0.30029296875,-5.42529296875
0.138,4.94482421875,-1.38134765625,-4.50439453125
0.1385,4.86474609375,-2.62255859375,-3.46337890625
0.139,4.66455078125,-3.70361328125,-2.42236328125
0.1395,4.50439453125,-4.46435546875,-1.62158203125
0.14,4.02392578125,-4.98486328125,-0.78076171875
0.1405,3.22314453125,-5.42529296875,0.38037109375
0.141,2.26220703125,-5.78564453125,1.66162109375
0.1415,1.14111328125,-5.94580078125,2.90283203125
0.142,0.42041015625,-6.18603515625,3.86376953125
0.1425,-0.50048828125,-6.22607421875,4.74462890625
0.143,-1.54150390625,-5.74560546875,5.38525390625
0.1435,-2.82275390625,-4.70458984375,5.78564453125
0.144,-3.98388671875,-3.50341796875,6.02587890625
0.1445,-4.82470703125,-2.42236328125,6.02587890625
0.145,-5.22509765625,-1.66162109375,5.98583984375
0.1455,-5.42529296875,-0.90087890625,5.62548828125
0.146,-5.38525390625,0.18017578125,4.94482421875
0.1465,-5.30517578125,1.30126953125,3.98388671875
0.147,-5.14501953125,2.58251953125,2.82275390625
0.1475,-4.94482421875,3.54345703125,1.90185546875
0.148,-4.66455078125,4.18408203125,1.06103515625
0.1485,-4.14404296875,4.66455078125,0.22021484375
0.149,-3.10302734375,5.02490234375,-1.14111328125
0.1495,-1.98193359375,5.34521484375,-2.54248046875
0.15,-0.98095703125,5.46533203125,-3.66357421875
0.1505,-0.30029296875,5.66552734375,-4.54443359375
0.151,0.70068359375,5.42529296875,-5.30517578125
0.1515,1.90185546875,4.66455078125,-5.82568359375
0.152,3.18310546875,3.54345703125,-6.18603515625
0.1525,4.22412109375,2.22216796875,-6.26611328125
0.153,4.82470703125,1.22119140625,-6.22607421875
0.1535,5.10498046875,0.50048828125,-6.02587890625
0.154,5.18505859375,-0.42041015625,-5.50537109375
0.1545,5.10498046875,-1.54150390625,-4.54443359375
0.155,5.02490234375,-2.82275390625,-3.46337890625
0.1555,4.78466796875,-3.94384765625,-2.30224609375
0.156,4.54443359375,-4.74462890625,-1.46142578125
0.1565,4.10400390625,-5.26513671875,-0.62060546875
0.157,3.26318359375,-5.62548828125,0.50048828125
0.1575,2.18212890625,-5.94580078125,1.86181640625
0.158,0.98095703125,-6.10595703125,3.22314453125
0.1585,0.14013671875,-6.26611328125,4.18408203125
0.159,-0.66064453125,-6.30615234375,4.98486328125
0.1595,-1.70166015625,-5.82568359375,5.62548828125
0.16,-3.06298828125,-4.74462890625,6.06591796875
0.1605,-4.26416015625,-3.54345703125,6.34619140625
0.161,-5.10498046875,-2.30224609375,6.22607421875
0.1615,-5.54541015625,-1.42138671875,6.14599609375
0.162,-5.70556640625,-0.66064453125,5.78564453125
0.1625,-5.62548828125,0.34033203125,5.10498046875
0.163,-5.50537109375,1.58154296875,4.02392578125
0.1635,-5.30517578125,2.86279296875,2.74267578125
0.164,-5.02490234375,3.86376953125,1.66162109375
0.1645,-4.70458984375,4.50439453125,0.90087890625
0.165,-4.10400390625,4.98486328125,0.02001953125
0.1655,-3.06298828125,5.26513671875,-1.30126953125
0.166,-1.94189453125,5.58544921875,-2.74267578125
0.1665,-0.74072265625,5.62548828125,-3.94384765625
0.167,0.06005859375,5.74560546875,-4.82470703125
0.1675,0.86083984375,5.62548828125,-5.58544921875
0.168,1.98193359375,4.94482421875,-6.14599609375
0.1685,3.34326171875,3.58349609375,-6.50634765625
0.169,4.50439453125,2.26220703125,-6.58642578125
0.1695,5.18505859375,1.14111328125,-6.42626953125
0.17,5.50537109375,0.34033203125,-6.26611328125
0.1705,5.50537109375,-0.62060546875,-5.74560546875
0.171,5.38525390625,-1.70166015625,-4.74462890625
0.1715,5.22509765625,-3.02294921875,-3.54345703125
0.172,4.98486328125,-4.26416015625,-2.26220703125
0.1725,4.62451171875,-5.10498046875,-1.30126953125
0.173,4.22412109375,-5.66552734375,-0.50048828125
0.1735,3.46337890625,-6.02587890625,0.62060546875
0.174,2.18212890625,-6.26611328125,2.02197265625
0.1745,0.86083984375,-6.42626953125,3.54345703125
0.175,-0.26025390625,-6.42626953125,4.58447265625
0.1755,-0.94091796875,-6.50634765625,5.38525390625
0.176,-1.94189453125,-6.02587890625,6.10595703125
0.1765,-3.26318359375,-4.98486328125,6.46630859375
0.177,-4.54443359375,-3.66357421875,6.74658203125
0.1775,-5.62548828125,-2.22216796875,6.66650390625
0.178,-6.06591796875,-1.22119140625,6.46630859375
0.1785,-6.14599609375,-0.38037109375,6.10595703125
0.179,-6.06591796875,0.66064453125,5.34521484375
0.1795,-5.82568359375,1.94189453125,4.10400390625
0.18,-5.62548828125,3.34326171875,2.74267578125
0.1805,-5.26513671875,4.42431640625,1.46142578125
0.181,-4.82470703125,5.10498046875,0.58056640625
0.1815,-4.14404296875,5.46533203125,-0.42041015625
0.182,-3.10302734375,5.70556640625,-1.62158203125
0.1825,-1.74169921875,5.90576171875,-3.18310546875
0.183,-0.38037109375,5.94580078125,-4.58447265625
0.1835,0.54052734375,5.94580078125,-5.42529296875
0.184,1.30126953125,5.78564453125,-6.10595703125
0.1845,2.42236328125,4.98486328125,-6.70654296875
0.185,3.82373046875,3.66357421875,-6.98681640625
0.1855,4.98486328125,2.26220703125,-7.06689453125
0.186,5.74560546875,0.94091796875,-6.74658203125
0.1865,6.02587890625,0.02001953125,-6.46630859375
0.187,5.94580078125,-0.98095703125,-5.90576171875
0.1875,5.74560546875,-1.98193359375,-4.98486328125
0.188,5.46533203125,-3.38330078125,-3.54345703125
0.1885,5.14501953125,-4.70458984375,-2.18212890625
0.189,4.74462890625,-5.58544921875,-1.02099609375
0.1895,4.22412109375,-6.10595703125,-0.18017578125
0.19,3.38330078125,-6.38623046875,0.90087890625
0.1905,2.18212890625,-6.54638671875,2.26220703125
0.191,0.74072265625,-6.70654296875,3.78369140625
0.1915,-0.54052734375,-6.58642578125,4.94482421875
0.192,-1.26123046875,-6.58642578125,5.74560546875
0.1925,-2.10205078125,-6.30615234375,6.30615234375
0.193,-3.22314453125,-5.34521484375,6.74658203125
0.1935,-4.66455078125,-3.86376953125,6.98681640625
0.194,-5.74560546875,-2.38232421875,6.90673828125
0.1945,-6.26611328125,-1.22119140625,6.62646484375
0.195,-6.42626953125,-0.38037109375,6.30615234375
0.1955,-6.26611328125,0.62060546875,5.62548828125
0.196,-6.02587890625,1.78173828125,4.50439453125
0.1965,-5.74560546875,3.10302734375,3.10302734375
0.197,-5.38525390625,4.34423828125,1.74169921875
0.1975,-4.94482421875,5.10498046875,0.70068359375
0.198,-4.42431640625,5.54541015625,-0.22021484375
0.1985,-3.54345703125,5.78564453125,-1.22119140625
0.199,-2.14208984375,5.94580078125,-2.70263671875
