wavelength,x,y,z
0.0,12.537231445312,12.216918945312,-24.859252929688
0.0005,8.9337158203125,15.660278320312,-24.739135742188
0.001,3.4884033203125,19.303833007812,-23.097534179688
0.0015,-1.2362060546875,21.706176757812,-20.975463867188
0.002,-5.6805419921875,23.828247070312,-18.653198242188
0.0025,-10.885620117188,25.309692382812,-15.009643554688
0.003,-14.889526367188,24.308715820312,-9.9246826171875
0.0035,-18.453002929688,24.629028320312,-6.7215576171875
0.004,-21.455932617188,22.466918945312,-1.5565185546875
0.0045,-24.058471679688,20.464965820312,3.1680908203125
0.005,-24.659057617188,17.301879882812,7.0518798828125
0.0055,-25.579956054688,13.257934570312,11.936645507812
0.006,-24.458862304688,8.8135986328125,15.259887695312
0.0065,-23.858276367188,4.5294189453125,18.903442382812
0.007,-21.536010742188,0.1651611328125,21.025512695312
0.0075,-19.734252929688,-4.5994873046875,23.868286132812
0.008,-15.850463867188,-9.2840576171875,24.709106445312
0.0085,-11.005737304688,-13.768432617188,24.348754882812
0.009,-7.7225341796875,-16.891479492188,24.308715820312
0.0095,-1.9569091796875,-20.214721679688,21.866333007812
0.01,2.6876220703125,-22.376831054688,19.704223632812
0.0105,6.8116455078125,-23.858276367188,17.101684570312
0.011,11.896606445312,-25.059448242188,13.297973632812
0.0115,15.540161132812,-23.818237304688,8.3331298828125
0.012,19.063598632812,-23.978393554688,4.9698486328125
0.0125,21.586059570312,-21.576049804688,0.0450439453125
0.013,24.068481445312,-19.734252929688,-4.3992919921875
0.0135,24.308715820312,-16.170776367188,-8.2030029296875
0.014,24.869262695312,-12.166870117188,-12.807495117188
0.0145,24.028442382812,-8.4031982421875,-15.690307617188
0.015,22.827270507812,-3.7186279296875,-19.213745117188
0.0155,20.705200195312,0.5255126953125,-21.255737304688
0.016,18.703247070312,5.0499267578125,-23.738159179688
0.0165,14.659301757812,9.7344970703125,-24.498901367188
0.017,9.6544189453125,13.898559570312,-23.738159179688
0.0175,6.6514892578125,16.981567382812,-23.938354492188
0.018,1.0059814453125,19.944458007812,-21.295776367188
0.0185,-3.3582763671875,22.346801757812,-19.453979492188
0.019,-7.5623779296875,23.347778320312,-16.290893554688
0.0195,-12.367065429688,24.508911132812,-12.687377929688
0.02,-15.850463867188,23.427856445312,-8.1629638671875
0.0205,-19.213745117188,23.107543945312,-4.3992919921875
0.021,-21.415893554688,20.825317382812,0.1651611328125
0.0215,-23.858276367188,18.943481445312,4.4893798828125
0.022,-23.698120117188,14.899536132812,8.4532470703125
0.0225,-24.098510742188,10.735473632812,12.977661132812
0.023,-23.698120117188,7.4522705078125,15.860473632812
0.0235,-22.016479492188,2.4073486328125,19.223754882812
0.024,-20.134643554688,-1.7166748046875,21.465942382812
0.0245,-17.572143554688,-6.2811279296875,23.347778320312
0.025,-13.728393554688,-10.845581054688,24.188598632812
0.0255,-8.7235107421875,-14.769409179688,23.107543945312
0.026,-5.3602294921875,-17.732299804688,22.907348632812
0.0265,0.2852783203125,-20.494995117188,20.184692382812
0.027,4.6094970703125,-23.057495117188,18.463012695312
0.0275,9.0137939453125,-23.377807617188,14.379028320312
0.028,13.458129882812,-24.338745117188,10.935668945312
0.0285,16.861450195312,-23.417846679688,6.6915283203125
0.029,20.224731445312,-22.536987304688,2.4073486328125
0.0295,22.386840820312,-20.134643554688,-2.2772216796875
0.03,24.588989257812,-17.972534179688,-6.7215576171875
0.0305,24.148559570312,-13.648315429688,-10.565307617188
0.031,24.188598632812,-9.4842529296875,-14.809448242188
0.0315,23.668090820312,-6.2410888671875,-17.452026367188
0.032,21.505981445312,-0.6756591796875,-20.895385742188
0.0325,19.383911132812,3.6885986328125,-23.137573242188
0.033,15.820434570312,8.4932861328125,-24.338745117188
0.0335,11.976684570312,12.777465820312,-24.939331054688
0.034,6.8917236328125,16.661254882812,-23.738159179688
0.0345,3.0479736328125,19.463989257812,-22.777221679688
0.035,-2.5574951171875,22.146606445312,-20.014526367188
0.0355,-7.2420654296875,24.588989257812,-17.852416992188
0.036,-11.686401367188,24.268676757812,-13.087768554688
0.0365,-15.850463867188,24.909301757812,-9.6444091796875
0.037,-19.053588867188,23.668090820312,-5.1600341796875
0.0375,-22.136596679688,22.146606445312,-0.5155029296875
0.038,-23.978393554688,19.463989257812,4.0889892578125
0.0385,-25.619995117188,16.340942382812,8.8936767578125
0.039,-24.819213867188,11.776489257812,12.657348632812
0.0395,-24.498901367188,7.4122314453125,16.701293945312
0.04,-23.377807617188,3.9688720703125,19.063598632812
0.0405,-21.095581054688,-1.7567138671875,22.426879882812
0.041,-18.573120117188,-6.2811279296875,24.348754882812
0.0415,-14.128784179688,-11.085815429688,24.789184570312
0.042,-10.445190429688,-14.849487304688,24.989379882812
0.0425,-5.2801513671875,-18.453002929688,23.427856445312
0.043,-0.7957763671875,-21.015502929688,21.626098632812
0.0435,4.3292236328125,-23.257690429688,18.983520507812
0.044,9.4141845703125,-25.299682617188,15.980590820312
0.0445,13.458129882812,-24.458862304688,11.055786132812
0.045,17.301879882812,-24.859252929688,7.6925048828125
0.0455,20.224731445312,-23.297729492188,3.1680908203125
0.046,23.227661132812,-21.415893554688,-1.8367919921875
0.0465,24.588989257812,-18.613159179688,-6.0408935546875
0.047,25.589965820312,-14.929565429688,-10.765502929688
0.0475,24.869262695312,-10.725463867188,-14.248901367188
0.048,24.188598632812,-6.3211669921875,-17.932495117188
0.0485,22.546997070312,-2.5975341796875,-20.094604492188
0.049,20.344848632812,2.7276611328125,-23.097534179688
0.0495,17.301879882812,7.5323486328125,-24.939331054688
0.05,12.457153320312,12.096801757812,-24.659057617188
0.0505,9.0938720703125,15.660278320312,-24.939331054688
0.051,3.9288330078125,18.903442382812,-23.057495117188
0.0515,-0.7957763671875,21.425903320312,-21.055541992188
0.052,-5.1199951171875,23.347778320312,-18.693237304688
0.0525,-10.485229492188,25.109497070312,-15.209838867188
0.053,-14.248901367188,24.028442382812,-10.365112304688
0.0535,-17.972534179688,24.348754882812,-6.9217529296875
0.054,-20.374877929688,22.546997070312,-2.6776123046875
0.0545,-23.217651367188,20.545043945312,2.2471923828125
0.055,-24.218627929688,17.502075195312,6.3311767578125
0.0555,-24.819213867188,13.418090820312,11.015747070312
0.056,-24.418823242188,9.6544189453125,14.379028320312
0.0565,-23.417846679688,5.0899658203125,17.862426757812
0.057,-21.696166992188,1.2061767578125,20.024536132812
0.0575,-19.734252929688,-3.5584716796875,22.787231445312
0.058,-16.370971679688,-8.5233154296875,24.468872070312
0.0585,-11.366088867188,-12.687377929688,23.668090820312
0.059,-8.2830810546875,-16.130737304688,24.148559570312
0.0595,-2.9578857421875,-19.053588867188,21.826293945312
0.06,1.8468017578125,-21.776245117188,19.864379882812
0.0605,5.9307861328125,-23.137573242188,17.261840820312
0.061,11.215942382812,-24.699096679688,13.578247070312
0.0615,14.739379882812,-23.698120117188,9.0538330078125
0.062,18.503051757812,-23.698120117188,5.2901611328125
0.0625,20.825317382812,-21.776245117188,1.0059814453125
0.063,23.547973632812,-19.894409179688,-3.6785888671875
0.0635,24.228637695312,-16.531127929688,-7.8426513671875
0.064,24.428833007812,-12.206909179688,-12.367065429688
0.0645,24.268676757812,-9.0037841796875,-15.450073242188
0.065,22.747192382812,-3.9989013671875,-18.853393554688
0.0655,20.865356445312,0.2452392578125,-21.215698242188
0.066,18.703247070312,4.8096923828125,-23.578002929688
0.0665,14.859497070312,9.9747314453125,-24.939331054688
0.067,9.7344970703125,13.938598632812,-23.778198242188
0.0675,6.5313720703125,17.341918945312,-24.098510742188
0.068,1.1260986328125,20.064575195312,-21.495971679688
0.0685,-3.6785888671875,22.787231445312,-19.614135742188
0.069,-8.0028076171875,23.668090820312,-16.210815429688
0.0695,-13.007690429688,24.909301757812,-12.407104492188
0.07,-16.290893554688,23.908325195312,-8.2030029296875
0.0705,-19.894409179688,23.307739257812,-3.8787841796875
0.071,-22.016479492188,20.985473632812,0.6055908203125
0.0715,-24.378784179688,18.903442382812,5.0899658203125
0.072,-24.538940429688,14.739379882812,9.4141845703125
0.0725,-24.458862304688,10.174926757812,13.858520507812
0.073,-24.258666992188,7.1719970703125,16.661254882812
0.0735,-22.136596679688,1.8067626953125,19.904418945312
0.074,-20.254760742188,-2.4774169921875,22.266723632812
0.0745,-17.371948242188,-6.9217529296875,23.868286132812
0.075,-13.448120117188,-11.846557617188,24.909301757812
0.0755,-8.3231201171875,-15.490112304688,23.507934570312
0.076,-4.7196044921875,-18.573120117188,23.107543945312
0.0765,0.8057861328125,-21.095581054688,20.224731445312
0.077,5.3302001953125,-23.698120117188,18.422973632812
0.0775,9.7344970703125,-23.858276367188,14.178833007812
0.078,14.338989257812,-24.659057617188,10.415161132812
0.0785,17.421997070312,-23.818237304688,6.5313720703125
0.079,20.825317382812,-22.577026367188,1.7667236328125
0.0795,22.787231445312,-20.174682617188,-2.6375732421875
0.08,24.709106445312,-17.812377929688,-7.0018310546875
0.0805,24.629028320312,-13.648315429688,-11.125854492188
0.081,24.148559570312,-9.0838623046875,-15.209838867188
0.0815,23.828247070312,-6.2010498046875,-17.812377929688
0.082,21.345825195312,-0.6356201171875,-20.815307617188
0.0825,19.504028320312,3.6885986328125,-23.217651367188
0.083,15.660278320312,8.2530517578125,-23.938354492188
0.0835,11.896606445312,12.857543945312,-24.859252929688
0.084,7.0518798828125,16.260864257812,-23.497924804688
0.0845,3.0079345703125,19.223754882812,-22.496948242188
0.085,-2.0770263671875,21.465942382812,-19.814331054688
0.0855,-6.7215576171875,24.028442382812,-17.852416992188
0.086,-11.005737304688,23.748168945312,-13.287963867188
0.0865,-15.249877929688,24.188598632812,-9.4842529296875
0.087,-18.012573242188,23.467895507812,-5.9608154296875
0.0875,-21.175659179688,21.706176757812,-1.0360107421875
0.088,-22.937377929688,19.343872070312,3.1680908203125
0.0885,-24.178588867188,16.220825195312,7.5323486328125
0.089,-24.298706054688,12.216918945312,11.656372070312
0.0895,-23.457885742188,7.6925048828125,15.380004882812
0.09,-22.937377929688,4.7296142578125,17.862426757812
0.0905,-20.535034179688,-0.6356201171875,20.745239257812
0.091,-18.733276367188,-4.9598388671875,23.267700195312
0.0915,-14.328979492188,-9.3240966796875,23.227661132812
0.092,-10.765502929688,-13.568237304688,24.028442382812
0.0925,-6.2811279296875,-16.651245117188,22.667114257812
0.093,-1.6365966796875,-19.534057617188,21.065551757812
0.0935,2.8477783203125,-21.536010742188,18.623168945312
0.094,7.6925048828125,-23.698120117188,16.020629882812
0.0945,11.616333007812,-23.337768554688,11.816528320312
0.095,15.700317382812,-23.497924804688,7.8927001953125
0.0955,18.262817382812,-22.737182617188,4.5294189453125
0.096,21.305786132812,-20.735229492188,-0.5955810546875
0.0965,23.067504882812,-18.573120117188,-4.5994873046875
0.097,23.628051757812,-14.929565429688,-8.8035888671875
0.0975,23.988403320312,-11.486206054688,-12.727416992188
0.098,22.907348632812,-6.9217529296875,-16.050659179688
0.0985,21.906372070312,-3.4783935546875,-18.533081054688
0.099,19.704223632812,1.4063720703125,-21.135620117188
0.0995,17.381958007812,6.1710205078125,-23.578002929688
0.1,12.657348632812,10.295043945312,-23.057495117188
0.1005,9.2540283203125,14.298950195312,-23.698120117188
0.101,5.0098876953125,17.101684570312,-22.296752929688
0.1015,0.1251220703125,20.024536132812,-20.414916992188
0.102,-3.9989013671875,21.786254882812,-18.252807617188
0.1025,-9.0838623046875,23.507934570312,-14.969604492188
0.103,-12.727416992188,23.187622070312,-10.965698242188
0.1035,-16.611206054688,23.067504882812,-7.0018310546875
0.104,-18.853393554688,21.946411132812,-3.6785888671875
0.1045,-21.616088867188,19.864379882812,1.2862548828125
0.105,-23.137573242188,17.301879882812,5.4903564453125
0.1055,-23.097534179688,13.057739257812,9.6143798828125
0.106,-23.658081054688,9.9346923828125,13.378051757812
0.1065,-22.376831054688,5.5704345703125,16.461059570312
0.107,-21.095581054688,1.6466064453125,19.063598632812
0.1075,-19.093627929688,-2.7176513671875,21.345825195312
0.108,-16.090698242188,-7.7225341796875,23.387817382812
0.1085,-11.486206054688,-11.526245117188,22.587036132812
0.109,-8.0028076171875,-15.289916992188,23.027465820312
0.1095,-3.7186279296875,-17.652221679688,21.185668945312
0.11,1.3262939453125,-20.615112304688,19.223754882812
0.1105,5.2901611328125,-22.136596679688,16.821411132812
0.111,10.214965820312,-23.217651367188,13.097778320312
0.1115,13.658325195312,-23.057495117188,9.4942626953125
0.112,17.421997070312,-22.536987304688,5.2501220703125
0.1125,19.544067382812,-21.175659179688,1.5665283203125
0.113,22.026489257812,-19.253784179688,-2.8778076171875
0.1135,23.427856445312,-16.290893554688,-7.3221435546875
0.114,22.947387695312,-11.806518554688,-11.245971679688
0.1145,23.507934570312,-8.9637451171875,-14.569213867188
0.115,21.786254882812,-4.5194091796875,-17.371948242188
0.1155,20.304809570312,-0.1951904296875,-20.174682617188
0.116,18.022583007812,4.0089111328125,-22.056518554688
0.1165,14.539184570312,9.1339111328125,-23.698120117188
0.117,9.9747314453125,12.657348632812,-22.777221679688
0.1175,6.3311767578125,16.340942382812,-22.857299804688
0.118,2.0469970703125,18.422973632812,-20.775268554688
0.1185,-2.7576904296875,21.345825195312,-19.053588867188
0.119,-7.0819091796875,22.546997070312,-15.970581054688
0.1195,-11.686401367188,23.187622070312,-11.966674804688
0.12,-14.889526367188,23.187622070312,-8.8436279296875
0.1205,-18.292846679688,22.026489257812,-4.1990966796875
0.121,-20.454956054688,20.344848632812,-0.3953857421875
0.1215,-22.416870117188,18.222778320312,3.6885986328125
0.122,-23.537963867188,14.779418945312,8.3331298828125
0.1225,-22.777221679688,10.214965820312,12.176879882812
0.123,-23.217651367188,7.4122314453125,15.380004882812
0.1235,-21.175659179688,2.8477783203125,17.942504882812
0.124,-19.774291992188,-1.5164794921875,20.825317382812
0.1245,-16.851440429688,-5.6405029296875,22.066528320312
0.125,-13.247924804688,-10.525268554688,23.387817382812
0.1255,-9.0438232421875,-13.808471679688,22.546997070312
0.126,-4.8397216796875,-17.331909179688,21.906372070312
0.1265,-0.4754638671875,-19.293823242188,19.624145507812
0.127,3.9688720703125,-21.976440429688,17.982543945312
0.1275,8.4932861328125,-22.777221679688,14.338989257812
0.128,12.777465820312,-22.897338867188,10.174926757812
0.1285,15.900512695312,-23.217651367188,7.3721923828125
0.129,19.103637695312,-21.536010742188,2.4073486328125
0.1295,21.385864257812,-19.774291992188,-1.6766357421875
0.13,22.747192382812,-17.291870117188,-5.4803466796875
0.1305,23.668090820312,-13.808471679688,-10.004760742188
0.131,22.707153320312,-9.2840576171875,-13.488159179688
0.1315,22.907348632812,-6.2410888671875,-16.731323242188
0.132,20.505004882812,-1.5565185546875,-19.093627929688
0.1325,19.183715820312,2.9678955078125,-22.136596679688
0.133,15.420043945312,7.2120361328125,-22.697143554688
0.1335,11.576293945312,11.896606445312,-23.618041992188
0.134,7.8126220703125,15.059692382812,-23.057495117188
0.1345,2.9678955078125,18.422973632812,-21.656127929688
0.135,-1.3963623046875,20.384887695312,-19.373901367188
0.1355,-5.8006591796875,22.747192382812,-17.411987304688
0.136,-10.365112304688,23.347778320312,-13.448120117188
0.1365,-14.489135742188,22.987426757812,-9.0438232421875
0.137,-17.371948242188,23.107543945312,-6.3211669921875
0.1375,-20.334838867188,20.985473632812,-1.2362060546875
0.138,-22.536987304688,19.063598632812,3.0880126953125
0.1385,-23.137573242188,15.820434570312,6.9718017578125
0.139,-24.058471679688,12.176879882812,11.496215820312
0.1395,-22.857299804688,7.7725830078125,14.739379882812
0.14,-22.456909179688,4.2891845703125,17.822387695312
0.1405,-20.014526367188,-0.5155029296875,20.104614257812
0.141,-18.453002929688,-4.9998779296875,22.987426757812
0.1415,-14.088745117188,-9.2840576171875,22.947387695312
0.142,-10.044799804688,-13.608276367188,23.347778320312
0.1425,-6.5213623046875,-16.411010742188,22.707153320312
0.143,-1.1160888671875,-19.614135742188,20.545043945312
0.1435,3.1680908203125,-21.495971679688,18.302856445312
0.144,7.7725830078125,-23.217651367188,15.500122070312
0.1445,11.896606445312,-23.698120117188,11.816528320312
0.145,15.820434570312,-23.017456054688,7.2520751953125
0.1455,18.543090820312,-22.777221679688,4.1690673828125
0.146,21.225708007812,-20.334838867188,-0.9158935546875
0.1465,23.387817382812,-18.292846679688,-5.1600341796875
0.147,23.227661132812,-14.409057617188,-8.9237060546875
0.1475,24.028442382812,-10.965698242188,-13.127807617188
0.148,22.747192382812,-6.8416748046875,-16.010620117188
0.1485,21.706176757812,-2.7176513671875,-19.093627929688
0.149,19.303833007812,1.7667236328125,-21.135620117188
0.1495,16.981567382812,6.5313720703125,-23.537963867188
0.15,12.577270507812,10.575317382812,-23.217651367188
0.1505,8.4532470703125,14.699340820312,-23.297729492188
0.151,5.1300048828125,17.141723632812,-22.496948242188
0.1515,-0.4754638671875,20.184692382812,-20.134643554688
0.152,-4.4393310546875,22.066528320312,-18.092651367188
0.1525,-9.1639404296875,23.067504882812,-14.449096679688
0.153,-13.007690429688,23.547973632812,-11.085815429688
0.1535,-16.651245117188,22.667114257812,-6.6014404296875
0.154,-19.173706054688,21.906372070312,-3.2781982421875
0.1545,-21.455932617188,19.584106445312,1.4063720703125
0.155,-23.417846679688,17.261840820312,5.8106689453125
0.1555,-22.777221679688,12.857543945312,9.5343017578125
0.156,-23.497924804688,9.5743408203125,13.578247070312
0.1565,-22.336791992188,5.7706298828125,16.180786132812
0.157,-20.855346679688,1.2061767578125,19.263793945312
0.1575,-18.853393554688,-2.8377685546875,21.185668945312
0.158,-15.810424804688,-7.6424560546875,23.067504882812
0.1585,-11.726440429688,-11.406127929688,22.747192382812
0.159,-7.5223388671875,-15.249877929688,22.466918945312
0.1595,-3.9588623046875,-17.492065429688,21.265747070312
0.16,1.3262939453125,-20.334838867188,18.983520507812
0.1605,5.4102783203125,-22.296752929688,16.861450195312
0.161,9.8546142578125,-22.617065429688,12.777465820312
0.1615,13.618286132812,-23.257690429688,9.6544189453125
0.162,16.981567382812,-22.176635742188,5.2901611328125
0.1625,19.664184570312,-21.095581054688,1.4864501953125
0.163,21.586059570312,-18.973510742188,-2.6375732421875
0.1635,23.387817382812,-16.290893554688,-7.2020263671875
0.164,22.587036132812,-11.926635742188,-10.765502929688
0.1645,23.107543945312,-8.6434326171875,-14.569213867188
0.165,21.786254882812,-4.9598388671875,-16.931518554688
0.1655,20.184692382812,0.0050048828125,-20.134643554688
0.166,17.902465820312,3.9688720703125,-21.936401367188
0.1665,14.218872070312,8.8936767578125,-23.137573242188
0.167,10.495239257812,12.457153320312,-23.057495117188
0.1675,6.0108642578125,16.220825195312,-22.416870117188
0.168,2.2071533203125,18.422973632812,-20.855346679688
0.1685,-2.5975341796875,20.985473632812,-18.853393554688
0.169,-7.2020263671875,22.747192382812,-16.090698242188
0.1695,-11.446166992188,22.546997070312,-11.686401367188
0.17,-15.009643554688,23.307739257812,-8.8436279296875
0.1705,-18.132690429688,21.826293945312,-4.2391357421875
0.171,-20.815307617188,20.424926757812,0.0050048828125
0.1715,-22.176635742188,18.062622070312,3.6885986328125
0.172,-23.578002929688,14.739379882812,8.4532470703125
0.1725,-22.777221679688,10.375122070312,12.016723632812
0.173,-22.977416992188,6.8917236328125,15.740356445312
0.1735,-21.215698242188,3.0079345703125,17.862426757812
0.174,-19.694213867188,-1.7567138671875,21.025512695312
0.1745,-16.771362304688,-6.0408935546875,22.346801757812
0.175,-12.727416992188,-10.645385742188,22.987426757812
0.1755,-9.2840576171875,-13.968627929688,22.987426757812
0.176,-4.3192138671875,-17.492065429688,21.586059570312
0.1765,0.0050048828125,-19.694213867188,19.624145507812
0.177,4.0889892578125,-21.856323242188,17.702270507812
0.1775,9.0137939453125,-23.337768554688,14.258911132812
0.178,12.857543945312,-22.577026367188,9.7745361328125
