wavelength,x,y,z
0.0,3.052978515625,-1.311279296875,-2.712646484375
0.0005,3.173095703125,-1.911865234375,-2.272216796875
0.001,3.012939453125,-2.312255859375,-1.551513671875
0.0015,2.852783203125,-2.552490234375,-1.031005859375
0.002,2.692626953125,-2.672607421875,-0.510498046875
0.0025,2.572509765625,-2.952880859375,0.090087890625
0.003,1.771728515625,-2.952880859375,1.010986328125
0.0035,1.291259765625,-2.872802734375,1.531494140625
0.004,0.770751953125,-2.592529296875,1.931884765625
0.0045,0.370361328125,-2.472412109375,2.332275390625
0.005,-0.310302734375,-2.152099609375,2.692626953125
0.0055,-0.990966796875,-1.751708984375,3.052978515625
0.006,-1.671630859375,-1.151123046875,3.173095703125
0.0065,-2.152099609375,-0.510498046875,3.012939453125
0.007,-2.392333984375,0.010009765625,2.892822265625
0.0075,-2.632568359375,0.410400390625,2.692626953125
0.008,-3.032958984375,0.890869140625,2.572509765625
0.0085,-3.072998046875,1.571533203125,1.851806640625
0.009,-3.072998046875,1.931884765625,1.411376953125
0.0095,-2.952880859375,2.212158203125,0.770751953125
0.01,-2.832763671875,2.532470703125,0.330322265625
0.0105,-2.552490234375,2.572509765625,-0.310302734375
0.011,-2.312255859375,2.852783203125,-0.870849609375
0.0115,-1.631591796875,2.812744140625,-1.671630859375
0.012,-1.031005859375,2.572509765625,-2.192138671875
0.0125,-0.630615234375,2.412353515625,-2.512451171875
0.013,-0.190185546875,2.252197265625,-2.872802734375
0.0135,0.450439453125,2.052001953125,-3.313232421875
0.014,1.211181640625,1.411376953125,-3.553466796875
0.0145,1.771728515625,0.930908203125,-3.673583984375
0.015,2.212158203125,0.290283203125,-3.513427734375
0.0155,2.452392578125,-0.150146484375,-3.393310546875
0.016,2.692626953125,-0.630615234375,-3.153076171875
0.0165,3.093017578125,-1.111083984375,-3.072998046875
0.017,3.133056640625,-1.791748046875,-2.272216796875
0.0175,3.052978515625,-2.192138671875,-1.791748046875
0.018,2.892822265625,-2.392333984375,-1.231201171875
0.0185,2.812744140625,-2.632568359375,-0.710693359375
0.019,2.532470703125,-2.872802734375,-0.150146484375
0.0195,2.052001953125,-2.952880859375,0.690673828125
0.02,1.571533203125,-2.912841796875,1.331298828125
0.0205,0.930908203125,-2.632568359375,1.811767578125
0.021,0.530517578125,-2.472412109375,2.172119140625
0.0215,0.010009765625,-2.272216796875,2.532470703125
0.022,-0.630615234375,-2.112060546875,3.052978515625
0.0225,-1.551513671875,-1.231201171875,3.133056640625
0.023,-1.951904296875,-0.710693359375,3.133056640625
0.0235,-2.352294921875,-0.190185546875,2.972900390625
0.024,-2.632568359375,0.250244140625,2.892822265625
0.0245,-2.872802734375,0.730712890625,2.532470703125
0.025,-3.193115234375,1.291259765625,2.212158203125
0.0255,-3.193115234375,1.891845703125,1.571533203125
0.026,-3.032958984375,2.252197265625,0.970947265625
0.0265,-2.872802734375,2.492431640625,0.450439453125
0.027,-2.712646484375,2.692626953125,-0.150146484375
0.0275,-2.552490234375,2.892822265625,-0.710693359375
0.028,-1.791748046875,2.892822265625,-1.631591796875
0.0285,-1.231201171875,2.772705078125,-2.192138671875
0.029,-0.670654296875,2.532470703125,-2.592529296875
0.0295,-0.270263671875,2.372314453125,-2.912841796875
0.03,0.370361328125,2.052001953125,-3.273193359375
0.0305,1.010986328125,1.691650390625,-3.713623046875
0.031,1.851806640625,0.930908203125,-3.793701171875
0.0315,2.252197265625,0.330322265625,-3.593505859375
0.032,2.532470703125,-0.150146484375,-3.473388671875
0.0325,2.812744140625,-0.630615234375,-3.273193359375
0.033,3.052978515625,-1.151123046875,-3.032958984375
0.0335,3.173095703125,-1.791748046875,-2.392333984375
0.034,3.173095703125,-2.232177734375,-1.831787109375
0.0345,3.012939453125,-2.472412109375,-1.271240234375
0.035,2.812744140625,-2.672607421875,-0.750732421875
0.0355,2.572509765625,-2.832763671875,-0.190185546875
0.036,2.292236328125,-3.072998046875,0.530517578125
0.0365,1.571533203125,-2.912841796875,1.291259765625
0.037,0.970947265625,-2.712646484375,1.771728515625
0.0375,0.570556640625,-2.552490234375,2.172119140625
0.038,0.130126953125,-2.352294921875,2.532470703125
0.0385,-0.510498046875,-1.991943359375,2.892822265625
0.039,-1.311279296875,-1.431396484375,3.173095703125
0.0395,-1.951904296875,-0.830810546875,3.213134765625
0.04,-2.272216796875,-0.310302734375,3.052978515625
0.0405,-2.552490234375,0.130126953125,2.852783203125
0.041,-2.832763671875,0.570556640625,2.692626953125
0.0415,-3.153076171875,1.051025390625,2.452392578125
0.042,-3.153076171875,1.771728515625,1.771728515625
0.0425,-3.072998046875,2.172119140625,1.211181640625
0.043,-2.952880859375,2.412353515625,0.650634765625
0.0435,-2.832763671875,2.612548828125,0.170166015625
0.044,-2.592529296875,2.812744140625,-0.470458984375
0.0445,-2.152099609375,2.932861328125,-1.231201171875
0.045,-1.471435546875,2.852783203125,-1.951904296875
0.0455,-0.950927734375,2.572509765625,-2.312255859375
0.046,-0.510498046875,2.412353515625,-2.712646484375
0.0465,0.010009765625,2.292236328125,-3.153076171875
0.047,0.650634765625,1.971923828125,-3.553466796875
0.0475,1.451416015625,1.251220703125,-3.713623046875
0.048,2.052001953125,0.610595703125,-3.713623046875
0.0485,2.412353515625,0.130126953125,-3.593505859375
0.049,2.692626953125,-0.390380859375,-3.433349609375
0.0495,2.932861328125,-0.910888671875,-3.193115234375
0.05,3.213134765625,-1.471435546875,-2.752685546875
0.0505,3.213134765625,-2.072021484375,-2.072021484375
0.051,3.093017578125,-2.392333984375,-1.471435546875
0.0515,2.932861328125,-2.632568359375,-0.990966796875
0.052,2.772705078125,-2.832763671875,-0.430419921875
0.0525,2.452392578125,-3.032958984375,0.290283203125
0.053,1.811767578125,-3.072998046875,1.131103515625
0.0535,1.171142578125,-2.912841796875,1.771728515625
0.054,0.690673828125,-2.632568359375,2.092041015625
0.0545,0.250244140625,-2.392333984375,2.412353515625
0.055,-0.350341796875,-2.152099609375,2.812744140625
0.0555,-1.111083984375,-1.711669921875,3.173095703125
0.056,-1.791748046875,-0.990966796875,3.253173828125
0.0565,-2.272216796875,-0.430419921875,3.052978515625
0.057,-2.552490234375,0.050048828125,2.972900390625
0.0575,-2.712646484375,0.450439453125,2.692626953125
0.058,-3.032958984375,0.970947265625,2.492431640625
0.0585,-3.153076171875,1.571533203125,1.931884765625
0.059,-3.153076171875,2.052001953125,1.291259765625
0.0595,-2.912841796875,2.292236328125,0.770751953125
0.06,-2.792724609375,2.532470703125,0.290283203125
0.0605,-2.592529296875,2.692626953125,-0.310302734375
0.061,-2.272216796875,2.852783203125,-0.910888671875
0.0615,-1.671630859375,2.812744140625,-1.631591796875
0.062,-1.031005859375,2.572509765625,-2.192138671875
0.0625,-0.630615234375,2.492431640625,-2.552490234375
0.063,-0.190185546875,2.252197265625,-2.872802734375
0.0635,0.330322265625,2.092041015625,-3.313232421875
0.064,1.091064453125,1.491455078125,-3.553466796875
0.0645,1.731689453125,0.890869140625,-3.673583984375
0.065,2.092041015625,0.330322265625,-3.513427734375
0.0655,2.452392578125,-0.190185546875,-3.513427734375
0.066,2.732666015625,-0.550537109375,-3.273193359375
0.0665,3.052978515625,-1.031005859375,-3.072998046875
0.067,3.173095703125,-1.631591796875,-2.472412109375
0.0675,3.133056640625,-2.152099609375,-1.791748046875
0.068,3.012939453125,-2.432373046875,-1.311279296875
0.0685,2.852783203125,-2.632568359375,-0.790771484375
0.069,2.692626953125,-2.872802734375,-0.270263671875
0.0695,2.212158203125,-3.032958984375,0.610595703125
0.07,1.651611328125,-2.992919921875,1.291259765625
0.0705,1.010986328125,-2.712646484375,1.771728515625
0.071,0.610595703125,-2.592529296875,2.212158203125
0.0715,0.090087890625,-2.352294921875,2.532470703125
0.072,-0.590576171875,-2.112060546875,3.012939453125
0.0725,-1.431396484375,-1.431396484375,3.173095703125
0.073,-2.031982421875,-0.750732421875,3.173095703125
0.0735,-2.312255859375,-0.310302734375,3.012939453125
0.074,-2.592529296875,0.250244140625,2.852783203125
0.0745,-2.912841796875,0.690673828125,2.692626953125
0.075,-3.072998046875,1.291259765625,2.172119140625
0.0755,-3.193115234375,1.851806640625,1.651611328125
0.076,-3.032958984375,2.252197265625,0.970947265625
0.0765,-2.872802734375,2.412353515625,0.490478515625
0.077,-2.632568359375,2.572509765625,0.010009765625
0.0775,-2.512451171875,2.812744140625,-0.630615234375
0.078,-1.791748046875,2.812744140625,-1.431396484375
0.0785,-1.271240234375,2.692626953125,-1.991943359375
0.079,-0.790771484375,2.412353515625,-2.312255859375
0.0795,-0.390380859375,2.292236328125,-2.712646484375
0.08,0.170166015625,2.052001953125,-3.072998046875
0.0805,0.770751953125,1.651611328125,-3.393310546875
0.081,1.411376953125,1.131103515625,-3.553466796875
0.0815,1.931884765625,0.450439453125,-3.513427734375
0.082,2.252197265625,0.130126953125,-3.393310546875
0.0825,2.492431640625,-0.350341796875,-3.193115234375
0.083,2.852783203125,-0.790771484375,-3.193115234375
0.0835,2.932861328125,-1.391357421875,-2.552490234375
0.084,3.052978515625,-1.831787109375,-2.112060546875
0.0845,2.932861328125,-2.192138671875,-1.551513671875
0.085,2.852783203125,-2.472412109375,-1.031005859375
0.0855,2.692626953125,-2.632568359375,-0.510498046875
0.086,2.492431640625,-2.872802734375,0.130126953125
0.0865,1.931884765625,-2.912841796875,0.810791015625
0.087,1.291259765625,-2.712646484375,1.451416015625
0.0875,0.850830078125,-2.552490234375,1.851806640625
0.088,0.370361328125,-2.432373046875,2.252197265625
0.0885,-0.190185546875,-2.312255859375,2.692626953125
0.089,-0.990966796875,-1.671630859375,2.932861328125
0.0895,-1.551513671875,-1.231201171875,3.093017578125
0.09,-1.991943359375,-0.510498046875,3.012939453125
0.0905,-2.352294921875,-0.110107421875,2.932861328125
0.091,-2.592529296875,0.410400390625,2.692626953125
0.0915,-2.992919921875,0.850830078125,2.572509765625
0.092,-3.072998046875,1.531494140625,1.931884765625
0.0925,-3.072998046875,1.971923828125,1.331298828125
0.093,-2.912841796875,2.212158203125,0.850830078125
0.0935,-2.832763671875,2.532470703125,0.330322265625
0.094,-2.592529296875,2.692626953125,-0.310302734375
0.0945,-2.112060546875,2.852783203125,-1.031005859375
0.095,-1.631591796875,2.812744140625,-1.631591796875
0.0955,-0.990966796875,2.572509765625,-2.192138671875
0.096,-0.630615234375,2.412353515625,-2.512451171875
0.0965,-0.110107421875,2.172119140625,-2.872802734375
0.097,0.450439453125,1.971923828125,-3.353271484375
0.0975,1.291259765625,1.211181640625,-3.553466796875
0.098,1.771728515625,0.770751953125,-3.553466796875
0.0985,2.132080078125,0.290283203125,-3.393310546875
0.099,2.492431640625,-0.190185546875,-3.353271484375
0.0995,2.692626953125,-0.630615234375,-3.153076171875
0.1,2.932861328125,-1.231201171875,-2.752685546875
0.1005,3.052978515625,-1.711669921875,-2.272216796875
0.101,2.932861328125,-2.152099609375,-1.591552734375
0.1015,2.852783203125,-2.352294921875,-1.151123046875
0.102,2.692626953125,-2.592529296875,-0.630615234375
0.1025,2.572509765625,-2.872802734375,-0.150146484375
0.103,1.891845703125,-2.872802734375,0.770751953125
0.1035,1.491455078125,-2.832763671875,1.331298828125
0.104,0.890869140625,-2.592529296875,1.771728515625
0.1045,0.490478515625,-2.512451171875,2.212158203125
0.105,0.010009765625,-2.272216796875,2.532470703125
0.1055,-0.670654296875,-1.991943359375,2.972900390625
0.106,-1.431396484375,-1.311279296875,3.133056640625
0.1065,-1.951904296875,-0.630615234375,3.012939453125
0.107,-2.272216796875,-0.270263671875,2.892822265625
0.1075,-2.592529296875,0.290283203125,2.812744140625
0.108,-2.872802734375,0.730712890625,2.612548828125
0.1085,-3.032958984375,1.411376953125,2.052001953125
0.109,-3.113037109375,1.811767578125,1.571533203125
0.1095,-2.952880859375,2.212158203125,0.970947265625
0.11,-2.832763671875,2.412353515625,0.490478515625
0.1105,-2.592529296875,2.572509765625,-0.110107421875
0.111,-2.512451171875,2.852783203125,-0.630615234375
0.1115,-1.751708984375,2.812744140625,-1.471435546875
0.112,-1.231201171875,2.612548828125,-1.951904296875
0.1125,-0.750732421875,2.412353515625,-2.392333984375
0.113,-0.310302734375,2.292236328125,-2.752685546875
0.1135,0.290283203125,1.971923828125,-3.193115234375
0.114,0.970947265625,1.571533203125,-3.473388671875
0.1145,1.571533203125,1.051025390625,-3.593505859375
0.115,2.052001953125,0.450439453125,-3.473388671875
0.1155,2.292236328125,0.050048828125,-3.353271484375
0.116,2.612548828125,-0.470458984375,-3.193115234375
0.1165,2.972900390625,-0.910888671875,-3.072998046875
0.117,3.012939453125,-1.591552734375,-2.392333984375
0.1175,3.052978515625,-1.951904296875,-1.911865234375
0.118,2.892822265625,-2.272216796875,-1.311279296875
0.1185,2.812744140625,-2.552490234375,-0.870849609375
0.119,2.572509765625,-2.712646484375,-0.310302734375
0.1195,2.212158203125,-2.872802734375,0.490478515625
0.12,1.611572265625,-2.872802734375,1.171142578125
0.1205,1.051025390625,-2.712646484375,1.611572265625
0.121,0.610595703125,-2.552490234375,2.011962890625
0.1215,0.130126953125,-2.392333984375,2.412353515625
0.122,-0.470458984375,-2.152099609375,2.892822265625
0.1225,-1.311279296875,-1.391357421875,3.012939453125
0.123,-1.791748046875,-0.910888671875,3.052978515625
0.1235,-2.192138671875,-0.310302734375,2.972900390625
0.124,-2.472412109375,0.130126953125,2.852783203125
0.1245,-2.712646484375,0.610595703125,2.572509765625
0.125,-3.032958984375,1.131103515625,2.292236328125
0.1255,-3.072998046875,1.691650390625,1.691650390625
0.126,-2.952880859375,2.052001953125,1.131103515625
0.1265,-2.832763671875,2.252197265625,0.610595703125
0.127,-2.712646484375,2.532470703125,0.130126953125
0.1275,-2.512451171875,2.692626953125,-0.470458984375
0.128,-1.951904296875,2.732666015625,-1.271240234375
0.1285,-1.431396484375,2.652587890625,-1.791748046875
0.129,-0.910888671875,2.492431640625,-2.192138671875
0.1295,-0.510498046875,2.292236328125,-2.592529296875
0.13,0.010009765625,2.132080078125,-2.952880859375
0.1305,0.610595703125,1.931884765625,-3.393310546875
0.131,1.331298828125,1.211181640625,-3.513427734375
0.1315,1.811767578125,0.650634765625,-3.473388671875
0.132,2.172119140625,0.210205078125,-3.353271484375
0.1325,2.452392578125,-0.230224609375,-3.273193359375
0.133,2.732666015625,-0.670654296875,-3.153076171875
0.1335,2.932861328125,-1.271240234375,-2.632568359375
0.134,3.012939453125,-1.751708984375,-2.152099609375
0.1345,2.892822265625,-2.112060546875,-1.591552734375
0.135,2.812744140625,-2.352294921875,-1.151123046875
0.1355,2.692626953125,-2.592529296875,-0.630615234375
0.136,2.532470703125,-2.872802734375,0.010009765625
0.1365,1.891845703125,-2.872802734375,0.810791015625
0.137,1.331298828125,-2.752685546875,1.331298828125
0.1375,0.890869140625,-2.632568359375,1.771728515625
0.138,0.450439453125,-2.432373046875,2.172119140625
0.1385,-0.150146484375,-2.232177734375,2.572509765625
0.139,-0.830810546875,-1.791748046875,2.932861328125
0.1395,-1.551513671875,-1.151123046875,3.093017578125
0.14,-1.951904296875,-0.590576171875,2.932861328125
0.1405,-2.272216796875,-0.150146484375,2.852783203125
0.141,-2.592529296875,0.330322265625,2.732666015625
0.1415,-2.952880859375,0.810791015625,2.572509765625
0.142,-3.072998046875,1.491455078125,1.931884765625
0.1425,-3.072998046875,1.931884765625,1.411376953125
0.143,-2.912841796875,2.252197265625,0.850830078125
0.1435,-2.832763671875,2.412353515625,0.330322265625
0.144,-2.552490234375,2.692626953125,-0.310302734375
0.1445,-2.272216796875,2.812744140625,-0.990966796875
0.145,-1.591552734375,2.732666015625,-1.671630859375
0.1455,-1.111083984375,2.492431640625,-2.112060546875
0.146,-0.670654296875,2.412353515625,-2.512451171875
0.1465,-0.190185546875,2.212158203125,-2.832763671875
0.147,0.450439453125,1.931884765625,-3.273193359375
0.1475,1.171142578125,1.291259765625,-3.473388671875
0.148,1.771728515625,0.770751953125,-3.513427734375
0.1485,2.052001953125,0.290283203125,-3.393310546875
0.149,2.332275390625,-0.150146484375,-3.233154296875
0.1495,2.652587890625,-0.590576171875,-3.113037109375
0.15,2.932861328125,-1.111083984375,-2.832763671875
0.1505,2.972900390625,-1.631591796875,-2.272216796875
0.151,2.852783203125,-1.991943359375,-1.711669921875
0.1515,2.812744140625,-2.272216796875,-1.231201171875
0.152,2.652587890625,-2.512451171875,-0.710693359375
0.1525,2.532470703125,-2.752685546875,-0.190185546875
0.153,2.011962890625,-2.872802734375,0.610595703125
0.1535,1.491455078125,-2.832763671875,1.211181640625
0.154,1.010986328125,-2.592529296875,1.571533203125
0.1545,0.610595703125,-2.432373046875,2.011962890625
0.155,0.130126953125,-2.312255859375,2.412353515625
0.1555,-0.510498046875,-2.072021484375,2.852783203125
0.156,-1.271240234375,-1.391357421875,3.012939453125
0.1565,-1.791748046875,-0.790771484375,2.972900390625
0.157,-2.152099609375,-0.350341796875,2.932861328125
0.1575,-2.432373046875,0.130126953125,2.812744140625
0.158,-2.752685546875,0.610595703125,2.612548828125
0.1585,-2.952880859375,1.211181640625,2.172119140625
0.159,-3.072998046875,1.771728515625,1.651611328125
0.1595,-2.952880859375,2.052001953125,1.091064453125
0.16,-2.832763671875,2.372314453125,0.610595703125
0.1605,-2.712646484375,2.572509765625,0.050048828125
0.161,-2.512451171875,2.772705078125,-0.590576171875
0.1615,-1.911865234375,2.732666015625,-1.391357421875
0.162,-1.271240234375,2.652587890625,-1.951904296875
0.1625,-0.870849609375,2.532470703125,-2.312255859375
0.163,-0.390380859375,2.332275390625,-2.712646484375
0.1635,0.210205078125,2.132080078125,-3.153076171875
0.164,0.930908203125,1.611572265625,-3.473388671875
0.1645,1.571533203125,1.051025390625,-3.593505859375
0.165,1.971923828125,0.490478515625,-3.473388671875
0.1655,2.332275390625,0.050048828125,-3.393310546875
0.166,2.572509765625,-0.430419921875,-3.193115234375
0.1665,2.892822265625,-0.910888671875,-3.032958984375
0.167,3.012939453125,-1.551513671875,-2.432373046875
0.1675,3.012939453125,-2.031982421875,-1.831787109375
0.168,2.892822265625,-2.272216796875,-1.351318359375
0.1685,2.732666015625,-2.552490234375,-0.830810546875
0.169,2.572509765625,-2.752685546875,-0.310302734375
0.1695,2.172119140625,-2.912841796875,0.410400390625
0.17,1.651611328125,-2.832763671875,1.131103515625
0.1705,1.010986328125,-2.592529296875,1.571533203125
0.171,0.650634765625,-2.512451171875,1.931884765625
0.1715,0.210205078125,-2.272216796875,2.332275390625
0.172,-0.390380859375,-2.152099609375,2.772705078125
0.1725,-1.151123046875,-1.471435546875,2.972900390625
0.173,-1.791748046875,-0.910888671875,3.052978515625
0.1735,-2.072021484375,-0.470458984375,2.932861328125
0.174,-2.432373046875,0.050048828125,2.852783203125
0.1745,-2.712646484375,0.530517578125,2.692626953125
0.175,-2.992919921875,1.010986328125,2.412353515625
0.1755,-3.113037109375,1.571533203125,1.851806640625
0.176,-2.992919921875,2.052001953125,1.211181640625
0.1765,-2.912841796875,2.252197265625,0.690673828125
0.177,-2.752685546875,2.532470703125,0.250244140625
0.1775,-2.632568359375,2.692626953125,-0.430419921875
0.178,-2.031982421875,2.852783203125,-1.231201171875
0.1785,-1.431396484375,2.732666015625,-1.831787109375
0.179,-0.990966796875,2.532470703125,-2.272216796875
0.1795,-0.550537109375,2.412353515625,-2.632568359375
0.18,0.050048828125,2.212158203125,-3.032958984375
0.1805,0.610595703125,1.931884765625,-3.473388671875
0.181,1.371337890625,1.291259765625,-3.633544921875
0.1815,1.971923828125,0.610595703125,-3.553466796875
0.182,2.252197265625,0.210205078125,-3.473388671875
0.1825,2.532470703125,-0.310302734375,-3.273193359375
0.183,2.892822265625,-0.790771484375,-3.193115234375
0.1835,3.052978515625,-1.431396484375,-2.592529296875
0.184,3.173095703125,-1.951904296875,-2.112060546875
0.1845,2.932861328125,-2.272216796875,-1.471435546875
0.185,2.852783203125,-2.552490234375,-0.990966796875
0.1855,2.612548828125,-2.712646484375,-0.470458984375
0.186,2.452392578125,-2.912841796875,0.170166015625
0.1865,1.771728515625,-2.912841796875,1.010986328125
0.187,1.171142578125,-2.752685546875,1.611572265625
0.1875,0.770751953125,-2.552490234375,1.931884765625
0.188,0.290283203125,-2.392333984375,2.332275390625
