wavelength,x,y,z
0.0,7.7225341796875,-23.708129882812,15.930541992188
0.0005,11.926635742188,-23.668090820312,11.686401367188
0.001,15.730346679688,-23.828247070312,8.1229248046875
0.0015,17.692260742188,-20.505004882812,4.1190185546875
0.002,20.855346679688,-19.944458007812,-0.8858642578125
0.0025,23.257690429688,-18.342895507812,-5.0499267578125
0.003,24.899291992188,-14.699340820312,-8.9737548828125
0.0035,25.019409179688,-11.896606445312,-13.217895507812
0.004,23.457885742188,-6.6514892578125,-16.981567382812
0.0045,21.616088867188,-3.4083251953125,-18.342895507812
0.005,19.453979492188,2.0369873046875,-21.626098632812
0.0055,17.331909179688,6.9617919921875,-24.388793945312
0.006,12.887573242188,11.646362304688,-24.669067382812
0.0065,10.164916992188,14.969604492188,-25.269653320312
0.007,4.5194091796875,17.331909179688,-22.066528320312
0.0075,0.1151123046875,19.694213867188,-20.024536132812
0.008,-4.5294189453125,22.176635742188,-18.022583007812
0.0085,-10.214965820312,24.378784179688,-14.779418945312
0.009,-13.418090820312,24.018432617188,-11.296020507812
0.0095,-17.221801757812,23.097534179688,-6.5714111328125
0.01,-18.823364257812,21.135620117188,-2.9678955078125
0.0105,-22.186645507812,19.333862304688,2.2772216796875
0.011,-24.108520507812,17.051635742188,6.6014404296875
0.0115,-25.069458007812,12.967651367188,11.646362304688
0.012,-25.149536132812,11.526245117188,14.529174804688
0.0125,-22.827270507812,5.0399169921875,17.452026367188
0.013,-20.945434570312,1.3162841796875,19.253784179688
0.0135,-17.942504882812,-3.5284423828125,22.336791992188
0.014,-16.300903320312,-8.8936767578125,24.819213867188
0.0145,-12.216918945312,-12.657348632812,24.458862304688
0.015,-8.3731689453125,-16.060668945312,24.058471679688
0.0155,-3.3682861328125,-16.661254882812,20.975463867188
0.016,1.7967529296875,-20.865356445312,18.893432617188
0.0165,5.9207763671875,-22.907348632812,16.811401367188
0.017,11.686401367188,-24.709106445312,13.007690429688
0.0175,14.529174804688,-24.108520507812,9.6043701171875
0.018,17.972534179688,-22.587036132812,4.7596435546875
0.0185,19.774291992188,-20.585083007812,0.9559326171875
0.019,24.338745117188,-19.103637695312,-3.8887939453125
0.0195,24.458862304688,-16.020629882812,-8.4932861328125
0.02,24.979370117188,-12.337036132812,-12.657348632812
0.0205,24.699096679688,-9.0137939453125,-15.860473632812
0.021,22.056518554688,-4.0089111328125,-18.142700195312
0.0215,20.134643554688,0.3553466796875,-20.585083007812
0.022,18.453002929688,4.7996826171875,-23.347778320312
0.0225,14.849487304688,10.405151367188,-25.389770507812
0.023,10.965698242188,13.648315429688,-24.709106445312
0.0235,6.4412841796875,16.891479492188,-23.467895507812
0.024,1.8367919921875,18.613159179688,-20.625122070312
0.0245,-3.4884033203125,21.936401367188,-18.863403320312
0.025,-7.7725830078125,23.377807617188,-16.060668945312
0.0255,-12.937622070312,24.979370117188,-12.697387695312
0.026,-15.980590820312,23.778198242188,-8.4132080078125
0.0265,-18.783325195312,22.056518554688,-3.8887939453125
0.027,-21.065551757812,19.854370117188,0.5955810546875
0.0275,-24.228637695312,18.533081054688,5.1600341796875
0.028,-25.109497070312,14.649291992188,10.004760742188
0.0285,-25.229614257812,11.045776367188,13.808471679688
0.029,-23.067504882812,7.1619873046875,16.771362304688
0.0295,-21.546020507812,2.1971435546875,19.013549804688
0.03,-19.824340820312,-2.4874267578125,21.976440429688
0.0305,-17.462036132812,-7.0518798828125,24.058471679688
0.031,-12.817504882812,-12.256958007812,25.940307617188
0.0315,-9.3741455078125,-15.540161132812,24.458862304688
0.032,-4.8497314453125,-18.262817382812,22.737182617188
0.0325,0.4354248046875,-20.264770507812,19.534057617188
0.033,5.4002685546875,-23.708129882812,18.132690429688
0.0335,10.365112304688,-24.308715820312,13.848510742188
0.034,14.569213867188,-25.509887695312,11.005737304688
0.0345,17.652221679688,-23.588012695312,6.0809326171875
0.035,20.374877929688,-20.505004882812,1.5164794921875
0.0355,22.897338867188,-19.544067382812,-3.2882080078125
0.036,25.459838867188,-17.582153320312,-7.8526611328125
0.0365,26.020385742188,-13.578247070312,-12.497192382812
0.037,25.499877929688,-9.3741455078125,-16.260864257812
0.0375,23.978393554688,-5.7305908203125,-18.422973632812
0.038,20.935424804688,1.2762451171875,-21.025512695312
0.0385,19.494018554688,4.5994873046875,-24.228637695312
0.039,15.610229492188,9.5643310546875,-25.269653320312
0.0395,12.927612304688,13.928588867188,-26.951293945312
0.04,7.0418701171875,17.291870117188,-24.468872070312
0.0405,2.7977294921875,19.494018554688,-22.506958007812
0.041,-2.8477783203125,23.057495117188,-19.263793945312
0.0415,-7.7325439453125,25.019409179688,-17.822387695312
0.042,-12.737426757812,25.019409179688,-12.857543945312
0.0425,-16.541137695312,25.579956054688,-9.6544189453125
0.043,-18.943481445312,23.377807617188,-3.8487548828125
0.0435,-21.826293945312,21.135620117188,0.1151123046875
0.044,-24.388793945312,19.053588867188,4.8397216796875
0.0445,-26.110473632812,15.850463867188,9.7244873046875
0.045,-26.630981445312,12.567260742188,13.608276367188
0.0455,-25.069458007812,7.2821044921875,17.411987304688
0.046,-23.467895507812,4.0389404296875,19.093627929688
0.0465,-19.223754882812,-1.8468017578125,21.896362304688
0.047,-19.103637695312,-6.6114501953125,25.299682617188
0.0475,-14.138793945312,-11.616333007812,25.379760742188
0.048,-11.816528320312,-15.299926757812,26.701049804688
0.0485,-5.7706298828125,-18.102661132812,23.417846679688
0.049,-1.1661376953125,-20.424926757812,21.175659179688
0.0495,4.1990966796875,-22.787231445312,18.372924804688
0.05,9.4842529296875,-25.509887695312,15.970581054688
0.0505,13.688354492188,-25.389770507812,11.766479492188
0.051,17.612182617188,-24.709106445312,7.1619873046875
0.0515,19.333862304688,-22.867309570312,3.7186279296875
0.052,22.617065429688,-20.464965820312,-2.1270751953125
0.0525,25.259643554688,-18.663208007812,-6.5714111328125
0.053,26.060424804688,-14.459106445312,-11.576293945312
0.0535,26.741088867188,-12.016723632812,-14.859497070312
0.054,24.298706054688,-6.1710205078125,-18.262817382812
0.0545,22.496948242188,-2.6475830078125,-20.024536132812
0.055,19.854370117188,2.9178466796875,-22.827270507812
0.0555,17.772338867188,8.1629638671875,-26.030395507812
0.056,12.927612304688,12.647338867188,-25.670043945312
0.0565,9.7244873046875,16.330932617188,-26.230590820312
0.057,4.6395263671875,18.252807617188,-23.107543945312
0.0575,-0.7257080078125,21.055541992188,-20.665161132812
0.058,-5.4102783203125,23.377807617188,-18.422973632812
0.0585,-11.175903320312,25.419799804688,-14.779418945312
0.059,-14.419067382812,25.459838867188,-11.696411132812
0.0595,-18.342895507812,23.738159179688,-5.9708251953125
0.06,-19.944458007812,22.096557617188,-2.7677001953125
0.0605,-23.387817382812,19.854370117188,2.9178466796875
0.061,-25.710083007812,17.532104492188,8.9637451171875
0.0615,-25.830200195312,12.927612304688,12.447143554688
0.062,-26.550903320312,10.485229492188,15.690307617188
0.0625,-23.708129882812,4.9998779296875,18.372924804688
0.063,-20.505004882812,0.7957763671875,20.655151367188
0.0635,-19.624145507812,-4.1690673828125,23.377807617188
0.064,-15.380004882812,-9.9346923828125,26.220581054688
0.0645,-12.417114257812,-13.618286132812,25.579956054688
0.065,-7.8927001953125,-17.462036132812,24.859252929688
0.0655,-3.5684814453125,-18.903442382812,22.016479492188
0.066,2.3973388671875,-22.106567382812,19.494018554688
0.0665,6.9217529296875,-24.148559570312,17.171752929688
0.067,12.767456054688,-24.348754882812,12.847534179688
0.0675,15.650268554688,-25.509887695312,9.9246826171875
0.068,19.133666992188,-23.307739257812,4.3192138671875
0.0685,21.095581054688,-21.465942382812,0.5155029296875
0.069,24.298706054688,-19.584106445312,-4.6495361328125
0.0695,26.380737304688,-16.461059570312,-9.9747314453125
0.07,26.060424804688,-12.216918945312,-13.978637695312
0.0705,26.100463867188,-8.8536376953125,-17.381958007812
0.071,23.017456054688,-3.7286376953125,-19.423950195312
0.0715,20.975463867188,2.5574951171875,-22.386840820312
0.072,18.813354492188,5.9207763671875,-24.829223632812
0.0725,14.969604492188,11.886596679688,-27.071411132812
0.073,10.925659179688,15.049682617188,-26.230590820312
0.0735,5.7205810546875,18.533081054688,-24.468872070312
0.074,1.3563232421875,20.014526367188,-21.626098632812
0.0745,-4.5294189453125,23.578002929688,-19.423950195312
0.075,-9.2940673828125,25.019409179688,-16.220825195312
0.0755,-14.459106445312,26.100463867188,-12.216918945312
0.076,-17.502075195312,25.179565429688,-8.3331298828125
0.0765,-20.304809570312,22.897338867188,-3.2081298828125
0.077,-22.587036132812,20.615112304688,1.4364013671875
0.0775,-25.389770507812,18.733276367188,6.1209716796875
0.078,-26.791137695312,14.729370117188,11.646362304688
0.0785,-26.150512695312,10.605346679688,15.169799804688
0.079,-25.349731445312,6.6815185546875,18.292846679688
0.0795,-22.226684570312,1.7567138671875,20.094604492188
0.08,-20.384887695312,-3.3282470703125,23.337768554688
0.0805,-17.542114257812,-7.8927001953125,25.019409179688
0.081,-13.858520507812,-13.418090820312,26.861206054688
0.0815,-9.3741455078125,-16.461059570312,25.379760742188
0.082,-4.2091064453125,-17.942504882812,23.097534179688
0.0825,0.5955810546875,-20.905395507812,20.094604492188
0.083,5.7205810546875,-24.228637695312,18.412963867188
0.0835,11.005737304688,-25.029418945312,14.048706054688
0.084,15.049682617188,-25.589965820312,10.525268554688
0.0845,18.092651367188,-24.308715820312,6.3612060546875
0.085,20.615112304688,-21.946411132812,1.4764404296875
0.0855,23.217651367188,-19.904418945312,-3.2081298828125
0.086,25.099487304688,-17.662231445312,-7.4522705078125
0.0865,26.420776367188,-13.818481445312,-12.657348632812
0.087,25.339721679688,-9.5743408203125,-15.900512695312
0.0875,24.058471679688,-5.7706298828125,-18.503051757812
0.088,21.055541992188,-0.9659423828125,-20.384887695312
0.0885,19.814331054688,3.9588623046875,-23.908325195312
0.089,15.930541992188,8.7635498046875,-24.829223632812
0.0895,14.088745117188,13.368041992188,-26.350708007812
0.09,7.9627685546875,16.451049804688,-24.548950195312
0.0905,3.1180419921875,18.853393554688,-22.146606445312
0.091,-1.7667236328125,20.935424804688,-19.504028320312
0.0915,-6.4512939453125,23.938354492188,-17.902465820312
0.092,-11.856567382812,24.899291992188,-13.578247070312
0.0925,-15.460083007812,24.619018554688,-9.7344970703125
0.093,-17.982543945312,23.417846679688,-6.0909423828125
0.0935,-19.223754882812,20.935424804688,-1.0059814453125
0.094,-23.588012695312,19.373901367188,3.6785888671875
0.0945,-24.669067382812,16.130737304688,8.0828857421875
0.095,-26.150512695312,13.087768554688,12.607299804688
0.0955,-24.508911132812,8.1229248046875,16.010620117188
0.096,-23.107543945312,4.4793701171875,18.252807617188
0.0965,-20.384887695312,-0.5655517578125,21.776245117188
0.097,-19.303833007812,-5.4102783203125,24.258666992188
0.0975,-14.779418945312,-10.415161132812,24.659057617188
0.098,-11.656372070312,-14.379028320312,26.901245117188
0.0985,-6.9317626953125,-16.981567382812,23.537963867188
0.099,-1.6866455078125,-19.504028320312,20.855346679688
0.0995,3.1981201171875,-21.906372070312,18.533081054688
0.1,8.2430419921875,-24.228637695312,15.930541992188
0.1005,12.847534179688,-25.309692382812,12.487182617188
0.101,16.771362304688,-23.988403320312,7.3221435546875
0.1015,18.773315429688,-22.907348632812,4.2791748046875
0.102,21.696166992188,-20.304809570312,-1.3262939453125
0.1025,24.859252929688,-18.823364257812,-5.9708251953125
0.103,25.099487304688,-14.499145507812,-10.615356445312
0.1035,26.420776367188,-12.016723632812,-14.499145507812
0.104,24.098510742188,-6.6915283203125,-17.582153320312
0.1045,22.336791992188,-1.2862548828125,-19.944458007812
0.105,19.694213867188,2.3973388671875,-22.346801757812
0.1055,17.692260742188,7.7225341796875,-25.589965820312
0.106,13.247924804688,12.286987304688,-24.348754882812
0.1065,9.1639404296875,16.330932617188,-25.589965820312
0.107,5.0799560546875,18.092651367188,-23.307739257812
0.1075,-0.8057861328125,20.975463867188,-20.464965820312
0.108,-5.4903564453125,23.457885742188,-18.342895507812
0.1085,-11.015747070312,24.819213867188,-14.298950195312
0.109,-14.499145507812,25.780151367188,-11.856567382812
0.1095,-18.262817382812,23.417846679688,-5.7706298828125
0.11,-20.104614257812,22.096557617188,-2.6075439453125
0.1105,-21.786254882812,19.654174804688,2.8778076171875
0.111,-25.870239257812,17.492065429688,7.8826904296875
0.1115,-25.469848632812,12.727416992188,12.286987304688
0.112,-26.350708007812,9.9246826171875,16.010620117188
0.1125,-23.708129882812,5.1600341796875,18.092651367188
0.113,-21.586059570312,0.3553466796875,20.815307617188
0.1135,-19.343872070312,-4.3692626953125,23.217651367188
0.114,-16.180786132812,-9.8946533203125,25.700073242188
0.1145,-12.657348632812,-13.458129882812,25.740112304688
0.115,-7.2921142578125,-17.462036132812,25.619995117188
0.1155,-3.8087158203125,-18.663208007812,22.096557617188
0.116,2.3572998046875,-21.706176757812,19.173706054688
0.1165,7.0418701171875,-24.068481445312,17.011596679688
0.117,12.407104492188,-24.709106445312,12.327026367188
0.1175,15.570190429688,-25.389770507812,9.9246826171875
0.118,18.493041992188,-22.747192382812,4.3992919921875
0.1185,20.695190429688,-21.145629882812,0.5555419921875
0.119,23.377807617188,-19.183715820312,-4.1690673828125
0.1195,25.740112304688,-16.300903320312,-9.4942626953125
0.12,25.099487304688,-12.216918945312,-12.977661132812
0.1205,25.099487304688,-8.4132080078125,-16.941528320312
0.121,22.536987304688,-4.6094970703125,-18.222778320312
0.1215,20.414916992188,0.7557373046875,-21.345825195312
0.122,18.332885742188,5.2401123046875,-23.708129882812
0.1225,14.449096679688,10.805541992188,-25.349731445312
0.123,11.646362304688,13.888549804688,-24.348754882812
0.1235,5.8406982421875,17.291870117188,-23.227661132812
0.124,2.4774169921875,18.533081054688,-21.185668945312
0.1245,-3.0880126953125,21.616088867188,-18.903442382812
0.125,-8.0528564453125,23.858276367188,-16.220825195312
0.1255,-12.497192382812,24.098510742188,-12.096801757812
0.126,-16.020629882812,24.178588867188,-8.7735595703125
0.1265,-18.102661132812,21.816284179688,-4.3292236328125
0.127,-20.985473632812,20.094604492188,0.3153076171875
0.1275,-23.227661132812,18.212768554688,4.4793701171875
0.128,-25.029418945312,14.689331054688,9.8846435546875
0.1285,-24.669067382812,11.446166992188,14.088745117188
0.129,-23.868286132812,6.8817138671875,16.611206054688
0.1295,-21.666137695312,3.5184326171875,17.772338867188
0.13,-19.904418945312,-1.6866455078125,21.175659179688
0.1305,-17.381958007812,-6.3712158203125,23.377807617188
0.131,-13.498168945312,-11.376098632812,24.498901367188
0.1315,-10.575317382812,-14.459106445312,24.659057617188
0.132,-5.0499267578125,-17.181762695312,21.816284179688
0.1325,-0.9259033203125,-19.023559570312,19.654174804688
0.133,3.7987060546875,-21.866333007812,17.972534179688
0.1335,9.4842529296875,-23.788208007812,14.369018554688
0.134,12.887573242188,-23.748168945312,10.885620117188
0.1345,16.571166992188,-23.267700195312,6.7615966796875
0.135,18.412963867188,-21.145629882812,2.8377685546875
0.1355,21.696166992188,-19.544067382812,-2.0870361328125
0.136,23.457885742188,-17.301879882812,-6.1710205078125
0.1365,24.979370117188,-13.658325195312,-11.416137695312
0.137,24.619018554688,-10.375122070312,-14.419067382812
0.1375,22.977416992188,-5.7706298828125,-17.462036132812
0.138,20.615112304688,-1.8868408203125,-18.943481445312
0.1385,19.253784179688,3.0379638671875,-22.466918945312
0.139,15.890502929688,8.2830810546875,-24.308715820312
0.1395,12.286987304688,12.447143554688,-24.829223632812
0.14,8.4432373046875,15.690307617188,-24.228637695312
0.1405,3.3983154296875,17.812377929688,-21.385864257812
0.141,-1.4864501953125,20.334838867188,-17.942504882812
0.1415,-5.7305908203125,22.657104492188,-17.341918945312
0.142,-11.496215820312,24.458862304688,-13.498168945312
0.1425,-14.659301757812,23.738159179688,-9.6944580078125
0.143,-17.702270507812,22.777221679688,-5.7305908203125
0.1435,-19.664184570312,20.334838867188,-0.0050048828125
0.144,-21.786254882812,18.933471679688,3.5584716796875
0.1445,-24.028442382812,15.570190429688,7.9627685546875
0.145,-25.189575195312,12.246948242188,12.407104492188
0.1455,-23.067504882812,8.3231201171875,15.570190429688
0.146,-22.266723632812,3.8787841796875,18.012573242188
0.1465,-19.904418945312,-0.4854736328125,19.974487304688
0.147,-18.543090820312,-5.0098876953125,24.338745117188
0.1475,-14.579223632812,-10.335083007812,24.498901367188
0.148,-10.935668945312,-13.858520507812,25.619995117188
0.1485,-6.7716064453125,-16.701293945312,23.097534179688
0.149,-1.7667236328125,-18.663208007812,20.094604492188
0.1495,3.2781982421875,-21.505981445312,18.132690429688
0.15,7.5623779296875,-22.827270507812,15.169799804688
0.1505,12.487182617188,-24.548950195312,12.166870117188
0.151,15.650268554688,-23.107543945312,7.5223388671875
0.1515,18.212768554688,-22.066528320312,3.9588623046875
0.152,20.414916992188,-19.624145507812,-0.6856689453125
0.1525,23.497924804688,-18.422973632812,-3.8487548828125
0.153,23.938354492188,-14.419067382812,-9.6544189453125
0.1535,24.699096679688,-11.416137695312,-13.458129882812
0.154,23.537963867188,-7.4122314453125,-16.220825195312
0.1545,21.135620117188,-2.7276611328125,-18.543090820312
0.155,20.494995117188,1.6365966796875,-21.025512695312
0.1555,17.011596679688,6.2410888671875,-23.347778320312
0.156,13.688354492188,11.085815429688,-24.909301757812
0.1565,9.2039794921875,14.569213867188,-23.868286132812
0.157,5.5604248046875,16.811401367188,-22.506958007812
0.1575,0.4354248046875,18.893432617188,-19.544067382812
0.158,-4.2091064453125,22.016479492188,-18.222778320312
0.1585,-7.6925048828125,22.657104492188,-14.138793945312
0.159,-12.977661132812,24.258666992188,-11.816528320312
0.1595,-16.100708007812,22.416870117188,-6.9317626953125
0.16,-18.583129882812,21.095581054688,-3.1680908203125
0.1605,-20.905395507812,18.933471679688,1.3963623046875
0.161,-23.547973632812,17.131713867188,5.9608154296875
0.1615,-24.068481445312,13.247924804688,10.285034179688
0.162,-24.188598632812,9.6444091796875,14.128784179688
0.1625,-22.947387695312,7.6824951171875,16.210815429688
0.163,-20.384887695312,1.3162841796875,18.733276367188
0.1635,-19.063598632812,-2.9678955078125,21.696166992188
0.164,-15.700317382812,-7.7725830078125,23.097534179688
0.1645,-13.297973632812,-11.856567382812,24.779174804688
0.165,-7.8526611328125,-14.098754882812,22.777221679688
0.1655,-4.1690673828125,-17.381958007812,21.175659179688
0.166,1.0760498046875,-19.664184570312,18.372924804688
0.1665,5.8406982421875,-22.747192382812,16.811401367188
0.167,10.565307617188,-23.027465820312,12.447143554688
0.1675,14.288940429688,-23.988403320312,9.7244873046875
0.168,16.771362304688,-22.106567382812,5.4803466796875
0.1685,19.534057617188,-20.424926757812,0.9559326171875
0.169,22.056518554688,-18.663208007812,-3.4083251953125
0.1695,23.978393554688,-15.860473632812,-8.2530517578125
0.17,24.538940429688,-12.737426757812,-11.856567382812
0.1705,23.738159179688,-8.0528564453125,-15.860473632812
0.171,22.336791992188,-5.0499267578125,-17.421997070312
0.1715,19.694213867188,0.3553466796875,-20.184692382812
0.172,18.132690429688,4.9598388671875,-23.227661132812
0.1725,13.848510742188,9.8846435546875,-23.828247070312
0.173,11.646362304688,13.408081054688,-25.149536132812
0.1735,6.0008544921875,16.370971679688,-22.506958007812
0.174,1.9569091796875,18.533081054688,-20.745239257812
0.1745,-3.0079345703125,20.855346679688,-18.222778320312
0.175,-8.1729736328125,23.497924804688,-15.780395507812
0.1755,-12.136840820312,23.658081054688,-12.056762695312
0.176,-16.020629882812,23.377807617188,-7.9727783203125
0.1765,-17.782348632812,21.736206054688,-4.5694580078125
0.177,-20.865356445312,19.694213867188,0.6356201171875
0.1775,-23.227661132812,17.772338867188,4.9197998046875
0.178,-24.268676757812,13.928588867188,9.9246826171875
