wavelength,x,y,z
0.0,26.986328125,-13.8935546875,-13.0126953125
0.0005,25.9853515625,-9.12890625,-16.896484375
0.001,25.9052734375,-6.24609375,-19.779296875
0.0015,23.1025390625,-0.8408203125,-22.421875
0.002,21.2607421875,4.0439453125,-25.3447265625
0.0025,16.416015625,9.529296875,-25.9052734375
0.003,12.4921875,14.7744140625,-27.2666015625
0.0035,8.248046875,17.77734375,-25.9853515625
0.004,3.5634765625,21.140625,-24.6640625
0.0045,-1.2412109375,22.7822265625,-21.701171875
0.005,-6.6064453125,25.46484375,-19.138671875
0.0055,-12.251953125,25.78515625,-13.8935546875
0.006,-16.736328125,25.705078125,-9.4091796875
0.0065,-19.4990234375,25.384765625,-6.3662109375
0.007,-22.7421875,23.1025390625,-0.880859375
0.0075,-24.82421875,20.5400390625,3.8837890625
0.008,-25.9052734375,16.416015625,9.12890625
0.0085,-26.8662109375,12.4921875,12.8125
0.009,-25.5849609375,7.84765625,17.45703125
0.0095,-25.224609375,4.5244140625,20.4599609375
0.01,-22.341796875,-0.80078125,22.9423828125
0.0105,-20.2998046875,-6.0458984375,26.10546875
0.011,-14.89453125,-11.3310546875,25.9453125
0.0115,-11.130859375,-15.8955078125,26.7861328125
0.012,-7.046875,-18.6181640625,25.46484375
0.0125,-1.76171875,-21.9013671875,23.462890625
0.013,3.0830078125,-23.623046875,19.21875
0.0135,8.888671875,-25.9052734375,17.056640625
0.014,13.93359375,-25.9853515625,12.2919921875
0.0145,17.9775390625,-25.5048828125,7.767578125
0.015,20.7001953125,-24.9443359375,4.5244140625
0.0155,23.703125,-22.3818359375,-1.12109375
0.016,25.9052734375,-19.4990234375,-6.24609375
0.0165,26.265625,-14.734375,-11.451171875
0.017,26.986328125,-11.291015625,-15.7353515625
0.0175,25.46484375,-6.806640625,-18.818359375
0.018,24.423828125,-2.7626953125,-21.7412109375
0.0185,21.541015625,2.4423828125,-24.0234375
0.019,18.578125,8.3681640625,-26.986328125
0.0195,13.1328125,13.29296875,-26.3857421875
0.02,9.44921875,17.3369140625,-26.7060546875
0.0205,5.6455078125,19.6591796875,-25.3046875
0.021,0.0400390625,22.7822265625,-22.90234375
0.0215,-4.8046875,24.423828125,-19.859375
0.022,-11.05078125,26.1455078125,-16.65625
0.0225,-16.65625,26.1455078125,-11.2509765625
0.023,-19.0986328125,25.2646484375,-6.6865234375
0.0235,-21.62109375,24.103515625,-3.04296875
0.024,-24.18359375,21.5009765625,2.2421875
0.0245,-26.3056640625,18.09765625,7.84765625
0.025,-25.9853515625,12.8525390625,11.53125
0.0255,-26.7060546875,9.849609375,16.5361328125
0.026,-25.0244140625,5.4453125,19.37890625
0.0265,-23.54296875,1.0009765625,22.421875
0.027,-20.66015625,-3.9638671875,24.3837890625
0.0275,-16.9765625,-10.1298828125,25.625
0.028,-12.01171875,-14.333984375,26.10546875
0.0285,-8.16796875,-18.0576171875,25.9453125
0.029,-4.1240234375,-20.2197265625,24.103515625
0.0295,1.5615234375,-23.1826171875,21.5810546875
0.03,6.56640625,-24.7841796875,18.2578125
0.0305,12.5322265625,-25.705078125,13.29296875
0.031,16.17578125,-25.8251953125,9.9296875
0.0315,19.8193359375,-24.6240234375,3.84375
0.032,22.1416015625,-23.1025390625,0.0
0.0325,24.4638671875,-20.4599609375,-5.125
0.033,26.4658203125,-16.7763671875,-9.609375
0.0335,25.6650390625,-11.6513671875,-14.0537109375
0.034,26.185546875,-8.80859375,-17.4169921875
0.0345,23.0625,-4.404296875,-19.9794921875
0.035,22.58203125,0.4404296875,-23.0224609375
0.0355,19.37890625,5.4853515625,-24.8642578125
0.036,15.0947265625,11.69140625,-26.74609375
0.0365,10.7705078125,15.21484375,-26.0654296875
0.037,6.646484375,18.7783203125,-25.384765625
0.0375,2.642578125,20.66015625,-23.3427734375
0.038,-2.6826171875,23.462890625,-20.98046875
0.0385,-8.248046875,25.0244140625,-17.0966796875
0.039,-13.7734375,25.3447265625,-11.9716796875
0.0395,-16.9365234375,25.5849609375,-9.0888671875
0.04,-20.3798828125,23.943359375,-4.083984375
0.0405,-22.6220703125,22.1416015625,0.0400390625
0.041,-24.5439453125,19.1787109375,4.96484375
0.0415,-26.3056640625,15.0947265625,10.8505859375
0.042,-25.3046875,10.2900390625,14.7744140625
0.0425,-25.5048828125,7.3271484375,18.017578125
0.043,-23.462890625,2.9228515625,20.3798828125
0.0435,-23.0625,-1.9619140625,23.5830078125
0.044,-17.9775390625,-7.1669921875,24.984375
0.0445,-13.61328125,-12.892578125,26.265625
0.045,-9.8896484375,-15.9755859375,25.5849609375
0.0455,-5.0849609375,-19.458984375,23.0625
0.046,-0.80078125,-21.30078125,21.94140625
0.0465,4.2041015625,-23.8232421875,19.5791015625
0.047,10.1298828125,-25.14453125,15.0947265625
0.0475,14.7744140625,-24.8642578125,8.96875
0.048,17.857421875,-25.1044921875,7.5673828125
0.0485,20.98046875,-23.142578125,2.40234375
0.049,23.4228515625,-21.220703125,-2.0419921875
0.0495,24.6640625,-17.77734375,-6.8466796875
0.05,26.10546875,-13.61328125,-12.412109375
0.0505,24.984375,-9.3291015625,-15.6552734375
0.051,24.7841796875,-5.8857421875,-18.9384765625
0.0515,22.501953125,-1.5615234375,-21.0205078125
0.052,20.7001953125,3.443359375,-24.18359375
0.0525,16.17578125,8.888671875,-25.0244140625
0.053,11.8515625,13.8935546875,-25.7451171875
0.0535,8.80859375,16.576171875,-25.3447265625
0.054,3.68359375,19.8193359375,-23.462890625
0.0545,-0.6005859375,21.6611328125,-21.140625
0.055,-5.4853515625,23.703125,-18.41796875
0.0555,-11.451171875,25.0244140625,-13.93359375
0.056,-16.65625,24.2236328125,-9.3291015625
0.0565,-18.41796875,24.3837890625,-6.5263671875
0.057,-20.98046875,22.1015625,-1.681640625
0.0575,-23.5830078125,20.0595703125,3.04296875
0.058,-24.2236328125,16.0556640625,7.8076171875
0.0585,-25.4248046875,12.2119140625,12.97265625
0.059,-24.50390625,8.5283203125,15.775390625
0.0595,-23.8232421875,4.5244140625,19.1787109375
0.06,-21.62109375,0.400390625,21.1005859375
0.0605,-19.5791015625,-4.7646484375,24.1435546875
0.061,-15.0146484375,-10.08984375,24.904296875
0.0615,-10.6103515625,-14.4140625,24.82421875
0.062,-7.84765625,-17.0166015625,24.6240234375
0.0625,-2.2822265625,-19.9794921875,22.1015625
0.063,1.9619140625,-22.0615234375,20.01953125
0.0635,7.126953125,-23.54296875,16.3759765625
0.064,12.4921875,-24.82421875,12.5322265625
0.0645,15.9755859375,-23.8232421875,8.0078125
0.065,19.05859375,-23.6630859375,4.8447265625
0.0655,21.380859375,-21.2607421875,0.0400390625
0.066,24.0634765625,-19.0185546875,-4.9248046875
0.0665,24.2236328125,-14.4541015625,-9.609375
0.067,25.064453125,-10.8505859375,-14.1337890625
0.0675,24.3037109375,-8.96875,-16.6162109375
0.068,22.90234375,-3.123046875,-19.8994140625
0.0685,20.740234375,1.201171875,-21.94140625
0.069,17.77734375,6.6865234375,-24.423828125
0.0695,13.453125,11.69140625,-25.14453125
0.07,9.12890625,15.4150390625,-24.50390625
0.0705,6.3662109375,17.8173828125,-24.18359375
0.071,0.9609375,19.21875,-21.5009765625
0.0715,-3.68359375,22.822265625,-19.37890625
0.072,-9.12890625,23.623046875,-14.734375
0.0725,-13.7734375,24.6640625,-11.37109375
0.073,-16.81640625,23.5830078125,-7.287109375
0.0735,-19.8994140625,22.7421875,-3.4033203125
0.074,-21.94140625,20.3798828125,1.1611328125
0.0745,-24.4638671875,17.5771484375,6.5263671875
0.075,-24.3037109375,12.97265625,11.05078125
0.0755,-24.6640625,9.4091796875,15.0546875
0.076,-24.0234375,6.486328125,17.376953125
0.0765,-22.1416015625,1.44140625,20.580078125
0.077,-19.9794921875,-3.04296875,22.822265625
0.0775,-16.0556640625,-8.6484375,24.50390625
0.078,-12.4921875,-12.9326171875,25.14453125
0.0785,-7.9677734375,-16.2958984375,24.0234375
0.079,-4.564453125,-18.73828125,21.78125
0.0795,0.80078125,-21.2607421875,20.3798828125
0.08,5.845703125,-23.6630859375,17.8974609375
0.0805,11.05078125,-23.8232421875,12.7724609375
0.081,15.0146484375,-24.583984375,9.7294921875
0.0815,17.857421875,-23.5029296875,5.8056640625
0.082,20.900390625,-22.021484375,1.361328125
0.0825,22.7822265625,-19.458984375,-3.1630859375
0.083,24.82421875,-16.015625,-8.6884765625
0.0835,24.50390625,-11.771484375,-12.732421875
0.084,23.0625,-8.16796875,-16.2158203125
0.0845,23.462890625,-6.40625,-18.337890625
0.085,21.3408203125,0.080078125,-21.4609375
0.0855,18.7783203125,5.0048828125,-23.783203125
0.086,12.8125,10.4501953125,-24.583984375
0.0865,11.130859375,12.8125,-25.1845703125
0.087,6.646484375,17.056640625,-23.703125
0.0875,2.8828125,19.37890625,-22.26171875
0.088,-1.9619140625,21.5810546875,-19.7392578125
0.0885,-7.6474609375,23.86328125,-16.576171875
0.089,-12.2919921875,23.5029296875,-11.6513671875
0.0895,-15.85546875,23.9833984375,-8.6484375
0.09,-18.2978515625,22.7822265625,-5.0048828125
0.0905,-21.1005859375,21.060546875,-0.48046875
0.091,-22.8623046875,18.2177734375,4.244140625
0.0915,-24.18359375,14.25390625,9.5693359375
0.092,-24.18359375,10.7705078125,13.0927734375
0.0925,-23.5029296875,6.9267578125,16.3759765625
0.093,-22.421875,2.5625,18.41796875
0.0935,-20.419921875,-1.041015625,21.2607421875
0.094,-17.45703125,-7.6875,23.703125
0.0945,-12.7724609375,-11.130859375,23.703125
0.095,-10.169921875,-14.3740234375,24.3037109375
0.0955,-5.8056640625,-17.0166015625,22.6220703125
0.096,-1.521484375,-19.4990234375,20.8203125
0.0965,2.8828125,-21.4208984375,18.498046875
0.097,8.80859375,-23.4228515625,14.654296875
0.0975,12.5322265625,-23.0224609375,10.5703125
0.098,16.095703125,-23.142578125,7.2470703125
0.0985,18.2578125,-21.9013671875,3.923828125
0.099,21.0205078125,-19.9794921875,-0.80078125
0.0995,22.7021484375,-16.9765625,-5.60546875
0.1,23.3828125,-12.8525390625,-10.4501953125
0.1005,23.7431640625,-10.169921875,-13.5732421875
0.101,22.7021484375,-6.24609375,-16.5361328125
0.1015,21.4609375,-2.802734375,-18.73828125
0.102,19.458984375,1.8818359375,-21.3408203125
0.1025,16.015625,7.6474609375,-23.6630859375
0.103,10.25,11.69140625,-23.302734375
0.1035,9.0087890625,14.814453125,-23.7431640625
0.104,4.96484375,17.056640625,-22.021484375
0.1045,0.5205078125,19.69921875,-20.2998046875
0.105,-4.083984375,21.380859375,-17.4970703125
0.1055,-9.9296875,23.0224609375,-13.4130859375
0.106,-13.1728515625,22.7822265625,-10.0498046875
0.1065,-16.576171875,22.501953125,-7.6875
0.107,-18.578125,21.140625,-3.04296875
0.1075,-21.1806640625,19.1787109375,1.6416015625
0.108,-22.7822265625,15.6552734375,6.806640625
0.1085,-23.0224609375,11.451171875,11.2509765625
0.109,-23.4228515625,9.12890625,14.1337890625
0.1095,-22.1015625,5.0048828125,16.9365234375
0.11,-20.7802734375,1.12109375,19.5390625
0.1105,-18.498046875,-3.5234375,20.5
0.111,-14.734375,-9.2490234375,23.86328125
0.1115,-10.5302734375,-12.732421875,23.0224609375
0.112,-7.4072265625,-15.935546875,23.1025390625
0.1125,-3.203125,-18.017578125,20.98046875
0.113,1.361328125,-20.7802734375,19.2587890625
0.1135,6.326171875,-22.0615234375,15.6552734375
0.114,10.25,-23.1025390625,11.69140625
0.1145,14.4541015625,-22.9423828125,8.6884765625
0.115,17.8173828125,-22.0615234375,4.5244140625
0.1155,19.8994140625,-20.3798828125,0.720703125
0.116,22.1416015625,-18.09765625,-3.8837890625
0.1165,23.462890625,-14.2939453125,-9.12890625
0.117,23.142578125,-10.1298828125,-12.97265625
0.1175,23.4228515625,-7.8076171875,-15.6552734375
0.118,21.5810546875,-3.3232421875,-18.2578125
0.1185,20.1396484375,0.9609375,-21.1005859375
0.119,16.736328125,5.8056640625,-22.58203125
0.1195,13.0927734375,11.1708984375,-24.263671875
0.12,9.2890625,12.8125,-23.3427734375
0.1205,5.685546875,17.13671875,-22.8623046875
0.121,1.5615234375,18.9384765625,-20.6201171875
0.1215,-3.1630859375,21.62109375,-18.6982421875
0.122,-8.4482421875,22.5419921875,-14.3740234375
0.1225,-13.052734375,21.78125,-10.3701171875
0.123,-15.6953125,23.1025390625,-7.84765625
0.1235,-18.7783203125,21.4609375,-3.1630859375
0.124,-20.8203125,19.619140625,0.80078125
0.1245,-22.4619140625,15.375,5.4853515625
0.125,-23.703125,13.0126953125,10.41015625
0.1255,-22.982421875,7.6875,13.8134765625
0.126,-24.34375,6.326171875,16.576171875
0.1265,-20.8603515625,1.921875,18.8583984375
0.127,-19.458984375,-2.6025390625,21.861328125
0.1275,-16.65625,-7.5673828125,22.7021484375
0.128,-11.8916015625,-12.2119140625,23.86328125
0.1285,-8.4482421875,-14.9345703125,23.1025390625
0.129,-4.00390625,-19.21875,21.701171875
0.1295,0.0400390625,-19.6591796875,19.458984375
0.13,4.8447265625,-21.9814453125,17.13671875
0.1305,10.009765625,-22.7822265625,12.8525390625
0.131,13.853515625,-22.6220703125,8.9287109375
0.1315,16.5361328125,-22.7421875,6.4462890625
0.132,19.2587890625,-20.740234375,1.681640625
0.1325,21.541015625,-18.7783203125,-2.6025390625
0.133,22.4619140625,-15.21484375,-7.1669921875
0.1335,23.623046875,-11.8916015625,-11.69140625
0.134,22.7021484375,-8.2080078125,-14.4541015625
0.1345,22.3017578125,-4.96484375,-17.3369140625
0.135,20.1796875,-0.80078125,-19.37890625
0.1355,18.2978515625,4.1640625,-22.501953125
0.136,13.853515625,9.048828125,-22.90234375
0.1365,10.41015625,13.0126953125,-23.4228515625
0.137,7.6474609375,14.09375,-23.0224609375
0.1375,2.802734375,18.1376953125,-21.1005859375
0.138,-1.12109375,20.0595703125,-19.05859375
0.1385,-6.326171875,21.861328125,-15.8154296875
0.139,-11.05078125,22.822265625,-12.1318359375
0.1395,-14.4140625,22.26171875,-8.248046875
0.14,-17.13671875,22.1015625,-5.4453125
0.1405,-19.4990234375,20.0595703125,-1.041015625
0.141,-22.021484375,17.857421875,3.8037109375
0.1415,-22.341796875,13.693359375,8.328125
0.142,-23.3427734375,10.73046875,12.3720703125
0.1425,-22.58203125,7.4072265625,14.9345703125
0.143,-21.62109375,3.5634765625,16.65625
0.1435,-19.69921875,-0.560546875,20.01953125
0.144,-17.0966796875,-5.845703125,22.7421875
0.1445,-13.0126953125,-10.3701171875,23.142578125
0.145,-9.2890625,-13.9736328125,22.9423828125
0.1455,-6.486328125,-16.2958984375,22.421875
0.146,-1.3212890625,-19.0185546875,20.1796875
0.1465,3.04296875,-21.1005859375,18.0576171875
0.147,8.408203125,-22.26171875,13.853515625
0.1475,12.4921875,-23.22265625,10.890625
0.148,15.775390625,-22.421875,6.806640625
0.1485,18.4580078125,-21.7412109375,3.5234375
0.149,20.740234375,-19.5390625,-1.0009765625
0.1495,23.142578125,-16.81640625,-6.24609375
0.15,22.982421875,-12.412109375,-10.5302734375
0.1505,23.703125,-9.529296875,-14.2138671875
0.151,22.7822265625,-6.24609375,-16.6162109375
0.1515,21.220703125,-1.681640625,-19.6591796875
0.152,19.05859375,2.802734375,-21.8212890625
0.1525,15.294921875,8.48828125,-23.8232421875
0.153,11.69140625,12.3720703125,-24.1435546875
0.1535,7.7275390625,15.8154296875,-23.623046875
0.154,4.484375,16.65625,-22.421875
0.1545,-0.720703125,20.6201171875,-20.01953125
0.155,-5.7255859375,22.7822265625,-17.296875
0.1555,-11.05078125,23.22265625,-12.4921875
0.156,-14.57421875,23.9033203125,-9.76953125
0.1565,-17.7373046875,22.7421875,-5.4853515625
0.157,-20.2998046875,21.30078125,-1.521484375
0.1575,-22.26171875,18.8583984375,3.04296875
0.158,-25.625,15.3349609375,8.6884765625
0.1585,-23.8232421875,10.9306640625,12.6123046875
0.159,-24.1435546875,7.84765625,16.0556640625
0.1595,-22.7421875,4.244140625,18.2578125
0.16,-20.900390625,-0.640625,21.3408203125
0.1605,-18.1376953125,-5.4453125,23.3828125
0.161,-13.853515625,-11.0908203125,24.6640625
0.1615,-10.5703125,-14.3740234375,24.583984375
0.162,-6.005859375,-17.6572265625,23.4228515625
0.1625,-2.0419921875,-19.6591796875,21.5009765625
0.163,2.8427734375,-22.1015625,17.9375
0.1635,8.48828125,-24.0234375,15.5751953125
0.164,13.1728515625,-23.7431640625,10.7705078125
0.1645,16.49609375,-24.263671875,8.0078125
0.165,19.4189453125,-22.58203125,3.4833984375
0.1655,22.021484375,-20.8203125,-1.0009765625
0.166,23.54296875,-17.857421875,-5.525390625
0.1665,25.14453125,-13.93359375,-11.130859375
0.167,24.3837890625,-9.8896484375,-14.494140625
0.1675,24.2236328125,-6.486328125,-17.77734375
0.168,22.3017578125,-2.6025390625,-19.8193359375
0.1685,20.419921875,2.322265625,-22.8623046875
0.169,16.6962890625,7.7275390625,-24.583984375
0.1695,12.2119140625,12.8525390625,-25.1044921875
0.17,9.3291015625,15.7353515625,-25.064453125
0.1705,4.5244140625,18.8984375,-23.3828125
0.171,0.3203125,20.8603515625,-21.2607421875
0.1715,-4.484375,22.9423828125,-18.6982421875
0.172,-10.5302734375,24.6640625,-14.4541015625
0.1725,-14.654296875,23.9833984375,-9.7294921875
0.173,-17.77734375,24.3037109375,-7.0068359375
0.1735,-20.419921875,22.181640625,-2.2822265625
0.174,-22.982421875,20.2197265625,2.322265625
0.1745,-24.0234375,16.6162109375,7.0869140625
0.175,-25.3046875,12.5322265625,12.4521484375
0.1755,-24.5439453125,8.9287109375,15.4150390625
0.176,-23.9833984375,5.0048828125,18.7783203125
0.1765,-23.0625,0.9208984375,20.7001953125
0.177,-19.859375,-4.083984375,23.703125
0.1775,-15.615234375,-9.6494140625,25.0244140625
0.178,-11.0908203125,-14.173828125,25.0244140625
0.1785,-8.2880859375,-16.896484375,24.984375
0.179,-2.8427734375,-19.8994140625,22.501953125
0.1795,1.681640625,-22.0615234375,20.259765625
0.18,6.5263671875,-23.6630859375,17.1767578125
0.1805,12.33203125,-25.14453125,12.97265625
0.181,15.9755859375,-24.18359375,8.4482421875
0.1815,17.9375,-24.18359375,5.2451171875
0.182,21.62109375,-21.7412109375,0.4404296875
0.1825,24.263671875,-19.458984375,-4.6044921875
0.183,24.744140625,-15.2548828125,-9.4091796875
0.1835,24.34375,-11.3310546875,-14.2939453125
0.184,24.8642578125,-8.0478515625,-16.896484375
0.1845,23.5830078125,-3.5234375,-20.259765625
0.185,21.220703125,0.9208984375,-22.2216796875
0.1855,18.578125,6.2861328125,-24.9443359375
0.186,14.1337890625,11.7314453125,-25.9052734375
0.1865,9.529296875,15.775390625,-25.2646484375
0.187,6.7666015625,18.337890625,-25.064453125
0.1875,1.12109375,21.140625,-22.26171875
0.188,-3.603515625,23.3828125,-19.939453125
0.1885,-8.888671875,23.0625,-15.7353515625
0.189,-14.1337890625,24.34375,-11.931640625
0.1895,-17.3369140625,24.423828125,-7.5673828125
0.19,-20.6201171875,23.8232421875,-3.7236328125
0.1905,-22.6220703125,21.140625,1.041015625
0.191,-25.3046875,18.4580078125,6.4462890625
0.1915,-25.2646484375,13.7734375,11.2509765625
0.192,-25.7451171875,9.8896484375,15.6552734375
0.1925,-24.984375,6.7265625,18.0576171875
0.193,-23.1025390625,1.6416015625,21.3408203125
0.1935,-20.66015625,-3.04296875,23.4228515625
0.194,-17.216796875,-8.568359375,25.5048828125
0.1945,-13.052734375,-13.4130859375,26.265625
0.195,-8.2880859375,-17.0166015625,25.064453125
0.1955,-5.044921875,-19.5390625,24.3837890625
0.196,0.6806640625,-22.0615234375,21.30078125
0.1965,5.765625,-24.50390625,18.7783203125
0.197,11.130859375,-24.744140625,13.7333984375
0.1975,15.6552734375,-25.7451171875,10.2900390625
0.198,18.73828125,-24.4638671875,6.0859375
0.1985,21.861328125,-23.1826171875,1.6015625
0.199,23.703125,-20.33984375,-3.1630859375
0.1995,25.9853515625,-17.0966796875,-8.728515625
0.2,24.34375,-12.412109375,-13.1328125
0.2005,24.34375,-8.6484375,-17.0166015625
0.201,24.7041015625,-5.5654296875,-19.2587890625
0.2015,22.421875,-0.1201171875,-22.421875
0.202,19.7392578125,4.8447265625,-24.6240234375
0.2025,15.134765625,10.6103515625,-25.78515625
0.203,11.69140625,14.7744140625,-26.505859375
0.2035,7.0068359375,18.09765625,-25.0244140625
0.204,3.3232421875,20.4599609375,-23.783203125
0.2045,-2.0419921875,22.7021484375,-20.8203125
0.205,-7.52734375,25.1044921875,-17.857421875
0.2055,-12.7724609375,24.8642578125,-12.4521484375
0.206,-17.9375,25.46484375,-9.2490234375
0.2065,-19.4990234375,24.18359375,-5.205078125
0.207,-22.421875,22.4619140625,-0.560546875
0.2075,-24.1435546875,19.4189453125,4.32421875
0.208,-25.9052734375,15.53515625,10.0498046875
0.2085,-25.6650390625,11.2509765625,12.8125
0.209,-25.224609375,7.3271484375,17.697265625
0.2095,-24.1435546875,4.0439453125,19.8994140625
0.21,-23.0625,-2.5625,22.90234375
0.2105,-18.8583984375,-6.646484375,25.3046875
0.211,-13.8134765625,-12.1318359375,25.705078125
0.2115,-10.73046875,-15.7353515625,26.265625
0.212,-5.8857421875,-18.8583984375,24.50390625
0.2125,-1.4814453125,-21.3408203125,22.662109375
0.213,3.443359375,-23.3427734375,19.8994140625
0.2135,9.6494140625,-25.5849609375,16.0556640625
0.214,14.173828125,-24.984375,11.05078125
0.2145,18.017578125,-25.4248046875,7.7275390625
0.215,20.66015625,-23.86328125,3.5234375
0.2155,23.5830078125,-21.7412109375,-1.5615234375
0.216,25.064453125,-18.41796875,-6.486328125
0.2165,26.265625,-15.375,-12.171875
0.217,26.025390625,-10.41015625,-15.6552734375
0.2175,25.1845703125,-6.1259765625,-20.5
0.218,23.54296875,-2.2822265625,-21.30078125
