wavelength,x,y,z
0.0,9.5743408203125,-21.776245117188,12.657348632812
0.0005,13.177856445312,-20.975463867188,8.3731689453125
0.001,16.901489257812,-19.694213867188,3.6485595703125
0.0015,20.184692382812,-18.132690429688,-1.2362060546875
0.002,22.266723632812,-16.370971679688,-4.9998779296875
0.0025,22.346801757812,-13.768432617188,-7.6824951171875
0.003,22.026489257812,-10.204956054688,-10.885620117188
0.0035,21.225708007812,-5.6405029296875,-14.769409179688
0.004,20.184692382812,-1.0360107421875,-18.332885742188
0.0045,18.543090820312,3.2882080078125,-21.015502929688
0.005,16.581176757812,6.2911376953125,-22.096557617188
0.0055,13.818481445312,9.2540283203125,-22.296752929688
0.006,9.2139892578125,12.817504882812,-21.495971679688
0.0065,4.1290283203125,16.501098632812,-20.214721679688
0.007,-1.1561279296875,19.864379882812,-18.573120117188
0.0075,-5.2801513671875,21.786254882812,-16.731323242188
0.008,-7.8426513671875,21.906372070312,-14.409057617188
0.0085,-10.885620117188,21.746215820312,-11.446166992188
0.009,-14.889526367188,20.905395507812,-6.5614013671875
0.0095,-18.453002929688,19.303833007812,-1.7967529296875
0.01,-21.375854492188,17.542114257812,2.8477783203125
0.0105,-22.737182617188,15.540161132812,6.1710205078125
0.011,-22.697143554688,12.657348632812,8.9737548828125
0.0115,-22.136596679688,8.5733642578125,12.617309570312
0.012,-21.135620117188,3.9688720703125,16.180786132812
0.0125,-19.974487304688,-0.6756591796875,19.704223632812
0.013,-18.212768554688,-4.7996826171875,22.066528320312
0.0135,-15.850463867188,-7.4422607421875,22.426879882812
0.014,-12.887573242188,-10.405151367188,22.466918945312
0.0145,-7.6024169921875,-14.449096679688,21.385864257812
0.015,-2.4373779296875,-17.852416992188,19.824340820312
0.0155,2.5274658203125,-20.655151367188,17.982543945312
0.016,6.0909423828125,-22.256713867188,16.260864257812
0.0165,8.8135986328125,-22.056518554688,13.578247070312
0.017,12.136840820312,-21.536010742188,9.9346923828125
0.0175,15.980590820312,-20.454956054688,5.2501220703125
0.018,19.504028320312,-18.853393554688,0.2052001953125
0.0185,21.866333007812,-17.011596679688,-3.9188232421875
0.019,22.466918945312,-14.769409179688,-6.7615966796875
0.0195,22.386840820312,-11.726440429688,-9.7244873046875
0.02,21.626098632812,-7.0418701171875,-13.728393554688
0.0205,20.505004882812,-2.7576904296875,-16.971557617188
0.021,19.263793945312,1.6466064453125,-20.054565429688
0.0215,17.622192382812,5.3302001953125,-22.136596679688
0.022,14.739379882812,7.9727783203125,-21.976440429688
0.0225,11.456176757812,11.055786132812,-21.816284179688
0.023,6.0108642578125,15.299926757812,-20.815307617188
0.0235,0.6856689453125,18.703247070312,-19.133666992188
0.024,-3.5985107421875,20.945434570312,-17.331909179688
0.0245,-6.6815185546875,21.946411132812,-15.650268554688
0.025,-9.5242919921875,21.706176757812,-12.727416992188
0.0255,-13.207885742188,20.905395507812,-8.4832763671875
0.026,-16.811401367188,19.864379882812,-3.9588623046875
0.0265,-20.294799804688,18.262817382812,1.1260986328125
0.027,-22.216674804688,16.380981445312,4.8497314453125
0.0275,-22.336791992188,13.778442382812,7.4923095703125
0.028,-22.256713867188,10.615356445312,10.575317382812
0.0285,-21.175659179688,5.4903564453125,14.779418945312
0.029,-20.214721679688,1.0860595703125,18.222778320312
0.0295,-18.733276367188,-3.0379638671875,20.825317382812
0.03,-16.971557617188,-6.3612060546875,22.426879882812
0.0305,-13.848510742188,-9.1239013671875,22.146606445312
0.031,-9.6844482421875,-12.527221679688,21.626098632812
0.0315,-4.5994873046875,-16.370971679688,20.424926757812
0.032,0.9659423828125,-19.774291992188,18.623168945312
0.0325,4.8096923828125,-21.536010742188,16.781372070312
0.033,7.6124267578125,-22.136596679688,14.579223632812
0.0335,10.575317382812,-21.816284179688,11.696411132812
0.034,14.859497070312,-20.615112304688,6.4512939453125
0.0345,18.222778320312,-19.373901367188,1.9669189453125
0.035,21.145629882812,-17.772338867188,-2.5574951171875
0.0355,22.546997070312,-15.810424804688,-5.8406982421875
0.036,22.186645507812,-12.767456054688,-8.5233154296875
0.0365,21.986450195312,-9.1639404296875,-11.846557617188
0.037,21.025512695312,-4.2791748046875,-15.890502929688
0.0375,19.784301757812,0.4454345703125,-19.293823242188
0.038,18.062622070312,4.1290283203125,-21.375854492188
0.0385,15.980590820312,7.0919189453125,-22.296752929688
0.039,12.777465820312,10.014770507812,-22.096557617188
0.0395,7.3721923828125,14.218872070312,-21.015502929688
0.04,2.6876220703125,17.462036132812,-19.814331054688
0.0405,-2.5574951171875,20.585083007812,-18.012573242188
0.041,-5.9608154296875,22.026489257812,-16.130737304688
0.0415,-8.6834716796875,21.746215820312,-13.608276367188
0.042,-11.686401367188,21.546020507812,-10.525268554688
0.0425,-16.050659179688,20.224731445312,-5.0399169921875
0.043,-19.494018554688,18.623168945312,-0.1551513671875
0.0435,-21.736206054688,16.941528320312,3.8087158203125
0.044,-22.697143554688,14.859497070312,6.7716064453125
0.0445,-22.176635742188,11.576293945312,9.6143798828125
0.045,-21.576049804688,7.1319580078125,13.458129882812
0.0455,-20.615112304688,2.8077392578125,16.941528320312
0.046,-19.293823242188,-1.8768310546875,20.224731445312
0.0465,-17.452026367188,-5.3201904296875,21.866333007812
0.047,-14.929565429688,-7.9627685546875,22.066528320312
0.0475,-11.766479492188,-10.925659179688,21.946411132812
0.048,-5.7606201171875,-15.410034179688,20.464965820312
0.0485,-0.9158935546875,-18.533081054688,18.983520507812
0.049,3.3282470703125,-20.815307617188,17.381958007812
0.0495,6.5313720703125,-21.856323242188,15.500122070312
0.05,9.2540283203125,-21.295776367188,12.417114257812
0.0505,12.737426757812,-20.815307617188,8.6534423828125
0.051,16.581176757812,-19.654174804688,3.8487548828125
0.0515,19.864379882812,-17.972534179688,-1.1561279296875
0.052,21.465942382812,-16.250854492188,-4.3592529296875
0.0525,21.826293945312,-14.088745117188,-7.1219482421875
0.053,21.465942382812,-10.765502929688,-9.8045654296875
0.0535,20.665161132812,-5.7606201171875,-14.088745117188
0.054,19.664184570312,-1.6766357421875,-17.131713867188
0.0545,18.422973632812,2.3673095703125,-19.934448242188
0.055,16.621215820312,5.5303955078125,-21.335815429688
0.0555,13.578247070312,8.1329345703125,-21.015502929688
0.056,10.134887695312,11.376098632812,-20.895385742188
0.0565,4.5694580078125,15.500122070312,-19.694213867188
0.057,-0.6356201171875,18.703247070312,-17.972534179688
0.0575,-3.9188232421875,20.344848632812,-16.531127929688
0.058,-6.7215576171875,21.105590820312,-14.729370117188
0.0585,-9.5643310546875,20.625122070312,-11.726440429688
0.059,-13.528198242188,19.784301757812,-6.9217529296875
0.0595,-17.011596679688,18.743286132812,-2.5975341796875
0.06,-20.014526367188,17.141723632812,1.9268798828125
0.0605,-21.095581054688,15.299926757812,4.8497314453125
0.061,-21.135620117188,12.657348632812,7.5323486328125
0.0615,-21.015502929688,9.4942626953125,10.575317382812
0.062,-20.174682617188,4.4893798828125,14.739379882812
0.0625,-18.973510742188,0.1251220703125,17.982543945312
0.063,-17.692260742188,-3.3582763671875,20.184692382812
0.0635,-16.010620117188,-6.2410888671875,21.345825195312
0.064,-12.447143554688,-8.9237060546875,20.785278320312
0.0645,-8.1229248046875,-12.847534179688,20.264770507812
0.065,-3.2381591796875,-16.491088867188,19.223754882812
0.0655,1.9268798828125,-19.494018554688,17.381958007812
0.066,4.8497314453125,-20.655151367188,15.860473632812
0.0665,7.6124267578125,-20.975463867188,13.618286132812
0.067,10.575317382812,-20.575073242188,10.535278320312
0.0675,14.859497070312,-19.413940429688,5.2501220703125
0.068,18.142700195312,-18.172729492188,0.8057861328125
0.0685,20.505004882812,-16.651245117188,-2.9178466796875
0.069,21.265747070312,-14.649291992188,-5.7205810546875
0.0695,20.825317382812,-11.526245117188,-8.4832763671875
0.07,20.464965820312,-7.6824951171875,-11.966674804688
0.0705,19.704223632812,-3.1981201171875,-15.690307617188
0.071,18.503051757812,1.2462158203125,-18.853393554688
0.0715,16.861450195312,4.2891845703125,-20.334838867188
0.072,14.779418945312,7.0118408203125,-20.775268554688
0.0725,11.336059570312,9.9346923828125,-20.655151367188
0.073,5.8106689453125,14.138793945312,-19.574096679688
0.0735,1.2462158203125,17.502075195312,-18.453002929688
0.074,-3.1180419921875,19.984497070312,-16.891479492188
0.0745,-5.8406982421875,20.785278320312,-15.169799804688
0.075,-8.6434326171875,20.505004882812,-12.367065429688
0.0755,-11.846557617188,20.144653320312,-8.9237060546875
0.076,-15.850463867188,18.903442382812,-3.9188232421875
0.0765,-19.093627929688,17.341918945312,0.9259033203125
0.077,-20.735229492188,15.740356445312,4.0889892578125
0.0775,-21.295776367188,13.538208007812,6.7315673828125
0.078,-20.775268554688,10.295043945312,9.5343017578125
0.0785,-20.054565429688,5.7305908203125,13.418090820312
0.079,-19.213745117188,1.5665283203125,16.781372070312
0.0795,-18.012573242188,-2.5975341796875,19.704223632812
0.08,-16.050659179688,-5.4403076171875,20.625122070312
0.0805,-13.528198242188,-8.0428466796875,20.785278320312
0.081,-10.004760742188,-11.245971679688,20.464965820312
0.0815,-4.3592529296875,-15.249877929688,19.023559570312
0.082,0.4854736328125,-18.252807617188,17.502075195312
0.0825,3.8887939453125,-20.054565429688,16.140747070312
0.083,6.6514892578125,-20.655151367188,14.218872070312
0.0835,9.6544189453125,-19.974487304688,11.015747070312
0.084,13.137817382812,-19.413940429688,6.8917236328125
0.0845,16.661254882812,-18.332885742188,2.4473876953125
0.085,19.504028320312,-16.691284179688,-2.0369873046875
0.0855,20.464965820312,-15.009643554688,-4.5994873046875
0.086,20.625122070312,-12.527221679688,-7.2020263671875
0.0865,20.184692382812,-9.1639404296875,-10.244995117188
0.087,19.343872070312,-4.4793701171875,-14.128784179688
0.0875,18.342895507812,-0.3953857421875,-17.251831054688
0.088,17.261840820312,3.0479736328125,-19.534057617188
0.0885,15.259887695312,5.6905517578125,-20.214721679688
0.089,12.216918945312,8.2930908203125,-19.934448242188
0.0895,8.0528564453125,12.016723632812,-19.534057617188
0.09,3.0479736328125,15.700317382812,-18.332885742188
0.0905,-1.7166748046875,18.503051757812,-16.691284179688
0.091,-4.4393310546875,19.664184570312,-15.329956054688
0.0915,-7.0418701171875,20.064575195312,-13.247924804688
0.092,-9.9246826171875,19.504028320312,-10.124877929688
0.0925,-13.808471679688,18.543090820312,-5.4803466796875
0.093,-17.051635742188,17.421997070312,-1.2362060546875
0.0935,-19.534057617188,15.980590820312,2.6876220703125
0.094,-20.134643554688,14.098754882812,5.0899658203125
0.0945,-20.014526367188,11.296020507812,7.7325439453125
0.095,-19.614135742188,7.6925048828125,11.055786132812
0.0955,-18.933471679688,3.2481689453125,14.779418945312
0.096,-17.772338867188,-0.8758544921875,17.862426757812
0.0965,-16.531127929688,-3.7987060546875,19.423950195312
0.097,-14.609252929688,-6.3612060546875,20.104614257812
0.0975,-11.165893554688,-9.1239013671875,19.504028320312
0.098,-6.4012451171875,-12.967651367188,18.743286132812
0.0985,-1.7567138671875,-16.370971679688,17.662231445312
0.099,2.5274658203125,-18.773315429688,16.140747070312
0.0995,4.9298095703125,-19.453979492188,14.579223632812
0.1,7.5723876953125,-19.534057617188,12.296997070312
0.1005,10.855590820312,-19.053588867188,8.6934814453125
0.101,14.419067382812,-17.972534179688,4.2091064453125
0.1015,17.462036132812,-16.771362304688,0.0450439453125
0.102,19.343872070312,-15.410034179688,-3.0780029296875
0.1025,19.624145507812,-13.328002929688,-5.4803466796875
0.103,19.263793945312,-10.285034179688,-8.2030029296875
0.1035,18.823364257812,-6.2410888671875,-11.846557617188
0.104,18.062622070312,-2.2772216796875,-15.209838867188
0.1045,17.021606445312,1.6466064453125,-17.972534179688
0.105,15.460083007812,4.1690673828125,-19.013549804688
0.1055,13.297973632812,6.8116455078125,-19.494018554688
0.106,9.5743408203125,10.014770507812,-18.973510742188
0.1065,4.7696533203125,13.698364257812,-17.972534179688
0.107,0.2852783203125,16.781372070312,-16.811401367188
0.1075,-3.2381591796875,18.743286132812,-15.530151367188
0.108,-5.6004638671875,19.183715820312,-13.808471679688
0.1085,-8.3231201171875,19.023559570312,-11.165893554688
0.109,-11.966674804688,18.422973632812,-7.1219482421875
0.1095,-15.410034179688,17.421997070312,-2.8377685546875
0.11,-18.132690429688,16.100708007812,1.2862548828125
0.1105,-19.373901367188,14.539184570312,3.8887939453125
0.111,-19.574096679688,12.296997070312,6.4112548828125
0.1115,-19.213745117188,8.8936767578125,9.4542236328125
0.112,-18.533081054688,4.6094970703125,13.057739257812
0.1125,-17.772338867188,0.6456298828125,16.300903320312
0.113,-16.691284179688,-2.9578857421875,18.743286132812
0.1135,-14.809448242188,-5.2801513671875,19.263793945312
0.114,-12.286987304688,-7.8426513671875,19.343872070312
0.1145,-8.0028076171875,-11.526245117188,18.863403320312
0.115,-3.1180419921875,-14.969604492188,17.622192382812
0.1155,1.2462158203125,-17.652221679688,16.220825195312
0.116,4.1290283203125,-19.133666992188,15.019653320312
0.1165,6.5714111328125,-19.333862304688,12.977661132812
0.117,9.5743408203125,-18.933471679688,9.7745361328125
0.1175,13.137817382812,-18.172729492188,5.6104736328125
0.118,16.541137695312,-17.051635742188,1.3262939453125
0.1185,18.863403320312,-15.690307617188,-2.3973388671875
0.119,19.463989257812,-13.848510742188,-4.6795654296875
0.1195,19.423950195312,-11.366088867188,-7.2821044921875
0.12,18.983520507812,-7.4022216796875,-10.765502929688
0.1205,18.262817382812,-3.4783935546875,-14.088745117188
0.121,17.301879882812,0.3653564453125,-16.931518554688
0.1215,16.140747070312,3.5284423828125,-18.933471679688
0.122,13.938598632812,5.9307861328125,-19.173706054688
0.1225,10.855590820312,8.6934814453125,-18.933471679688
0.123,6.2510986328125,12.537231445312,-18.292846679688
0.1235,1.5264892578125,15.820434570312,-17.331909179688
0.124,-2.4373779296875,18.182739257812,-15.730346679688
0.1245,-4.7996826171875,19.023559570312,-14.409057617188
0.125,-7.4022216796875,19.143676757812,-12.166870117188
0.1255,-10.685424804688,18.543090820312,-8.4031982421875
0.126,-14.088745117188,17.662231445312,-4.3592529296875
0.1265,-17.211791992188,16.461059570312,0.0050048828125
0.127,-19.213745117188,15.219848632812,3.3282470703125
0.1275,-19.373901367188,12.977661132812,5.4903564453125
0.128,-19.373901367188,10.174926757812,8.2930908203125
0.1285,-18.813354492188,5.9708251953125,11.976684570312
0.129,-18.132690429688,1.9268798828125,15.299926757812
0.1295,-16.971557617188,-1.7567138671875,17.862426757812
0.13,-15.650268554688,-4.3992919921875,19.183715820312
0.1305,-13.328002929688,-7.0018310546875,19.463989257812
0.131,-9.3240966796875,-10.244995117188,18.903442382812
0.1315,-4.8397216796875,-13.608276367188,18.022583007812
0.132,-0.2352294921875,-16.851440429688,16.741333007812
0.1325,3.3282470703125,-18.773315429688,15.380004882812
0.133,5.6104736328125,-19.093627929688,13.658325195312
0.1335,8.2530517578125,-19.173706054688,11.296020507812
0.134,12.176879882812,-18.412963867188,6.7716064453125
0.1345,15.380004882812,-17.371948242188,2.7276611328125
0.135,18.062622070312,-16.170776367188,-1.1561279296875
0.1355,19.504028320312,-14.689331054688,-3.9989013671875
0.136,19.463989257812,-12.286987304688,-6.4012451171875
0.1365,19.223754882812,-8.8836669921875,-9.6444091796875
0.137,18.583129882812,-4.8397216796875,-13.087768554688
0.1375,17.902465820312,-0.6356201171875,-16.451049804688
0.138,16.621215820312,2.7677001953125,-18.573120117188
0.1385,14.899536132812,5.1700439453125,-19.253784179688
0.139,12.296997070312,7.8126220703125,-19.534057617188
0.1395,7.3721923828125,11.776489257812,-18.693237304688
0.14,3.0479736328125,14.979614257812,-17.652221679688
0.1405,-1.2762451171875,17.742309570312,-16.370971679688
0.141,-4.4393310546875,19.343872070312,-15.049682617188
0.1415,-6.7215576171875,19.223754882812,-12.847534179688
0.142,-9.5643310546875,19.063598632812,-10.084838867188
0.1425,-13.488159179688,18.222778320312,-5.4403076171875
0.143,-16.811401367188,16.981567382812,-1.0360107421875
0.1435,-19.053588867188,15.660278320312,2.5274658203125
0.144,-19.894409179688,13.818481445312,5.1300048828125
0.1445,-19.854370117188,11.175903320312,7.7325439453125
0.145,-19.413940429688,6.9718017578125,11.496215820312
0.1455,-18.613159179688,3.1280517578125,14.659301757812
0.146,-17.692260742188,-0.9158935546875,17.742309570312
0.1465,-16.330932617188,-4.1190185546875,19.624145507812
0.147,-13.968627929688,-6.4813232421875,19.664184570312
0.1475,-11.245971679688,-9.2039794921875,19.704223632812
0.148,-5.9207763671875,-13.368041992188,18.703247070312
0.1485,-1.1561279296875,-16.531127929688,17.301879882812
0.149,2.5675048828125,-18.613159179688,15.940551757812
0.1495,5.4102783203125,-19.774291992188,14.459106445312
0.15,7.9727783203125,-19.494018554688,11.856567382812
0.1505,11.215942382812,-18.933471679688,8.2130126953125
0.151,14.739379882812,-18.092651367188,4.0089111328125
0.1515,17.942504882812,-16.691284179688,-0.5155029296875
0.152,19.664184570312,-15.249877929688,-3.5985107421875
0.1525,19.864379882812,-13.047729492188,-6.0008544921875
0.153,19.784301757812,-10.365112304688,-8.6834716796875
0.1535,19.103637695312,-5.6004638671875,-12.767456054688
0.154,18.222778320312,-1.6766357421875,-15.850463867188
0.1545,17.141723632812,1.9268798828125,-18.292846679688
0.155,15.660278320312,4.9298095703125,-19.894409179688
0.1555,12.817504882812,7.4122314453125,-19.574096679688
0.156,9.2940673828125,10.575317382812,-19.293823242188
0.1565,4.4893798828125,14.338989257812,-18.412963867188
0.157,-0.5155029296875,17.542114257812,-16.851440429688
0.1575,-3.7586669921875,19.183715820312,-15.530151367188
0.158,-6.2811279296875,19.784301757812,-13.808471679688
0.1585,-8.9237060546875,19.584106445312,-11.245971679688
0.159,-12.887573242188,18.703247070312,-6.4813232421875
0.1595,-16.050659179688,17.742309570312,-2.4373779296875
0.16,-18.893432617188,16.340942382812,1.7266845703125
0.1605,-20.254760742188,14.659301757812,4.6094970703125
0.161,-20.134643554688,12.016723632812,7.0919189453125
0.1615,-19.974487304688,8.8536376953125,10.214965820312
0.162,-19.293823242188,4.2491455078125,14.138793945312
0.1625,-18.252807617188,0.0050048828125,17.421997070312
0.163,-16.851440429688,-3.3983154296875,19.423950195312
0.1635,-15.249877929688,-6.1209716796875,20.464965820312
0.164,-12.206909179688,-8.7235107421875,20.224731445312
0.1645,-7.4022216796875,-12.647338867188,19.383911132812
0.165,-2.8778076171875,-15.930541992188,18.382934570312
0.1655,1.9268798828125,-18.893432617188,16.821411132812
0.166,4.9698486328125,-20.134643554688,15.299926757812
0.1665,7.4923095703125,-20.174682617188,12.937622070312
0.167,10.415161132812,-19.894409179688,9.9747314453125
0.1675,14.579223632812,-18.893432617188,4.9698486328125
0.168,17.862426757812,-17.572143554688,0.4854736328125
0.1685,19.984497070312,-16.170776367188,-3.0379638671875
0.169,20.785278320312,-14.248901367188,-5.8006591796875
0.1695,20.424926757812,-11.165893554688,-8.4832763671875
0.17,19.984497070312,-7.0819091796875,-12.126831054688
0.1705,19.223754882812,-2.9178466796875,-15.570190429688
0.171,18.102661132812,1.4063720703125,-18.733276367188
0.1715,16.380981445312,4.5694580078125,-20.214721679688
0.172,14.098754882812,7.1719970703125,-20.575073242188
0.1725,11.015747070312,10.054809570312,-20.454956054688
0.173,5.2901611328125,14.379028320312,-19.213745117188
0.1735,0.6856689453125,17.462036132812,-17.932495117188
0.174,-3.3182373046875,19.824340820312,-16.451049804688
0.1745,-6.2010498046875,20.745239257812,-14.809448242188
0.175,-8.9237060546875,20.184692382812,-11.966674804688
0.1755,-12.206909179688,19.864379882812,-8.3231201171875
0.176,-16.090698242188,18.823364257812,-3.5584716796875
0.1765,-19.413940429688,17.141723632812,1.4063720703125
0.177,-20.935424804688,15.500122070312,4.4093017578125
0.1775,-21.415893554688,13.297973632812,7.1319580078125
0.178,-21.015502929688,10.094848632812,9.9346923828125
