wavelength,x,y,z
0.0,-3.433349609375,5.495361328125,-1.151123046875
0.0005,-2.072021484375,5.735595703125,-2.672607421875
0.001,-0.950927734375,6.015869140625,-4.114013671875
0.0015,0.050048828125,6.095947265625,-5.074951171875
0.002,0.770751953125,6.095947265625,-5.835693359375
0.0025,1.771728515625,5.415283203125,-6.276123046875
0.003,3.253173828125,4.013916015625,-6.596435546875
0.0035,4.534423828125,2.812744140625,-6.956787109375
0.004,5.415283203125,1.611572265625,-7.036865234375
0.0045,5.855712890625,0.650634765625,-6.796630859375
0.005,5.895751953125,-0.310302734375,-6.396240234375
0.0055,5.695556640625,-1.431396484375,-5.315185546875
0.006,5.455322265625,-2.752685546875,-4.033935546875
0.0065,5.375244140625,-4.114013671875,-2.872802734375
0.007,5.135009765625,-5.114990234375,-1.871826171875
0.0075,4.734619140625,-5.795654296875,-0.910888671875
0.008,3.973876953125,-6.156005859375,0.170166015625
0.0085,2.612548828125,-6.356201171875,1.531494140625
0.009,1.331298828125,-6.636474609375,3.052978515625
0.0095,0.170166015625,-6.716552734375,4.334228515625
0.01,-0.670654296875,-6.796630859375,5.255126953125
0.0105,-1.391357421875,-6.716552734375,5.935791015625
0.011,-2.552490234375,-5.755615234375,6.336181640625
0.0115,-4.114013671875,-4.354248046875,6.656494140625
0.012,-5.235107421875,-3.113037109375,6.896728515625
0.0125,-5.955810546875,-1.991943359375,6.896728515625
0.013,-6.276123046875,-1.071044921875,6.656494140625
0.0135,-6.236083984375,0.010009765625,5.975830078125
0.014,-5.955810546875,1.171142578125,4.774658203125
0.0145,-5.835693359375,2.532470703125,3.573486328125
0.015,-5.755615234375,3.773681640625,2.452392578125
0.0155,-5.435302734375,4.694580078125,1.451416015625
0.016,-4.914794921875,5.295166015625,0.570556640625
0.0165,-3.913818359375,5.495361328125,-0.630615234375
0.017,-2.592529296875,5.655517578125,-2.072021484375
0.0175,-1.351318359375,6.015869140625,-3.593505859375
0.018,-0.350341796875,6.135986328125,-4.754638671875
0.0185,0.490478515625,6.176025390625,-5.595458984375
0.019,1.291259765625,5.855712890625,-6.156005859375
0.0195,2.612548828125,4.654541015625,-6.476318359375
0.02,4.093994140625,3.333251953125,-6.876708984375
0.0205,5.135009765625,2.092041015625,-7.076904296875
0.021,5.735595703125,1.091064453125,-6.916748046875
0.0215,6.015869140625,0.210205078125,-6.676513671875
0.022,5.815673828125,-0.950927734375,-5.795654296875
0.0225,5.615478515625,-2.272216796875,-4.554443359375
0.023,5.495361328125,-3.593505859375,-3.393310546875
0.0235,5.335205078125,-4.754638671875,-2.312255859375
0.024,4.974853515625,-5.635498046875,-1.271240234375
0.0245,4.414306640625,-6.196044921875,-0.390380859375
0.025,3.213134765625,-6.356201171875,0.970947265625
0.0255,1.851806640625,-6.556396484375,2.532470703125
0.026,0.610595703125,-6.796630859375,4.013916015625
0.0265,-0.390380859375,-6.916748046875,5.014892578125
0.027,-1.111083984375,-6.916748046875,5.815673828125
0.0275,-2.112060546875,-6.276123046875,6.336181640625
0.028,-3.673583984375,-4.834716796875,6.656494140625
0.0285,-4.994873046875,-3.553466796875,7.016845703125
0.029,-5.875732421875,-2.352294921875,7.056884765625
0.0295,-6.396240234375,-1.311279296875,6.816650390625
0.03,-6.436279296875,-0.390380859375,6.376220703125
0.0305,-6.196044921875,0.850830078125,5.255126953125
0.031,-5.955810546875,2.252197265625,3.933837890625
0.0315,-5.835693359375,3.573486328125,2.732666015625
0.032,-5.595458984375,4.574462890625,1.691650390625
0.0325,-5.114990234375,5.255126953125,0.730712890625
0.033,-4.234130859375,5.575439453125,-0.390380859375
0.0335,-2.952880859375,5.735595703125,-1.751708984375
0.034,-1.631591796875,6.015869140625,-3.313232421875
0.0345,-0.510498046875,6.135986328125,-4.594482421875
0.035,0.450439453125,6.176025390625,-5.475341796875
0.0355,1.131103515625,6.055908203125,-6.156005859375
0.036,2.252197265625,5.094970703125,-6.476318359375
0.0365,3.773681640625,3.613525390625,-6.796630859375
0.037,4.934814453125,2.412353515625,-7.076904296875
0.0375,5.575439453125,1.291259765625,-6.956787109375
0.038,5.935791015625,0.370361328125,-6.716552734375
0.0385,5.855712890625,-0.630615234375,-6.075927734375
0.039,5.575439453125,-1.791748046875,-4.914794921875
0.0395,5.415283203125,-3.072998046875,-3.753662109375
0.04,5.255126953125,-4.314208984375,-2.592529296875
0.0405,4.974853515625,-5.275146484375,-1.631591796875
0.041,4.534423828125,-5.915771484375,-0.710693359375
0.0415,3.573486328125,-6.115966796875,0.410400390625
0.042,2.292236328125,-6.276123046875,1.771728515625
0.0425,1.171142578125,-6.556396484375,3.213134765625
0.043,0.130126953125,-6.676513671875,4.374267578125
0.0435,-0.710693359375,-6.756591796875,5.215087890625
0.044,-1.511474609375,-6.476318359375,5.815673828125
0.0445,-2.712646484375,-5.435302734375,6.176025390625
0.045,-4.114013671875,-4.154052734375,6.536376953125
0.0455,-5.155029296875,-3.032958984375,6.736572265625
0.046,-5.795654296875,-1.951904296875,6.696533203125
0.0465,-6.115966796875,-1.151123046875,6.456298828125
0.047,-5.955810546875,-0.190185546875,5.735595703125
0.0475,-5.755615234375,1.131103515625,4.574462890625
0.048,-5.715576171875,2.412353515625,3.533447265625
0.0485,-5.595458984375,3.493408203125,2.532470703125
0.049,-5.315185546875,4.414306640625,1.571533203125
0.0495,-4.834716796875,5.014892578125,0.610595703125
0.05,-3.793701171875,5.215087890625,-0.630615234375
0.0505,-2.592529296875,5.495361328125,-1.951904296875
0.051,-1.471435546875,5.855712890625,-3.353271484375
0.0515,-0.590576171875,5.935791015625,-4.394287109375
0.052,0.250244140625,6.095947265625,-5.275146484375
0.0525,1.171142578125,5.575439453125,-5.755615234375
0.053,2.532470703125,4.414306640625,-6.115966796875
0.0535,3.773681640625,3.293212890625,-6.556396484375
0.054,4.734619140625,2.252197265625,-6.716552734375
0.0545,5.295166015625,1.251220703125,-6.636474609375
0.055,5.495361328125,0.410400390625,-6.356201171875
0.0555,5.375244140625,-0.670654296875,-5.515380859375
0.056,5.255126953125,-1.911865234375,-4.474365234375
0.0565,5.215087890625,-3.193115234375,-3.433349609375
0.057,5.094970703125,-4.194091796875,-2.552490234375
0.0575,4.814697265625,-4.994873046875,-1.591552734375
0.058,4.174072265625,-5.475341796875,-0.630615234375
0.0585,3.093017578125,-5.715576171875,0.650634765625
0.059,2.052001953125,-6.115966796875,1.971923828125
0.0595,0.970947265625,-6.356201171875,3.253173828125
0.06,0.250244140625,-6.556396484375,4.214111328125
0.0605,-0.630615234375,-6.596435546875,5.054931640625
0.061,-1.631591796875,-5.915771484375,5.535400390625
0.0615,-3.032958984375,-4.754638671875,5.935791015625
0.062,-4.194091796875,-3.713623046875,6.336181640625
0.0625,-4.994873046875,-2.712646484375,6.416259765625
0.063,-5.515380859375,-1.831787109375,6.376220703125
0.0635,-5.635498046875,-0.990966796875,5.895751953125
0.064,-5.475341796875,0.130126953125,5.014892578125
0.0645,-5.435302734375,1.251220703125,4.134033203125
0.065,-5.435302734375,2.412353515625,3.173095703125
0.0655,-5.315185546875,3.453369140625,2.292236328125
0.066,-4.994873046875,4.214111328125,1.451416015625
0.0665,-4.234130859375,4.614501953125,0.450439453125
0.067,-3.233154296875,4.894775390625,-0.870849609375
0.0675,-2.272216796875,5.335205078125,-2.192138671875
0.068,-1.351318359375,5.615478515625,-3.353271484375
0.0685,-0.630615234375,5.815673828125,-4.314208984375
0.069,0.290283203125,5.735595703125,-5.034912109375
0.0695,1.411376953125,4.934814453125,-5.475341796875
0.07,2.692626953125,3.893798828125,-5.955810546875
0.0705,3.773681640625,2.892822265625,-6.316162109375
0.071,4.494384765625,1.971923828125,-6.396240234375
0.0715,4.974853515625,1.211181640625,-6.356201171875
0.072,5.054931640625,0.290283203125,-5.755615234375
0.0725,4.974853515625,-0.910888671875,-4.914794921875
0.073,5.014892578125,-2.031982421875,-4.114013671875
0.0735,5.014892578125,-3.153076171875,-3.233154296875
0.074,4.854736328125,-4.114013671875,-2.352294921875
0.0745,4.534423828125,-4.834716796875,-1.511474609375
0.075,3.693603515625,-5.155029296875,-0.430419921875
0.0755,2.732666015625,-5.555419921875,0.890869140625
0.076,1.851806640625,-5.995849609375,2.212158203125
0.0765,0.970947265625,-6.236083984375,3.253173828125
0.077,0.290283203125,-6.476318359375,4.214111328125
0.0775,-0.750732421875,-6.196044921875,4.854736328125
0.078,-1.991943359375,-5.235107421875,5.335205078125
0.0785,-3.193115234375,-4.354248046875,5.815673828125
0.079,-4.194091796875,-3.353271484375,6.095947265625
0.0795,-4.914794921875,-2.512451171875,6.176025390625
0.08,-5.235107421875,-1.671630859375,6.055908203125
0.0805,-5.235107421875,-0.790771484375,5.375244140625
0.081,-5.195068359375,0.370361328125,4.534423828125
0.0815,-5.315185546875,1.571533203125,3.773681640625
0.082,-5.275146484375,2.612548828125,2.932861328125
0.0825,-5.114990234375,3.493408203125,2.052001953125
0.083,-4.634521484375,4.093994140625,1.171142578125
0.0835,-3.713623046875,4.454345703125,0.050048828125
0.084,-2.912841796875,4.934814453125,-1.271240234375
0.0845,-1.991943359375,5.295166015625,-2.512451171875
0.085,-1.271240234375,5.575439453125,-3.473388671875
0.0855,-0.510498046875,5.735595703125,-4.354248046875
0.086,0.610595703125,5.215087890625,-4.914794921875
0.0865,1.851806640625,4.334228515625,-5.435302734375
0.087,3.012939453125,3.453369140625,-5.875732421875
0.0875,3.853759765625,2.532470703125,-6.115966796875
0.088,4.494384765625,1.731689453125,-6.196044921875
0.0885,4.734619140625,0.890869140625,-5.875732421875
0.089,4.734619140625,-0.190185546875,-5.195068359375
0.0895,4.814697265625,-1.191162109375,-4.514404296875
0.09,4.894775390625,-2.352294921875,-3.753662109375
0.0905,4.854736328125,-3.313232421875,-2.952880859375
0.091,4.734619140625,-4.194091796875,-2.112060546875
0.0915,4.093994140625,-4.674560546875,-1.151123046875
0.092,3.173095703125,-5.114990234375,0.130126953125
0.0925,2.412353515625,-5.635498046875,1.331298828125
0.093,1.571533203125,-6.035888671875,2.492431640625
0.0935,0.890869140625,-6.316162109375,3.493408203125
0.094,0.050048828125,-6.316162109375,4.334228515625
0.0945,-1.151123046875,-5.635498046875,4.854736328125
0.095,-2.432373046875,-4.794677734375,5.455322265625
0.0955,-3.553466796875,-3.873779296875,5.895751953125
0.096,-4.394287109375,-3.032958984375,6.055908203125
0.0965,-4.954833984375,-2.272216796875,6.095947265625
0.097,-5.114990234375,-1.391357421875,5.615478515625
0.0975,-5.114990234375,-0.310302734375,4.854736328125
0.098,-5.235107421875,0.890869140625,4.174072265625
0.0985,-5.275146484375,1.971923828125,3.373291015625
0.099,-5.195068359375,2.932861328125,2.572509765625
0.0995,-4.914794921875,3.733642578125,1.651611328125
0.1,-4.154052734375,4.134033203125,0.610595703125
0.1005,-3.273193359375,4.614501953125,-0.670654296875
0.101,-2.472412109375,5.094970703125,-1.951904296875
0.1015,-1.671630859375,5.415283203125,-2.992919921875
0.102,-0.950927734375,5.735595703125,-3.993896484375
0.1025,0.090087890625,5.455322265625,-4.674560546875
0.103,1.331298828125,4.614501953125,-5.155029296875
0.1035,2.532470703125,3.773681640625,-5.755615234375
0.104,3.573486328125,2.852783203125,-6.075927734375
0.1045,4.294189453125,1.931884765625,-6.196044921875
0.105,4.694580078125,1.131103515625,-6.115966796875
0.1055,4.734619140625,0.250244140625,-5.435302734375
0.106,4.774658203125,-0.950927734375,-4.674560546875
0.1065,4.854736328125,-2.112060546875,-3.873779296875
0.107,4.934814453125,-3.153076171875,-3.153076171875
0.1075,4.774658203125,-4.033935546875,-2.272216796875
0.108,4.294189453125,-4.674560546875,-1.311279296875
0.1085,3.413330078125,-5.074951171875,-0.190185546875
0.109,2.572509765625,-5.555419921875,1.131103515625
0.1095,1.611572265625,-5.915771484375,2.412353515625
0.11,0.890869140625,-6.276123046875,3.453369140625
0.1105,0.170166015625,-6.436279296875,4.334228515625
0.111,-0.990966796875,-5.915771484375,4.934814453125
0.1115,-2.312255859375,-4.914794921875,5.415283203125
0.112,-3.553466796875,-3.953857421875,5.895751953125
0.1125,-4.434326171875,-3.072998046875,6.095947265625
0.113,-5.034912109375,-2.232177734375,6.095947265625
0.1135,-5.275146484375,-1.351318359375,5.775634765625
0.114,-5.195068359375,-0.350341796875,4.974853515625
0.1145,-5.235107421875,0.890869140625,4.174072265625
0.115,-5.315185546875,2.092041015625,3.333251953125
0.1155,-5.235107421875,3.093017578125,2.492431640625
0.116,-4.994873046875,3.893798828125,1.611572265625
0.1165,-4.274169921875,4.334228515625,0.610595703125
0.117,-3.313232421875,4.694580078125,-0.670654296875
0.1175,-2.432373046875,5.175048828125,-1.991943359375
0.118,-1.551513671875,5.495361328125,-3.153076171875
0.1185,-0.790771484375,5.735595703125,-4.154052734375
0.119,0.130126953125,5.655517578125,-4.874755859375
0.1195,1.291259765625,4.814697265625,-5.355224609375
0.12,2.612548828125,3.853759765625,-5.835693359375
0.1205,3.773681640625,2.772705078125,-6.236083984375
0.121,4.494384765625,1.851806640625,-6.316162109375
0.1215,4.934814453125,1.091064453125,-6.276123046875
0.122,5.014892578125,0.170166015625,-5.675537109375
0.1225,4.894775390625,-1.031005859375,-4.754638671875
0.123,4.974853515625,-2.232177734375,-3.873779296875
0.1235,4.974853515625,-3.353271484375,-3.032958984375
0.124,4.814697265625,-4.314208984375,-2.152099609375
0.1245,4.494384765625,-4.994873046875,-1.271240234375
0.125,3.533447265625,-5.275146484375,-0.190185546875
0.1255,2.532470703125,-5.675537109375,1.251220703125
0.126,1.571533203125,-6.115966796875,2.572509765625
0.1265,0.690673828125,-6.356201171875,3.653564453125
0.127,0.010009765625,-6.556396484375,4.534423828125
0.1275,-1.031005859375,-6.156005859375,5.175048828125
0.128,-2.432373046875,-5.074951171875,5.615478515625
0.1285,-3.713623046875,-4.073974609375,6.095947265625
0.129,-4.674560546875,-3.072998046875,6.336181640625
0.1295,-5.315185546875,-2.072021484375,6.336181640625
0.13,-5.595458984375,-1.271240234375,6.095947265625
0.1305,-5.475341796875,-0.270263671875,5.255126953125
0.131,-5.435302734375,1.091064453125,4.254150390625
0.1315,-5.475341796875,2.332275390625,3.333251953125
0.132,-5.395263671875,3.373291015625,2.412353515625
0.1325,-5.114990234375,4.214111328125,1.531494140625
0.133,-4.514404296875,4.734619140625,0.570556640625
0.1335,-3.393310546875,4.974853515625,-0.790771484375
0.134,-2.352294921875,5.415283203125,-2.232177734375
0.1345,-1.311279296875,5.735595703125,-3.553466796875
0.135,-0.510498046875,5.895751953125,-4.514404296875
0.1355,0.290283203125,5.935791015625,-5.315185546875
0.136,1.411376953125,5.175048828125,-5.755615234375
0.1365,2.932861328125,3.853759765625,-6.276123046875
0.137,4.134033203125,2.732666015625,-6.596435546875
0.1375,4.974853515625,1.731689453125,-6.716552734375
0.138,5.415283203125,0.850830078125,-6.596435546875
0.1385,5.495361328125,-0.190185546875,-6.075927734375
0.139,5.335205078125,-1.351318359375,-4.994873046875
0.1395,5.295166015625,-2.672607421875,-3.873779296875
0.14,5.255126953125,-3.993896484375,-2.792724609375
0.1405,5.094970703125,-4.954833984375,-1.871826171875
0.141,4.614501953125,-5.635498046875,-0.990966796875
0.1415,3.693603515625,-5.915771484375,0.250244140625
0.142,2.372314453125,-6.115966796875,1.691650390625
0.1425,1.211181640625,-6.516357421875,3.213134765625
0.143,0.210205078125,-6.676513671875,4.414306640625
0.1435,-0.630615234375,-6.756591796875,5.255126953125
0.144,-1.471435546875,-6.436279296875,5.895751953125
0.1445,-2.872802734375,-5.275146484375,6.256103515625
0.145,-4.354248046875,-3.913818359375,6.656494140625
0.1455,-5.435302734375,-2.712646484375,6.856689453125
0.146,-5.995849609375,-1.631591796875,6.696533203125
0.1465,-6.276123046875,-0.790771484375,6.456298828125
0.147,-6.115966796875,0.330322265625,5.575439453125
0.1475,-5.835693359375,1.731689453125,4.214111328125
0.148,-5.755615234375,3.052978515625,3.093017578125
0.1485,-5.595458984375,4.134033203125,1.971923828125
0.149,-5.195068359375,4.934814453125,1.051025390625
0.1495,-4.594482421875,5.415283203125,0.130126953125
0.15,-3.393310546875,5.575439453125,-1.151123046875
0.1505,-1.991943359375,5.775634765625,-2.712646484375
0.151,-0.830810546875,6.055908203125,-4.154052734375
0.1515,0.130126953125,6.095947265625,-5.114990234375
0.152,0.810791015625,6.095947265625,-5.875732421875
0.1525,1.771728515625,5.415283203125,-6.356201171875
0.153,3.333251953125,3.973876953125,-6.636474609375
0.1535,4.534423828125,2.772705078125,-6.956787109375
0.154,5.415283203125,1.571533203125,-6.996826171875
0.1545,5.895751953125,0.610595703125,-6.836669921875
0.155,5.935791015625,-0.350341796875,-6.356201171875
0.1555,5.735595703125,-1.431396484375,-5.355224609375
0.156,5.495361328125,-2.832763671875,-4.033935546875
0.1565,5.375244140625,-4.154052734375,-2.872802734375
0.157,5.135009765625,-5.114990234375,-1.871826171875
0.1575,4.734619140625,-5.835693359375,-0.910888671875
0.158,3.973876953125,-6.236083984375,0.170166015625
0.1585,2.652587890625,-6.316162109375,1.451416015625
0.159,1.371337890625,-6.596435546875,3.052978515625
0.1595,0.210205078125,-6.756591796875,4.334228515625
0.16,-0.630615234375,-6.836669921875,5.255126953125
0.1605,-1.351318359375,-6.756591796875,5.935791015625
0.161,-2.552490234375,-5.835693359375,6.376220703125
0.1615,-4.114013671875,-4.354248046875,6.696533203125
0.162,-5.195068359375,-3.193115234375,6.976806640625
0.1625,-5.955810546875,-2.072021484375,6.896728515625
0.163,-6.356201171875,-1.111083984375,6.696533203125
0.1635,-6.276123046875,-0.150146484375,6.015869140625
0.164,-6.035888671875,1.131103515625,4.854736328125
0.1645,-5.835693359375,2.492431640625,3.653564453125
0.165,-5.755615234375,3.773681640625,2.492431640625
0.1655,-5.435302734375,4.614501953125,1.491455078125
0.166,-4.954833984375,5.295166015625,0.570556640625
0.1665,-3.993896484375,5.495361328125,-0.590576171875
0.167,-2.592529296875,5.695556640625,-2.031982421875
0.1675,-1.431396484375,6.015869140625,-3.553466796875
0.168,-0.390380859375,6.095947265625,-4.754638671875
0.1685,0.490478515625,6.135986328125,-5.595458984375
0.169,1.291259765625,5.815673828125,-6.156005859375
0.1695,2.572509765625,4.694580078125,-6.476318359375
0.17,4.013916015625,3.333251953125,-6.876708984375
0.1705,5.094970703125,2.172119140625,-7.076904296875
0.171,5.695556640625,1.091064453125,-6.916748046875
0.1715,5.935791015625,0.250244140625,-6.676513671875
0.172,5.815673828125,-0.870849609375,-5.835693359375
0.1725,5.575439453125,-2.192138671875,-4.594482421875
0.173,5.495361328125,-3.553466796875,-3.393310546875
0.1735,5.295166015625,-4.714599609375,-2.312255859375
0.174,4.974853515625,-5.555419921875,-1.311279296875
0.1745,4.414306640625,-6.115966796875,-0.390380859375
0.175,3.253173828125,-6.276123046875,0.890869140625
0.1755,1.931884765625,-6.516357421875,2.452392578125
0.176,0.650634765625,-6.796630859375,3.893798828125
0.1765,-0.350341796875,-6.876708984375,4.934814453125
0.177,-1.071044921875,-6.916748046875,5.735595703125
0.1775,-2.072021484375,-6.276123046875,6.256103515625
0.178,-3.553466796875,-4.874755859375,6.616455078125
0.1785,-4.874755859375,-3.593505859375,6.976806640625
0.179,-5.795654296875,-2.432373046875,7.056884765625
0.1795,-6.356201171875,-1.351318359375,6.856689453125
0.18,-6.436279296875,-0.510498046875,6.376220703125
0.1805,-6.156005859375,0.730712890625,5.375244140625
0.181,-5.955810546875,2.172119140625,4.013916015625
0.1815,-5.835693359375,3.493408203125,2.852783203125
0.182,-5.635498046875,4.534423828125,1.771728515625
0.1825,-5.155029296875,5.255126953125,0.770751953125
0.183,-4.354248046875,5.615478515625,-0.310302734375
0.1835,-3.072998046875,5.735595703125,-1.631591796875
0.184,-1.671630859375,6.015869140625,-3.233154296875
0.1845,-0.590576171875,6.135986328125,-4.554443359375
0.185,0.370361328125,6.135986328125,-5.435302734375
0.1855,1.051025390625,6.095947265625,-6.115966796875
0.186,2.252197265625,5.135009765625,-6.516357421875
0.1865,3.773681640625,3.693603515625,-6.796630859375
0.187,4.934814453125,2.452392578125,-7.076904296875
0.1875,5.615478515625,1.291259765625,-6.996826171875
0.188,5.975830078125,0.370361328125,-6.756591796875
