wavelength,x,y,z
0.0,3.203125,-0.48046875,-3.923828125
0.0005,3.0029296875,0.2802734375,-4.4443359375
0.001,2.162109375,1.1611328125,-4.5244140625
0.0015,1.6416015625,1.921875,-4.8046875
0.002,0.7607421875,2.962890625,-4.8447265625
0.0025,-0.16015625,3.5634765625,-4.5244140625
0.003,-1.0810546875,3.9638671875,-3.9638671875
0.0035,-1.76171875,4.404296875,-3.68359375
0.004,-2.6826171875,4.5244140625,-2.8427734375
0.0045,-3.203125,4.724609375,-2.40234375
0.005,-4.00390625,4.8046875,-1.6015625
0.0055,-4.1640625,4.1240234375,-0.80078125
0.006,-4.484375,3.923828125,0.0
0.0065,-4.5244140625,3.123046875,0.9208984375
0.007,-4.6044921875,2.40234375,1.76171875
0.0075,-4.5244140625,1.7216796875,2.5224609375
0.008,-4.404296875,0.9609375,3.203125
0.0085,-3.7236328125,-0.16015625,3.4833984375
0.009,-3.4833984375,-0.80078125,3.9638671875
0.0095,-2.5625,-1.8818359375,4.083984375
0.01,-2.001953125,-2.5625,4.32421875
0.0105,-1.041015625,-3.5634765625,4.2841796875
0.011,-0.16015625,-4.0439453125,3.8837890625
0.0115,0.7607421875,-4.5244140625,3.4033203125
0.012,1.5615234375,-4.884765625,2.9228515625
0.0125,2.5224609375,-5.0849609375,2.08203125
0.013,3.0029296875,-5.1650390625,1.6015625
0.0135,3.68359375,-5.1650390625,0.8408203125
0.014,3.8037109375,-4.404296875,-0.16015625
0.0145,4.1240234375,-4.1240234375,-0.8408203125
0.015,4.1240234375,-3.0830078125,-2.001953125
0.0155,4.2041015625,-2.4423828125,-2.7626953125
0.016,4.0439453125,-1.681640625,-3.5234375
0.0165,3.763671875,-0.8408203125,-4.1240234375
0.017,3.0029296875,0.16015625,-4.3642578125
0.0175,2.6025390625,0.9208984375,-4.8046875
0.018,1.6015625,2.1220703125,-4.8447265625
0.0185,1.041015625,2.802734375,-4.96484375
0.019,0.080078125,3.6435546875,-4.7646484375
0.0195,-0.9609375,4.00390625,-4.1640625
0.02,-1.76171875,4.404296875,-3.7236328125
0.0205,-2.6025390625,4.64453125,-3.04296875
0.021,-3.4033203125,4.8046875,-2.2822265625
0.0215,-3.7236328125,4.64453125,-1.76171875
0.022,-4.32421875,4.5244140625,-1.0009765625
0.0225,-4.32421875,3.763671875,0.0
0.023,-4.5244140625,3.443359375,0.6005859375
0.0235,-4.5244140625,2.3623046875,1.76171875
0.024,-4.5244140625,1.921875,2.2822265625
0.0245,-4.244140625,1.041015625,2.9228515625
0.025,-3.8837890625,0.2802734375,3.36328125
0.0255,-3.36328125,-0.6806640625,3.6435546875
0.026,-2.8828125,-1.361328125,3.9638671875
0.0265,-2.001953125,-2.4423828125,4.1240234375
0.027,-1.44140625,-3.0029296875,4.1240234375
0.0275,-0.5205078125,-3.8037109375,3.9638671875
0.028,0.4404296875,-4.1640625,3.443359375
0.0285,1.12109375,-4.564453125,3.123046875
0.029,2.001953125,-4.8447265625,2.40234375
0.0295,2.6826171875,-5.0849609375,1.921875
0.03,3.123046875,-4.96484375,1.28125
0.0305,3.603515625,-4.7646484375,0.5205078125
0.031,3.7236328125,-4.083984375,-0.4404296875
0.0315,4.0439453125,-3.763671875,-1.1611328125
0.032,4.083984375,-2.72265625,-2.3623046875
0.0325,4.1240234375,-2.322265625,-2.8828125
0.033,3.84375,-1.44140625,-3.603515625
0.0335,3.36328125,-0.6005859375,-4.0439453125
0.034,2.8427734375,0.4404296875,-4.404296875
0.0345,2.2421875,1.3212890625,-4.6845703125
0.035,1.4013671875,2.40234375,-4.9248046875
0.0355,0.720703125,3.0029296875,-4.7646484375
0.036,-0.3603515625,3.763671875,-4.5244140625
0.0365,-1.28125,4.1240234375,-3.84375
0.037,-2.001953125,4.484375,-3.5234375
0.0375,-2.962890625,4.64453125,-2.6025390625
0.038,-3.5634765625,4.8046875,-2.08203125
0.0385,-3.8837890625,4.484375,-1.3212890625
0.039,-4.244140625,4.1240234375,-0.560546875
0.0395,-4.2841796875,3.4033203125,0.3603515625
0.04,-4.484375,2.9228515625,1.12109375
0.0405,-4.484375,1.8818359375,2.2021484375
0.041,-4.32421875,1.4013671875,2.5224609375
0.0415,-4.00390625,0.5205078125,3.1630859375
0.042,-3.4833984375,-0.3203125,3.443359375
0.0425,-2.962890625,-1.0810546875,3.8037109375
0.043,-2.2421875,-2.001953125,3.9638671875
0.0435,-1.6015625,-2.8427734375,4.1240234375
0.044,-0.80078125,-3.283203125,3.763671875
0.0445,0.0400390625,-3.9638671875,3.603515625
0.045,0.880859375,-4.2041015625,2.962890625
0.0455,1.4814453125,-4.564453125,2.6826171875
0.046,2.40234375,-4.7646484375,1.8818359375
0.0465,2.802734375,-4.8447265625,1.521484375
0.047,3.1630859375,-4.564453125,0.7607421875
0.0475,3.4833984375,-4.2041015625,0.0400390625
0.048,3.6435546875,-3.6435546875,-0.80078125
0.0485,3.763671875,-3.123046875,-1.6015625
0.049,3.923828125,-2.40234375,-2.5625
0.0495,3.6435546875,-2.001953125,-3.0029296875
0.05,3.5234375,-1.0009765625,-3.68359375
0.0505,2.8828125,-0.16015625,-3.8837890625
0.051,2.5625,0.6806640625,-4.404296875
0.0515,1.7216796875,1.7216796875,-4.5244140625
0.052,1.2412109375,2.482421875,-4.8447265625
0.0525,0.2802734375,3.0830078125,-4.404296875
0.053,-0.640625,3.763671875,-4.2041015625
0.0535,-1.4814453125,4.00390625,-3.5634765625
0.054,-2.1220703125,4.404296875,-3.203125
0.0545,-3.1630859375,4.64453125,-2.40234375
0.055,-3.4833984375,4.5244140625,-1.921875
0.0555,-3.923828125,4.2841796875,-1.041015625
0.056,-4.1640625,3.8037109375,-0.2802734375
0.0565,-4.404296875,3.1630859375,0.6806640625
0.057,-4.404296875,2.40234375,1.521484375
0.0575,-4.5244140625,1.6015625,2.2822265625
0.058,-4.083984375,1.0810546875,2.72265625
0.0585,-3.84375,0.240234375,3.4033203125
0.059,-3.1630859375,-0.720703125,3.5634765625
0.0595,-2.7626953125,-1.4814453125,3.923828125
0.06,-1.8017578125,-2.6025390625,4.083984375
0.0605,-1.1611328125,-3.203125,4.083984375
0.061,-0.16015625,-3.7236328125,3.5234375
0.0615,0.6005859375,-4.244140625,3.283203125
0.062,1.3212890625,-4.404296875,2.6826171875
0.0625,2.001953125,-4.6845703125,2.2021484375
0.063,2.9228515625,-4.96484375,1.4814453125
0.0635,3.123046875,-4.5244140625,0.8408203125
0.064,3.5234375,-4.3642578125,0.1201171875
0.0645,3.4833984375,-3.68359375,-0.6005859375
0.065,3.763671875,-3.2431640625,-1.4814453125
0.0655,3.763671875,-2.40234375,-2.4423828125
0.066,3.84375,-1.841796875,-3.0830078125
0.0665,3.283203125,-1.041015625,-3.36328125
0.067,3.123046875,-0.3203125,-3.923828125
0.0675,2.3623046875,0.6005859375,-4.0439453125
0.068,2.0419921875,1.28125,-4.4443359375
0.0685,1.1611328125,2.3623046875,-4.64453125
0.069,0.5205078125,2.8427734375,-4.4443359375
0.0695,-0.5205078125,3.443359375,-4.0439453125
0.07,-1.201171875,3.84375,-3.7236328125
0.0705,-1.921875,4.1240234375,-3.203125
0.071,-2.6025390625,4.3642578125,-2.6826171875
0.0715,-3.36328125,4.6044921875,-2.08203125
0.072,-3.5634765625,4.1240234375,-1.361328125
0.0725,-4.00390625,4.1240234375,-0.640625
0.073,-4.00390625,3.203125,0.2001953125
0.0735,-4.2841796875,2.802734375,0.9208984375
0.074,-4.32421875,2.001953125,1.921875
0.0745,-4.32421875,1.5615234375,2.40234375
0.075,-3.8037109375,0.640625,2.8427734375
0.0755,-3.5634765625,0.0,3.36328125
0.076,-2.8828125,-1.0009765625,3.603515625
0.0765,-2.4423828125,-1.8017578125,3.8837890625
0.077,-1.6015625,-2.8427734375,4.083984375
0.0775,-0.80078125,-3.2431640625,3.68359375
0.078,0.1201171875,-3.8837890625,3.4833984375
0.0785,0.80078125,-4.1640625,3.0029296875
0.079,1.521484375,-4.484375,2.5224609375
0.0795,2.2822265625,-4.724609375,1.921875
0.08,2.9228515625,-4.8447265625,1.3212890625
0.0805,3.123046875,-4.2841796875,0.560546875
0.081,3.5234375,-4.2041015625,0.0
0.0815,3.5234375,-3.4033203125,-1.041015625
0.082,3.763671875,-2.8828125,-1.8017578125
0.0825,3.8037109375,-2.08203125,-2.7626953125
0.083,3.5634765625,-1.44140625,-3.203125
0.0835,3.123046875,-0.640625,-3.6435546875
0.084,2.72265625,0.16015625,-3.9638671875
0.0845,2.162109375,0.9609375,-4.2041015625
0.085,1.5615234375,1.76171875,-4.4443359375
0.0855,0.8408203125,2.6826171875,-4.564453125
0.086,-0.16015625,3.0830078125,-4.00390625
0.0865,-0.9208984375,3.68359375,-3.8837890625
0.087,-1.6416015625,3.84375,-3.203125
0.0875,-2.2822265625,4.1640625,-2.8427734375
0.088,-3.04296875,4.404296875,-2.2021484375
0.0885,-3.4833984375,4.2841796875,-1.6015625
0.089,-3.68359375,3.763671875,-0.8408203125
0.0895,-3.923828125,3.5234375,-0.2802734375
0.09,-4.00390625,2.802734375,0.6806640625
0.0905,-4.1640625,2.322265625,1.4013671875
0.091,-4.2041015625,1.6015625,2.2421875
0.0915,-3.84375,0.9609375,2.5224609375
0.092,-3.5634765625,0.2001953125,3.123046875
0.0925,-3.04296875,-0.6005859375,3.3232421875
0.093,-2.6025390625,-1.361328125,3.68359375
0.0935,-1.921875,-2.2421875,3.84375
0.094,-1.201171875,-2.962890625,3.84375
0.0945,-0.3203125,-3.36328125,3.3232421875
0.095,0.400390625,-4.00390625,3.2431640625
0.0955,1.1611328125,-4.2041015625,2.6025390625
0.096,1.76171875,-4.5244140625,2.2822265625
0.0965,2.6025390625,-4.8046875,1.6416015625
0.097,2.9228515625,-4.564453125,0.9609375
0.0975,3.2431640625,-4.244140625,0.240234375
0.098,3.5234375,-3.8037109375,-0.5205078125
0.0985,3.6435546875,-3.0830078125,-1.4814453125
0.099,3.8037109375,-2.5625,-2.2421875
0.0995,3.84375,-1.8017578125,-3.0830078125
0.1,3.283203125,-1.0009765625,-3.4033203125
0.1005,3.123046875,-0.2802734375,-3.9638671875
0.101,2.40234375,0.6806640625,-4.1640625
0.1015,1.921875,1.521484375,-4.5244140625
0.102,1.12109375,2.4423828125,-4.6044921875
0.1025,0.2802734375,3.123046875,-4.484375
0.103,-0.720703125,3.5234375,-3.84375
0.1035,-1.4013671875,4.0439453125,-3.68359375
0.104,-2.3623046875,4.2041015625,-2.8427734375
0.1045,-2.8828125,4.4443359375,-2.4423828125
0.105,-3.603515625,4.4443359375,-1.7216796875
0.1055,-3.84375,3.9638671875,-0.9208984375
0.106,-4.0439453125,3.68359375,-0.2802734375
0.1065,-4.1640625,3.0029296875,0.6806640625
0.107,-4.244140625,2.2822265625,1.521484375
0.1075,-4.2041015625,1.7216796875,2.162109375
0.108,-4.1240234375,0.9609375,2.8427734375
0.1085,-3.4833984375,0.1201171875,3.0830078125
0.109,-3.283203125,-0.6005859375,3.5634765625
0.1095,-2.4423828125,-1.521484375,3.68359375
0.11,-1.9619140625,-2.2421875,3.923828125
0.1105,-1.12109375,-3.0830078125,3.84375
0.111,-0.3203125,-3.5634765625,3.5234375
0.1115,0.5205078125,-3.923828125,3.123046875
0.112,1.1611328125,-4.3642578125,2.802734375
0.1125,2.0419921875,-4.5244140625,2.08203125
0.113,2.482421875,-4.7646484375,1.7216796875
0.1135,3.0830078125,-4.8046875,1.0810546875
0.114,3.2431640625,-4.1640625,0.2802734375
0.1145,3.5634765625,-3.9638671875,-0.4404296875
0.115,3.68359375,-3.1630859375,-1.44140625
0.1155,3.84375,-2.642578125,-2.2021484375
0.116,3.763671875,-1.9619140625,-2.8828125
0.1165,3.603515625,-1.2412109375,-3.4833984375
0.117,3.0029296875,-0.3203125,-3.8037109375
0.1175,2.7626953125,0.4404296875,-4.2841796875
0.118,1.921875,1.44140625,-4.4443359375
0.1185,1.4013671875,2.2021484375,-4.6845703125
0.119,0.48046875,3.04296875,-4.564453125
0.1195,-0.5205078125,3.5634765625,-4.1640625
0.12,-1.3212890625,3.9638671875,-3.7236328125
0.1205,-2.1220703125,4.32421875,-3.203125
0.121,-2.962890625,4.484375,-2.482421875
0.1215,-3.36328125,4.484375,-2.001953125
0.122,-4.00390625,4.404296875,-1.2412109375
0.1225,-4.083984375,3.8037109375,-0.3603515625
0.123,-4.3642578125,3.4833984375,0.400390625
0.1235,-4.404296875,2.4423828125,1.5615234375
0.124,-4.5244140625,1.9619140625,2.2021484375
0.1245,-4.2041015625,1.1611328125,2.802734375
0.125,-3.923828125,0.3603515625,3.3232421875
0.1255,-3.283203125,-0.640625,3.5634765625
0.126,-2.8828125,-1.361328125,3.923828125
0.1265,-1.8818359375,-2.5224609375,4.083984375
0.127,-1.3212890625,-3.0830078125,4.083984375
0.1275,-0.3603515625,-3.8037109375,3.8037109375
0.128,0.5205078125,-4.1640625,3.283203125
0.1285,1.2412109375,-4.484375,2.8828125
0.129,2.08203125,-4.8046875,2.162109375
0.1295,2.802734375,-5.0048828125,1.5615234375
0.13,3.0830078125,-4.7646484375,1.0009765625
0.1305,3.5634765625,-4.5244140625,0.2802734375
0.131,3.603515625,-3.84375,-0.640625
0.1315,3.84375,-3.4833984375,-1.28125
0.132,3.84375,-2.40234375,-2.4423828125
0.1325,3.84375,-2.001953125,-2.8828125
0.133,3.5234375,-1.201171875,-3.4833984375
0.1335,3.1630859375,-0.400390625,-3.8837890625
0.134,2.6025390625,0.48046875,-4.1640625
0.1345,2.08203125,1.28125,-4.484375
0.135,1.28125,2.2822265625,-4.6845703125
0.1355,0.6806640625,2.802734375,-4.564453125
0.136,-0.3203125,3.5234375,-4.3642578125
0.1365,-1.201171875,3.84375,-3.7236328125
0.137,-1.8818359375,4.2041015625,-3.4033203125
0.1375,-2.7626953125,4.4443359375,-2.642578125
0.138,-3.36328125,4.6044921875,-2.2021484375
0.1385,-3.68359375,4.404296875,-1.4814453125
0.139,-4.1240234375,4.1640625,-0.720703125
0.1395,-4.2041015625,3.4833984375,0.16015625
0.14,-4.484375,3.04296875,0.9609375
0.1405,-4.484375,2.0419921875,2.0419921875
0.141,-4.4443359375,1.6416015625,2.4423828125
0.1415,-4.083984375,0.720703125,3.123046875
0.142,-3.603515625,-0.2001953125,3.4833984375
0.1425,-3.0830078125,-1.041015625,3.84375
0.143,-2.40234375,-1.9619140625,4.083984375
0.1435,-1.6416015625,-2.962890625,4.32421875
0.144,-0.80078125,-3.443359375,3.8837890625
0.1445,0.1201171875,-4.1640625,3.68359375
0.145,0.9609375,-4.4443359375,3.0830078125
0.1455,1.6015625,-4.8046875,2.72265625
0.146,2.642578125,-5.0849609375,1.841796875
0.1465,3.1630859375,-5.044921875,1.28125
0.147,3.4833984375,-4.64453125,0.48046875
0.1475,3.8037109375,-4.3642578125,-0.3203125
0.148,3.84375,-3.5634765625,-1.1611328125
0.1485,3.9638671875,-2.9228515625,-2.001953125
0.149,4.083984375,-2.001953125,-3.0830078125
0.1495,3.763671875,-1.44140625,-3.4033203125
0.15,3.443359375,-0.5205078125,-4.0439453125
0.1505,2.7626953125,0.400390625,-4.244140625
0.151,2.2822265625,1.12109375,-4.564453125
0.1515,1.44140625,2.162109375,-4.6845703125
0.152,0.7607421875,3.04296875,-4.9248046875
0.1525,-0.2802734375,3.443359375,-4.32421875
0.153,-1.041015625,4.083984375,-4.1240234375
0.1535,-1.8818359375,4.1640625,-3.36328125
0.154,-2.5625,4.484375,-3.04296875
0.1545,-3.5634765625,4.8046875,-2.1220703125
0.155,-3.8837890625,4.6044921875,-1.521484375
0.1555,-4.1640625,4.1640625,-0.6806640625
0.156,-4.404296875,3.763671875,0.080078125
0.1565,-4.484375,3.04296875,0.9609375
0.157,-4.5244140625,2.3623046875,1.8017578125
0.1575,-4.6044921875,1.5615234375,2.72265625
0.158,-4.1240234375,0.880859375,3.0029296875
0.1585,-3.84375,0.0,3.68359375
0.159,-3.123046875,-1.0009765625,3.8037109375
0.1595,-2.72265625,-1.681640625,4.1240234375
0.16,-1.76171875,-2.7626953125,4.244140625
0.1605,-1.041015625,-3.5634765625,4.2841796875
0.161,0.0400390625,-4.00390625,3.6435546875
0.1615,0.7607421875,-4.6044921875,3.4833984375
0.162,1.5615234375,-4.7646484375,2.72265625
0.1625,2.2421875,-5.0048828125,2.2822265625
0.163,3.2431640625,-5.2451171875,1.4814453125
0.1635,3.5234375,-4.8447265625,0.7607421875
0.164,3.8837890625,-4.564453125,0.0
0.1645,3.9638671875,-3.923828125,-0.9208984375
0.165,4.1240234375,-3.2431640625,-1.8017578125
0.1655,4.1240234375,-2.4423828125,-2.72265625
0.166,4.2041015625,-1.681640625,-3.603515625
0.1665,3.5234375,-0.7607421875,-3.923828125
0.167,3.3232421875,0.1201171875,-4.5244140625
0.1675,2.482421875,1.0009765625,-4.564453125
0.168,1.9619140625,1.76171875,-4.884765625
0.1685,0.9609375,2.962890625,-5.0048828125
0.169,0.1201171875,3.5634765625,-4.8447265625
0.1695,-1.0009765625,4.00390625,-4.1640625
0.17,-1.681640625,4.484375,-3.8837890625
0.1705,-2.6025390625,4.64453125,-3.04296875
0.171,-3.203125,4.8046875,-2.482421875
0.1715,-4.1640625,4.96484375,-1.6416015625
0.172,-4.2841796875,4.32421875,-0.80078125
0.1725,-4.6044921875,4.083984375,0.0
0.173,-4.564453125,3.2431640625,0.8408203125
0.1735,-4.64453125,2.5625,1.7216796875
0.174,-4.564453125,1.76171875,2.5224609375
0.1745,-4.5244140625,0.9609375,3.2431640625
0.175,-3.7236328125,0.0,3.4833984375
0.1755,-3.5634765625,-0.720703125,4.00390625
0.176,-2.6025390625,-1.6416015625,4.00390625
0.1765,-2.1220703125,-2.3623046875,4.2041015625
0.177,-1.201171875,-3.4833984375,4.2841796875
0.1775,-0.3203125,-3.923828125,3.84375
0.178,0.6005859375,-4.404296875,3.36328125
0.1785,1.28125,-4.64453125,3.04296875
0.179,2.0419921875,-4.8046875,2.322265625
0.1795,2.6826171875,-5.0048828125,1.841796875
0.18,3.443359375,-5.125,1.12109375
0.1805,3.5234375,-4.4443359375,0.240234375
0.181,3.923828125,-4.32421875,-0.4404296875
0.1815,3.8837890625,-3.4033203125,-1.361328125
0.182,4.083984375,-2.8828125,-2.1220703125
0.1825,4.00390625,-2.0419921875,-3.04296875
0.183,3.84375,-1.361328125,-3.603515625
0.1835,3.203125,-0.400390625,-3.9638671875
0.184,2.9228515625,0.3603515625,-4.4443359375
0.1845,2.162109375,1.28125,-4.564453125
0.185,1.6015625,2.0419921875,-4.8447265625
0.1855,0.720703125,3.04296875,-4.9248046875
0.186,-0.3203125,3.5234375,-4.404296875
0.1865,-1.1611328125,4.1240234375,-4.0439453125
0.187,-1.9619140625,4.4443359375,-3.4833984375
0.1875,-2.7626953125,4.64453125,-2.802734375
0.188,-3.4033203125,4.7646484375,-2.2421875
0.1885,-4.0439453125,4.7646484375,-1.4814453125
0.189,-4.1640625,4.00390625,-0.6005859375
0.1895,-4.5244140625,3.84375,0.16015625
0.19,-4.484375,2.7626953125,1.28125
0.1905,-4.564453125,2.2421875,1.921875
0.191,-4.484375,1.4013671875,2.72265625
0.1915,-4.1240234375,0.6005859375,3.2431640625
0.192,-3.5634765625,-0.3603515625,3.5634765625
0.1925,-3.0830078125,-1.0810546875,3.8837890625
0.193,-2.2822265625,-2.1220703125,4.0439453125
0.1935,-1.6416015625,-2.8427734375,4.1240234375
0.194,-0.80078125,-3.68359375,4.0439453125
0.1945,0.240234375,-3.9638671875,3.443359375
0.195,0.9208984375,-4.4443359375,3.1630859375
0.1955,1.76171875,-4.64453125,2.4423828125
0.196,2.40234375,-4.8447265625,1.921875
0.1965,2.9228515625,-4.8447265625,1.361328125
0.197,3.4033203125,-4.6845703125,0.640625
0.1975,3.5234375,-4.0439453125,-0.240234375
0.198,3.8037109375,-3.8037109375,-0.880859375
0.1985,3.8037109375,-2.8427734375,-1.9619140625
0.199,3.8837890625,-2.4423828125,-2.482421875
0.1995,3.8037109375,-1.6015625,-3.283203125
0.2,3.283203125,-0.80078125,-3.603515625
0.2005,2.9228515625,0.0,-4.0439453125
0.201,2.40234375,0.7607421875,-4.32421875
0.2015,1.76171875,1.681640625,-4.564453125
0.202,1.12109375,2.40234375,-4.64453125
0.2025,0.2802734375,3.203125,-4.5244140625
0.203,-0.720703125,3.5634765625,-3.923828125
0.2035,-1.4013671875,4.1240234375,-3.7236328125
0.204,-2.3623046875,4.32421875,-2.9228515625
0.2045,-2.9228515625,4.6044921875,-2.5625
0.205,-3.5234375,4.564453125,-1.921875
0.2055,-3.8837890625,4.2841796875,-1.12109375
0.206,-4.1240234375,3.763671875,-0.3203125
0.2065,-4.3642578125,3.3232421875,0.5205078125
0.207,-4.404296875,2.40234375,1.5615234375
0.2075,-4.484375,2.001953125,2.08203125
0.208,-4.32421875,1.12109375,2.8828125
0.2085,-3.7236328125,0.2802734375,3.203125
0.209,-3.4033203125,-0.640625,3.68359375
0.2095,-2.642578125,-1.6015625,3.8837890625
0.21,-2.001953125,-2.5224609375,4.1240234375
0.2105,-1.2412109375,-3.123046875,4.00390625
0.211,-0.3603515625,-3.8037109375,3.8037109375
0.2115,0.6005859375,-4.1240234375,3.1630859375
0.212,1.28125,-4.564453125,2.9228515625
0.2125,2.2421875,-4.7646484375,2.001953125
0.213,2.6826171875,-4.884765625,1.6416015625
0.2135,3.203125,-4.7646484375,0.9208984375
0.214,3.4833984375,-4.32421875,0.1201171875
0.2145,3.6435546875,-3.8037109375,-0.6806640625
0.215,3.8037109375,-3.203125,-1.5615234375
0.2155,3.84375,-2.3623046875,-2.5224609375
0.216,3.68359375,-1.841796875,-2.9228515625
0.2165,3.5234375,-1.041015625,-3.603515625
0.217,2.8427734375,-0.2001953125,-3.84375
0.2175,2.5625,0.560546875,-4.244140625
0.218,1.681640625,1.5615234375,-4.4443359375
0.2185,1.2412109375,2.2822265625,-4.64453125
0.219,0.3603515625,2.9228515625,-4.3642578125
0.2195,-0.5205078125,3.5234375,-4.1240234375
0.22,-1.3212890625,3.84375,-3.5234375
0.2205,-1.9619140625,4.1640625,-3.203125
0.221,-2.8828125,4.404296875,-2.4423828125
0.2215,-3.203125,4.404296875,-2.08203125
0.222,-3.7236328125,4.2841796875,-1.3212890625
0.2225,-3.8837890625,3.763671875,-0.560546875
0.223,-4.1240234375,3.36328125,0.240234375
0.2235,-4.1640625,2.6025390625,1.12109375
0.224,-4.3642578125,2.08203125,1.921875
0.2245,-4.1240234375,1.44140625,2.322265625
0.225,-3.923828125,0.640625,2.962890625
0.2255,-3.36328125,-0.3203125,3.203125
0.226,-3.0830078125,-1.0009765625,3.68359375
0.2265,-2.162109375,-2.001953125,3.84375
0.227,-1.681640625,-2.642578125,4.00390625
0.2275,-0.720703125,-3.283203125,3.68359375
0.228,0.080078125,-3.84375,3.443359375
0.2285,0.880859375,-4.1640625,2.9228515625
0.229,1.5615234375,-4.5244140625,2.5224609375
