wavelength,x,y,z
0.0,-1.54150390625,-2.82275390625,3.78369140625
0.0005,-0.82080078125,-3.30322265625,3.50341796875
0.001,-0.06005859375,-3.58349609375,3.02294921875
0.0015,0.90087890625,-3.98388671875,2.42236328125
0.002,1.58154296875,-4.10400390625,1.94189453125
0.0025,2.26220703125,-4.34423828125,1.54150390625
0.003,2.50244140625,-3.94384765625,0.98095703125
0.0035,2.82275390625,-3.94384765625,0.58056640625
0.004,2.94287109375,-3.18310546875,-0.30029296875
0.0045,3.34326171875,-2.86279296875,-1.02099609375
0.005,3.38330078125,-2.14208984375,-1.74169921875
0.0055,3.42333984375,-1.70166015625,-2.18212890625
0.006,3.02294921875,-0.90087890625,-2.54248046875
0.0065,2.86279296875,-0.38037109375,-2.86279296875
0.007,2.26220703125,0.62060546875,-3.22314453125
0.0075,1.94189453125,1.26123046875,-3.54345703125
0.008,1.38134765625,1.98193359375,-3.70361328125
0.0085,0.82080078125,2.30224609375,-3.54345703125
0.009,0.22021484375,2.82275390625,-3.46337890625
0.0095,-0.78076171875,3.06298828125,-2.70263671875
0.01,-1.62158203125,3.54345703125,-2.26220703125
0.0105,-2.30224609375,3.54345703125,-1.62158203125
0.011,-2.82275390625,3.78369140625,-1.30126953125
0.0115,-3.06298828125,3.38330078125,-0.70068359375
0.012,-3.34326171875,3.22314453125,-0.30029296875
0.0125,-3.62353515625,2.54248046875,0.70068359375
0.013,-3.90380859375,2.10205078125,1.38134765625
0.0135,-3.98388671875,1.42138671875,2.18212890625
0.014,-3.78369140625,0.78076171875,2.54248046875
0.0145,-3.54345703125,0.06005859375,3.02294921875
0.015,-2.94287109375,-0.70068359375,3.18310546875
0.0155,-2.46240234375,-1.66162109375,3.62353515625
0.016,-1.90185546875,-2.34228515625,3.70361328125
0.0165,-1.42138671875,-3.14306640625,3.90380859375
0.017,-0.70068359375,-3.34326171875,3.42333984375
0.0175,-0.06005859375,-3.82373046875,3.22314453125
0.018,1.10107421875,-3.98388671875,2.34228515625
0.0185,1.94189453125,-4.34423828125,1.86181640625
0.019,2.54248046875,-4.22412109375,1.18115234375
0.0195,2.90283203125,-4.22412109375,0.78076171875
0.02,3.14306640625,-3.78369140625,0.18017578125
0.0205,3.26318359375,-3.26318359375,-0.50048828125
0.021,3.58349609375,-2.58251953125,-1.46142578125
0.0215,3.54345703125,-1.94189453125,-2.02197265625
0.022,3.66357421875,-1.34130859375,-2.78271484375
0.0225,3.06298828125,-0.62060546875,-2.94287109375
0.023,2.86279296875,0.02001953125,-3.30322265625
0.0235,2.10205078125,0.98095703125,-3.46337890625
0.024,1.62158203125,1.86181640625,-3.70361328125
0.0245,0.98095703125,2.38232421875,-3.70361328125
0.025,0.50048828125,2.98291015625,-3.82373046875
0.0255,-0.30029296875,3.18310546875,-3.22314453125
0.026,-1.02099609375,3.54345703125,-2.86279296875
0.0265,-2.26220703125,3.86376953125,-1.90185546875
0.027,-2.90283203125,3.86376953125,-1.30126953125
0.0275,-3.54345703125,3.86376953125,-0.78076171875
0.028,-3.70361328125,3.54345703125,-0.26025390625
0.0285,-3.90380859375,3.18310546875,0.34033203125
0.029,-3.98388671875,2.42236328125,1.14111328125
0.0295,-4.34423828125,1.86181640625,2.06201171875
0.03,-4.06396484375,0.98095703125,2.66259765625
0.0305,-4.18408203125,0.38037109375,3.34326171875
0.031,-3.42333984375,-0.50048828125,3.46337890625
0.0315,-3.18310546875,-1.14111328125,3.78369140625
0.032,-2.18212890625,-2.42236328125,3.82373046875
0.0325,-1.58154296875,-3.14306640625,4.06396484375
0.033,-0.82080078125,-3.70361328125,3.90380859375
0.0335,-0.30029296875,-4.14404296875,3.86376953125
0.034,0.62060546875,-4.30419921875,3.14306640625
0.0345,1.46142578125,-4.54443359375,2.50244140625
0.035,2.74267578125,-4.86474609375,1.54150390625
0.0355,3.22314453125,-4.58447265625,0.78076171875
0.036,3.86376953125,-4.62451171875,0.26025390625
0.0365,3.90380859375,-3.98388671875,-0.46044921875
0.037,4.02392578125,-3.46337890625,-1.10107421875
0.0375,4.14404296875,-2.50244140625,-2.10205078125
0.038,4.34423828125,-1.74169921875,-3.06298828125
0.0385,3.78369140625,-0.78076171875,-3.46337890625
0.039,3.70361328125,-0.14013671875,-3.98388671875
0.0395,2.78271484375,0.82080078125,-3.94384765625
0.04,2.26220703125,1.50146484375,-4.14404296875
0.0405,1.30126953125,2.74267578125,-4.42431640625
0.041,0.50048828125,3.34326171875,-4.22412109375
0.0415,-0.14013671875,3.90380859375,-4.06396484375
0.042,-0.98095703125,4.22412109375,-3.58349609375
0.0425,-1.90185546875,4.30419921875,-2.70263671875
0.043,-2.86279296875,4.46435546875,-1.90185546875
0.0435,-4.10400390625,4.74462890625,-0.98095703125
0.044,-4.34423828125,4.10400390625,-0.14013671875
0.0445,-4.82470703125,4.14404296875,0.30029296875
0.045,-4.78466796875,3.18310546875,1.22119140625
0.0455,-4.82470703125,2.58251953125,1.86181640625
0.046,-4.86474609375,1.54150390625,2.94287109375
0.0465,-4.86474609375,0.70068359375,3.70361328125
0.047,-4.22412109375,-0.34033203125,4.06396484375
0.0475,-4.02392578125,-0.98095703125,4.50439453125
0.048,-2.86279296875,-2.06201171875,4.46435546875
0.0485,-2.34228515625,-2.86279296875,4.50439453125
0.049,-1.26123046875,-4.14404296875,4.70458984375
0.0495,-0.34033203125,-4.54443359375,4.30419921875
0.05,0.30029296875,-5.02490234375,4.14404296875
0.0505,1.30126953125,-5.26513671875,3.38330078125
0.051,2.26220703125,-5.26513671875,2.42236328125
0.0515,3.22314453125,-5.30517578125,1.54150390625
0.052,4.34423828125,-5.46533203125,0.62060546875
0.0525,4.50439453125,-4.78466796875,-0.26025390625
0.053,4.86474609375,-4.66455078125,-0.74072265625
0.0535,4.82470703125,-3.46337890625,-1.86181640625
0.054,4.78466796875,-2.78271484375,-2.50244140625
0.0545,4.82470703125,-1.62158203125,-3.66357421875
0.055,4.62451171875,-0.70068359375,-4.34423828125
0.0555,3.86376953125,0.30029296875,-4.58447265625
0.056,3.50341796875,1.02099609375,-4.94482421875
0.0565,2.22216796875,2.26220703125,-4.82470703125
0.057,1.54150390625,2.98291015625,-4.86474609375
0.0575,0.46044921875,4.22412109375,-4.98486328125
0.058,-0.50048828125,4.54443359375,-4.34423828125
0.0585,-1.14111328125,4.98486328125,-4.14404296875
0.059,-2.42236328125,5.10498046875,-3.06298828125
0.0595,-3.38330078125,5.10498046875,-2.02197265625
0.06,-4.34423828125,5.06494140625,-0.98095703125
0.0605,-5.26513671875,5.02490234375,-0.14013671875
0.061,-5.30517578125,4.18408203125,0.78076171875
0.0615,-5.62548828125,3.98388671875,1.26123046875
0.062,-5.46533203125,2.58251953125,2.50244140625
0.0625,-5.34521484375,1.86181640625,3.06298828125
0.063,-5.30517578125,0.66064453125,4.18408203125
0.0635,-4.86474609375,-0.30029296875,4.66455078125
0.064,-4.18408203125,-1.30126953125,4.90478515625
0.0645,-3.54345703125,-2.14208984375,5.06494140625
0.065,-2.26220703125,-3.38330078125,4.98486328125
0.0655,-1.46142578125,-4.02392578125,4.82470703125
0.066,-0.46044921875,-5.10498046875,4.90478515625
0.0665,0.54052734375,-5.30517578125,4.14404296875
0.067,1.14111328125,-5.66552734375,3.90380859375
0.0675,2.50244140625,-5.70556640625,2.62255859375
0.068,3.34326171875,-5.70556640625,1.78173828125
0.0685,4.26416015625,-5.46533203125,0.70068359375
0.069,4.98486328125,-5.42529296875,-0.14013671875
0.0695,4.98486328125,-4.54443359375,-0.98095703125
0.07,5.18505859375,-4.22412109375,-1.46142578125
0.0705,5.10498046875,-2.82275390625,-2.78271484375
0.071,4.94482421875,-2.06201171875,-3.34326171875
0.0715,4.86474609375,-0.94091796875,-4.38427734375
0.072,4.22412109375,0.02001953125,-4.78466796875
0.0725,3.62353515625,0.90087890625,-4.94482421875
0.073,2.94287109375,1.90185546875,-5.10498046875
0.0735,1.70166015625,3.06298828125,-5.06494140625
0.074,0.86083984375,3.70361328125,-4.82470703125
0.0745,-0.10009765625,4.70458984375,-4.86474609375
0.075,-1.02099609375,4.82470703125,-4.10400390625
0.0755,-1.66162109375,5.14501953125,-3.78369140625
0.076,-3.18310546875,5.14501953125,-2.30224609375
0.0765,-3.98388671875,5.18505859375,-1.50146484375
0.077,-4.82470703125,4.90478515625,-0.50048828125
0.0775,-5.42529296875,4.74462890625,0.30029296875
0.078,-5.38525390625,3.90380859375,1.10107421875
0.0785,-5.42529296875,3.38330078125,1.66162109375
0.079,-5.46533203125,2.06201171875,2.98291015625
0.0795,-5.18505859375,1.30126953125,3.50341796875
0.08,-5.18505859375,0.22021484375,4.46435546875
0.0805,-4.38427734375,-0.82080078125,4.62451171875
0.081,-3.94384765625,-1.66162109375,4.86474609375
0.0815,-2.82275390625,-2.62255859375,4.86474609375
0.082,-1.86181640625,-3.70361328125,4.98486328125
0.0825,-0.98095703125,-4.34423828125,4.62451171875
0.083,-0.14013671875,-5.14501953125,4.66455078125
0.0835,0.78076171875,-5.18505859375,3.78369140625
0.084,1.42138671875,-5.46533203125,3.46337890625
0.0845,2.90283203125,-5.46533203125,1.98193359375
0.085,3.58349609375,-5.46533203125,1.30126953125
0.0855,4.34423828125,-5.22509765625,0.34033203125
0.086,4.74462890625,-4.90478515625,-0.34033203125
0.0865,4.74462890625,-4.18408203125,-1.06103515625
0.087,4.74462890625,-3.50341796875,-1.74169921875
0.0875,4.82470703125,-2.42236328125,-2.90283203125
0.088,4.50439453125,-1.58154296875,-3.46337890625
0.0885,4.50439453125,-0.70068359375,-4.34423828125
0.089,3.58349609375,0.30029296875,-4.34423828125
0.0895,3.34326171875,0.98095703125,-4.66455078125
0.09,2.10205078125,2.14208984375,-4.58447265625
0.0905,1.42138671875,3.06298828125,-4.82470703125
0.091,0.50048828125,3.66357421875,-4.46435546875
0.0915,-0.22021484375,4.34423828125,-4.46435546875
0.092,-1.10107421875,4.42431640625,-3.62353515625
0.0925,-1.78173828125,4.66455078125,-3.18310546875
0.093,-3.18310546875,4.82470703125,-1.90185546875
0.0935,-3.82373046875,4.66455078125,-1.22119140625
0.094,-4.54443359375,4.58447265625,-0.38037109375
0.0945,-4.74462890625,4.10400390625,0.30029296875
0.095,-4.86474609375,3.62353515625,0.90087890625
0.0955,-4.82470703125,2.70263671875,1.74169921875
0.096,-5.06494140625,1.86181640625,2.74267578125
0.0965,-4.66455078125,0.90087890625,3.22314453125
0.097,-4.74462890625,0.18017578125,3.98388671875
0.0975,-3.82373046875,-0.82080078125,4.10400390625
0.098,-3.58349609375,-1.38134765625,4.42431640625
0.0985,-2.34228515625,-2.62255859375,4.38427734375
0.099,-1.78173828125,-3.34326171875,4.50439453125
0.0995,-0.86083984375,-4.02392578125,4.26416015625
0.1,-0.26025390625,-4.50439453125,4.14404296875
0.1005,0.62060546875,-4.62451171875,3.46337890625
0.101,1.42138671875,-4.82470703125,2.82275390625
0.1015,2.66259765625,-5.02490234375,1.82177734375
0.102,3.14306640625,-4.82470703125,1.14111328125
0.1025,3.86376953125,-4.86474609375,0.50048828125
0.103,3.86376953125,-4.18408203125,-0.18017578125
0.1035,4.10400390625,-3.86376953125,-0.70068359375
0.104,4.02392578125,-2.90283203125,-1.62158203125
0.1045,4.26416015625,-2.38232421875,-2.46240234375
0.105,3.90380859375,-1.46142578125,-3.06298828125
0.1055,3.90380859375,-0.82080078125,-3.54345703125
0.106,3.10302734375,0.14013671875,-3.62353515625
0.1065,2.86279296875,0.70068359375,-3.90380859375
0.107,1.94189453125,1.86181640625,-4.10400390625
0.1075,1.42138671875,2.42236328125,-4.14404296875
0.108,0.66064453125,3.14306640625,-4.14404296875
0.1085,0.02001953125,3.42333984375,-3.78369140625
0.109,-0.70068359375,3.78369140625,-3.38330078125
0.1095,-1.66162109375,3.90380859375,-2.54248046875
0.11,-2.66259765625,4.22412109375,-1.90185546875
0.1105,-3.14306640625,3.98388671875,-1.22119140625
0.111,-3.74365234375,4.18408203125,-0.82080078125
0.1115,-3.82373046875,3.54345703125,-0.10009765625
0.112,-4.10400390625,3.26318359375,0.34033203125
0.1125,-4.18408203125,2.30224609375,1.42138671875
0.113,-4.42431640625,1.90185546875,1.98193359375
0.1135,-4.22412109375,1.02099609375,2.78271484375
0.114,-4.10400390625,0.46044921875,3.14306640625
0.1145,-3.54345703125,-0.46044921875,3.50341796875
0.115,-3.06298828125,-1.14111328125,3.70361328125
0.1155,-2.34228515625,-2.22216796875,3.98388671875
0.116,-1.78173828125,-2.70263671875,3.90380859375
0.1165,-1.22119140625,-3.50341796875,4.14404296875
0.117,-0.46044921875,-3.66357421875,3.54345703125
0.1175,0.22021484375,-4.10400390625,3.30322265625
0.118,1.34130859375,-4.22412109375,2.38232421875
0.1185,2.10205078125,-4.54443359375,1.94189453125
0.119,2.66259765625,-4.38427734375,1.18115234375
0.1195,3.06298828125,-4.46435546875,0.86083984375
0.12,3.18310546875,-3.86376953125,0.10009765625
0.1205,3.38330078125,-3.54345703125,-0.46044921875
0.121,3.66357421875,-2.74267578125,-1.50146484375
0.1215,3.70361328125,-2.18212890625,-1.94189453125
0.122,3.70361328125,-1.50146484375,-2.66259765625
0.1225,3.22314453125,-0.82080078125,-2.86279296875
0.123,2.98291015625,-0.14013671875,-3.22314453125
0.1235,2.30224609375,0.74072265625,-3.42333984375
0.124,1.94189453125,1.58154296875,-3.82373046875
0.1245,1.30126953125,2.06201171875,-3.70361328125
0.125,0.90087890625,2.70263671875,-3.90380859375
0.1255,0.10009765625,2.86279296875,-3.26318359375
0.126,-0.58056640625,3.30322265625,-3.06298828125
0.1265,-1.70166015625,3.54345703125,-2.22216796875
0.127,-2.26220703125,3.74365234375,-1.78173828125
0.1275,-2.86279296875,3.78369140625,-1.26123046875
0.128,-3.06298828125,3.58349609375,-0.94091796875
0.1285,-3.42333984375,3.22314453125,-0.34033203125
0.129,-3.54345703125,2.70263671875,0.34033203125
0.1295,-3.98388671875,2.34228515625,1.26123046875
0.13,-3.86376953125,1.62158203125,1.78173828125
0.1305,-4.14404296875,1.22119140625,2.50244140625
0.131,-3.54345703125,0.34033203125,2.70263671875
0.1315,-3.46337890625,-0.18017578125,3.18310546875
0.132,-2.62255859375,-1.26123046875,3.38330078125
0.1325,-2.38232421875,-1.90185546875,3.78369140625
0.133,-1.70166015625,-2.58251953125,3.74365234375
0.1335,-1.30126953125,-3.06298828125,3.78369140625
0.134,-0.46044921875,-3.38330078125,3.26318359375
0.1345,0.34033203125,-3.74365234375,2.86279296875
0.135,1.34130859375,-4.14404296875,2.26220703125
0.1355,1.82177734375,-4.14404296875,1.78173828125
0.136,2.46240234375,-4.46435546875,1.34130859375
0.1365,2.62255859375,-3.98388671875,0.78076171875
0.137,2.98291015625,-3.82373046875,0.22021484375
0.1375,3.18310546875,-3.06298828125,-0.66064453125
0.138,3.58349609375,-2.70263671875,-1.42138671875
0.1385,3.38330078125,-1.90185546875,-1.98193359375
0.139,3.54345703125,-1.54150390625,-2.46240234375
0.1395,2.90283203125,-0.62060546875,-2.74267578125
0.14,2.74267578125,0.02001953125,-3.18310546875
0.1405,2.10205078125,1.06103515625,-3.54345703125
0.141,1.70166015625,1.58154296875,-3.66357421875
0.1415,1.14111328125,2.30224609375,-3.82373046875
0.142,0.50048828125,2.62255859375,-3.46337890625
0.1425,-0.22021484375,3.02294921875,-3.14306640625
0.143,-1.22119140625,3.30322265625,-2.46240234375
0.1435,-2.06201171875,3.70361328125,-1.94189453125
0.144,-2.50244140625,3.50341796875,-1.42138671875
0.1445,-2.98291015625,3.70361328125,-1.14111328125
0.145,-3.14306640625,3.18310546875,-0.50048828125
0.1455,-3.46337890625,2.98291015625,0.10009765625
0.146,-3.70361328125,2.26220703125,1.06103515625
0.1465,-3.86376953125,1.86181640625,1.62158203125
0.147,-3.82373046875,1.10107421875,2.30224609375
0.1475,-3.66357421875,0.58056640625,2.62255859375
0.148,-3.18310546875,-0.26025390625,2.98291015625
0.1485,-2.78271484375,-0.98095703125,3.26318359375
0.149,-2.26220703125,-1.94189453125,3.66357421875
0.1495,-1.74169921875,-2.42236328125,3.58349609375
0.15,-1.30126953125,-3.10302734375,3.86376953125
0.1505,-0.50048828125,-3.34326171875,3.26318359375
0.151,0.22021484375,-3.74365234375,2.98291015625
0.1515,1.34130859375,-4.02392578125,2.18212890625
0.152,2.02197265625,-4.34423828125,1.74169921875
0.1525,2.54248046875,-4.22412109375,1.10107421875
0.153,2.86279296875,-4.26416015625,0.78076171875
0.1535,3.06298828125,-3.58349609375,0.06005859375
0.154,3.30322265625,-3.18310546875,-0.62060546875
0.1545,3.70361328125,-2.50244140625,-1.66162109375
0.155,3.54345703125,-1.82177734375,-2.22216796875
0.1555,3.58349609375,-1.22119140625,-2.86279296875
0.156,3.06298828125,-0.46044921875,-3.02294921875
0.1565,2.66259765625,0.30029296875,-3.34326171875
0.157,2.06201171875,1.26123046875,-3.62353515625
0.1575,1.46142578125,2.06201171875,-3.90380859375
0.158,0.82080078125,2.54248046875,-3.70361328125
0.1585,0.34033203125,3.14306640625,-3.78369140625
0.159,-0.62060546875,3.22314453125,-2.94287109375
0.1595,-1.38134765625,3.58349609375,-2.54248046875
0.16,-2.54248046875,3.86376953125,-1.70166015625
0.1605,-3.06298828125,3.78369140625,-1.14111328125
0.161,-3.54345703125,3.70361328125,-0.62060546875
0.1615,-3.70361328125,3.38330078125,0.02001953125
0.162,-3.82373046875,2.82275390625,0.62060546875
0.1625,-3.98388671875,2.18212890625,1.42138671875
0.163,-4.30419921875,1.54150390625,2.38232421875
0.1635,-3.82373046875,0.66064453125,2.78271484375
0.164,-3.98388671875,0.14013671875,3.34326171875
0.1645,-3.14306640625,-0.74072265625,3.34326171875
0.165,-2.78271484375,-1.46142578125,3.70361328125
0.1655,-1.94189453125,-2.50244140625,3.86376953125
0.166,-1.30126953125,-3.18310546875,3.94384765625
0.1665,-0.66064453125,-3.62353515625,3.70361328125
0.167,-0.14013671875,-3.98388671875,3.54345703125
0.1675,0.90087890625,-4.14404296875,2.70263671875
0.168,1.70166015625,-4.50439453125,2.18212890625
0.1685,2.82275390625,-4.74462890625,1.30126953125
0.169,3.18310546875,-4.46435546875,0.62060546875
0.1695,3.66357421875,-4.38427734375,0.26025390625
0.17,3.70361328125,-3.70361328125,-0.50048828125
0.1705,3.86376953125,-3.10302734375,-1.26123046875
0.171,3.98388671875,-2.26220703125,-2.22216796875
0.1715,4.18408203125,-1.58154296875,-3.06298828125
0.172,3.58349609375,-0.62060546875,-3.38330078125
0.1725,3.54345703125,-0.06005859375,-3.86376953125
0.173,2.50244140625,1.02099609375,-3.86376953125
0.1735,2.02197265625,1.78173828125,-4.18408203125
0.174,1.14111328125,2.86279296875,-4.30419921875
0.1745,0.38037109375,3.50341796875,-4.14404296875
0.175,-0.30029296875,3.86376953125,-3.86376953125
0.1755,-1.22119140625,4.18408203125,-3.34326171875
0.176,-2.30224609375,4.22412109375,-2.30224609375
0.1765,-3.18310546875,4.34423828125,-1.58154296875
0.177,-4.18408203125,4.50439453125,-0.78076171875
0.1775,-4.38427734375,3.98388671875,0.06005859375
0.178,-4.70458984375,3.86376953125,0.50048828125
0.1785,-4.70458984375,2.78271484375,1.54150390625
0.179,-4.78466796875,2.10205078125,2.26220703125
0.1795,-4.66455078125,1.10107421875,3.14306640625
0.18,-4.66455078125,0.34033203125,3.86376953125
0.1805,-3.86376953125,-0.66064453125,4.06396484375
0.181,-3.66357421875,-1.26123046875,4.42431640625
0.1815,-2.38232421875,-2.54248046875,4.34423828125
0.182,-1.78173828125,-3.18310546875,4.42431640625
0.1825,-0.82080078125,-4.22412109375,4.42431640625
0.183,0.02001953125,-4.62451171875,4.06396484375
0.1835,0.62060546875,-4.90478515625,3.70361328125
0.184,1.66162109375,-5.14501953125,2.86279296875
0.1845,2.74267578125,-5.18505859375,1.86181640625
0.185,3.50341796875,-5.10498046875,0.98095703125
0.1855,4.34423828125,-5.14501953125,0.26025390625
0.186,4.42431640625,-4.42431640625,-0.58056640625
0.1865,4.66455078125,-4.18408203125,-0.98095703125
0.187,4.62451171875,-2.90283203125,-2.22216796875
0.1875,4.62451171875,-2.22216796875,-2.86279296875
0.188,4.50439453125,-1.18115234375,-3.82373046875
0.1885,4.34423828125,-0.34033203125,-4.42431640625
0.189,3.46337890625,0.66064453125,-4.50439453125
0.1895,3.06298828125,1.34130859375,-4.78466796875
0.19,1.74169921875,2.74267578125,-4.78466796875
0.1905,1.06103515625,3.38330078125,-4.74462890625
0.191,0.10009765625,4.34423828125,-4.70458984375
0.1915,-0.78076171875,4.66455078125,-4.18408203125
0.192,-1.50146484375,4.82470703125,-3.70361328125
0.1925,-2.78271484375,5.02490234375,-2.62255859375
0.193,-3.98388671875,5.10498046875,-1.54150390625
0.1935,-4.62451171875,4.78466796875,-0.50048828125
0.194,-5.42529296875,4.82470703125,0.26025390625
0.1945,-5.38525390625,3.86376953125,1.10107421875
0.195,-5.50537109375,3.50341796875,1.58154296875
0.1955,-5.46533203125,2.06201171875,3.02294921875
0.196,-5.34521484375,1.26123046875,3.70361328125
0.1965,-5.06494140625,0.14013671875,4.46435546875
0.197,-4.66455078125,-0.78076171875,4.94482421875
0.1975,-3.74365234375,-1.74169921875,4.94482421875
0.198,-3.06298828125,-2.54248046875,5.06494140625
0.1985,-1.70166015625,-3.98388671875,5.10498046875
0.199,-0.78076171875,-4.54443359375,4.74462890625
