wavelength,x,y,z
0.0,-0.630615234375,-22.852294921875,23.232666015625
0.0005,4.694580078125,-24.694091796875,19.869384765625
0.001,10.500244140625,-26.896240234375,16.385986328125
0.0015,15.064697265625,-26.856201171875,11.781494140625
0.002,19.428955078125,-26.415771484375,7.056884765625
0.0025,22.031494140625,-25.534912109375,3.653564453125
0.003,25.034423828125,-22.692138671875,-2.352294921875
0.0035,27.196533203125,-19.569091796875,-7.637451171875
0.004,27.356689453125,-14.804443359375,-12.602294921875
0.0045,28.037353515625,-11.321044921875,-16.726318359375
0.005,26.395751953125,-6.356201171875,-20.089599609375
0.0055,24.914306640625,-2.072021484375,-22.892333984375
0.006,21.591064453125,3.493408203125,-25.014404296875
0.0065,18.468017578125,9.339111328125,-27.777099609375
0.007,12.782470703125,14.063720703125,-26.856201171875
0.0075,8.858642578125,18.267822265625,-27.176513671875
0.008,4.494384765625,20.710205078125,-25.334716796875
0.0085,-1.551513671875,23.873291015625,-22.612060546875
0.009,-6.556396484375,25.474853515625,-19.248779296875
0.0095,-12.522216796875,27.036376953125,-15.004638671875
0.01,-16.406005859375,26.916259765625,-10.960693359375
0.0105,-20.570068359375,26.115478515625,-5.995849609375
0.011,-22.692138671875,24.593994140625,-2.312255859375
0.0115,-25.374755859375,21.631103515625,3.413330078125
0.012,-27.416748046875,18.227783203125,8.818603515625
0.0125,-26.896240234375,13.022705078125,13.583251953125
0.013,-27.576904296875,9.939697265625,17.266845703125
0.0135,-25.695068359375,5.175048828125,20.189697265625
0.014,-23.853271484375,0.570556640625,22.992431640625
0.0145,-20.650146484375,-4.634521484375,24.874267578125
0.015,-16.966552734375,-10.640380859375,27.196533203125
0.0155,-11.721435546875,-14.764404296875,26.115478515625
0.016,-7.717529296875,-18.728271484375,26.115478515625
0.0165,-3.473388671875,-20.770263671875,23.833251953125
0.017,2.452392578125,-23.853271484375,21.230712890625
0.0175,7.497314453125,-25.414794921875,17.787353515625
0.018,13.182861328125,-26.215576171875,13.022705078125
0.0185,16.666259765625,-26.335693359375,9.779541015625
0.019,20.550048828125,-25.174560546875,4.774658203125
0.0195,22.672119140625,-23.492919921875,0.890869140625
0.02,24.994384765625,-20.610107421875,-4.394287109375
0.0205,26.956298828125,-17.166748046875,-9.879638671875
0.021,26.115478515625,-12.001708984375,-14.163818359375
0.0215,26.756103515625,-9.118896484375,-17.687255859375
0.022,24.593994140625,-4.434326171875,-20.209716796875
0.0225,22.752197265625,0.570556640625,-23.252685546875
0.023,19.348876953125,5.575439453125,-24.934326171875
0.0235,15.304931640625,11.501220703125,-26.776123046875
0.024,10.740478515625,15.104736328125,-25.935302734375
0.0245,6.416259765625,18.988525390625,-25.494873046875
0.025,2.092041015625,20.790283203125,-23.052490234375
0.0255,-3.553466796875,23.833251953125,-20.650146484375
0.026,-8.838623046875,25.434814453125,-16.926513671875
0.0265,-14.123779296875,25.755126953125,-12.001708984375
0.027,-17.406982421875,26.155517578125,-9.239013671875
0.0275,-20.970458984375,24.393798828125,-3.873779296875
0.028,-23.292724609375,22.471923828125,0.450439453125
0.0285,-25.254638671875,19.509033203125,5.415283203125
0.029,-27.016357421875,15.705322265625,11.020751953125
0.0295,-26.015380859375,10.620361328125,15.024658203125
0.03,-26.455810546875,7.537353515625,18.588134765625
0.0305,-23.973388671875,2.692626953125,20.950439453125
0.031,-22.091552734375,-2.512451171875,24.193603515625
0.0315,-18.207763671875,-7.557373046875,25.314697265625
0.032,-13.803466796875,-13.403076171875,26.756103515625
0.0325,-9.519287109375,-16.726318359375,25.915283203125
0.033,-4.514404296875,-20.489990234375,24.634033203125
0.0335,0.290283203125,-22.371826171875,21.791259765625
0.034,5.735595703125,-25.134521484375,19.388916015625
0.0345,11.341064453125,-26.215576171875,14.864501953125
0.035,16.105712890625,-26.135498046875,10.099853515625
0.0355,19.348876953125,-26.375732421875,7.177001953125
0.036,22.752197265625,-24.053466796875,1.411376953125
0.0365,25.114501953125,-21.651123046875,-3.513427734375
0.037,26.555908203125,-18.247802734375,-8.318115234375
0.0375,27.877197265625,-14.163818359375,-13.803466796875
0.038,26.555908203125,-9.158935546875,-17.447021484375
0.0385,26.315673828125,-5.635498046875,-20.770263671875
0.039,23.192626953125,-0.270263671875,-23.012451171875
0.0395,21.110595703125,5.175048828125,-26.255615234375
0.04,16.185791015625,10.340087890625,-26.535888671875
0.0405,11.781494140625,15.625244140625,-27.456787109375
0.041,7.697509765625,18.628173828125,-26.415771484375
0.0415,2.092041015625,22.031494140625,-24.333740234375
0.042,-2.992919921875,23.873291015625,-21.170654296875
0.0425,-8.398193359375,26.395751953125,-18.407958984375
0.043,-13.803466796875,26.876220703125,-13.523193359375
0.0435,-18.007568359375,26.315673828125,-8.798583984375
0.044,-20.970458984375,26.075439453125,-5.595458984375
0.0445,-23.973388671875,23.232666015625,0.330322265625
0.045,-26.295654296875,20.550048828125,5.415283203125
0.0455,-26.936279296875,16.385986328125,10.219970703125
0.046,-27.897216796875,12.462158203125,15.104736328125
0.0465,-26.415771484375,7.697509765625,18.427978515625
0.047,-25.534912109375,3.813720703125,21.390869140625
0.0475,-22.331787109375,-1.591552734375,23.512939453125
0.048,-20.009521484375,-6.916748046875,26.515869140625
0.0485,-14.684326171875,-12.041748046875,26.235595703125
0.049,-10.320068359375,-16.646240234375,26.555908203125
0.0495,-6.676513671875,-19.248779296875,25.474853515625
0.05,-0.670654296875,-22.291748046875,22.752197265625
0.0505,4.214111328125,-24.133544921875,19.869384765625
0.051,9.739501953125,-26.015380859375,16.225830078125
0.0515,14.424072265625,-26.415771484375,12.061767578125
0.052,18.387939453125,-25.614990234375,7.337158203125
0.0525,20.950439453125,-25.014404296875,4.214111328125
0.053,23.673095703125,-22.171630859375,-1.471435546875
0.0535,26.075439453125,-19.569091796875,-6.476318359375
0.054,25.995361328125,-15.004638671875,-11.040771484375
0.0545,26.916259765625,-11.521240234375,-15.525146484375
0.055,25.554931640625,-7.277099609375,-18.287841796875
0.0555,24.033447265625,-2.832763671875,-21.290771484375
0.056,21.190673828125,2.052001953125,-23.252685546875
0.0565,18.307861328125,7.657470703125,-26.015380859375
0.057,13.383056640625,12.302001953125,-25.775146484375
0.0575,9.098876953125,16.506103515625,-25.695068359375
0.058,5.815673828125,18.708251953125,-24.654052734375
0.0585,-0.230224609375,21.831298828125,-21.811279296875
0.059,-4.874755859375,23.833251953125,-19.248779296875
0.0595,-10.440185546875,25.034423828125,-14.964599609375
0.06,-14.484130859375,25.755126953125,-11.681396484375
0.0605,-18.207763671875,24.754150390625,-6.996826171875
0.061,-20.650146484375,23.753173828125,-3.553466796875
0.0615,-23.212646484375,20.990478515625,1.851806640625
0.062,-25.695068359375,18.267822265625,7.096923828125
0.0625,-25.254638671875,13.423095703125,11.541259765625
0.063,-26.135498046875,10.219970703125,15.585205078125
0.0635,-24.814208984375,6.416259765625,18.027587890625
0.064,-23.012451171875,1.531494140625,21.150634765625
0.0645,-20.289794921875,-3.273193359375,23.192626953125
0.065,-16.806396484375,-9.118896484375,25.474853515625
0.0655,-12.362060546875,-13.322998046875,25.194580078125
0.066,-7.997802734375,-17.166748046875,24.834228515625
0.0665,-4.354248046875,-19.088623046875,23.192626953125
0.067,1.531494140625,-22.131591796875,20.550048828125
0.0675,6.576416015625,-24.293701171875,17.667236328125
0.068,11.901611328125,-24.734130859375,12.822509765625
0.0685,15.545166015625,-25.574951171875,10.099853515625
0.069,19.028564453125,-24.293701171875,5.375244140625
0.0695,21.470947265625,-22.772216796875,1.331298828125
0.07,23.713134765625,-20.009521484375,-3.793701171875
0.0705,26.115478515625,-16.926513671875,-9.239013671875
0.071,25.274658203125,-12.001708984375,-13.322998046875
0.0715,25.875244140625,-8.838623046875,-17.086669921875
0.072,23.993408203125,-4.874755859375,-19.168701171875
0.0725,22.031494140625,0.370361328125,-22.451904296875
0.073,18.868408203125,5.295166015625,-24.213623046875
0.0735,14.704345703125,11.020751953125,-25.775146484375
0.074,10.860595703125,14.624267578125,-25.494873046875
0.0745,6.216064453125,18.307861328125,-24.573974609375
0.075,2.252197265625,20.069580078125,-22.451904296875
0.0755,-3.273193359375,22.872314453125,-19.889404296875
0.076,-8.758544921875,24.954345703125,-16.526123046875
0.0765,-13.643310546875,24.754150390625,-11.521240234375
0.077,-16.926513671875,25.474853515625,-8.998779296875
0.0775,-19.969482421875,23.552978515625,-4.033935546875
0.078,-22.491943359375,21.751220703125,0.410400390625
0.0785,-24.213623046875,18.748291015625,5.135009765625
0.079,-26.095458984375,15.104736328125,10.660400390625
0.0795,-25.174560546875,10.580322265625,14.263916015625
0.08,-25.294677734375,7.177001953125,17.787353515625
0.0805,-23.092529296875,3.253173828125,19.509033203125
0.081,-21.130615234375,-2.072021484375,22.752197265625
0.0815,-17.607177734375,-7.156982421875,24.313720703125
0.082,-13.002685546875,-12.482177734375,25.114501953125
0.0825,-9.799560546875,-15.565185546875,24.994384765625
0.083,-4.834716796875,-18.768310546875,23.272705078125
0.0835,-0.590576171875,-20.690185546875,20.990478515625
0.084,4.454345703125,-23.012451171875,18.508056640625
0.0845,10.179931640625,-24.854248046875,14.664306640625
0.085,14.263916015625,-24.293701171875,10.059814453125
0.0855,17.627197265625,-24.854248046875,7.337158203125
0.086,20.149658203125,-22.692138671875,2.652587890625
0.0865,22.872314453125,-20.770263671875,-2.112060546875
0.087,24.073486328125,-17.647216796875,-6.516357421875
0.0875,25.554931640625,-13.803466796875,-11.841552734375
0.088,24.834228515625,-9.919677734375,-14.964599609375
0.0885,24.313720703125,-6.196044921875,-18.247802734375
0.089,22.071533203125,-2.232177734375,-19.929443359375
0.0895,20.069580078125,2.852783203125,-23.012451171875
0.09,16.145751953125,8.258056640625,-24.373779296875
0.0905,11.541259765625,12.942626953125,-24.453857421875
0.091,8.778564453125,15.945556640625,-24.734130859375
0.0915,3.533447265625,18.668212890625,-22.331787109375
0.092,-0.950927734375,20.950439453125,-20.209716796875
0.0925,-5.515380859375,22.792236328125,-17.607177734375
0.093,-11.080810546875,24.473876953125,-13.803466796875
0.0935,-14.684326171875,23.753173828125,-9.519287109375
0.094,-17.967529296875,23.953369140625,-6.436279296875
0.0945,-20.049560546875,21.671142578125,-2.031982421875
0.095,-22.932373046875,19.669189453125,2.892822265625
0.0955,-23.653076171875,16.105712890625,7.257080078125
0.096,-24.734130859375,12.221923828125,12.181884765625
0.0965,-24.373779296875,9.058837890625,14.984619140625
0.097,-23.212646484375,4.814697265625,18.067626953125
0.0975,-21.130615234375,0.770751953125,19.909423828125
0.098,-18.888427734375,-4.154052734375,22.592041015625
0.0985,-14.924560546875,-9.359130859375,23.953369140625
0.099,-10.400146484375,-13.443115234375,23.432861328125
0.0995,-7.677490234375,-16.285888671875,23.673095703125
0.1,-2.392333984375,-18.728271484375,20.830322265625
0.1005,2.172119140625,-21.210693359375,18.948486328125
0.101,6.856689453125,-22.451904296875,15.585205078125
0.1015,11.861572265625,-23.973388671875,12.141845703125
0.102,15.104736328125,-23.332763671875,8.298095703125
0.1025,18.227783203125,-22.932373046875,4.814697265625
0.103,20.229736328125,-20.650146484375,0.490478515625
0.1035,22.912353515625,-18.568115234375,-4.354248046875
0.104,23.392822265625,-14.764404296875,-8.678466796875
0.1045,23.993408203125,-10.960693359375,-13.122802734375
0.105,23.833251953125,-8.318115234375,-15.645263671875
0.1055,21.911376953125,-3.553466796875,-18.488037109375
0.106,19.989501953125,0.610595703125,-20.650146484375
0.1065,17.146728515625,5.535400390625,-22.612060546875
0.107,13.463134765625,10.500244140625,-23.973388671875
0.1075,9.098876953125,14.023681640625,-23.132568359375
0.108,6.216064453125,16.586181640625,-22.852294921875
0.1085,1.131103515625,18.828369140625,-20.089599609375
0.109,-3.473388671875,21.510986328125,-18.407958984375
0.1095,-8.238037109375,22.191650390625,-14.283935546875
0.11,-12.642333984375,23.432861328125,-11.240966796875
0.1105,-15.685302734375,22.912353515625,-7.717529296875
0.111,-18.488037109375,21.831298828125,-3.753662109375
0.1115,-20.489990234375,19.549072265625,0.570556640625
0.112,-22.812255859375,17.226806640625,5.255126953125
0.1125,-23.212646484375,13.383056640625,9.579345703125
0.113,-23.412841796875,9.619384765625,13.503173828125
0.1135,-23.252685546875,7.177001953125,15.705322265625
0.114,-21.090576171875,2.252197265625,18.468017578125
0.1145,-19.328857421875,-2.072021484375,20.990478515625
0.115,-15.725341796875,-6.996826171875,22.271728515625
0.1155,-12.402099609375,-11.481201171875,23.512939453125
0.116,-8.238037109375,-14.764404296875,22.632080078125
0.1165,-4.634521484375,-17.166748046875,21.510986328125
0.117,0.210205078125,-19.328857421875,19.028564453125
0.1175,5.094970703125,-22.091552734375,16.946533203125
0.118,9.659423828125,-22.291748046875,12.622314453125
0.1185,13.663330078125,-23.292724609375,9.659423828125
0.119,16.385986328125,-22.772216796875,6.456298828125
0.1195,19.228759765625,-21.170654296875,1.971923828125
0.12,21.310791015625,-18.928466796875,-2.432373046875
0.1205,23.112548828125,-16.005615234375,-7.237060546875
0.121,23.633056640625,-12.522216796875,-11.240966796875
0.1215,23.352783203125,-8.678466796875,-14.884521484375
0.122,22.672119140625,-5.755615234375,-16.966552734375
0.1225,20.389892578125,-0.710693359375,-19.729248046875
0.123,18.307861328125,4.134033203125,-22.411865234375
0.1235,13.863525390625,8.978759765625,-22.812255859375
0.124,11.020751953125,12.862548828125,-23.973388671875
0.1245,6.896728515625,15.865478515625,-22.772216796875
0.125,2.652587890625,18.307861328125,-21.130615234375
0.1255,-1.951904296875,20.349853515625,-18.648193359375
0.126,-7.317138671875,22.912353515625,-16.005615234375
0.1265,-11.401123046875,22.752197265625,-11.761474609375
0.127,-15.324951171875,23.352783203125,-8.478271484375
0.1275,-17.567138671875,22.351806640625,-5.195068359375
0.128,-20.449951171875,20.389892578125,-0.350341796875
0.1285,-22.371826171875,17.787353515625,4.174072265625
0.129,-23.412841796875,14.143798828125,8.978759765625
0.1295,-24.013427734375,11.060791015625,12.502197265625
0.13,-23.252685546875,7.096923828125,15.865478515625
0.1305,-22.011474609375,3.853759765625,17.827392578125
0.131,-19.729248046875,-1.071044921875,20.389892578125
0.1315,-17.166748046875,-6.276123046875,23.072509765625
0.132,-12.442138671875,-10.720458984375,22.752197265625
0.1325,-9.679443359375,-14.243896484375,23.633056640625
0.133,-5.475341796875,-16.686279296875,21.911376953125
0.1335,-0.790771484375,-19.368896484375,19.869384765625
0.134,3.613525390625,-21.130615234375,17.346923828125
0.1345,9.138916015625,-23.092529296875,13.943603515625
0.135,12.622314453125,-22.972412109375,10.420166015625
0.1355,16.385986328125,-23.092529296875,6.736572265625
0.136,18.267822265625,-21.731201171875,3.533447265625
0.1365,21.030517578125,-19.689208984375,-1.431396484375
0.137,22.912353515625,-17.006591796875,-5.955810546875
0.1375,23.232666015625,-12.882568359375,-10.520263671875
0.138,23.993408203125,-10.280029296875,-13.803466796875
0.1385,22.672119140625,-6.115966796875,-16.646240234375
0.139,21.110595703125,-2.392333984375,-18.848388671875
0.1395,18.868408203125,2.252197265625,-21.090576171875
0.14,15.745361328125,7.777587890625,-23.532958984375
0.1405,11.220947265625,11.581298828125,-22.892333984375
0.141,8.298095703125,15.184814453125,-23.532958984375
0.1415,4.294189453125,17.066650390625,-21.450927734375
0.142,-0.630615234375,19.909423828125,-19.529052734375
0.1425,-5.034912109375,21.551025390625,-16.806396484375
0.143,-10.400146484375,22.952392578125,-12.882568359375
0.1435,-13.523193359375,23.112548828125,-9.999755859375
0.144,-17.086669921875,22.592041015625,-5.955810546875
0.1445,-18.928466796875,20.990478515625,-2.512451171875
0.145,-21.450927734375,18.748291015625,2.292236328125
0.1455,-23.252685546875,15.665283203125,7.177001953125
0.146,-23.092529296875,11.421142578125,11.381103515625
0.1465,-23.893310546875,9.098876953125,14.464111328125
0.147,-22.131591796875,4.854736328125,16.946533203125
0.1475,-20.570068359375,0.690673828125,19.549072265625
0.148,-17.967529296875,-3.873779296875,21.430908203125
0.1485,-14.444091796875,-9.399169921875,23.512939453125
0.149,-10.400146484375,-12.762451171875,22.752197265625
0.1495,-6.956787109375,-16.205810546875,22.832275390625
0.15,-2.712646484375,-17.927490234375,20.389892578125
0.1505,2.172119140625,-20.810302734375,18.548095703125
0.151,6.976806640625,-22.171630859375,15.184814453125
0.1515,11.821533203125,-23.012451171875,11.220947265625
0.152,14.864501953125,-23.372802734375,8.618408203125
0.1525,18.067626953125,-22.251708984375,4.134033203125
0.153,20.189697265625,-20.329833984375,0.170166015625
0.1535,22.271728515625,-18.007568359375,-4.354248046875
0.154,23.833251953125,-14.644287109375,-9.279052734375
0.1545,23.272705078125,-10.320068359375,-13.042724609375
0.155,23.833251953125,-7.917724609375,-16.005615234375
0.1555,21.470947265625,-3.353271484375,-18.247802734375
0.156,19.869384765625,1.211181640625,-21.050537109375
0.1565,16.546142578125,5.815673828125,-22.331787109375
0.157,12.862548828125,10.980712890625,-23.853271484375
0.1575,9.178955078125,14.063720703125,-23.292724609375
0.158,5.135009765625,17.266845703125,-22.451904296875
0.1585,0.730712890625,19.028564453125,-19.889404296875
0.159,-4.033935546875,21.711181640625,-17.967529296875
0.1595,-8.998779296875,22.792236328125,-14.163818359375
0.16,-13.242919921875,23.112548828125,-10.239990234375
0.1605,-16.165771484375,23.432861328125,-7.797607421875
0.161,-18.968505859375,21.591064453125,-3.072998046875
0.1615,-21.210693359375,19.509033203125,1.331298828125
0.162,-22.692138671875,16.666259765625,5.695556640625
0.1625,-24.053466796875,13.262939453125,10.540283203125
0.163,-23.372802734375,9.098876953125,13.903564453125
0.1635,-23.452880859375,6.376220703125,16.826416015625
0.164,-21.010498046875,1.771728515625,18.868408203125
0.1645,-19.328857421875,-2.912841796875,21.871337890625
0.165,-15.324951171875,-7.717529296875,22.592041015625
0.1655,-11.601318359375,-12.402099609375,23.633056640625
0.166,-8.318115234375,-15.244873046875,23.232666015625
0.1665,-3.593505859375,-18.167724609375,21.470947265625
0.167,0.930908203125,-20.009521484375,18.988525390625
0.1675,5.735595703125,-22.451904296875,16.626220703125
0.168,10.580322265625,-23.332763671875,12.742431640625
0.1685,14.544189453125,-23.292724609375,8.778564453125
0.169,17.386962890625,-23.492919921875,6.095947265625
0.1695,20.029541015625,-21.290771484375,1.171142578125
0.17,22.511962890625,-18.968505859375,-3.593505859375
0.1705,23.392822265625,-15.525146484375,-7.917724609375
0.171,24.634033203125,-12.241943359375,-12.482177734375
0.1715,23.753173828125,-8.318115234375,-15.525146484375
0.172,23.072509765625,-4.754638671875,-18.407958984375
0.1725,20.429931640625,0.010009765625,-20.449951171875
0.173,18.387939453125,5.094970703125,-23.412841796875
0.1735,13.823486328125,9.819580078125,-23.653076171875
0.174,10.059814453125,14.103759765625,-24.213623046875
0.1745,6.896728515625,16.706298828125,-23.653076171875
0.175,1.531494140625,19.589111328125,-21.290771484375
0.1755,-3.153076171875,21.551025390625,-18.648193359375
0.176,-8.358154296875,23.552978515625,-15.525146484375
0.1765,-12.722412109375,24.153564453125,-11.881591796875
0.177,-16.526123046875,23.713134765625,-7.677490234375
0.1775,-19.088623046875,23.152587890625,-4.554443359375
0.178,-21.651123046875,20.670166015625,0.610595703125
0.1785,-24.093505859375,18.107666015625,5.655517578125
0.179,-24.173583984375,13.783447265625,10.019775390625
0.1795,-25.174560546875,10.700439453125,14.183837890625
0.18,-24.053466796875,6.776611328125,16.946533203125
0.1805,-22.772216796875,2.612548828125,19.789306640625
