wavelength,x,y,z
0.0,-2.112060546875,-4.994873046875,5.255126953125
0.0005,-3.353271484375,-4.073974609375,5.775634765625
0.001,-4.354248046875,-3.072998046875,6.015869140625
0.0015,-5.034912109375,-2.312255859375,6.216064453125
0.002,-5.155029296875,-1.551513671875,5.855712890625
0.0025,-5.034912109375,-0.630615234375,5.094970703125
0.003,-5.074951171875,0.530517578125,4.374267578125
0.0035,-5.155029296875,1.771728515625,3.453369140625
0.004,-5.114990234375,2.892822265625,2.532470703125
0.0045,-4.954833984375,3.773681640625,1.731689453125
0.005,-4.314208984375,4.134033203125,0.850830078125
0.0055,-3.353271484375,4.334228515625,-0.350341796875
0.006,-2.512451171875,4.934814453125,-1.671630859375
0.0065,-1.591552734375,5.295166015625,-2.912841796875
0.007,-0.870849609375,5.695556640625,-3.993896484375
0.0075,0.010009765625,5.615478515625,-4.754638671875
0.008,1.131103515625,4.854736328125,-5.155029296875
0.0085,2.372314453125,3.893798828125,-5.715576171875
0.009,3.533447265625,2.852783203125,-6.115966796875
0.0095,4.334228515625,1.931884765625,-6.276123046875
0.01,4.854736328125,1.251220703125,-6.356201171875
0.0105,4.894775390625,0.490478515625,-5.795654296875
0.011,4.734619140625,-0.630615234375,-4.954833984375
0.0115,4.814697265625,-1.871826171875,-4.114013671875
0.012,4.814697265625,-3.113037109375,-3.113037109375
0.0125,4.734619140625,-4.154052734375,-2.192138671875
0.013,4.454345703125,-4.834716796875,-1.391357421875
0.0135,3.573486328125,-5.114990234375,-0.390380859375
0.014,2.572509765625,-5.435302734375,0.890869140625
0.0145,1.571533203125,-5.875732421875,2.332275390625
0.015,0.690673828125,-6.156005859375,3.493408203125
0.0155,0.010009765625,-6.436279296875,4.494384765625
0.016,-0.990966796875,-6.075927734375,5.054931640625
0.0165,-2.192138671875,-5.114990234375,5.375244140625
0.017,-3.473388671875,-4.154052734375,5.895751953125
0.0175,-4.554443359375,-3.072998046875,6.135986328125
0.018,-5.195068359375,-2.152099609375,6.256103515625
0.0185,-5.435302734375,-1.431396484375,6.095947265625
0.019,-5.275146484375,-0.550537109375,5.295166015625
0.0195,-5.155029296875,0.610595703125,4.414306640625
0.02,-5.235107421875,1.931884765625,3.413330078125
0.0205,-5.155029296875,3.093017578125,2.412353515625
0.021,-5.034912109375,4.053955078125,1.571533203125
0.0215,-4.434326171875,4.454345703125,0.730712890625
0.022,-3.433349609375,4.614501953125,-0.470458984375
0.0225,-2.432373046875,5.054931640625,-1.791748046875
0.023,-1.391357421875,5.415283203125,-3.153076171875
0.0235,-0.630615234375,5.695556640625,-4.194091796875
0.024,0.170166015625,5.775634765625,-5.034912109375
0.0245,1.251220703125,5.014892578125,-5.475341796875
0.025,2.492431640625,3.973876953125,-5.835693359375
0.0255,3.813720703125,2.852783203125,-6.356201171875
0.026,4.654541015625,1.891845703125,-6.476318359375
0.0265,5.215087890625,1.010986328125,-6.516357421875
0.027,5.255126953125,0.290283203125,-6.075927734375
0.0275,5.014892578125,-0.830810546875,-5.114990234375
0.028,4.974853515625,-2.072021484375,-4.114013671875
0.0285,4.974853515625,-3.353271484375,-3.032958984375
0.029,4.814697265625,-4.514404296875,-1.991943359375
0.0295,4.614501953125,-5.235107421875,-1.231201171875
0.03,3.693603515625,-5.475341796875,-0.270263671875
0.0305,2.532470703125,-5.635498046875,1.051025390625
0.031,1.411376953125,-6.115966796875,2.612548828125
0.0315,0.450439453125,-6.356201171875,3.853759765625
0.032,-0.430419921875,-6.596435546875,4.854736328125
0.0325,-1.191162109375,-6.396240234375,5.495361328125
0.033,-2.432373046875,-5.315185546875,5.815673828125
0.0335,-3.833740234375,-4.194091796875,6.256103515625
0.034,-4.954833984375,-2.952880859375,6.536376953125
0.0345,-5.635498046875,-1.951904296875,6.536376953125
0.035,-5.955810546875,-1.151123046875,6.416259765625
0.0355,-5.795654296875,-0.270263671875,5.655517578125
0.036,-5.475341796875,0.970947265625,4.494384765625
0.0365,-5.515380859375,2.412353515625,3.333251953125
0.037,-5.395263671875,3.693603515625,2.212158203125
0.0375,-5.114990234375,4.614501953125,1.251220703125
0.038,-4.594482421875,5.094970703125,0.370361328125
0.0385,-3.473388671875,5.175048828125,-0.790771484375
0.039,-2.192138671875,5.415283203125,-2.272216796875
0.0395,-0.990966796875,5.735595703125,-3.793701171875
0.04,0.010009765625,5.935791015625,-4.874755859375
0.0405,0.650634765625,6.055908203125,-5.755615234375
0.041,1.651611328125,5.335205078125,-6.196044921875
0.0415,3.052978515625,3.973876953125,-6.476318359375
0.042,4.414306640625,2.772705078125,-6.876708984375
0.0425,5.375244140625,1.571533203125,-6.956787109375
0.043,5.895751953125,0.610595703125,-6.836669921875
0.0435,5.895751953125,-0.270263671875,-6.396240234375
0.044,5.575439453125,-1.311279296875,-5.315185546875
0.0445,5.295166015625,-2.632568359375,-4.033935546875
0.045,5.175048828125,-4.114013671875,-2.752685546875
0.0455,4.974853515625,-5.195068359375,-1.631591796875
0.046,4.614501953125,-5.955810546875,-0.710693359375
0.0465,3.773681640625,-6.156005859375,0.290283203125
0.047,2.412353515625,-6.156005859375,1.571533203125
0.0475,1.091064453125,-6.436279296875,3.173095703125
0.048,-0.190185546875,-6.596435546875,4.534423828125
0.0485,-0.990966796875,-6.716552734375,5.495361328125
0.049,-1.671630859375,-6.596435546875,6.135986328125
0.0495,-2.872802734375,-5.595458984375,6.416259765625
0.05,-4.194091796875,-4.114013671875,6.696533203125
0.0505,-5.435302734375,-2.872802734375,6.936767578125
0.051,-6.156005859375,-1.671630859375,6.856689453125
0.0515,-6.436279296875,-0.830810546875,6.696533203125
0.052,-6.276123046875,0.130126953125,5.935791015625
0.0525,-5.795654296875,1.251220703125,4.654541015625
0.053,-5.635498046875,2.572509765625,3.453369140625
0.0535,-5.475341796875,3.933837890625,2.172119140625
0.054,-5.155029296875,4.854736328125,1.091064453125
0.0545,-4.754638671875,5.495361328125,0.290283203125
0.055,-3.713623046875,5.575439453125,-0.830810546875
0.0555,-2.272216796875,5.575439453125,-2.192138671875
0.056,-1.031005859375,5.895751953125,-3.793701171875
0.0565,0.130126953125,6.015869140625,-4.994873046875
0.057,0.770751953125,6.095947265625,-5.835693359375
0.0575,1.571533203125,5.735595703125,-6.396240234375
0.058,2.852783203125,4.494384765625,-6.636474609375
0.0585,4.214111328125,3.173095703125,-6.916748046875
0.059,5.335205078125,1.931884765625,-7.076904296875
0.0595,5.895751953125,0.810791015625,-6.956787109375
0.06,6.135986328125,0.050048828125,-6.756591796875
0.0605,5.815673828125,-0.990966796875,-5.835693359375
0.061,5.415283203125,-2.192138671875,-4.514404296875
0.0615,5.335205078125,-3.593505859375,-3.273193359375
0.062,5.135009765625,-4.874755859375,-2.031982421875
0.0625,4.814697265625,-5.755615234375,-1.031005859375
0.063,4.214111328125,-6.236083984375,-0.190185546875
0.0635,3.052978515625,-6.236083984375,1.010986328125
0.064,1.611572265625,-6.396240234375,2.532470703125
0.0645,0.330322265625,-6.676513671875,4.053955078125
0.065,-0.710693359375,-6.756591796875,5.135009765625
0.0655,-1.351318359375,-6.916748046875,5.935791015625
0.066,-2.312255859375,-6.115966796875,6.376220703125
0.0665,-3.633544921875,-4.714599609375,6.536376953125
0.067,-4.994873046875,-3.473388671875,6.896728515625
0.0675,-5.915771484375,-2.232177734375,6.976806640625
0.068,-6.396240234375,-1.271240234375,6.776611328125
0.0685,-6.396240234375,-0.430419921875,6.376220703125
0.069,-6.075927734375,0.690673828125,5.295166015625
0.0695,-5.755615234375,1.931884765625,4.013916015625
0.07,-5.635498046875,3.373291015625,2.692626953125
0.0705,-5.395263671875,4.494384765625,1.571533203125
0.071,-5.074951171875,5.335205078125,0.650634765625
0.0715,-4.194091796875,5.575439453125,-0.350341796875
0.072,-2.872802734375,5.495361328125,-1.591552734375
0.0725,-1.591552734375,5.855712890625,-3.193115234375
0.073,-0.350341796875,6.015869140625,-4.634521484375
0.0735,0.490478515625,6.095947265625,-5.635498046875
0.074,1.251220703125,6.055908203125,-6.276123046875
0.0745,2.372314453125,5.054931640625,-6.556396484375
0.075,3.773681640625,3.693603515625,-6.836669921875
0.0755,5.014892578125,2.372314453125,-7.156982421875
0.076,5.775634765625,1.171142578125,-7.076904296875
0.0765,6.176025390625,0.290283203125,-6.956787109375
0.077,6.055908203125,-0.670654296875,-6.276123046875
0.0775,5.655517578125,-1.871826171875,-5.034912109375
0.078,5.455322265625,-3.193115234375,-3.753662109375
0.0785,5.255126953125,-4.634521484375,-2.392333984375
0.079,4.934814453125,-5.635498046875,-1.271240234375
0.0795,4.534423828125,-6.276123046875,-0.390380859375
0.08,3.453369140625,-6.396240234375,0.770751953125
0.0805,2.011962890625,-6.396240234375,2.132080078125
0.081,0.650634765625,-6.716552734375,3.773681640625
0.0815,-0.590576171875,-6.796630859375,4.974853515625
0.082,-1.271240234375,-6.836669921875,5.895751953125
0.0825,-2.072021484375,-6.396240234375,6.376220703125
0.083,-3.353271484375,-5.114990234375,6.576416015625
0.0835,-4.674560546875,-3.793701171875,6.856689453125
0.084,-5.755615234375,-2.512451171875,7.016845703125
0.0845,-6.316162109375,-1.391357421875,6.856689453125
0.085,-6.476318359375,-0.630615234375,6.536376953125
0.0855,-6.156005859375,0.410400390625,5.655517578125
0.086,-5.755615234375,1.571533203125,4.334228515625
0.0865,-5.635498046875,3.012939453125,3.052978515625
0.087,-5.395263671875,4.174072265625,1.891845703125
0.0875,-5.074951171875,5.094970703125,0.850830078125
0.088,-4.474365234375,5.455322265625,0.010009765625
0.0885,-3.313232421875,5.415283203125,-1.151123046875
0.089,-1.991943359375,5.575439453125,-2.552490234375
0.0895,-0.790771484375,5.815673828125,-4.033935546875
0.09,0.250244140625,5.975830078125,-5.074951171875
0.0905,0.890869140625,6.095947265625,-5.915771484375
0.091,1.771728515625,5.415283203125,-6.276123046875
0.0915,3.052978515625,4.134033203125,-6.436279296875
0.092,4.334228515625,2.932861328125,-6.836669921875
0.0925,5.255126953125,1.771728515625,-6.916748046875
0.093,5.775634765625,0.770751953125,-6.796630859375
0.0935,5.855712890625,0.010009765625,-6.476318359375
0.094,5.535400390625,-0.990966796875,-5.515380859375
0.0945,5.255126953125,-2.152099609375,-4.434326171875
0.095,5.135009765625,-3.553466796875,-3.193115234375
0.0955,4.974853515625,-4.714599609375,-1.991943359375
0.096,4.734619140625,-5.595458984375,-1.151123046875
0.0965,3.973876953125,-5.915771484375,-0.230224609375
0.097,2.852783203125,-5.995849609375,0.970947265625
0.0975,1.571533203125,-6.356201171875,2.452392578125
0.098,0.450439453125,-6.436279296875,3.853759765625
0.0985,-0.510498046875,-6.636474609375,4.894775390625
0.099,-1.151123046875,-6.676513671875,5.615478515625
0.0995,-2.192138671875,-5.835693359375,5.975830078125
0.1,-3.473388671875,-4.634521484375,6.296142578125
0.1005,-4.754638671875,-3.473388671875,6.656494140625
0.101,-5.595458984375,-2.312255859375,6.656494140625
0.1015,-6.075927734375,-1.431396484375,6.656494140625
0.102,-6.035888671875,-0.630615234375,6.095947265625
0.1025,-5.675537109375,0.490478515625,5.054931640625
0.103,-5.555419921875,1.731689453125,3.973876953125
0.1035,-5.435302734375,3.093017578125,2.772705078125
0.104,-5.275146484375,4.134033203125,1.731689453125
0.1045,-4.954833984375,4.854736328125,0.890869140625
0.105,-4.033935546875,5.054931640625,-0.230224609375
0.1055,-2.872802734375,5.135009765625,-1.431396484375
0.106,-1.711669921875,5.615478515625,-2.912841796875
0.1065,-0.630615234375,5.735595703125,-4.154052734375
0.107,0.170166015625,6.015869140625,-5.114990234375
0.1075,0.970947265625,5.735595703125,-5.715576171875
0.108,2.092041015625,4.734619140625,-6.035888671875
0.1085,3.413330078125,3.573486328125,-6.436279296875
0.109,4.534423828125,2.372314453125,-6.676513671875
0.1095,5.255126953125,1.331298828125,-6.676513671875
0.11,5.575439453125,0.610595703125,-6.556396484375
0.1105,5.415283203125,-0.350341796875,-5.835693359375
0.111,5.094970703125,-1.391357421875,-4.794677734375
0.1115,5.094970703125,-2.712646484375,-3.713623046875
0.112,4.934814453125,-3.953857421875,-2.552490234375
0.1125,4.734619140625,-4.994873046875,-1.591552734375
0.113,4.294189453125,-5.515380859375,-0.790771484375
0.1135,3.253173828125,-5.715576171875,0.290283203125
0.114,2.172119140625,-5.835693359375,1.571533203125
0.1145,1.010986328125,-6.115966796875,3.052978515625
0.115,0.090087890625,-6.356201171875,4.134033203125
0.1155,-0.630615234375,-6.556396484375,5.054931640625
0.116,-1.471435546875,-6.075927734375,5.495361328125
0.1165,-2.632568359375,-4.994873046875,5.735595703125
0.117,-3.873779296875,-3.953857421875,6.216064453125
0.1175,-4.874755859375,-2.872802734375,6.376220703125
0.118,-5.475341796875,-1.951904296875,6.416259765625
0.1185,-5.635498046875,-1.231201171875,6.095947265625
0.119,-5.475341796875,-0.350341796875,5.375244140625
0.1195,-5.275146484375,0.770751953125,4.454345703125
0.12,-5.275146484375,2.052001953125,3.373291015625
0.1205,-5.155029296875,3.133056640625,2.412353515625
0.121,-4.994873046875,4.093994140625,1.531494140625
0.1215,-4.434326171875,4.454345703125,0.690673828125
0.122,-3.433349609375,4.654541015625,-0.390380859375
0.1225,-2.552490234375,5.094970703125,-1.671630859375
0.123,-1.471435546875,5.375244140625,-2.992919921875
0.1235,-0.670654296875,5.655517578125,-4.073974609375
0.124,0.090087890625,5.735595703125,-4.874755859375
0.1245,1.051025390625,5.175048828125,-5.315185546875
0.125,2.212158203125,4.214111328125,-5.715576171875
0.1255,3.453369140625,3.213134765625,-6.156005859375
0.126,4.334228515625,2.212158203125,-6.316162109375
0.1265,4.974853515625,1.411376953125,-6.436279296875
0.127,5.054931640625,0.650634765625,-6.115966796875
0.1275,4.854736328125,-0.310302734375,-5.315185546875
0.128,4.854736328125,-1.351318359375,-4.514404296875
0.1285,4.894775390625,-2.712646484375,-3.553466796875
0.129,4.774658203125,-3.793701171875,-2.552490234375
0.1295,4.614501953125,-4.674560546875,-1.791748046875
0.13,3.933837890625,-4.994873046875,-0.830810546875
0.1305,3.012939453125,-5.195068359375,0.330322265625
0.131,2.052001953125,-5.675537109375,1.651611328125
0.1315,1.131103515625,-5.955810546875,2.852783203125
0.132,0.370361328125,-6.356201171875,3.973876953125
0.1325,-0.470458984375,-6.276123046875,4.654541015625
0.133,-1.471435546875,-5.515380859375,5.054931640625
0.1335,-2.672607421875,-4.674560546875,5.575439453125
0.134,-3.833740234375,-3.713623046875,5.975830078125
0.1345,-4.634521484375,-2.752685546875,6.095947265625
0.135,-5.155029296875,-2.072021484375,6.135986328125
0.1355,-5.155029296875,-1.231201171875,5.655517578125
0.136,-4.994873046875,-0.350341796875,4.894775390625
0.1365,-5.114990234375,0.850830078125,4.134033203125
0.137,-5.114990234375,2.052001953125,3.173095703125
0.1375,-5.114990234375,3.093017578125,2.292236328125
0.138,-4.794677734375,3.813720703125,1.531494140625
0.1385,-4.033935546875,4.134033203125,0.570556640625
0.139,-3.193115234375,4.534423828125,-0.630615234375
0.1395,-2.272216796875,5.054931640625,-1.951904296875
0.14,-1.431396484375,5.375244140625,-3.113037109375
0.1405,-0.790771484375,5.735595703125,-4.154052734375
0.141,0.210205078125,5.415283203125,-4.754638671875
0.1415,1.291259765625,4.614501953125,-5.155029296875
0.142,2.532470703125,3.813720703125,-5.755615234375
0.1425,3.653564453125,2.812744140625,-6.115966796875
0.143,4.414306640625,1.931884765625,-6.276123046875
0.1435,4.774658203125,1.251220703125,-6.236083984375
0.144,4.774658203125,0.370361328125,-5.635498046875
0.1445,4.734619140625,-0.710693359375,-4.834716796875
0.145,4.814697265625,-1.991943359375,-3.993896484375
0.1455,4.774658203125,-3.193115234375,-3.072998046875
0.146,4.774658203125,-4.154052734375,-2.232177734375
0.1465,4.254150390625,-4.674560546875,-1.311279296875
0.147,3.373291015625,-4.954833984375,-0.350341796875
0.1475,2.532470703125,-5.475341796875,1.051025390625
0.148,1.531494140625,-5.835693359375,2.412353515625
0.1485,0.730712890625,-6.156005859375,3.493408203125
0.149,0.010009765625,-6.356201171875,4.374267578125
0.1495,-1.031005859375,-5.795654296875,4.854736328125
0.15,-2.232177734375,-4.954833984375,5.335205078125
0.1505,-3.473388671875,-3.993896484375,5.815673828125
0.151,-4.394287109375,-2.952880859375,6.055908203125
0.1515,-5.074951171875,-2.232177734375,6.216064453125
0.152,-5.155029296875,-1.431396484375,5.815673828125
0.1525,-5.074951171875,-0.590576171875,5.054931640625
0.153,-5.114990234375,0.610595703125,4.334228515625
0.1535,-5.195068359375,1.891845703125,3.333251953125
0.154,-5.114990234375,3.012939453125,2.412353515625
0.1545,-4.954833984375,3.853759765625,1.611572265625
0.155,-4.234130859375,4.174072265625,0.730712890625
0.1555,-3.273193359375,4.454345703125,-0.510498046875
0.156,-2.432373046875,5.014892578125,-1.791748046875
0.1565,-1.511474609375,5.335205078125,-3.032958984375
0.157,-0.790771484375,5.695556640625,-4.114013671875
0.1575,0.130126953125,5.575439453125,-4.794677734375
0.158,1.211181640625,4.814697265625,-5.235107421875
0.1585,2.452392578125,3.853759765625,-5.755615234375
0.159,3.653564453125,2.852783203125,-6.115966796875
0.1595,4.454345703125,1.931884765625,-6.276123046875
0.16,4.934814453125,1.171142578125,-6.316162109375
0.1605,4.854736328125,0.330322265625,-5.755615234375
0.161,4.774658203125,-0.710693359375,-4.874755859375
0.1615,4.814697265625,-1.951904296875,-4.114013671875
0.162,4.814697265625,-3.153076171875,-3.072998046875
0.1625,4.734619140625,-4.194091796875,-2.112060546875
0.163,4.374267578125,-4.834716796875,-1.311279296875
0.1635,3.533447265625,-5.114990234375,-0.350341796875
0.164,2.532470703125,-5.435302734375,0.970947265625
0.1645,1.531494140625,-5.835693359375,2.372314453125
0.165,0.650634765625,-6.156005859375,3.493408203125
0.1655,0.010009765625,-6.436279296875,4.494384765625
0.166,-0.990966796875,-6.035888671875,5.014892578125
0.1665,-2.152099609375,-5.074951171875,5.375244140625
0.167,-3.433349609375,-4.114013671875,5.895751953125
0.1675,-4.514404296875,-3.032958984375,6.135986328125
0.168,-5.155029296875,-2.152099609375,6.256103515625
0.1685,-5.395263671875,-1.431396484375,6.055908203125
0.169,-5.275146484375,-0.590576171875,5.255126953125
0.1695,-5.195068359375,0.570556640625,4.414306640625
0.17,-5.195068359375,1.931884765625,3.453369140625
0.1705,-5.155029296875,3.052978515625,2.452392578125
0.171,-5.034912109375,4.013916015625,1.571533203125
0.1715,-4.434326171875,4.414306640625,0.730712890625
0.172,-3.393310546875,4.574462890625,-0.430419921875
0.1725,-2.472412109375,5.054931640625,-1.791748046875
0.173,-1.431396484375,5.415283203125,-3.153076171875
0.1735,-0.630615234375,5.735595703125,-4.234130859375
0.174,0.170166015625,5.775634765625,-5.034912109375
0.1745,1.251220703125,5.094970703125,-5.475341796875
0.175,2.532470703125,4.013916015625,-5.915771484375
0.1755,3.773681640625,2.892822265625,-6.356201171875
0.176,4.654541015625,1.891845703125,-6.436279296875
0.1765,5.215087890625,1.010986328125,-6.556396484375
0.177,5.255126953125,0.210205078125,-6.035888671875
0.1775,4.974853515625,-0.910888671875,-5.074951171875
0.178,4.974853515625,-2.072021484375,-4.073974609375
0.1785,4.974853515625,-3.393310546875,-2.992919921875
0.179,4.814697265625,-4.514404296875,-1.951904296875
0.1795,4.534423828125,-5.275146484375,-1.151123046875
0.18,3.653564453125,-5.515380859375,-0.190185546875
0.1805,2.532470703125,-5.635498046875,1.131103515625
0.181,1.371337890625,-6.115966796875,2.692626953125
0.1815,0.370361328125,-6.356201171875,3.933837890625
0.182,-0.470458984375,-6.556396484375,4.934814453125
0.1825,-1.271240234375,-6.276123046875,5.495361328125
0.183,-2.512451171875,-5.195068359375,5.815673828125
0.1835,-3.833740234375,-4.073974609375,6.256103515625
0.184,-4.954833984375,-2.872802734375,6.536376953125
0.1845,-5.635498046875,-1.951904296875,6.496337890625
0.185,-5.915771484375,-1.151123046875,6.376220703125
0.1855,-5.755615234375,-0.270263671875,5.535400390625
0.186,-5.435302734375,1.010986328125,4.414306640625
0.1865,-5.435302734375,2.452392578125,3.253173828125
0.187,-5.315185546875,3.693603515625,2.172119140625
0.1875,-5.114990234375,4.614501953125,1.171142578125
0.188,-4.514404296875,5.094970703125,0.330322265625
