wavelength,x,y,z
0.0,11.1708984375,-9.1689453125,-2.40234375
0.0005,10.4501953125,-10.73046875,0.0
0.001,9.1689453125,-10.5302734375,1.2412109375
0.0015,8.7685546875,-11.05078125,2.2822265625
0.002,5.8857421875,-10.41015625,4.6044921875
0.0025,3.5634765625,-9.8095703125,6.4462890625
0.003,1.1611328125,-9.8896484375,9.0087890625
0.0035,-1.12109375,-8.568359375,9.8896484375
0.004,-1.9619140625,-8.16796875,10.3701171875
0.0045,-3.8037109375,-6.806640625,10.8505859375
0.005,-5.9658203125,-4.32421875,10.5302734375
0.0055,-8.328125,-1.8017578125,10.3701171875
0.006,-10.650390625,0.6806640625,10.2099609375
0.0065,-10.8505859375,2.2021484375,8.9287109375
0.007,-11.5712890625,2.9228515625,8.888671875
0.0075,-11.5712890625,5.365234375,6.486328125
0.008,-10.970703125,7.046875,4.1240234375
0.0085,-11.05078125,9.44921875,1.76171875
0.009,-10.2099609375,10.5302734375,-0.400390625
0.0095,-9.048828125,10.330078125,-1.4013671875
0.01,-8.248046875,10.6904296875,-2.642578125
0.0105,-5.3251953125,10.08984375,-5.0849609375
0.011,-2.962890625,9.609375,-7.0068359375
0.0115,-0.6005859375,9.609375,-9.4892578125
0.012,1.4013671875,8.248046875,-10.08984375
0.0125,2.2021484375,7.84765625,-10.490234375
0.013,4.404296875,6.0458984375,-10.890625
0.0135,6.646484375,3.4833984375,-10.5302734375
0.014,9.0087890625,0.9609375,-10.330078125
0.0145,11.0908203125,-1.361328125,-10.169921875
0.015,11.1708984375,-2.8427734375,-8.7685546875
0.0155,11.7314453125,-3.8037109375,-8.3681640625
0.016,11.771484375,-6.5263671875,-5.6455078125
0.0165,11.130859375,-8.0478515625,-3.4033203125
0.017,11.0107421875,-10.330078125,-1.0810546875
0.0175,10.0498046875,-11.2109375,1.041015625
0.018,8.6884765625,-10.7705078125,2.0419921875
0.0185,7.3671875,-10.970703125,3.68359375
0.019,4.32421875,-10.4501953125,6.326171875
0.0195,1.9619140625,-9.8095703125,8.087890625
0.02,-0.5205078125,-9.7294921875,10.4501953125
0.0205,-2.322265625,-8.2880859375,10.8505859375
0.021,-3.2431640625,-7.447265625,11.0107421875
0.0215,-6.005859375,-5.125,11.37109375
0.022,-8.2080078125,-2.4423828125,10.8505859375
0.0225,-10.169921875,0.0,10.4501953125
0.023,-11.9716796875,2.001953125,10.2099609375
0.0235,-11.931640625,3.763671875,8.4482421875
0.024,-12.171875,4.884765625,7.52734375
0.0245,-12.091796875,7.7275390625,4.564453125
0.025,-11.2509765625,9.048828125,2.2822265625
0.0255,-11.05078125,10.9306640625,0.2001953125
0.026,-9.8896484375,11.6513671875,-1.8818359375
0.0265,-8.087890625,10.970703125,-3.0830078125
0.027,-6.3662109375,11.0107421875,-4.96484375
0.0275,-3.2431640625,10.4501953125,-7.5673828125
0.028,-1.041015625,9.609375,-9.0087890625
0.0285,1.201171875,9.44921875,-11.0908203125
0.029,3.123046875,7.767578125,-11.37109375
0.0295,4.32421875,6.486328125,-11.2509765625
0.03,7.287109375,3.84375,-11.53125
0.0305,9.2890625,1.12109375,-10.8505859375
0.031,10.890625,-1.1611328125,-10.2099609375
0.0315,12.412109375,-2.8427734375,-10.009765625
0.032,12.251953125,-4.724609375,-8.0078125
0.0325,12.171875,-6.0458984375,-6.6064453125
0.033,12.1318359375,-8.888671875,-3.7236328125
0.0335,10.9306640625,-9.9296875,-1.361328125
0.034,10.73046875,-11.37109375,0.48046875
0.0345,9.4091796875,-11.8916015625,2.4423828125
0.035,7.3271484375,-11.05078125,3.84375
0.0355,5.28515625,-10.970703125,5.8857421875
0.036,2.3623046875,-10.4501953125,8.328125
0.0365,0.2001953125,-9.4091796875,9.5693359375
0.037,-1.76171875,-9.3291015625,11.3310546875
0.0375,-3.8037109375,-7.4072265625,11.4912109375
0.038,-5.125,-5.845703125,11.2509765625
0.0385,-8.1279296875,-3.0830078125,11.4912109375
0.039,-9.9697265625,-0.4404296875,10.6103515625
0.0395,-11.2509765625,1.521484375,10.009765625
0.04,-12.4921875,3.04296875,9.7294921875
0.0405,-12.1318359375,4.9248046875,7.4072265625
0.041,-12.01171875,6.40625,5.7255859375
0.0415,-12.01171875,9.2490234375,2.9228515625
0.042,-10.6103515625,10.08984375,0.640625
0.0425,-10.5302734375,11.291015625,-0.8408203125
0.043,-8.9287109375,11.5712890625,-2.8427734375
0.0435,-6.7265625,10.6904296875,-4.2841796875
0.044,-4.5244140625,10.6103515625,-6.486328125
0.0445,-1.681640625,10.08984375,-8.8486328125
0.045,0.3203125,9.0087890625,-9.76953125
0.0455,1.9619140625,8.888671875,-11.291015625
0.046,4.1240234375,6.7666015625,-11.37109375
0.0465,5.7255859375,4.884765625,-11.05078125
0.047,8.80859375,2.162109375,-11.291015625
0.0475,10.3701171875,-0.640625,-10.25
0.048,11.451171875,-2.08203125,-9.76953125
0.0485,12.4921875,-3.603515625,-9.3291015625
0.049,12.01171875,-5.6455078125,-6.9267578125
0.0495,11.771484375,-7.3671875,-4.8447265625
0.05,11.8115234375,-10.0498046875,-2.162109375
0.0505,10.2099609375,-10.5703125,0.1201171875
0.051,10.2099609375,-11.5712890625,1.28125
0.0515,8.2880859375,-11.5712890625,3.36328125
0.052,5.8056640625,-10.7705078125,5.044921875
0.0525,3.5234375,-10.650390625,7.3671875
0.053,0.720703125,-10.009765625,9.609375
0.0535,-1.1611328125,-8.8486328125,10.2900390625
0.054,-2.6025390625,-8.6884765625,11.5712890625
0.0545,-4.8447265625,-6.3662109375,11.53125
0.055,-6.806640625,-4.00390625,11.130859375
0.0555,-9.8896484375,-1.28125,11.4111328125
0.056,-11.1708984375,1.361328125,10.08984375
0.0565,-11.8916015625,2.4423828125,9.7294921875
0.057,-12.732421875,4.00390625,8.888671875
0.0575,-12.171875,6.24609375,6.1259765625
0.058,-11.8515625,8.248046875,3.8037109375
0.0585,-11.8115234375,10.810546875,1.12109375
0.059,-10.009765625,10.970703125,-1.0009765625
0.0595,-10.009765625,11.69140625,-1.8818359375
0.06,-7.7275390625,11.53125,-4.1240234375
0.0605,-5.0048828125,10.6103515625,-5.9658203125
0.061,-2.5625,10.5302734375,-8.408203125
0.0615,0.2802734375,9.689453125,-10.41015625
0.062,1.8818359375,8.48828125,-10.810546875
0.0625,3.1630859375,8.16796875,-11.8115234375
0.063,5.6455078125,5.525390625,-11.611328125
0.0635,7.7275390625,2.962890625,-11.0908203125
0.064,10.8505859375,0.0400390625,-11.291015625
0.0645,11.69140625,-2.322265625,-9.849609375
0.065,12.171875,-3.203125,-9.529296875
0.0655,12.7724609375,-4.96484375,-8.248046875
0.066,12.1318359375,-7.20703125,-5.365234375
0.0665,11.771484375,-9.2890625,-2.8427734375
0.067,11.53125,-11.5712890625,-0.2001953125
0.0675,9.6494140625,-11.4111328125,1.5615234375
0.068,9.4892578125,-11.8515625,2.40234375
0.0685,6.8466796875,-11.53125,4.8046875
0.069,4.00390625,-10.6103515625,6.7666015625
0.0695,1.521484375,-10.5302734375,9.2890625
0.07,-1.2412109375,-9.4892578125,10.970703125
0.0705,-2.4423828125,-8.328125,11.0908203125
0.071,-3.8037109375,-7.7275390625,11.771484375
0.0715,-6.40625,-4.884765625,11.53125
0.072,-8.48828125,-2.2421875,11.0107421875
0.0725,-11.37109375,0.560546875,11.0908203125
0.073,-11.8916015625,2.5224609375,9.5693359375
0.0735,-12.251953125,3.3232421875,9.208984375
0.074,-12.572265625,5.4052734375,7.4072265625
0.0745,-11.931640625,7.52734375,4.6044921875
0.075,-11.5712890625,9.609375,2.1220703125
0.0755,-11.2109375,11.5712890625,-0.400390625
0.076,-9.369140625,11.1708984375,-1.841796875
0.0765,-8.96875,11.451171875,-2.6826171875
0.077,-6.1259765625,11.0107421875,-5.205078125
0.0775,-3.4033203125,10.169921875,-7.126953125
0.078,-0.9208984375,10.08984375,-9.6494140625
0.0785,1.521484375,8.96875,-10.890625
0.079,2.482421875,7.9677734375,-10.9306640625
0.0795,4.1240234375,6.88671875,-11.4111328125
0.08,6.7666015625,3.9638671875,-11.1708984375
0.0805,8.80859375,1.44140625,-10.650390625
0.081,11.37109375,-1.201171875,-10.7705078125
0.0815,11.6513671875,-2.9228515625,-9.208984375
0.082,12.01171875,-3.68359375,-8.7685546875
0.0825,12.2119140625,-6.0859375,-6.56640625
0.083,11.53125,-7.9677734375,-4.00390625
0.0835,11.2109375,-9.9296875,-1.6015625
0.084,10.650390625,-11.53125,0.720703125
0.0845,8.96875,-10.9306640625,1.9619140625
0.085,8.2080078125,-11.1708984375,3.0029296875
0.0855,5.1650390625,-10.7705078125,5.7255859375
0.086,2.72265625,-9.9697265625,7.4873046875
0.0865,0.2001953125,-9.849609375,9.9296875
0.087,-1.921875,-8.6484375,10.810546875
0.0875,-2.802734375,-7.7275390625,10.810546875
0.088,-4.8046875,-6.166015625,11.1708984375
0.0885,-7.3671875,-3.36328125,10.890625
0.089,-9.208984375,-1.0009765625,10.3701171875
0.0895,-11.4111328125,1.28125,10.41015625
0.09,-11.53125,2.962890625,8.8486328125
0.0905,-11.8115234375,3.8837890625,8.16796875
0.091,-11.8916015625,6.4462890625,5.685546875
0.0915,-11.2509765625,8.16796875,3.283203125
0.092,-10.890625,9.9296875,1.0810546875
0.0925,-10.25,11.2109375,-1.0009765625
0.093,-8.568359375,10.6103515625,-2.2021484375
0.0935,-7.4072265625,10.6904296875,-3.5634765625
0.094,-4.404296875,10.2900390625,-6.2861328125
0.0945,-2.162109375,9.5693359375,-7.84765625
0.095,0.240234375,9.44921875,-10.08984375
0.0955,2.08203125,8.16796875,-10.6904296875
0.096,3.123046875,7.0869140625,-10.650390625
0.0965,5.5654296875,5.044921875,-11.05078125
0.097,7.9677734375,2.2822265625,-10.7705078125
0.0975,9.609375,0.0400390625,-10.0498046875
0.098,11.53125,-1.8017578125,-10.1298828125
0.0985,11.5712890625,-3.5634765625,-8.408203125
0.099,11.6513671875,-4.6845703125,-7.4072265625
0.0995,11.771484375,-7.3671875,-4.8046875
0.1,11.0107421875,-8.888671875,-2.482421875
0.1005,10.650390625,-10.3701171875,-0.560546875
0.101,9.849609375,-11.37109375,1.44140625
0.1015,7.8876953125,-10.6904296875,2.8427734375
0.102,6.3662109375,-10.6904296875,4.484375
0.1025,3.4033203125,-10.3701171875,7.1669921875
0.103,1.2412109375,-9.4892578125,8.5283203125
0.1035,-0.8408203125,-9.369140625,10.5302734375
0.104,-2.8427734375,-7.9677734375,11.0107421875
0.1045,-4.083984375,-6.5263671875,10.8505859375
0.105,-6.806640625,-4.1640625,11.130859375
0.1055,-9.0888671875,-1.44140625,10.73046875
0.106,-10.41015625,0.7607421875,9.9296875
0.1065,-12.01171875,2.2822265625,9.9697265625
0.107,-11.8916015625,4.2041015625,7.9677734375
0.1075,-11.771484375,5.4853515625,6.5263671875
0.108,-11.8916015625,8.2880859375,3.84375
0.1085,-10.890625,9.609375,1.4013671875
0.109,-10.490234375,10.73046875,-0.3203125
0.1095,-9.529296875,11.53125,-2.1220703125
0.11,-7.20703125,10.650390625,-3.7236328125
0.1105,-5.4052734375,10.5302734375,-5.4853515625
0.111,-2.5224609375,10.2099609375,-8.2080078125
0.1115,-0.2802734375,9.0888671875,-9.2890625
0.112,1.4814453125,9.0087890625,-10.970703125
0.1125,3.5234375,7.3271484375,-11.37109375
0.113,5.125,5.4052734375,-11.05078125
0.1135,7.927734375,2.8828125,-11.2509765625
0.114,10.08984375,0.1201171875,-10.5703125
0.1145,11.0107421875,-1.8017578125,-9.689453125
0.115,12.412109375,-3.0830078125,-9.76953125
0.1155,12.1318359375,-5.125,-7.4072265625
0.116,11.8115234375,-6.7265625,-5.4453125
0.1165,11.9716796875,-9.44921875,-2.8828125
0.117,10.5302734375,-10.4501953125,-0.3603515625
0.1175,10.2099609375,-11.291015625,1.0009765625
0.118,8.96875,-11.8115234375,2.8427734375
0.1185,6.326171875,-10.8505859375,4.64453125
0.119,4.244140625,-10.6103515625,6.6064453125
0.1195,1.4013671875,-10.2900390625,9.208984375
0.12,-0.7607421875,-8.96875,9.9697265625
0.1205,-2.162109375,-8.96875,11.37109375
0.121,-4.3642578125,-6.9267578125,11.53125
0.1215,-6.166015625,-4.64453125,11.130859375
0.122,-9.048828125,-2.0419921875,11.3310546875
0.1225,-10.890625,0.7607421875,10.41015625
0.123,-11.53125,2.2021484375,9.609375
0.1235,-12.6123046875,3.4833984375,9.4091796875
0.124,-12.1318359375,5.685546875,6.6865234375
0.1245,-11.69140625,7.447265625,4.484375
0.125,-11.8916015625,10.08984375,1.921875
0.1255,-10.25,10.73046875,-0.48046875
0.126,-10.009765625,11.37109375,-1.44140625
0.1265,-8.3681640625,11.53125,-3.36328125
0.127,-5.60546875,10.5302734375,-5.28515625
0.1275,-3.4033203125,10.3701171875,-7.3671875
0.128,-0.6005859375,9.8896484375,-9.76953125
0.1285,1.28125,8.4482421875,-10.25
0.129,2.482421875,8.3681640625,-11.4111328125
0.1295,4.8046875,6.166015625,-11.4111328125
0.13,6.7265625,3.7236328125,-10.890625
0.1305,9.689453125,1.0009765625,-11.05078125
0.131,11.1708984375,-1.6015625,-10.009765625
0.1315,11.53125,-2.6025390625,-9.4091796875
0.132,12.412109375,-4.00390625,-8.8486328125
0.1325,11.8916015625,-6.24609375,-6.0859375
0.133,11.451171875,-8.16796875,-3.68359375
0.1335,11.53125,-10.650390625,-1.1611328125
0.134,9.76953125,-10.890625,0.9609375
0.1345,9.609375,-11.37109375,1.7216796875
0.135,7.5673828125,-11.2509765625,3.8037109375
0.1355,4.8046875,-10.41015625,5.7255859375
0.136,2.482421875,-10.2900390625,8.0078125
0.1365,-0.240234375,-9.6494140625,10.08984375
0.137,-1.76171875,-8.4482421875,10.3701171875
0.1375,-2.8828125,-8.087890625,11.2509765625
0.138,-5.28515625,-5.6455078125,11.1708984375
0.1385,-7.3271484375,-3.1630859375,10.6904296875
0.139,-10.2099609375,-0.48046875,10.8505859375
0.1395,-11.2109375,1.8017578125,9.6494140625
0.14,-11.5712890625,2.6025390625,9.208984375
0.1405,-12.1318359375,4.2841796875,8.1279296875
0.141,-11.5712890625,6.4462890625,5.365234375
0.1415,-11.2509765625,8.4482421875,3.04296875
0.142,-11.130859375,10.73046875,0.560546875
0.1425,-9.4892578125,10.650390625,-1.1611328125
0.143,-9.2890625,11.05078125,-1.9619140625
0.1435,-6.88671875,10.7705078125,-4.1640625
0.144,-4.1640625,9.9296875,-6.1259765625
0.1445,-1.8017578125,9.8896484375,-8.5283203125
0.145,0.6806640625,9.0087890625,-10.25
0.1455,1.841796875,8.0478515625,-10.330078125
0.146,3.1630859375,7.447265625,-11.05078125
0.1465,5.685546875,4.8046875,-10.890625
0.147,7.767578125,2.2822265625,-10.4501953125
0.1475,10.5302734375,-0.3603515625,-10.6103515625
0.148,11.2509765625,-2.2822265625,-9.369140625
0.1485,11.5712890625,-3.0830078125,-8.96875
0.149,12.01171875,-5.0849609375,-7.3671875
0.1495,11.451171875,-7.1669921875,-4.64453125
0.15,11.1708984375,-9.12890625,-2.322265625
0.1505,10.890625,-11.1708984375,0.1201171875
0.151,9.2490234375,-10.890625,1.5615234375
0.1515,8.728515625,-11.0908203125,2.40234375
0.152,6.005859375,-10.8505859375,4.96484375
0.1525,3.36328125,-10.08984375,6.88671875
0.153,0.880859375,-10.009765625,9.369140625
0.1535,-1.44140625,-9.0087890625,10.73046875
0.154,-2.5224609375,-8.0078125,10.73046875
0.1545,-4.1240234375,-6.88671875,11.291015625
0.155,-6.9267578125,-3.9638671875,11.1708984375
0.1555,-8.7685546875,-1.6015625,10.5703125
0.156,-11.291015625,0.9208984375,10.73046875
0.1565,-11.8515625,2.802734375,9.3291015625
0.157,-12.01171875,3.763671875,8.48828125
0.1575,-12.251953125,6.1259765625,6.40625
0.158,-11.6513671875,8.16796875,3.68359375
0.1585,-11.1708984375,9.8095703125,1.4814453125
0.159,-10.890625,11.611328125,-0.80078125
0.1595,-8.96875,11.130859375,-2.2822265625
0.16,-7.9677734375,11.130859375,-3.4033203125
0.1605,-5.0048828125,10.810546875,-6.24609375
0.161,-2.5224609375,9.9296875,-7.9677734375
0.1615,0.0,9.7294921875,-10.169921875
0.162,2.162109375,8.7685546875,-11.3310546875
0.1625,3.283203125,7.3671875,-11.1708984375
0.163,5.365234375,5.7255859375,-11.53125
0.1635,8.2080078125,2.72265625,-11.3310546875
0.164,9.76953125,0.2802734375,-10.41015625
0.1645,11.8916015625,-1.8017578125,-10.5703125
0.165,12.2919921875,-3.7236328125,-8.96875
0.1655,12.171875,-4.884765625,-7.7275390625
0.166,12.2919921875,-7.3271484375,-5.4052734375
0.1665,11.5712890625,-9.2490234375,-2.72265625
0.167,10.8505859375,-10.4501953125,-0.640625
0.1675,10.5302734375,-12.01171875,1.361328125
0.168,8.2880859375,-11.4111328125,3.123046875
0.1685,6.966796875,-11.2509765625,4.404296875
0.169,3.8837890625,-10.970703125,7.20703125
0.1695,1.4814453125,-9.9296875,8.728515625
0.17,-0.6806640625,-9.6494140625,10.6103515625
0.1705,-2.7626953125,-8.5283203125,11.611328125
0.171,-4.2041015625,-6.806640625,11.3310546875
0.1715,-6.4462890625,-4.8046875,11.53125
0.172,-9.1689453125,-1.9619140625,11.3310546875
0.1725,-10.41015625,0.560546875,10.169921875
0.173,-12.2119140625,2.08203125,10.3701171875
0.1735,-12.4521484375,4.1240234375,8.568359375
0.174,-12.171875,5.4052734375,7.046875
0.1745,-12.2119140625,7.9677734375,4.484375
0.175,-11.4111328125,9.7294921875,1.921875
0.1755,-10.6103515625,10.6103515625,0.0400390625
0.176,-10.2099609375,11.8916015625,-1.8017578125
0.1765,-7.7275390625,11.130859375,-3.603515625
0.177,-6.1259765625,10.810546875,-5.0849609375
0.1775,-3.203125,10.6103515625,-7.84765625
0.178,-0.720703125,9.44921875,-9.1689453125
0.1785,1.0810546875,9.2490234375,-10.7705078125
0.179,3.1630859375,8.0078125,-11.5712890625
0.1795,4.7646484375,6.0458984375,-11.2509765625
0.18,7.20703125,3.7236328125,-11.37109375
0.1805,9.76953125,0.880859375,-11.05078125
0.181,10.7705078125,-1.4013671875,-9.8095703125
0.1815,12.33203125,-2.642578125,-10.1298828125
0.182,12.412109375,-4.7646484375,-8.087890625
0.1825,11.9716796875,-6.2060546875,-6.2060546875
0.183,12.091796875,-8.7685546875,-3.68359375
0.1835,11.05078125,-10.2900390625,-1.0009765625
0.184,10.25,-11.0107421875,0.6005859375
0.1845,9.7294921875,-12.01171875,2.2421875
0.185,6.966796875,-11.2109375,4.1640625
0.1855,5.0849609375,-10.73046875,5.8857421875
0.186,2.2421875,-10.5703125,8.6484375
0.1865,-0.240234375,-9.2490234375,9.7294921875
0.187,-1.6416015625,-9.12890625,11.0908203125
0.1875,-3.8037109375,-7.607421875,11.6513671875
0.188,-5.525390625,-5.4052734375,11.2109375
0.1885,-8.16796875,-2.8828125,11.2509765625
0.189,-10.490234375,0.0,10.810546875
0.1895,-11.1708984375,1.8818359375,9.609375
0.19,-12.4521484375,2.8828125,9.849609375
0.1905,-12.251953125,5.0849609375,7.4072265625
0.191,-11.8115234375,6.7265625,5.2451171875
0.1915,-11.931640625,9.3291015625,2.802734375
0.192,-10.6103515625,10.5302734375,0.2001953125
0.1925,-9.9697265625,10.970703125,-1.0810546875
0.193,-9.12890625,11.611328125,-2.72265625
0.1935,-6.326171875,10.6904296875,-4.6845703125
0.194,-4.2041015625,10.330078125,-6.486328125
0.1945,-1.4814453125,10.169921875,-9.12890625
0.195,0.7607421875,8.6884765625,-9.8896484375
0.1955,1.921875,8.6484375,-11.05078125
0.196,4.083984375,6.8466796875,-11.37109375
0.1965,5.92578125,4.484375,-10.890625
0.197,8.6884765625,1.8818359375,-10.970703125
0.1975,10.6904296875,-0.8408203125,-10.25
0.198,11.130859375,-2.2822265625,-9.2890625
0.1985,12.171875,-3.283203125,-9.2890625
0.199,11.8115234375,-5.4853515625,-6.7666015625
0.1995,11.37109375,-7.287109375,-4.484375
0.2,11.53125,-9.8896484375,-2.0419921875
0.2005,10.0498046875,-10.5703125,0.3203125
0.201,9.6494140625,-11.05078125,1.201171875
0.2015,8.2880859375,-11.2509765625,3.0029296875
0.202,5.4853515625,-10.330078125,4.96484375
0.2025,3.36328125,-10.1298828125,6.966796875
0.203,0.7607421875,-9.76953125,9.3291015625
0.2035,-1.1611328125,-8.4482421875,9.849609375
0.204,-2.2021484375,-8.408203125,10.8505859375
0.2045,-4.404296875,-6.2861328125,10.970703125
0.205,-6.326171875,-3.923828125,10.5302734375
0.2055,-9.12890625,-1.361328125,10.73046875
0.206,-10.650390625,1.0810546875,9.849609375
0.2065,-10.970703125,2.1220703125,9.12890625
0.207,-11.8515625,3.36328125,8.728515625
0.2075,-11.4111328125,5.60546875,6.0859375
0.208,-11.05078125,7.4072265625,3.84375
0.2085,-11.1708984375,9.8896484375,1.4013671875
0.209,-9.6494140625,10.169921875,-0.6005859375
0.2095,-9.4091796875,10.6103515625,-1.3212890625
0.21,-7.6474609375,10.650390625,-3.2431640625
0.2105,-4.9248046875,9.849609375,-5.205078125
0.211,-2.7626953125,9.7294921875,-7.4072265625
0.2115,-0.2802734375,9.2490234375,-9.44921875
0.212,1.28125,8.0478515625,-9.76953125
0.2125,2.322265625,7.8876953125,-10.650390625
0.213,4.6845703125,5.525390625,-10.6103515625
0.2135,6.6865234375,3.1630859375,-10.25
0.214,9.529296875,0.560546875,-10.41015625
0.2145,10.6103515625,-1.6015625,-9.44921875
0.215,10.970703125,-2.4423828125,-8.9287109375
0.2155,11.5712890625,-4.00390625,-8.0078125
0.216,11.2109375,-6.24609375,-5.365234375
0.2165,10.890625,-8.16796875,-3.1630859375
0.217,10.8505859375,-10.41015625,-0.7607421875
0.2175,9.2490234375,-10.3701171875,0.9609375
0.218,8.96875,-10.650390625,1.6416015625
0.2185,6.7666015625,-10.5703125,3.84375
0.219,4.1240234375,-9.8095703125,5.845703125
0.2195,1.76171875,-9.76953125,8.248046875
0.22,-0.640625,-9.048828125,9.9296875
0.2205,-1.8017578125,-8.0078125,10.0498046875
0.221,-3.0029296875,-7.4072265625,10.73046875
0.2215,-5.6455078125,-4.8447265625,10.73046875
0.222,-7.607421875,-2.4423828125,10.2900390625
0.2225,-10.25,0.1201171875,10.41015625
0.223,-11.05078125,1.9619140625,9.2890625
