wavelength,x,y,z
0.0,-10.725463867188,-10.765502929688,20.625122070312
0.0005,-6.3612060546875,-14.168823242188,19.904418945312
0.001,-1.7567138671875,-17.291870117188,18.583129882812
0.0015,2.5675048828125,-19.253784179688,16.621215820312
0.002,5.4503173828125,-19.854370117188,14.579223632812
0.0025,8.6134033203125,-20.134643554688,11.976684570312
0.003,12.176879882812,-19.734252929688,8.0128173828125
0.0035,15.540161132812,-18.733276367188,3.9288330078125
0.004,18.222778320312,-17.131713867188,-0.3153076171875
0.0045,20.144653320312,-15.329956054688,-3.9188232421875
0.005,20.545043945312,-12.687377929688,-6.9217529296875
0.0055,20.625122070312,-9.4842529296875,-10.244995117188
0.006,20.184692382812,-5.6405029296875,-13.688354492188
0.0065,19.504028320312,-1.6365966796875,-16.931518554688
0.007,17.742309570312,2.4073486328125,-19.213745117188
0.0075,15.860473632812,5.2901611328125,-20.374877929688
0.008,13.257934570312,8.3731689453125,-20.895385742188
0.0085,9.0137939453125,12.016723632812,-20.454956054688
0.009,4.7296142578125,15.219848632812,-19.574096679688
0.0095,0.1651611328125,17.902465820312,-17.892456054688
0.01,-3.7987060546875,19.824340820312,-16.170776367188
0.0105,-6.6414794921875,20.064575195312,-13.768432617188
0.011,-9.7244873046875,20.104614257812,-10.885620117188
0.0115,-13.568237304688,19.504028320312,-6.7215576171875
0.012,-16.811401367188,18.302856445312,-2.4373779296875
0.0125,-19.213745117188,16.541137695312,1.7667236328125
0.013,-20.655151367188,14.579223632812,5.0899658203125
0.0135,-21.015502929688,11.776489257812,8.1729736328125
0.014,-20.855346679688,7.9327392578125,11.856567382812
0.0145,-20.294799804688,4.2091064453125,15.059692382812
0.015,-19.173706054688,0.1251220703125,18.062622070312
0.0155,-17.452026367188,-3.7987060546875,20.224731445312
0.016,-15.049682617188,-6.6815185546875,20.785278320312
0.0165,-12.327026367188,-9.6444091796875,21.145629882812
0.017,-7.6424560546875,-13.608276367188,20.464965820312
0.0175,-3.0780029296875,-16.611206054688,19.223754882812
0.018,1.2862548828125,-18.733276367188,17.341918945312
0.0185,4.7696533203125,-20.294799804688,15.660278320312
0.019,7.7325439453125,-20.334838867188,12.897583007812
0.0195,11.055786132812,-20.014526367188,9.4542236328125
0.02,14.619262695312,-19.373901367188,5.4903564453125
0.0205,17.742309570312,-17.932495117188,1.0059814453125
0.021,19.824340820312,-16.010620117188,-2.9578857421875
0.0215,20.625122070312,-13.728393554688,-5.9608154296875
0.022,20.865356445312,-10.925659179688,-9.0438232421875
0.0225,20.464965820312,-6.7215576171875,-12.927612304688
0.023,19.864379882812,-3.0780029296875,-15.930541992188
0.0235,18.422973632812,0.9259033203125,-18.412963867188
0.024,16.781372070312,4.4893798828125,-20.454956054688
0.0245,13.938598632812,7.2520751953125,-20.494995117188
0.025,10.935668945312,10.255004882812,-20.655151367188
0.0255,6.4112548828125,14.058715820312,-19.934448242188
0.026,1.6065673828125,17.101684570312,-18.453002929688
0.0265,-2.3973388671875,18.943481445312,-16.611206054688
0.027,-5.4002685546875,20.104614257812,-14.769409179688
0.0275,-8.4832763671875,20.064575195312,-12.086791992188
0.028,-12.166870117188,19.504028320312,-8.0028076171875
0.0285,-15.329956054688,18.783325195312,-4.3192138671875
0.029,-18.172729492188,17.141723632812,0.0850830078125
0.0295,-20.134643554688,15.339965820312,3.8487548828125
0.03,-20.494995117188,12.657348632812,6.7716064453125
0.0305,-20.815307617188,9.8546142578125,9.9346923828125
0.031,-20.334838867188,5.5704345703125,13.778442382812
0.0315,-19.494018554688,1.6466064453125,16.861450195312
0.032,-17.812377929688,-2.1170654296875,18.943481445312
0.0325,-16.170776367188,-5.3201904296875,20.585083007812
0.033,-13.247924804688,-8.3231201171875,20.625122070312
0.0335,-9.3641357421875,-11.646362304688,20.304809570312
0.034,-5.2000732421875,-14.929565429688,19.584106445312
0.0345,-0.3953857421875,-17.732299804688,17.782348632812
0.035,3.3682861328125,-19.614135742188,16.060668945312
0.0355,6.2510986328125,-19.734252929688,13.778442382812
0.036,9.2139892578125,-19.894409179688,11.215942382812
0.0365,13.177856445312,-19.133666992188,6.6114501953125
0.037,16.140747070312,-18.092651367188,2.7276611328125
0.0375,18.543090820312,-16.491088867188,-1.2762451171875
0.038,20.104614257812,-14.569213867188,-4.6795654296875
0.0385,20.144653320312,-11.686401367188,-7.4422607421875
0.039,20.224731445312,-8.4832763671875,-10.845581054688
0.0395,19.784301757812,-4.6395263671875,-14.248901367188
0.04,18.663208007812,-0.6356201171875,-17.251831054688
0.0405,16.941528320312,2.9278564453125,-19.093627929688
0.041,14.899536132812,5.8106689453125,-20.054565429688
0.0415,12.296997070312,8.6934814453125,-20.374877929688
0.042,7.6524658203125,12.577270507812,-19.654174804688
0.0425,3.6885986328125,15.460083007812,-18.813354492188
0.043,-0.7957763671875,17.902465820312,-17.011596679688
0.0435,-4.2791748046875,19.463989257812,-15.410034179688
0.044,-7.0819091796875,19.383911132812,-12.727416992188
0.0445,-10.044799804688,19.504028320312,-10.044799804688
0.045,-13.968627929688,18.823364257812,-5.6805419921875
0.0455,-16.931518554688,17.381958007812,-1.3563232421875
0.046,-18.933471679688,15.740356445312,2.2471923828125
0.0465,-20.254760742188,13.698364257812,5.4903564453125
0.047,-20.214721679688,10.855590820312,8.3731689453125
0.0475,-20.054565429688,6.8917236328125,12.176879882812
0.048,-19.574096679688,3.4083251953125,15.179809570312
0.0485,-18.292846679688,-0.6356201171875,17.942504882812
0.049,-16.651245117188,-4.1590576171875,19.704223632812
0.0495,-14.088745117188,-6.8416748046875,19.984497070312
0.05,-11.486206054688,-9.6844482421875,20.424926757812
0.0505,-6.4012451171875,-13.728393554688,19.463989257812
0.051,-2.0369873046875,-16.451049804688,18.142700195312
0.0515,1.7667236328125,-18.412963867188,16.581176757812
0.052,5.0499267578125,-19.694213867188,14.779418945312
0.0525,7.9727783203125,-19.413940429688,11.856567382812
0.053,11.336059570312,-19.173706054688,8.3731689453125
0.0535,14.779418945312,-18.573120117188,4.5294189453125
0.054,17.582153320312,-16.971557617188,0.2052001953125
0.0545,19.263793945312,-15.329956054688,-3.1981201171875
0.055,19.944458007812,-12.847534179688,-6.2010498046875
0.0555,20.104614257812,-10.124877929688,-9.1239013671875
0.056,19.704223632812,-5.8406982421875,-13.047729492188
0.0565,18.943481445312,-2.2371826171875,-15.890502929688
0.057,17.582153320312,1.4063720703125,-18.252807617188
0.0575,15.980590820312,4.7296142578125,-19.854370117188
0.058,13.017700195312,7.4923095703125,-19.734252929688
0.0585,9.8546142578125,10.655395507812,-19.894409179688
0.059,5.3702392578125,14.338989257812,-19.213745117188
0.0595,0.6055908203125,17.021606445312,-17.411987304688
0.06,-2.7176513671875,18.543090820312,-15.890502929688
0.0605,-5.8006591796875,19.463989257812,-13.968627929688
0.061,-8.6834716796875,19.343872070312,-11.245971679688
0.0615,-12.487182617188,18.703247070312,-6.9617919921875
0.062,-15.650268554688,17.942504882812,-3.1580810546875
0.0625,-18.092651367188,16.340942382812,0.9659423828125
0.063,-19.614135742188,14.459106445312,4.1690673828125
0.0635,-19.894409179688,11.656372070312,7.1719970703125
0.064,-20.094604492188,8.8135986328125,10.214965820312
0.0645,-19.694213867188,4.6495361328125,14.058715820312
0.065,-18.573120117188,0.6456298828125,16.901489257812
0.0655,-17.051635742188,-2.7576904296875,18.863403320312
0.066,-15.450073242188,-5.8406982421875,20.344848632812
0.0665,-12.206909179688,-8.6834716796875,20.144653320312
0.067,-8.1229248046875,-12.286987304688,19.744262695312
0.0675,-3.9188232421875,-15.530151367188,19.023559570312
0.068,0.7657470703125,-18.012573242188,17.061645507812
0.0685,3.8887939453125,-19.253784179688,15.420043945312
0.069,6.9718017578125,-19.614135742188,12.937622070312
0.0695,9.9747314453125,-19.654174804688,10.094848632812
0.07,13.898559570312,-18.813354492188,5.5704345703125
0.0705,16.861450195312,-17.772338867188,1.4063720703125
0.071,19.023559570312,-15.890502929688,-2.2772216796875
0.0715,20.104614257812,-13.768432617188,-5.4403076171875
0.072,20.064575195312,-10.725463867188,-8.4832763671875
0.0725,19.984497070312,-7.3221435546875,-11.846557617188
0.073,19.544067382812,-3.5184326171875,-15.289916992188
0.0735,18.062622070312,0.7657470703125,-18.012573242188
0.074,16.300903320312,3.9688720703125,-19.534057617188
0.0745,14.138793945312,6.9718017578125,-20.374877929688
0.075,11.135864257812,9.9346923828125,-20.334838867188
0.0755,6.2110595703125,13.738403320312,-19.453979492188
0.076,2.0469970703125,16.621215820312,-18.412963867188
0.0765,-2.1971435546875,18.783325195312,-16.611206054688
0.077,-5.2801513671875,19.784301757812,-14.729370117188
0.0775,-8.3631591796875,19.664184570312,-11.766479492188
0.078,-11.606323242188,19.504028320312,-8.6434326171875
0.0785,-15.249877929688,18.623168945312,-4.1990966796875
0.079,-18.092651367188,16.901489257812,0.3253173828125
0.0795,-19.734252929688,15.139770507812,3.6885986328125
0.08,-20.494995117188,12.777465820312,6.8116455078125
0.0805,-20.454956054688,9.6143798828125,9.8546142578125
0.081,-20.014526367188,5.5704345703125,13.418090820312
0.0815,-19.373901367188,1.8868408203125,16.541137695312
0.082,-17.812377929688,-2.2772216796875,19.103637695312
0.0825,-15.890502929688,-5.3201904296875,20.304809570312
0.083,-13.127807617188,-8.3231201171875,20.625122070312
0.0835,-9.9246826171875,-11.406127929688,20.625122070312
0.084,-4.8397216796875,-15.129760742188,19.463989257812
0.0845,-0.3153076171875,-17.732299804688,17.782348632812
0.085,3.3282470703125,-19.453979492188,16.140747070312
0.0855,6.4112548828125,-20.174682617188,13.938598632812
0.086,9.5343017578125,-19.854370117188,10.815551757812
0.0865,13.057739257812,-19.373901367188,7.0118408203125
0.087,16.380981445312,-18.412963867188,2.8077392578125
0.0875,18.943481445312,-16.491088867188,-1.6365966796875
0.088,20.144653320312,-14.609252929688,-4.6395263671875
0.0885,20.625122070312,-11.886596679688,-7.8426513671875
0.089,20.464965820312,-8.6434326171875,-11.045776367188
0.0895,19.864379882812,-4.4793701171875,-14.569213867188
0.09,18.943481445312,-0.3553466796875,-17.371948242188
0.0905,17.301879882812,3.1680908203125,-19.614135742188
0.091,15.139770507812,6.2110595703125,-20.494995117188
0.0915,11.976684570312,9.1739501953125,-20.494995117188
0.092,8.2530517578125,12.617309570312,-20.254760742188
0.0925,3.5284423828125,16.020629882812,-19.213745117188
0.093,-1.2362060546875,18.422973632812,-17.131713867188
0.0935,-4.3192138671875,19.664184570312,-15.530151367188
0.094,-7.4022216796875,20.144653320312,-13.127807617188
0.0945,-10.565307617188,19.704223632812,-9.8045654296875
0.095,-14.128784179688,19.023559570312,-5.6405029296875
0.0955,-17.291870117188,17.782348632812,-1.4364013671875
0.096,-19.574096679688,15.860473632812,2.8077392578125
0.0965,-20.454956054688,13.658325195312,5.7305908203125
0.097,-20.695190429688,10.655395507812,8.9737548828125
0.0975,-20.494995117188,7.1719970703125,12.296997070312
0.098,-19.934448242188,3.1680908203125,15.780395507812
0.0985,-18.332885742188,-0.9959716796875,18.302856445312
0.099,-16.811401367188,-4.3192138671875,20.144653320312
0.0995,-14.449096679688,-7.2821044921875,20.865356445312
0.1,-10.965698242188,-10.365112304688,20.585083007812
0.1005,-6.7215576171875,-13.928588867188,19.984497070312
0.101,-2.1571044921875,-17.011596679688,18.783325195312
0.1015,2.3673095703125,-19.133666992188,16.701293945312
0.102,5.2100830078125,-19.894409179688,14.819458007812
0.1025,8.3731689453125,-20.134643554688,12.176879882812
0.103,11.816528320312,-19.614135742188,8.4132080078125
0.1035,15.219848632812,-18.733276367188,4.2891845703125
0.104,17.982543945312,-17.251831054688,0.0450439453125
0.1045,19.984497070312,-15.410034179688,-3.7186279296875
0.105,20.424926757812,-12.847534179688,-6.7215576171875
0.1055,20.464965820312,-9.7244873046875,-9.8846435546875
0.106,20.144653320312,-5.9207763671875,-13.287963867188
0.1065,19.504028320312,-2.0369873046875,-16.611206054688
0.107,17.742309570312,2.0870361328125,-18.933471679688
0.1075,15.940551757812,5.0899658203125,-20.174682617188
0.108,13.418090820312,8.0928955078125,-20.735229492188
0.1085,9.6143798828125,11.376098632812,-20.454956054688
0.109,5.1700439453125,14.739379882812,-19.494018554688
0.1095,0.6055908203125,17.662231445312,-17.972534179688
0.11,-3.5184326171875,19.504028320312,-16.170776367188
0.1105,-6.3211669921875,19.904418945312,-13.928588867188
0.111,-9.3641357421875,19.984497070312,-11.165893554688
0.1115,-13.087768554688,19.423950195312,-7.1619873046875
0.112,-16.330932617188,18.342895507812,-2.8778076171875
0.1125,-18.853393554688,16.501098632812,1.4063720703125
0.113,-20.494995117188,14.579223632812,4.8096923828125
0.1135,-20.935424804688,11.896606445312,7.9327392578125
0.114,-20.775268554688,8.4532470703125,11.336059570312
0.1145,-20.214721679688,4.6094970703125,14.619262695312
0.115,-19.253784179688,0.5655517578125,17.742309570312
0.1155,-17.492065429688,-3.5584716796875,20.024536132812
0.116,-15.289916992188,-6.3612060546875,20.705200195312
0.1165,-12.567260742188,-9.4041748046875,21.105590820312
0.117,-8.2030029296875,-13.087768554688,20.625122070312
0.1175,-3.5184326171875,-16.210815429688,19.343872070312
0.118,0.9259033203125,-18.573120117188,17.542114257812
0.1185,4.5294189453125,-20.254760742188,15.780395507812
0.119,7.5723876953125,-20.334838867188,13.097778320312
0.1195,10.695434570312,-20.174682617188,9.9346923828125
0.12,14.379028320312,-19.534057617188,5.8907470703125
0.1205,17.622192382812,-18.132690429688,1.3663330078125
0.121,19.864379882812,-16.250854492188,-2.8377685546875
0.1215,20.745239257812,-14.088745117188,-5.8807373046875
0.122,21.145629882812,-11.085815429688,-9.0838623046875
0.1225,20.865356445312,-7.1619873046875,-12.807495117188
0.123,20.184692382812,-3.3582763671875,-15.890502929688
0.1235,18.823364257812,0.7257080078125,-18.573120117188
0.124,17.141723632812,4.4893798828125,-20.775268554688
0.1245,14.338989257812,7.3721923828125,-20.975463867188
0.125,11.496215820312,10.375122070312,-21.175659179688
0.1255,6.6915283203125,14.298950195312,-20.454956054688
0.126,1.9669189453125,17.341918945312,-19.053588867188
0.1265,-2.3572998046875,19.343872070312,-17.011596679688
0.127,-5.6405029296875,20.625122070312,-15.209838867188
0.1275,-8.7235107421875,20.585083007812,-12.367065429688
0.128,-12.206909179688,20.064575195312,-8.5633544921875
0.1285,-15.610229492188,19.343872070312,-4.6395263671875
0.129,-18.733276367188,17.622192382812,0.1651611328125
0.1295,-20.815307617188,15.660278320312,4.1290283203125
0.13,-21.215698242188,13.017700195312,7.1719970703125
0.1305,-21.536010742188,10.094848632812,10.375122070312
0.131,-21.055541992188,5.7305908203125,14.338989257812
0.1315,-20.214721679688,1.7667236328125,17.421997070312
0.132,-18.453002929688,-2.2772216796875,19.704223632812
0.1325,-16.731323242188,-5.7606201171875,21.505981445312
0.133,-13.528198242188,-8.8035888671875,21.465942382812
0.1335,-10.084838867188,-12.046752929688,21.305786132812
0.134,-5.4403076171875,-15.570190429688,20.464965820312
0.1345,-0.3553466796875,-18.573120117188,18.663208007812
0.135,3.6885986328125,-20.334838867188,16.661254882812
0.1355,6.7716064453125,-20.975463867188,14.419067382812
0.136,9.9346923828125,-21.055541992188,11.576293945312
0.1365,13.938598632812,-20.214721679688,6.9317626953125
0.137,17.101684570312,-19.053588867188,3.0479736328125
0.1375,19.784301757812,-17.331909179688,-1.5565185546875
0.138,21.465942382812,-15.289916992188,-5.2801513671875
0.1385,21.505981445312,-12.206909179688,-8.3631591796875
0.139,21.666137695312,-9.0037841796875,-11.686401367188
0.1395,21.065551757812,-4.6795654296875,-15.490112304688
0.14,19.864379882812,-0.3953857421875,-18.573120117188
0.1405,17.942504882812,3.4884033203125,-20.494995117188
0.141,16.060668945312,6.7716064453125,-21.816284179688
0.1415,12.777465820312,9.8546142578125,-21.856323242188
0.142,8.1329345703125,13.658325195312,-21.175659179688
0.1425,3.8887939453125,16.781372070312,-20.294799804688
0.143,-1.2362060546875,19.504028320312,-18.212768554688
0.1435,-5.0399169921875,21.025512695312,-16.250854492188
0.144,-8.0828857421875,21.105590820312,-13.448120117188
0.1445,-11.205932617188,21.145629882812,-10.645385742188
0.145,-15.490112304688,20.104614257812,-5.8006591796875
0.1455,-18.533081054688,18.703247070312,-1.1561279296875
0.146,-20.735229492188,16.741333007812,3.0079345703125
0.1465,-22.136596679688,14.459106445312,6.5714111328125
0.147,-22.016479492188,11.175903320312,9.8145751953125
0.1475,-21.896362304688,7.3721923828125,13.458129882812
0.148,-21.215698242188,3.3282470703125,16.861450195312
0.1485,-19.654174804688,-1.2362060546875,19.864379882812
0.149,-17.652221679688,-4.9998779296875,21.626098632812
0.1495,-15.009643554688,-8.0428466796875,22.146606445312
0.15,-12.006713867188,-11.165893554688,22.346801757812
0.1505,-6.4813232421875,-15.289916992188,21.145629882812
0.151,-1.9969482421875,-18.132690429688,19.784301757812
0.1515,2.5675048828125,-20.334838867188,17.702270507812
0.152,6.2110595703125,-21.616088867188,15.660278320312
0.1525,9.3341064453125,-21.295776367188,12.296997070312
0.153,12.657348632812,-20.975463867188,9.0137939453125
0.1535,16.501098632812,-20.054565429688,4.4093017578125
0.154,19.584106445312,-18.092651367188,-0.6356201171875
0.1545,21.305786132812,-16.090698242188,-4.2391357421875
0.155,22.186645507812,-13.528198242188,-7.6824951171875
0.1555,22.066528320312,-10.325073242188,-10.765502929688
0.156,21.586059570312,-5.8406982421875,-14.769409179688
0.1565,20.705200195312,-1.9969482421875,-17.772338867188
0.157,18.983520507812,2.2872314453125,-20.414916992188
0.1575,16.901489257812,5.9708251953125,-21.976440429688
0.158,13.618286132812,9.0938720703125,-21.936401367188
0.1585,10.615356445312,12.176879882812,-22.136596679688
0.159,5.1300048828125,16.260864257812,-20.895385742188
0.1595,0.1651611328125,19.023559570312,-18.973510742188
0.16,-3.7186279296875,20.745239257812,-17.131713867188
0.1605,-7.3221435546875,21.706176757812,-14.889526367188
0.161,-10.445190429688,21.265747070312,-11.486206054688
0.1615,-14.168823242188,20.625122070312,-7.3621826171875
0.162,-17.652221679688,19.704223632812,-2.9578857421875
0.1625,-20.494995117188,17.542114257812,1.9268798828125
0.163,-21.936401367188,15.380004882812,5.4903564453125
0.1635,-22.376831054688,12.337036132812,8.9337158203125
0.164,-22.336791992188,9.2540283203125,12.016723632812
0.1645,-21.576049804688,4.4893798828125,16.140747070312
0.165,-20.254760742188,0.2452392578125,19.063598632812
0.1655,-18.573120117188,-3.8387451171875,21.345825195312
0.166,-16.451049804688,-7.2420654296875,22.747192382812
0.1665,-12.647338867188,-10.525268554688,22.306762695312
0.167,-8.9237060546875,-13.888549804688,22.106567382812
0.1675,-3.8387451171875,-17.572143554688,20.905395507812
0.168,1.6065673828125,-20.294799804688,18.503051757812
0.1685,5.0499267578125,-21.455932617188,16.581176757812
0.169,8.4132080078125,-22.056518554688,13.938598632812
0.1695,11.776489257812,-21.656127929688,10.535278320312
0.17,15.780395507812,-20.655151367188,5.6905517578125
0.1705,18.943481445312,-19.293823242188,1.2862548828125
0.171,21.465942382812,-17.171752929688,-3.2781982421875
0.1715,22.466918945312,-14.809448242188,-6.7215576171875
0.172,22.466918945312,-11.286010742188,-10.204956054688
0.1725,22.306762695312,-8.0028076171875,-13.608276367188
0.173,21.626098632812,-3.2381591796875,-17.291870117188
0.1735,19.784301757812,1.3262939453125,-20.094604492188
0.174,17.822387695312,4.9698486328125,-21.776245117188
0.1745,15.380004882812,8.2930908203125,-22.777221679688
0.175,11.536254882812,11.536254882812,-22.376831054688
0.1755,6.7716064453125,15.339965820312,-21.536010742188
0.176,2.2071533203125,18.543090820312,-20.374877929688
0.1765,-3.1580810546875,20.945434570312,-17.892456054688
0.177,-6.3612060546875,21.786254882812,-15.810424804688
0.1775,-9.7244873046875,21.906372070312,-12.767456054688
0.178,-13.127807617188,21.546020507812,-9.2039794921875
