wavelength,x,y,z
0.0,-9.76953125,10.810546875,-1.6416015625
0.0005,-7.927734375,10.2900390625,-3.0830078125
0.001,-6.6865234375,10.5703125,-4.6044921875
0.0015,-3.9638671875,10.330078125,-7.0869140625
0.002,-2.0419921875,9.7294921875,-8.328125
0.0025,0.240234375,9.4892578125,-10.25
0.003,2.162109375,8.0478515625,-10.73046875
0.0035,3.36328125,6.88671875,-10.73046875
0.004,5.92578125,4.7646484375,-11.1708984375
0.0045,8.0078125,2.40234375,-10.7705078125
0.005,9.4091796875,0.3203125,-10.08984375
0.0055,11.0908203125,-1.6416015625,-9.9296875
0.006,11.1708984375,-3.4833984375,-8.0478515625
0.0065,11.37109375,-4.8046875,-6.9267578125
0.007,11.5712890625,-7.447265625,-4.564453125
0.0075,10.8505859375,-8.6484375,-2.5224609375
0.008,10.4501953125,-10.009765625,-0.720703125
0.0085,9.4091796875,-10.9306640625,1.3212890625
0.009,7.447265625,-10.4501953125,2.802734375
0.0095,5.8857421875,-10.6904296875,4.6044921875
0.01,3.36328125,-10.4501953125,6.966796875
0.0105,1.4013671875,-9.609375,8.0478515625
0.011,-0.640625,-9.44921875,9.8095703125
0.0115,-2.642578125,-7.767578125,10.169921875
0.012,-4.0439453125,-6.40625,10.08984375
0.0125,-6.7265625,-4.1240234375,10.5302734375
0.013,-8.6484375,-1.76171875,9.9697265625
0.0135,-9.76953125,0.2802734375,9.208984375
0.014,-11.2509765625,1.921875,8.96875
0.0145,-11.1708984375,3.8837890625,6.88671875
0.015,-11.2509765625,5.4052734375,5.4052734375
0.0155,-11.4912109375,8.0078125,3.123046875
0.016,-10.3701171875,8.96875,0.9609375
0.0165,-10.0498046875,10.169921875,-0.640625
0.017,-8.8486328125,10.8505859375,-2.6025390625
0.0175,-6.6865234375,10.2099609375,-4.244140625
0.018,-4.96484375,10.490234375,-6.1259765625
0.0185,-2.482421875,10.2099609375,-8.328125
0.019,-0.6005859375,9.1689453125,-9.1689453125
0.0195,1.2412109375,9.0087890625,-10.73046875
0.02,3.3232421875,7.20703125,-10.970703125
0.0205,5.0048828125,5.4052734375,-10.8505859375
0.021,7.7275390625,3.123046875,-11.2109375
0.0215,9.44921875,0.6005859375,-10.3701171875
0.022,10.3701171875,-1.1611328125,-9.609375
0.0225,11.611328125,-2.72265625,-9.3291015625
0.023,11.451171875,-4.8046875,-7.046875
0.0235,11.37109375,-6.486328125,-5.28515625
0.024,11.6513671875,-9.048828125,-2.962890625
0.0245,10.2099609375,-9.7294921875,-0.80078125
0.025,9.9296875,-10.73046875,0.5205078125
0.0255,8.4482421875,-11.2509765625,2.5625
0.026,6.005859375,-10.5302734375,4.4443359375
0.0265,4.1240234375,-10.6103515625,6.40625
0.027,1.6015625,-10.2900390625,8.6083984375
0.0275,-0.3603515625,-9.0087890625,9.0888671875
0.028,-1.8017578125,-8.888671875,10.41015625
0.0285,-4.083984375,-6.806640625,10.6103515625
0.029,-5.92578125,-4.6845703125,10.2900390625
0.0295,-8.6884765625,-2.322265625,10.6904296875
0.03,-10.08984375,0.240234375,9.529296875
0.0305,-10.73046875,1.5615234375,8.80859375
0.031,-11.8115234375,3.203125,8.2880859375
0.0315,-11.53125,5.4453125,5.7255859375
0.032,-11.37109375,7.287109375,3.7236328125
0.0325,-11.53125,9.689453125,1.361328125
0.033,-9.849609375,10.0498046875,-0.80078125
0.0335,-9.5693359375,10.8505859375,-1.921875
0.034,-7.8076171875,11.130859375,-3.923828125
0.0345,-5.2451171875,10.41015625,-5.845703125
0.035,-3.283203125,10.5302734375,-7.927734375
0.0355,-0.720703125,9.9697265625,-9.9296875
0.036,1.12109375,8.6484375,-10.25
0.0365,2.40234375,8.4482421875,-11.37109375
0.037,4.8447265625,6.1259765625,-11.4111328125
0.0375,6.8466796875,3.84375,-11.05078125
0.038,9.6494140625,1.2412109375,-11.291015625
0.0385,10.810546875,-1.28125,-9.9697265625
0.039,11.2509765625,-2.322265625,-9.3291015625
0.0395,12.171875,-4.00390625,-8.48828125
0.04,11.8115234375,-6.40625,-5.765625
0.0405,11.5712890625,-8.328125,-3.603515625
0.041,11.5712890625,-10.73046875,-1.2412109375
0.0415,9.7294921875,-10.8505859375,0.8408203125
0.042,9.4091796875,-11.291015625,1.76171875
0.0425,7.3271484375,-11.451171875,4.0439453125
0.043,4.6044921875,-10.7705078125,6.0859375
0.0435,2.40234375,-10.810546875,8.2880859375
0.044,-0.3203125,-9.9697265625,10.08984375
0.0445,-1.841796875,-8.6484375,10.2099609375
0.045,-3.0830078125,-8.2080078125,11.0107421875
0.0455,-5.845703125,-5.5654296875,11.05078125
0.046,-7.7275390625,-3.1630859375,10.5703125
0.0465,-10.5302734375,-0.5205078125,10.6904296875
0.047,-11.4111328125,1.841796875,9.2490234375
0.0475,-11.611328125,2.8427734375,8.408203125
0.048,-12.33203125,4.8447265625,7.126953125
0.0485,-11.931640625,7.20703125,4.2841796875
0.049,-11.53125,9.0087890625,2.0419921875
0.0495,-11.3310546875,11.2109375,-0.5205078125
0.05,-9.4091796875,11.0908203125,-2.2822265625
0.0505,-8.8486328125,11.37109375,-3.1630859375
0.051,-6.40625,11.451171875,-5.765625
0.0515,-3.8037109375,10.6904296875,-7.5673828125
0.052,-1.4013671875,10.5703125,-9.76953125
0.0525,1.201171875,9.609375,-11.291015625
0.053,2.5224609375,8.2080078125,-11.2109375
0.0535,3.9638671875,7.3671875,-11.771484375
0.054,6.9267578125,4.484375,-11.8515625
0.0545,8.6083984375,2.2021484375,-11.130859375
0.055,11.130859375,-0.48046875,-11.0908203125
0.0555,11.8115234375,-2.6025390625,-9.6494140625
0.056,11.931640625,-3.7236328125,-8.6083984375
0.0565,12.4921875,-6.005859375,-6.9267578125
0.057,12.01171875,-8.2080078125,-4.244140625
0.0575,11.4111328125,-9.6494140625,-2.2021484375
0.058,11.130859375,-11.5712890625,0.2802734375
0.0585,9.0888671875,-11.2509765625,2.0419921875
0.059,8.16796875,-11.4111328125,3.0830078125
0.0595,5.5654296875,-11.4912109375,5.8056640625
0.06,3.1630859375,-10.650390625,7.3671875
0.0605,0.80078125,-10.3701171875,9.4892578125
0.061,-1.6015625,-9.369140625,10.73046875
0.0615,-2.8828125,-7.927734375,10.5302734375
0.062,-4.64453125,-6.6865234375,11.0107421875
0.0625,-7.52734375,-3.8837890625,11.0107421875
0.063,-8.9287109375,-1.6416015625,10.169921875
0.0635,-11.0908203125,0.6806640625,10.08984375
0.064,-11.6513671875,2.7626953125,8.568359375
0.0645,-11.69140625,3.923828125,7.3671875
0.065,-12.0517578125,6.326171875,5.365234375
0.0655,-11.611328125,8.2880859375,2.8828125
0.066,-10.890625,9.5693359375,0.9609375
0.0665,-10.5703125,11.2509765625,-1.28125
0.067,-8.5283203125,10.890625,-3.0029296875
0.0675,-7.4072265625,10.970703125,-4.1640625
0.068,-4.8046875,11.0107421875,-6.9267578125
0.0685,-2.5625,10.2099609375,-8.328125
0.069,-0.400390625,9.8896484375,-10.1298828125
0.0695,1.921875,8.888671875,-11.2509765625
0.07,3.283203125,7.3671875,-11.0908203125
0.0705,5.365234375,5.7255859375,-11.4912109375
0.071,8.087890625,3.04296875,-11.53125
0.0715,9.3291015625,0.7607421875,-10.4501953125
0.072,11.291015625,-1.28125,-10.4501953125
0.0725,11.8115234375,-3.36328125,-8.8486328125
0.073,11.771484375,-4.7646484375,-7.447265625
0.0735,12.01171875,-7.20703125,-5.28515625
0.074,11.6513671875,-9.048828125,-2.9228515625
0.0745,10.73046875,-9.9697265625,-1.041015625
0.075,10.3701171875,-11.53125,0.9609375
0.0755,8.0478515625,-11.1708984375,3.0029296875
0.076,6.6064453125,-11.0908203125,4.404296875
0.0765,4.0439453125,-11.2509765625,7.0869140625
0.077,1.7216796875,-10.2099609375,8.408203125
0.0775,-0.3203125,-9.8095703125,9.8896484375
0.078,-2.5224609375,-8.6884765625,10.9306640625
0.0785,-4.244140625,-6.7666015625,10.73046875
0.079,-6.4462890625,-4.8447265625,10.970703125
0.0795,-9.12890625,-2.2421875,11.0107421875
0.08,-10.08984375,0.240234375,9.5693359375
0.0805,-11.7314453125,1.8017578125,9.689453125
0.081,-12.091796875,3.9638671875,7.7275390625
0.0815,-11.8515625,5.60546875,5.845703125
0.082,-12.171875,8.0478515625,3.68359375
0.0825,-11.4912109375,9.8896484375,1.1611328125
0.083,-10.25,10.41015625,-0.720703125
0.0835,-9.9296875,11.771484375,-2.4423828125
0.084,-7.2470703125,11.2509765625,-4.64453125
0.0845,-5.525390625,10.970703125,-6.1259765625
0.085,-3.0830078125,11.2109375,-8.80859375
0.0855,-0.560546875,9.849609375,-9.9296875
0.086,1.1611328125,9.4091796875,-11.05078125
0.0865,3.3232421875,8.16796875,-12.01171875
0.087,5.4052734375,5.8857421875,-11.69140625
0.0875,7.6875,3.68359375,-11.69140625
0.088,10.2900390625,0.9609375,-11.5712890625
0.0885,10.810546875,-1.4814453125,-9.76953125
0.089,12.2119140625,-2.642578125,-10.0498046875
0.0895,12.4921875,-5.0048828125,-7.9677734375
0.09,12.091796875,-6.7666015625,-5.6455078125
0.0905,12.2919921875,-9.208984375,-3.5234375
0.091,11.37109375,-10.810546875,-0.880859375
0.0915,10.0498046875,-11.05078125,0.8408203125
0.092,9.5693359375,-12.091796875,2.40234375
0.0925,6.6865234375,-11.4912109375,4.724609375
0.093,4.6044921875,-11.0908203125,6.40625
0.0935,2.2021484375,-11.291015625,9.0087890625
0.094,-0.5205078125,-9.609375,9.8896484375
0.0945,-1.841796875,-9.1689453125,10.7705078125
0.095,-4.00390625,-7.767578125,11.4912109375
0.0955,-6.1259765625,-5.28515625,11.05078125
0.096,-8.48828125,-2.8828125,11.0107421875
0.0965,-10.890625,-0.2001953125,10.6904296875
0.097,-11.1708984375,1.8818359375,8.9287109375
0.0975,-12.251953125,2.8828125,8.96875
0.098,-12.33203125,5.4052734375,6.56640625
0.0985,-11.8115234375,7.20703125,4.2041015625
0.099,-12.0517578125,9.6494140625,1.9619140625
0.0995,-10.810546875,10.890625,-0.640625
0.1,-9.5693359375,10.9306640625,-1.9619140625
0.1005,-8.888671875,11.771484375,-3.4833984375
0.101,-5.92578125,11.130859375,-5.845703125
0.1015,-3.8037109375,10.73046875,-7.5673828125
0.102,-1.44140625,10.810546875,-10.0498046875
0.1025,1.12109375,9.0087890625,-10.6103515625
0.103,2.162109375,8.6884765625,-11.37109375
0.1035,4.404296875,7.046875,-11.8515625
0.104,6.5263671875,4.5244140625,-11.451171875
0.1045,8.96875,1.9619140625,-11.3310546875
0.105,11.0908203125,-0.720703125,-10.890625
0.1055,11.2109375,-2.3623046875,-9.2890625
0.106,12.171875,-3.36328125,-9.1689453125
0.1065,12.171875,-5.9658203125,-6.6064453125
0.107,11.69140625,-7.7275390625,-4.3642578125
0.1075,11.8115234375,-10.1298828125,-2.001953125
0.108,10.3701171875,-11.05078125,0.4404296875
0.1085,9.3291015625,-10.970703125,1.4814453125
0.109,8.2880859375,-11.53125,3.123046875
0.1095,5.4052734375,-10.9306640625,5.4853515625
0.11,3.1630859375,-10.6103515625,7.3671875
0.1105,0.7607421875,-10.5302734375,9.6494140625
0.111,-1.4814453125,-8.7685546875,10.0498046875
0.1115,-2.4423828125,-8.4482421875,10.5703125
0.112,-4.8447265625,-6.4462890625,10.970703125
0.1125,-6.8466796875,-4.0439453125,10.5302734375
0.113,-9.2890625,-1.521484375,10.41015625
0.1135,-11.0107421875,0.9609375,9.689453125
0.114,-11.0107421875,2.40234375,8.2880859375
0.1145,-11.8115234375,3.5634765625,7.84765625
0.115,-11.771484375,6.2861328125,5.125
0.1155,-11.2509765625,7.8876953125,3.04296875
0.116,-11.2509765625,10.2099609375,0.640625
0.1165,-9.76953125,10.73046875,-1.521484375
0.117,-8.80859375,10.6103515625,-2.4423828125
0.1175,-7.3671875,10.970703125,-4.244140625
0.118,-4.64453125,10.490234375,-6.486328125
0.1185,-2.4423828125,10.1298828125,-8.328125
0.119,0.0,9.8095703125,-10.330078125
0.1195,1.76171875,8.2080078125,-10.490234375
0.12,2.72265625,7.8076171875,-10.9306640625
0.1205,5.365234375,5.4853515625,-11.2509765625
0.121,7.20703125,3.203125,-10.8505859375
0.1215,9.529296875,0.720703125,-10.650390625
0.122,10.890625,-1.521484375,-9.8896484375
0.1225,10.9306640625,-2.7626953125,-8.568359375
0.123,11.5712890625,-4.244140625,-7.7275390625
0.1235,11.53125,-6.806640625,-5.125
0.124,11.0107421875,-8.16796875,-3.203125
0.1245,10.890625,-10.25,-1.0009765625
0.125,9.369140625,-10.5703125,1.0009765625
0.1255,8.328125,-10.4501953125,1.9619140625
0.126,6.5263671875,-10.7705078125,4.1240234375
0.1265,4.1240234375,-10.25,6.0859375
0.127,1.921875,-9.9296875,7.927734375
0.1275,-0.3603515625,-9.4892578125,9.609375
0.128,-1.9619140625,-8.0078125,9.6494140625
0.1285,-3.0830078125,-7.3271484375,10.08984375
0.129,-5.92578125,-4.8447265625,10.3701171875
0.1295,-7.4873046875,-2.7626953125,9.849609375
0.13,-9.609375,-0.6005859375,9.6494140625
0.1305,-10.6904296875,1.5615234375,8.80859375
0.131,-10.73046875,2.9228515625,7.447265625
0.1315,-11.2509765625,4.64453125,6.2060546875
0.132,-11.1708984375,7.046875,3.763671875
0.1325,-10.5703125,8.248046875,1.921875
0.133,-10.41015625,10.08984375,-0.2001953125
0.1335,-8.7685546875,10.2099609375,-2.001953125
0.134,-7.7275390625,10.08984375,-3.04296875
0.1345,-5.6455078125,10.3701171875,-5.4052734375
0.135,-3.4033203125,9.9296875,-7.126953125
0.1355,-1.361328125,9.529296875,-8.80859375
0.136,0.80078125,8.96875,-10.2900390625
0.1365,2.40234375,7.4873046875,-10.2900390625
0.137,3.84375,6.3662109375,-10.650390625
0.1375,6.6865234375,3.8037109375,-10.970703125
0.138,8.16796875,1.6416015625,-10.25
0.1385,9.9296875,-0.3203125,-10.08984375
0.139,10.9306640625,-2.2822265625,-9.0888671875
0.1395,10.9306640625,-3.7236328125,-7.607421875
0.14,11.291015625,-5.7255859375,-6.0458984375
0.1405,11.2509765625,-7.8876953125,-3.7236328125
0.141,10.330078125,-8.80859375,-1.8818359375
0.1415,10.25,-10.4501953125,0.0
0.142,8.328125,-10.4501953125,1.9619140625
0.1425,7.046875,-10.2900390625,3.1630859375
0.143,4.8046875,-10.5703125,5.6455078125
0.1435,2.6025390625,-9.9697265625,7.287109375
0.144,0.6806640625,-9.369140625,8.6083984375
0.1445,-1.4013671875,-8.8486328125,9.9697265625
0.145,-3.203125,-7.0869140625,9.9296875
0.1455,-4.884765625,-5.60546875,10.1298828125
0.146,-7.7275390625,-3.1630859375,10.41015625
0.1465,-8.9287109375,-0.8408203125,9.3291015625
0.147,-10.41015625,0.880859375,9.2490234375
0.1475,-11.2109375,2.8427734375,8.0078125
0.148,-11.05078125,4.4443359375,6.24609375
0.1485,-11.291015625,6.5263671875,4.404296875
0.149,-11.1708984375,8.6484375,2.162109375
0.1495,-9.9697265625,9.2490234375,0.2802734375
0.15,-9.9296875,10.6904296875,-1.3212890625
0.1505,-7.7275390625,10.5302734375,-3.4833984375
0.151,-6.0458984375,10.2099609375,-4.8046875
0.1515,-3.8837890625,10.490234375,-7.2470703125
0.152,-1.6015625,9.689453125,-8.728515625
0.1525,0.240234375,9.0087890625,-9.76953125
0.153,2.08203125,8.328125,-10.970703125
0.1535,4.1240234375,6.2861328125,-10.890625
0.154,6.0458984375,4.404296875,-10.9306640625
0.1545,8.80859375,1.921875,-11.130859375
0.155,9.7294921875,-0.48046875,-9.7294921875
0.1555,11.0107421875,-1.7216796875,-9.7294921875
0.156,11.6513671875,-3.7236328125,-8.2880859375
0.1565,11.37109375,-5.525390625,-6.166015625
0.157,11.53125,-7.6875,-4.244140625
0.1575,11.2109375,-9.6494140625,-1.8818359375
0.158,9.7294921875,-9.9296875,0.0
0.1585,9.6494140625,-11.0908203125,1.28125
0.159,7.1669921875,-10.8505859375,3.5234375
0.1595,5.205078125,-10.41015625,5.125
0.16,3.04296875,-10.6904296875,7.607421875
0.1605,0.6005859375,-9.5693359375,8.888671875
0.161,-1.0009765625,-8.96875,9.609375
0.1615,-2.802734375,-8.1279296875,10.5703125
0.162,-4.884765625,-5.845703125,10.330078125
0.1625,-7.0068359375,-3.603515625,10.2900390625
0.163,-9.609375,-1.1611328125,10.41015625
0.1635,-10.2099609375,1.0810546875,8.7685546875
0.164,-11.2509765625,2.0419921875,8.8486328125
0.1645,-11.611328125,4.2041015625,7.046875
0.165,-11.2509765625,6.1259765625,4.7646484375
0.1655,-11.4111328125,8.328125,2.6826171875
0.166,-10.7705078125,10.009765625,0.3203125
0.1665,-9.3291015625,10.08984375,-1.28125
0.167,-9.0888671875,11.0107421875,-2.5224609375
0.1675,-6.4462890625,10.5302734375,-4.8046875
0.168,-4.404296875,10.169921875,-6.40625
0.1685,-2.2421875,10.41015625,-8.8486328125
0.169,0.240234375,8.96875,-9.8095703125
0.1695,1.44140625,8.4482421875,-10.4501953125
0.17,3.283203125,7.3671875,-11.2109375
0.1705,5.4853515625,5.044921875,-10.9306640625
0.171,7.7275390625,2.72265625,-10.8505859375
0.1715,10.1298828125,0.2802734375,-10.73046875
0.172,10.4501953125,-1.681640625,-9.1689453125
0.1725,11.37109375,-2.5625,-9.208984375
0.173,11.6513671875,-4.9248046875,-7.0869140625
0.1735,11.2509765625,-6.7265625,-4.884765625
0.174,11.4111328125,-9.048828125,-2.72265625
0.1745,10.490234375,-10.3701171875,-0.4404296875
0.175,9.208984375,-10.2900390625,0.9208984375
0.1755,8.6484375,-10.970703125,2.2421875
0.176,5.8857421875,-10.5703125,4.6044921875
0.1765,3.8037109375,-10.25,6.326171875
0.177,1.521484375,-10.41015625,8.7685546875
0.1775,-0.8408203125,-8.888671875,9.44921875
0.178,-1.8017578125,-8.48828125,9.8896484375
0.1785,-3.84375,-6.9267578125,10.490234375
0.179,-6.0458984375,-4.5244140625,10.2099609375
0.1795,-8.328125,-2.2021484375,10.1298828125
0.18,-10.41015625,0.2802734375,9.849609375
0.1805,-10.5703125,1.921875,8.328125
0.181,-11.37109375,2.8427734375,8.16796875
0.1815,-11.4912109375,5.4453125,5.685546875
0.182,-11.0908203125,7.126953125,3.5634765625
0.1825,-11.0908203125,9.44921875,1.2412109375
0.183,-10.0498046875,10.490234375,-1.0009765625
0.1835,-8.80859375,10.25,-2.0419921875
0.184,-7.927734375,10.73046875,-3.4833984375
0.1845,-5.0849609375,10.3701171875,-5.92578125
0.185,-2.962890625,9.9296875,-7.6875
0.1855,-0.640625,9.8896484375,-9.9296875
0.186,1.4013671875,8.328125,-10.330078125
0.1865,2.2822265625,7.9677734375,-10.6904296875
0.187,4.6044921875,6.0458984375,-11.130859375
0.1875,6.7265625,3.68359375,-10.810546875
0.188,8.9287109375,1.28125,-10.5703125
0.1885,10.73046875,-1.041015625,-10.1298828125
0.189,10.8505859375,-2.5625,-8.6884765625
0.1895,11.451171875,-3.7236328125,-8.1279296875
0.19,11.5712890625,-6.4462890625,-5.4853515625
0.1905,11.0107421875,-7.767578125,-3.603515625
0.191,10.9306640625,-9.9296875,-1.3212890625
0.1915,9.7294921875,-10.650390625,0.720703125
0.192,8.4482421875,-10.41015625,1.841796875
0.1925,7.126953125,-10.7705078125,3.5234375
0.193,4.404296875,-10.3701171875,5.8056640625
0.1935,2.3623046875,-9.9697265625,7.4873046875
0.194,0.080078125,-9.7294921875,9.44921875
0.1945,-1.8017578125,-8.2080078125,9.7294921875
0.195,-2.72265625,-7.5673828125,9.9697265625
0.1955,-5.4052734375,-5.3251953125,10.3701171875
0.196,-7.20703125,-3.1630859375,9.9697265625
0.1965,-9.12890625,-0.880859375,9.6494140625
0.197,-10.650390625,1.2412109375,9.0888671875
0.1975,-10.6904296875,2.7626953125,7.5673828125
0.198,-11.1708984375,4.1240234375,6.6865234375
0.1985,-11.2509765625,6.7265625,4.1240234375
0.199,-10.650390625,7.927734375,2.322265625
0.1995,-10.490234375,9.849609375,0.2802734375
0.2,-9.1689453125,10.2900390625,-1.7216796875
0.2005,-7.84765625,10.08984375,-2.7626953125
0.201,-6.24609375,10.2900390625,-4.7646484375
0.2015,-3.8037109375,9.9296875,-6.806640625
0.202,-1.841796875,9.4892578125,-8.328125
0.2025,0.400390625,9.208984375,-10.1298828125
0.203,2.0419921875,7.7275390625,-10.25
0.2035,3.2431640625,6.8466796875,-10.5302734375
0.204,6.0859375,4.404296875,-10.890625
0.2045,7.7275390625,2.2421875,-10.3701171875
0.205,9.529296875,0.2001953125,-10.08984375
0.2055,10.810546875,-1.76171875,-9.4892578125
0.206,10.8505859375,-3.36328125,-7.84765625
0.2065,11.2109375,-4.9248046875,-6.646484375
0.207,11.291015625,-7.447265625,-4.2041015625
0.2075,10.5302734375,-8.48828125,-2.3623046875
0.208,10.3701171875,-10.1298828125,-0.560546875
0.2085,8.888671875,-10.5302734375,1.521484375
0.209,7.3671875,-10.25,2.72265625
0.2095,5.4052734375,-10.5703125,4.96484375
0.21,3.0830078125,-10.2099609375,6.88671875
0.2105,1.201171875,-9.4892578125,8.16796875
0.211,-0.9208984375,-9.1689453125,9.8095703125
0.2115,-2.72265625,-7.4072265625,9.9296875
0.212,-4.2041015625,-6.1259765625,10.08984375
0.2125,-7.0869140625,-3.6435546875,10.4501953125
0.213,-8.6083984375,-1.4013671875,9.609375
0.2135,-10.009765625,0.5205078125,9.208984375
0.214,-11.1708984375,2.2822265625,8.5283203125
0.2145,-11.05078125,4.1240234375,6.56640625
0.215,-11.2509765625,5.845703125,5.0048828125
0.2155,-11.291015625,8.2880859375,2.642578125
0.216,-10.1298828125,8.96875,0.720703125
0.2165,-10.009765625,10.4501953125,-1.0009765625
0.217,-8.2880859375,10.5703125,-3.04296875
0.2175,-6.40625,10.169921875,-4.4443359375
0.218,-4.4443359375,10.3701171875,-6.6865234375
0.2185,-2.0419921875,9.9296875,-8.5283203125
0.219,-0.2802734375,9.0888671875,-9.4091796875
0.2195,1.6015625,8.728515625,-10.8505859375
0.22,3.68359375,6.6865234375,-10.8505859375
0.2205,5.4052734375,5.0048828125,-10.8505859375
0.221,8.248046875,2.5224609375,-11.1708984375
0.2215,9.529296875,0.16015625,-10.009765625
0.222,10.6904296875,-1.4013671875,-9.6494140625
0.2225,11.5712890625,-3.1630859375,-8.80859375
0.223,11.37109375,-5.125,-6.646484375
0.2235,11.451171875,-7.0068359375,-4.8046875
