wavelength,x,y,z
0.0,3.04296875,-0.6806640625,-2.8427734375
0.0005,2.962890625,-0.16015625,-3.36328125
0.001,2.3623046875,0.80078125,-3.6435546875
0.0015,2.1220703125,1.28125,-3.8837890625
0.002,1.4013671875,2.0419921875,-3.84375
0.0025,0.6806640625,2.40234375,-3.5234375
0.003,-0.080078125,2.962890625,-3.283203125
0.0035,-1.0009765625,3.2431640625,-2.72265625
0.004,-1.8017578125,3.68359375,-2.2822265625
0.0045,-2.322265625,3.5634765625,-1.681640625
0.005,-2.8828125,3.6435546875,-1.201171875
0.0055,-3.203125,3.1630859375,-0.4404296875
0.006,-3.603515625,3.04296875,0.1201171875
0.0065,-3.84375,2.40234375,1.0009765625
0.007,-4.0439453125,2.0419921875,1.5615234375
0.0075,-3.9638671875,1.28125,2.2021484375
0.008,-3.7236328125,0.6005859375,2.642578125
0.0085,-3.36328125,-0.3203125,3.04296875
0.009,-3.0029296875,-1.0009765625,3.4033203125
0.0095,-2.5625,-1.8818359375,3.7236328125
0.01,-2.08203125,-2.2021484375,3.68359375
0.0105,-1.4814453125,-2.8828125,3.7236328125
0.011,-0.720703125,-3.1630859375,3.203125
0.0115,0.0,-3.68359375,3.0830078125
0.012,0.9609375,-3.8837890625,2.322265625
0.0125,1.6416015625,-4.2041015625,1.9619140625
0.013,2.162109375,-4.00390625,1.28125
0.0135,2.5625,-4.00390625,0.8408203125
0.014,2.8828125,-3.5634765625,0.1201171875
0.0145,3.203125,-3.283203125,-0.48046875
0.015,3.5234375,-2.72265625,-1.361328125
0.0155,3.603515625,-2.322265625,-1.8017578125
0.016,3.6435546875,-1.6015625,-2.5224609375
0.0165,3.123046875,-0.8408203125,-2.8427734375
0.017,2.9228515625,-0.080078125,-3.3232421875
0.0175,2.3623046875,0.720703125,-3.5634765625
0.018,2.0419921875,1.521484375,-3.923828125
0.0185,1.361328125,1.9619140625,-3.7236328125
0.019,0.80078125,2.6025390625,-3.8037109375
0.0195,-0.080078125,2.8828125,-3.203125
0.02,-0.80078125,3.36328125,-2.962890625
0.0205,-1.8818359375,3.6435546875,-2.2021484375
0.021,-2.4423828125,3.8037109375,-1.76171875
0.0215,-3.04296875,3.6435546875,-1.041015625
0.022,-3.36328125,3.4033203125,-0.48046875
0.0225,-3.7236328125,3.04296875,0.2802734375
0.023,-3.9638671875,2.5625,0.9609375
0.0235,-4.3642578125,2.0419921875,1.8818359375
0.024,-4.083984375,1.3212890625,2.2822265625
0.0245,-4.1240234375,0.6005859375,3.0029296875
0.025,-3.4033203125,-0.3603515625,3.1630859375
0.0255,-3.2431640625,-1.041015625,3.6435546875
0.026,-2.5224609375,-1.9619140625,3.84375
0.0265,-2.001953125,-2.6025390625,4.0439453125
0.027,-1.28125,-3.0830078125,3.68359375
0.0275,-0.640625,-3.603515625,3.6435546875
0.028,0.240234375,-3.84375,3.0029296875
0.0285,1.0009765625,-4.2041015625,2.6025390625
0.029,2.162109375,-4.5244140625,1.76171875
0.0295,2.5625,-4.32421875,1.1611328125
0.03,3.1630859375,-4.2041015625,0.5205078125
0.0305,3.3232421875,-3.7236328125,-0.16015625
0.031,3.6435546875,-3.36328125,-0.80078125
0.0315,3.8037109375,-2.6826171875,-1.6416015625
0.032,4.083984375,-2.1220703125,-2.482421875
0.0325,3.6435546875,-1.28125,-2.8828125
0.033,3.603515625,-0.640625,-3.4833984375
0.0335,2.802734375,0.3203125,-3.603515625
0.034,2.5625,1.0009765625,-3.9638671875
0.0345,1.76171875,2.08203125,-4.1640625
0.035,1.201171875,2.6025390625,-4.1640625
0.0355,0.3603515625,3.0830078125,-3.84375
0.036,-0.3203125,3.5234375,-3.5634765625
0.0365,-1.28125,3.7236328125,-2.8828125
0.037,-2.08203125,4.00390625,-2.322265625
0.0375,-3.203125,4.32421875,-1.4814453125
0.038,-3.5634765625,3.84375,-0.7607421875
0.0385,-4.1240234375,3.84375,-0.16015625
0.039,-4.244140625,3.1630859375,0.640625
0.0395,-4.5244140625,2.6826171875,1.3212890625
0.04,-4.6845703125,1.921875,2.2822265625
0.0405,-4.8046875,1.2412109375,3.04296875
0.041,-4.2041015625,0.240234375,3.443359375
0.0415,-4.083984375,-0.560546875,3.9638671875
0.042,-3.123046875,-1.6015625,4.083984375
0.0425,-2.72265625,-2.2822265625,4.404296875
0.043,-1.8017578125,-3.36328125,4.5244140625
0.0435,-1.041015625,-3.8037109375,4.2041015625
0.044,-0.3203125,-4.244140625,3.8837890625
0.0445,0.6005859375,-4.564453125,3.3232421875
0.045,1.6015625,-4.7646484375,2.5625
0.0455,2.482421875,-4.96484375,1.8818359375
0.046,3.5234375,-5.125,1.041015625
0.0465,3.68359375,-4.404296875,0.16015625
0.047,4.1240234375,-4.32421875,-0.400390625
0.0475,4.244140625,-3.36328125,-1.44140625
0.048,4.4443359375,-2.8828125,-2.08203125
0.0485,4.5244140625,-2.001953125,-3.0830078125
0.049,4.4443359375,-1.28125,-3.7236328125
0.0495,3.7236328125,-0.2001953125,-4.0439453125
0.05,3.443359375,0.560546875,-4.4443359375
0.0505,2.40234375,1.7216796875,-4.5244140625
0.051,1.9619140625,2.322265625,-4.64453125
0.0515,1.0009765625,3.443359375,-4.8046875
0.052,0.1201171875,3.763671875,-4.1640625
0.0525,-0.640625,4.1640625,-3.8837890625
0.053,-1.76171875,4.484375,-3.0830078125
0.0535,-2.72265625,4.6044921875,-2.2822265625
0.054,-3.5634765625,4.64453125,-1.521484375
0.0545,-4.4443359375,4.6845703125,-0.6806640625
0.055,-4.5244140625,3.8837890625,0.240234375
0.0555,-5.0048828125,3.763671875,0.80078125
0.056,-5.0849609375,2.6025390625,2.0419921875
0.0565,-5.125,2.08203125,2.482421875
0.057,-5.205078125,1.12109375,3.5234375
0.0575,-4.884765625,0.240234375,4.0439453125
0.058,-4.1640625,-0.80078125,4.3642578125
0.0585,-3.7236328125,-1.681640625,4.8046875
0.059,-2.5625,-2.8828125,4.8046875
0.0595,-2.08203125,-3.4033203125,4.8046875
0.06,-1.0810546875,-4.4443359375,4.8447265625
0.0605,-0.080078125,-4.6845703125,4.083984375
0.061,0.6005859375,-5.0849609375,3.8037109375
0.0615,1.921875,-5.3251953125,2.7626953125
0.062,2.8427734375,-5.4052734375,1.9619140625
0.0625,3.603515625,-5.28515625,1.12109375
0.063,4.32421875,-5.205078125,0.2802734375
0.0635,4.4443359375,-4.32421875,-0.640625
0.064,4.8046875,-4.1240234375,-1.28125
0.0645,4.884765625,-2.8828125,-2.5625
0.065,4.8046875,-2.3623046875,-3.0830078125
0.0655,4.7646484375,-1.3212890625,-4.00390625
0.066,4.32421875,-0.3603515625,-4.4443359375
0.0665,3.5234375,0.6806640625,-4.64453125
0.067,2.962890625,1.5615234375,-4.9248046875
0.0675,1.8818359375,2.802734375,-5.0048828125
0.068,1.3212890625,3.2431640625,-4.884765625
0.0685,0.3203125,4.1640625,-4.8447265625
0.069,-0.6806640625,4.32421875,-3.9638671875
0.0695,-1.44140625,4.7646484375,-3.68359375
0.07,-2.802734375,4.9248046875,-2.482421875
0.0705,-3.603515625,4.96484375,-1.7216796875
0.071,-4.32421875,4.7646484375,-0.8408203125
0.0715,-4.96484375,4.5244140625,0.0
0.072,-5.0048828125,3.6435546875,0.9609375
0.0725,-5.3251953125,3.3232421875,1.5615234375
0.073,-5.4453125,2.0419921875,2.8427734375
0.0735,-5.28515625,1.4814453125,3.2431640625
0.074,-5.1650390625,0.5205078125,4.1240234375
0.0745,-4.5244140625,-0.5205078125,4.484375
0.075,-3.84375,-1.4814453125,4.7646484375
0.0755,-3.123046875,-2.482421875,4.96484375
0.076,-2.162109375,-3.5634765625,5.044921875
0.0765,-1.44140625,-3.9638671875,4.7646484375
0.077,-0.5205078125,-4.8046875,4.64453125
0.0775,0.5205078125,-4.9248046875,3.763671875
0.078,1.201171875,-5.3251953125,3.4833984375
0.0785,2.6025390625,-5.4453125,2.2021484375
0.079,3.3232421875,-5.4853515625,1.5615234375
0.0795,3.9638671875,-5.1650390625,0.6005859375
0.08,4.484375,-4.884765625,-0.2001953125
0.0805,4.5244140625,-4.0439453125,-1.12109375
0.081,4.8046875,-3.6435546875,-1.76171875
0.0815,4.9248046875,-2.5224609375,-3.04296875
0.082,4.724609375,-1.8818359375,-3.36328125
0.0825,4.6044921875,-0.880859375,-4.2041015625
0.083,3.8037109375,0.2001953125,-4.4443359375
0.0835,3.283203125,1.0009765625,-4.724609375
0.084,2.40234375,2.0419921875,-4.8447265625
0.0845,1.6416015625,3.04296875,-5.0048828125
0.085,0.880859375,3.443359375,-4.6044921875
0.0855,0.0,4.1640625,-4.5244140625
0.086,-1.0810546875,4.2841796875,-3.5634765625
0.0865,-1.76171875,4.64453125,-3.2431640625
0.087,-3.1630859375,4.8046875,-2.001953125
0.0875,-3.7236328125,4.7646484375,-1.44140625
0.088,-4.32421875,4.4443359375,-0.5205078125
0.0885,-4.724609375,4.00390625,0.2802734375
0.089,-4.884765625,3.283203125,1.0810546875
0.0895,-5.044921875,2.6826171875,1.76171875
0.09,-5.2451171875,1.841796875,2.8828125
0.0905,-4.8447265625,1.12109375,3.2431640625
0.091,-4.8447265625,0.2802734375,4.00390625
0.0915,-3.8837890625,-0.8408203125,4.1640625
0.092,-3.5634765625,-1.5615234375,4.5244140625
0.0925,-2.6025390625,-2.642578125,4.6044921875
0.093,-2.001953125,-3.36328125,4.724609375
0.0935,-1.1611328125,-3.8037109375,4.32421875
0.094,-0.400390625,-4.4443359375,4.1240234375
0.0945,0.6005859375,-4.5244140625,3.3232421875
0.095,1.28125,-4.884765625,3.0029296875
0.0955,2.5224609375,-5.044921875,1.921875
0.096,3.0029296875,-4.96484375,1.361328125
0.0965,3.6435546875,-4.7646484375,0.48046875
0.097,3.8837890625,-4.244140625,-0.2802734375
0.0975,4.1240234375,-3.84375,-1.0009765625
0.098,4.244140625,-3.0830078125,-1.7216796875
0.0985,4.5244140625,-2.4423828125,-2.6025390625
0.099,4.1240234375,-1.6416015625,-2.962890625
0.0995,4.1240234375,-0.880859375,-3.7236328125
0.1,3.1630859375,0.2001953125,-3.84375
0.1005,3.04296875,0.80078125,-4.244140625
0.101,2.0419921875,1.921875,-4.3642578125
0.1015,1.7216796875,2.482421875,-4.5244140625
0.102,0.7607421875,3.04296875,-4.1240234375
0.1025,0.0400390625,3.5234375,-3.923828125
0.103,-0.9208984375,3.763671875,-3.2431640625
0.1035,-1.6416015625,4.1240234375,-2.802734375
0.104,-2.802734375,4.32421875,-1.9619140625
0.1045,-3.1630859375,4.1240234375,-1.361328125
0.105,-3.84375,4.00390625,-0.640625
0.1055,-4.00390625,3.36328125,0.1201171875
0.106,-4.3642578125,3.1630859375,0.7607421875
0.1065,-4.484375,2.40234375,1.6416015625
0.107,-4.7646484375,1.8818359375,2.40234375
0.1075,-4.32421875,1.0009765625,2.8427734375
0.108,-4.244140625,0.2802734375,3.4833984375
0.1085,-3.443359375,-0.80078125,3.6435546875
0.109,-3.2431640625,-1.361328125,4.0439453125
0.1095,-2.40234375,-2.4423828125,4.2041015625
0.11,-1.9619140625,-2.8427734375,4.1640625
0.1105,-1.1611328125,-3.443359375,3.923828125
0.111,-0.4404296875,-3.8037109375,3.5234375
0.1115,0.400390625,-4.1240234375,3.123046875
0.112,1.28125,-4.3642578125,2.482421875
0.1125,2.2021484375,-4.6845703125,1.841796875
0.113,2.5224609375,-4.3642578125,1.201171875
0.1135,3.123046875,-4.404296875,0.6005859375
0.114,3.2431640625,-3.68359375,-0.16015625
0.1145,3.6435546875,-3.5234375,-0.6806640625
0.115,3.8037109375,-2.72265625,-1.6015625
0.1155,3.9638671875,-2.40234375,-2.08203125
0.116,3.68359375,-1.4814453125,-2.6826171875
0.1165,3.4833984375,-0.8408203125,-3.123046875
0.117,2.8828125,0.080078125,-3.4033203125
0.1175,2.6826171875,0.6806640625,-3.8037109375
0.118,2.0419921875,1.6416015625,-4.083984375
0.1185,1.5615234375,1.921875,-3.923828125
0.119,0.880859375,2.6826171875,-3.923828125
0.1195,0.0400390625,2.962890625,-3.36328125
0.12,-0.6806640625,3.443359375,-3.1630859375
0.1205,-1.681640625,3.6435546875,-2.4423828125
0.121,-2.40234375,3.8837890625,-2.001953125
0.1215,-2.802734375,3.5634765625,-1.28125
0.122,-3.283203125,3.68359375,-0.80078125
0.1225,-3.5634765625,3.0830078125,0.0400390625
0.123,-3.923828125,2.8828125,0.6005859375
0.1235,-4.2041015625,2.2421875,1.5615234375
0.124,-4.2041015625,1.76171875,1.9619140625
0.1245,-4.083984375,0.9208984375,2.6826171875
0.125,-3.68359375,0.1201171875,3.0029296875
0.1255,-3.3232421875,-0.640625,3.443359375
0.126,-2.8828125,-1.361328125,3.68359375
0.1265,-2.40234375,-2.162109375,3.9638671875
0.127,-1.8017578125,-2.482421875,3.6435546875
0.1275,-1.2412109375,-3.123046875,3.763671875
0.128,-0.3603515625,-3.36328125,3.123046875
0.1285,0.3203125,-3.8837890625,2.8828125
0.129,1.3212890625,-4.1640625,2.162109375
0.1295,1.841796875,-4.2841796875,1.76171875
0.13,2.322265625,-4.00390625,1.0810546875
0.1305,2.6826171875,-3.8837890625,0.640625
0.131,3.0029296875,-3.443359375,-0.16015625
0.1315,3.283203125,-3.1630859375,-0.6806640625
0.132,3.6435546875,-2.6826171875,-1.521484375
0.1325,3.4833984375,-2.1220703125,-1.8818359375
0.133,3.5234375,-1.44140625,-2.5625
0.1335,2.962890625,-0.640625,-2.8427734375
0.134,2.8828125,0.0400390625,-3.36328125
0.1345,2.2822265625,0.9208984375,-3.603515625
0.135,2.0419921875,1.4013671875,-3.8837890625
0.1355,1.28125,1.921875,-3.603515625
0.136,0.7607421875,2.5224609375,-3.6435546875
0.1365,-0.2001953125,2.8427734375,-3.0830078125
0.137,-0.880859375,3.3232421875,-2.8427734375
0.1375,-1.8818359375,3.603515625,-2.2021484375
0.138,-2.2822265625,3.6435546875,-1.76171875
0.1385,-2.8828125,3.603515625,-1.12109375
0.139,-3.203125,3.2431640625,-0.48046875
0.1395,-3.603515625,3.0029296875,0.2001953125
0.14,-3.8837890625,2.482421875,0.9609375
0.1405,-4.2041015625,2.0419921875,1.681640625
0.141,-3.8837890625,1.28125,2.162109375
0.1415,-3.923828125,0.640625,2.802734375
0.142,-3.2431640625,-0.3203125,3.04296875
0.1425,-3.203125,-0.9609375,3.5234375
0.143,-2.5224609375,-1.8818359375,3.8037109375
0.1435,-2.08203125,-2.322265625,3.8037109375
0.144,-1.361328125,-2.8828125,3.5634765625
0.1445,-0.720703125,-3.283203125,3.36328125
0.145,0.1201171875,-3.6435546875,2.8427734375
0.1455,0.9208984375,-4.0439453125,2.40234375
0.146,1.841796875,-4.244140625,1.841796875
0.1465,2.162109375,-3.9638671875,1.2412109375
0.147,2.6826171875,-4.00390625,0.7607421875
0.1475,2.8828125,-3.4833984375,0.0
0.148,3.2431640625,-3.2431640625,-0.6005859375
0.1485,3.4833984375,-2.642578125,-1.361328125
0.149,3.6435546875,-2.2421875,-1.9619140625
0.1495,3.3232421875,-1.361328125,-2.4423828125
0.15,3.2431640625,-0.80078125,-2.9228515625
0.1505,2.642578125,0.080078125,-3.1630859375
0.151,2.482421875,0.6806640625,-3.5634765625
0.1515,1.8818359375,1.5615234375,-3.84375
0.152,1.3212890625,1.921875,-3.68359375
0.1525,0.6806640625,2.5224609375,-3.6435546875
0.153,-0.080078125,2.8427734375,-3.1630859375
0.1535,-0.8408203125,3.203125,-2.8427734375
0.154,-1.76171875,3.5634765625,-2.2021484375
0.1545,-2.482421875,3.8037109375,-1.681640625
0.155,-2.8427734375,3.443359375,-1.0009765625
0.1555,-3.36328125,3.4833984375,-0.6005859375
0.156,-3.5634765625,2.8427734375,0.2802734375
0.1565,-3.923828125,2.6025390625,0.880859375
0.157,-4.2041015625,1.9619140625,1.76171875
0.1575,-4.1240234375,1.4013671875,2.2421875
0.158,-3.84375,0.5205078125,2.8427734375
0.1585,-3.5634765625,-0.240234375,3.2431640625
0.159,-3.04296875,-1.041015625,3.5234375
0.1595,-2.642578125,-1.8017578125,3.84375
0.16,-2.001953125,-2.6025390625,4.1240234375
0.1605,-1.28125,-2.962890625,3.603515625
0.161,-0.720703125,-3.5634765625,3.6435546875
0.1615,0.2802734375,-3.8037109375,2.8828125
0.162,1.0009765625,-4.1640625,2.5224609375
0.1625,1.9619140625,-4.3642578125,1.76171875
0.163,2.5625,-4.3642578125,1.2412109375
0.1635,2.8828125,-3.9638671875,0.48046875
0.164,3.3232421875,-3.84375,0.0
0.1645,3.4833984375,-3.123046875,-0.9208984375
0.165,3.7236328125,-2.7626953125,-1.521484375
0.1655,3.9638671875,-2.08203125,-2.4423828125
0.166,3.603515625,-1.28125,-2.8427734375
0.1665,3.36328125,-0.5205078125,-3.3232421875
0.167,2.802734375,0.3203125,-3.5634765625
0.1675,2.322265625,1.12109375,-3.84375
0.168,1.841796875,1.921875,-4.00390625
0.1685,1.1611328125,2.5625,-4.1640625
0.169,0.3203125,2.8427734375,-3.603515625
0.1695,-0.2802734375,3.443359375,-3.5634765625
0.17,-1.4013671875,3.603515625,-2.6025390625
0.1705,-2.08203125,3.923828125,-2.2822265625
0.171,-3.04296875,4.0439453125,-1.44140625
0.1715,-3.4833984375,3.84375,-0.80078125
0.172,-3.8037109375,3.4833984375,-0.080078125
0.1725,-4.1640625,3.1630859375,0.6005859375
0.173,-4.3642578125,2.40234375,1.521484375
0.1735,-4.484375,1.921875,2.08203125
0.174,-4.64453125,1.201171875,2.962890625
0.1745,-4.00390625,0.240234375,3.283203125
0.175,-3.8837890625,-0.5205078125,3.84375
0.1755,-3.04296875,-1.6015625,4.00390625
0.176,-2.5224609375,-2.322265625,4.2841796875
0.1765,-1.8017578125,-3.123046875,4.2841796875
0.177,-1.0810546875,-3.8037109375,4.1640625
0.1775,-0.2802734375,-4.00390625,3.603515625
0.178,0.48046875,-4.5244140625,3.4033203125
0.1785,1.76171875,-4.64453125,2.2822265625
0.179,2.40234375,-4.8447265625,1.841796875
0.1795,3.3232421875,-4.8447265625,0.9609375
0.18,3.6435546875,-4.4443359375,0.2001953125
0.1805,3.923828125,-4.00390625,-0.5205078125
0.181,4.1640625,-3.36328125,-1.361328125
0.1815,4.32421875,-2.6025390625,-2.2822265625
0.182,4.2841796875,-1.9619140625,-2.8427734375
0.1825,4.32421875,-1.1611328125,-3.68359375
0.183,3.4833984375,-0.080078125,-3.84375
0.1835,3.283203125,0.6005859375,-4.2841796875
0.184,2.2421875,1.76171875,-4.404296875
0.1845,1.76171875,2.482421875,-4.564453125
0.185,0.9208984375,3.1630859375,-4.4443359375
0.1855,0.080078125,3.8037109375,-4.2041015625
0.186,-0.80078125,3.9638671875,-3.5234375
0.1865,-1.6416015625,4.404296875,-3.123046875
0.187,-2.9228515625,4.5244140625,-1.9619140625
0.1875,-3.5234375,4.484375,-1.361328125
0.188,-4.2841796875,4.404296875,-0.5205078125
0.1885,-4.5244140625,3.84375,0.3203125
0.189,-4.8046875,3.36328125,0.9609375
0.1895,-5.0048828125,2.5224609375,1.9619140625
0.19,-5.125,1.841796875,2.8427734375
0.1905,-4.8447265625,0.9609375,3.36328125
0.191,-4.8447265625,0.16015625,4.1240234375
0.1915,-3.84375,-1.0009765625,4.2841796875
0.192,-3.5634765625,-1.7216796875,4.64453125
0.1925,-2.3623046875,-3.0830078125,4.724609375
0.193,-1.8017578125,-3.68359375,4.7646484375
0.1935,-0.8408203125,-4.244140625,4.484375
0.194,0.0,-4.8046875,4.1240234375
0.1945,0.8408203125,-4.8447265625,3.36328125
0.195,1.8017578125,-5.28515625,2.802734375
0.1955,3.123046875,-5.4453125,1.6416015625
0.196,3.603515625,-5.125,0.9609375
0.1965,4.32421875,-5.0048828125,0.080078125
0.197,4.484375,-4.244140625,-0.80078125
0.1975,4.64453125,-3.8037109375,-1.44140625
0.198,4.8046875,-2.802734375,-2.5625
0.1985,4.9248046875,-2.001953125,-3.4033203125
0.199,4.4443359375,-1.0810546875,-3.84375
0.1995,4.32421875,-0.240234375,-4.564453125
0.2,3.2431640625,0.880859375,-4.564453125
0.2005,2.9228515625,1.5615234375,-4.9248046875
0.201,1.681640625,2.8828125,-5.0048828125
0.2015,1.0810546875,3.4833984375,-4.884765625
0.202,0.080078125,4.083984375,-4.484375
0.2025,-0.80078125,4.484375,-4.0439453125
0.203,-1.7216796875,4.6044921875,-3.2431640625
0.2035,-2.72265625,4.8447265625,-2.5625
0.204,-4.00390625,5.0849609375,-1.44140625
0.2045,-4.3642578125,4.564453125,-0.640625
0.205,-5.044921875,4.404296875,0.240234375
0.2055,-5.125,3.5634765625,1.0810546875
0.206,-5.28515625,3.123046875,1.76171875
0.2065,-5.4052734375,2.0419921875,2.8828125
0.207,-5.4853515625,1.28125,3.7236328125
0.2075,-4.8447265625,0.2001953125,4.1240234375
0.208,-4.6044921875,-0.720703125,4.724609375
0.2085,-3.5634765625,-1.841796875,4.724609375
0.209,-3.123046875,-2.5224609375,4.9248046875
0.2095,-1.9619140625,-3.8837890625,5.125
0.21,-1.1611328125,-4.2841796875,4.8046875
0.2105,-0.2001953125,-4.8447265625,4.3642578125
0.211,0.640625,-5.1650390625,3.84375
0.2115,1.5615234375,-5.28515625,3.0830078125
0.212,2.6025390625,-5.4453125,2.2421875
0.2125,3.84375,-5.6455078125,1.201171875
0.213,4.083984375,-4.96484375,0.2802734375
0.2135,4.724609375,-4.8447265625,-0.4404296875
0.214,4.64453125,-3.8837890625,-1.3212890625
0.2145,4.8046875,-3.4033203125,-1.9619140625
0.215,4.9248046875,-2.322265625,-3.123046875
0.2155,4.8447265625,-1.6015625,-3.8037109375
0.216,4.2041015625,-0.5205078125,-4.244140625
0.2165,3.9638671875,0.3203125,-4.7646484375
0.217,2.8828125,1.4013671875,-4.64453125
0.2175,2.482421875,2.08203125,-4.9248046875
0.218,1.4013671875,3.36328125,-5.125
0.2185,0.6005859375,3.7236328125,-4.64453125
0.219,-0.3203125,4.32421875,-4.32421875
0.2195,-1.2412109375,4.5244140625,-3.6435546875
0.22,-2.08203125,4.724609375,-2.962890625
0.2205,-3.1630859375,4.8447265625,-2.08203125
0.221,-4.2041015625,5.0048828125,-1.1611328125
0.2215,-4.4443359375,4.244140625,-0.2001953125
0.222,-5.0048828125,4.1240234375,0.4404296875
0.2225,-5.0048828125,3.203125,1.4013671875
0.223,-5.1650390625,2.72265625,2.001953125
0.2235,-5.3251953125,1.681640625,3.1630859375
0.224,-5.125,0.880859375,3.68359375
0.2245,-4.5244140625,-0.240234375,4.1640625
0.225,-4.0439453125,-1.041015625,4.484375
0.2255,-3.203125,-2.0419921875,4.6044921875
0.226,-2.642578125,-2.7626953125,4.8046875
0.2265,-1.681640625,-3.8837890625,4.9248046875
0.227,-0.80078125,-4.1240234375,4.2841796875
0.2275,-0.1201171875,-4.724609375,4.1240234375
0.228,0.9208984375,-4.8447265625,3.2431640625
0.2285,1.681640625,-5.044921875,2.72265625
