wavelength,x,y,z
0.0,-0.1551513671875,21.025512695312,-21.135620117188
0.0005,-4.6395263671875,23.147583007812,-18.933471679688
0.001,-10.645385742188,25.990356445312,-15.850463867188
0.0015,-14.248901367188,25.589965820312,-11.926635742188
0.002,-18.412963867188,24.669067382812,-6.8817138671875
0.0025,-19.734252929688,22.667114257812,-3.5584716796875
0.003,-22.777221679688,20.344848632812,1.9268798828125
0.0035,-25.219604492188,18.062622070312,6.6915283203125
0.004,-25.579956054688,13.378051757812,11.816528320312
0.0045,-26.140502929688,10.415161132812,15.420043945312
0.005,-23.658081054688,5.2501220703125,18.142700195312
0.0055,-21.576049804688,1.3262939453125,19.984497070312
0.006,-19.494018554688,-3.5584716796875,22.747192382812
0.0065,-16.811401367188,-9.4842529296875,25.990356445312
0.007,-12.086791992188,-13.528198242188,25.309692382812
0.0075,-8.2830810546875,-17.331909179688,25.309692382812
0.008,-3.7987060546875,-18.853393554688,22.386840820312
0.0085,1.5264892578125,-21.736206054688,20.024536132812
0.009,5.9307861328125,-23.978393554688,17.982543945312
0.0095,11.896606445312,-25.700073242188,13.818481445312
0.01,15.219848632812,-25.459838867188,10.375122070312
0.0105,18.703247070312,-23.818237304688,5.2901611328125
0.011,20.304809570312,-21.696166992188,1.5665283203125
0.0115,23.347778320312,-19.814331054688,-3.4783935546875
0.012,25.469848632812,-16.811401367188,-8.6434326171875
0.0125,25.349731445312,-12.286987304688,-13.127807617188
0.013,25.630004882812,-9.1239013671875,-16.651245117188
0.0135,22.747192382812,-4.1990966796875,-18.773315429688
0.014,20.825317382812,0.2852783203125,-21.215698242188
0.0145,18.903442382812,4.9298095703125,-23.978393554688
0.015,15.219848632812,11.055786132812,-26.420776367188
0.0155,10.855590820312,14.739379882812,-25.700073242188
0.016,6.6114501953125,18.062622070312,-24.819213867188
0.0165,2.0870361328125,19.504028320312,-21.776245117188
0.017,-3.1580810546875,22.667114257812,-19.894409179688
0.0175,-8.0028076171875,24.749145507812,-17.291870117188
0.018,-13.448120117188,25.990356445312,-13.087768554688
0.0185,-16.771362304688,25.309692382812,-9.1639404296875
0.019,-19.694213867188,23.307739257812,-4.1990966796875
0.0195,-21.616088867188,20.985473632812,0.1251220703125
0.02,-24.659057617188,19.223754882812,4.8897705078125
0.0205,-26.060424804688,15.380004882812,10.295043945312
0.021,-25.740112304688,10.895629882812,14.459106445312
0.0215,-25.299682617188,7.4122314453125,17.622192382812
0.022,-22.136596679688,2.2071533203125,19.664184570312
0.0225,-20.374877929688,-2.5174560546875,22.587036132812
0.023,-17.932495117188,-7.4422607421875,24.989379882812
0.0235,-14.088745117188,-13.127807617188,26.911254882812
0.024,-9.3240966796875,-16.651245117188,25.630004882812
0.0245,-4.7596435546875,-19.534057617188,23.988403320312
0.025,0.2452392578125,-21.135620117188,20.745239257812
0.0255,5.1700439453125,-24.538940429688,19.183715820312
0.026,10.455200195312,-25.660034179688,15.219848632812
0.0265,15.219848632812,-26.460815429688,11.376098632812
0.027,18.342895507812,-25.179565429688,7.0518798828125
0.0275,21.145629882812,-22.777221679688,1.8067626953125
0.028,23.347778320312,-20.414916992188,-2.8377685546875
0.0285,25.910278320312,-18.212768554688,-7.7225341796875
0.029,26.751098632812,-13.968627929688,-12.807495117188
0.0295,25.950317382812,-9.1639404296875,-16.931518554688
0.03,24.789184570312,-5.7606201171875,-19.213745117188
0.0305,21.385864257812,-0.1951904296875,-21.335815429688
0.031,19.944458007812,4.6094970703125,-24.659057617188
0.0315,16.100708007812,9.8145751953125,-25.980346679688
0.032,12.657348632812,14.739379882812,-27.501831054688
0.0325,7.4522705078125,17.942504882812,-25.499877929688
0.033,2.7276611328125,20.424926757812,-23.377807617188
0.0335,-2.2772216796875,22.226684570312,-20.214721679688
0.034,-7.4422607421875,25.750122070312,-18.733276367188
0.0345,-12.647338867188,26.070434570312,-13.968627929688
0.035,-16.971557617188,26.230590820312,-9.8846435546875
0.0355,-19.213745117188,24.629028320312,-6.1209716796875
0.036,-21.976440429688,21.826293945312,-0.4354248046875
0.0365,-24.418823242188,19.784301757812,4.1690673828125
0.037,-26.100463867188,16.541137695312,9.0938720703125
0.0375,-26.901245117188,12.897583007812,13.658325195312
0.038,-25.379760742188,7.6524658203125,17.421997070312
0.0385,-23.738159179688,4.1290283203125,19.343872070312
0.039,-20.575073242188,-1.3563232421875,21.626098632812
0.0395,-19.373901367188,-6.3612060546875,25.469848632812
0.04,-14.569213867188,-11.526245117188,25.750122070312
0.0405,-11.326049804688,-15.890502929688,26.831176757812
0.041,-6.4813232421875,-18.292846679688,24.388793945312
0.0415,-1.3563232421875,-20.815307617188,21.826293945312
0.042,3.3682861328125,-22.697143554688,19.223754882812
0.0425,8.8135986328125,-25.940307617188,17.061645507812
0.043,13.297973632812,-26.140502929688,12.857543945312
0.0435,17.622192382812,-25.339721679688,7.8526611328125
0.044,19.223754882812,-23.778198242188,4.7696533203125
0.0445,22.106567382812,-20.975463867188,-1.0760498046875
0.045,25.029418945312,-19.213745117188,-5.7606201171875
0.0455,25.589965820312,-14.889526367188,-10.725463867188
0.046,26.590942382812,-11.926635742188,-14.809448242188
0.0465,24.468872070312,-6.7215576171875,-17.852416992188
0.047,22.546997070312,-2.8778076171875,-19.894409179688
0.0475,19.904418945312,2.1270751953125,-22.216674804688
0.048,18.182739257812,7.7325439453125,-26.100463867188
0.0485,13.297973632812,12.337036132812,-25.900268554688
0.049,9.5343017578125,16.541137695312,-26.220581054688
0.0495,5.4102783203125,18.182739257812,-23.818237304688
0.05,-0.2752685546875,20.985473632812,-21.015502929688
0.0505,-4.6395263671875,23.347778320312,-19.053588867188
0.051,-10.525268554688,25.630004882812,-15.570190429688
0.0515,-14.248901367188,26.070434570312,-12.367065429688
0.052,-18.172729492188,24.348754882812,-6.8016357421875
0.0525,-19.694213867188,22.707153320312,-3.5985107421875
0.053,-22.496948242188,20.184692382812,1.8067626953125
0.0535,-25.579956054688,18.182739257812,6.9718017578125
0.054,-25.339721679688,13.338012695312,11.576293945312
0.0545,-26.260620117188,10.335083007812,15.620239257812
0.055,-23.658081054688,5.6104736328125,17.782348632812
0.0555,-21.576049804688,1.0460205078125,20.264770507812
0.056,-19.413940429688,-3.6785888671875,22.787231445312
0.0565,-16.731323242188,-9.6444091796875,26.110473632812
0.057,-12.407104492188,-13.608276367188,25.670043945312
0.0575,-7.9627685546875,-17.572143554688,25.029418945312
0.058,-4.1190185546875,-18.693237304688,22.506958007812
0.0585,1.6466064453125,-21.736206054688,19.984497070312
0.059,6.3712158203125,-24.378784179688,18.062622070312
0.0595,12.016723632812,-25.579956054688,13.578247070312
0.06,15.500122070312,-25.940307617188,10.575317382812
0.0605,18.663208007812,-23.698120117188,5.2501220703125
0.061,20.625122070312,-21.736206054688,1.2862548828125
0.0615,23.347778320312,-19.694213867188,-3.5985107421875
0.062,26.030395507812,-16.931518554688,-9.1639404296875
0.0625,25.429809570312,-12.246948242188,-13.207885742188
0.063,25.750122070312,-8.8436279296875,-17.051635742188
0.0635,22.787231445312,-4.3592529296875,-18.613159179688
0.064,20.785278320312,0.6856689453125,-21.576049804688
0.0645,18.703247070312,5.2901611328125,-24.218627929688
0.065,14.899536132812,11.416137695312,-26.500854492188
0.0655,11.135864257812,14.819458007812,-26.140502929688
0.066,6.1710205078125,18.222778320312,-24.538940429688
0.0665,2.0469970703125,19.504028320312,-21.776245117188
0.067,-3.2781982421875,22.587036132812,-19.654174804688
0.0675,-8.4832763671875,25.269653320312,-17.211791992188
0.068,-13.528198242188,25.670043945312,-12.687377929688
0.0685,-16.971557617188,25.549926757812,-9.2039794921875
0.069,-19.413940429688,22.987426757812,-4.1590576171875
0.0695,-21.776245117188,20.865356445312,0.4053955078125
0.07,-24.338745117188,18.943481445312,4.9298095703125
0.0705,-26.260620117188,15.259887695312,10.575317382812
0.071,-25.539916992188,10.855590820312,14.338989257812
0.0715,-25.059448242188,7.0919189453125,17.662231445312
0.072,-21.936401367188,2.5675048828125,19.143676757812
0.0725,-20.214721679688,-2.5174560546875,22.426879882812
0.073,-17.652221679688,-7.4422607421875,24.789184570312
0.0735,-13.608276367188,-13.007690429688,26.270629882812
0.074,-9.6844482421875,-16.170776367188,25.589965820312
0.0745,-4.5594482421875,-18.933471679688,23.227661132812
0.075,-0.1951904296875,-20.414916992188,20.384887695312
0.0755,4.7296142578125,-23.537963867188,18.783325195312
0.076,10.375122070312,-25.539916992188,15.219848632812
0.0765,14.539184570312,-25.499877929688,11.095825195312
0.077,17.662231445312,-24.819213867188,7.2921142578125
0.0775,19.904418945312,-22.016479492188,2.2471923828125
0.078,22.667114257812,-20.134643554688,-2.3973388671875
0.0785,24.629028320312,-17.892456054688,-6.7215576171875
0.079,26.110473632812,-13.928588867188,-12.206909179688
0.0795,25.109497070312,-9.6043701171875,-15.650268554688
0.08,23.868286132812,-5.6805419921875,-18.332885742188
0.0805,20.785278320312,-1.2762451171875,-19.734252929688
0.081,19.504028320312,3.6485595703125,-23.337768554688
0.0815,15.980590820312,8.8135986328125,-25.019409179688
0.082,12.176879882812,13.618286132812,-25.900268554688
0.0825,8.2930908203125,16.501098632812,-24.939331054688
0.083,3.1680908203125,18.823364257812,-22.136596679688
0.0835,-1.3162841796875,20.705200195312,-19.694213867188
0.084,-5.8807373046875,23.708129882812,-18.252807617188
0.0845,-11.446166992188,25.229614257812,-14.288940429688
0.085,-15.209838867188,24.588989257812,-9.9647216796875
0.0855,-17.652221679688,23.668090820312,-6.6014404296875
0.086,-19.814331054688,20.785278320312,-1.5965576171875
0.0865,-22.817260742188,19.343872070312,2.9678955078125
0.087,-24.058471679688,16.340942382812,7.2921142578125
0.0875,-25.339721679688,12.777465820312,12.176879882812
0.088,-24.218627929688,8.6134033203125,15.339965820312
0.0885,-22.416870117188,4.4493408203125,17.702270507812
0.089,-19.894409179688,0.1651611328125,19.423950195312
0.0895,-18.853393554688,-4.7196044921875,23.147583007812
0.09,-14.889526367188,-9.8446044921875,24.388793945312
0.0905,-10.965698242188,-14.048706054688,24.629028320312
0.091,-7.5223388671875,-16.290893554688,23.467895507812
0.0915,-2.1971435546875,-18.453002929688,20.424926757812
0.092,2.0469970703125,-20.895385742188,18.743286132812
0.0925,6.7716064453125,-23.297729492188,16.501098632812
0.093,11.656372070312,-24.819213867188,13.257934570312
0.0935,15.259887695312,-23.457885742188,8.3331298828125
0.094,17.421997070312,-22.456909179688,5.1700439453125
0.0945,19.664184570312,-19.854370117188,0.3653564453125
0.095,23.107543945312,-18.813354492188,-4.1990966796875
0.0955,23.507934570312,-14.849487304688,-8.6434326171875
0.096,24.629028320312,-11.606323242188,-13.127807617188
0.0965,23.347778320312,-7.9227294921875,-15.610229492188
0.097,21.105590820312,-3.3182373046875,-17.972534179688
0.0975,19.183715820312,0.6856689453125,-20.094604492188
0.098,17.462036132812,5.8907470703125,-23.537963867188
0.0985,13.858520507812,10.615356445312,-24.659057617188
0.099,9.3341064453125,14.579223632812,-24.018432617188
0.0995,6.2510986328125,16.300903320312,-22.617065429688
0.1,0.8458251953125,18.623168945312,-19.654174804688
0.1005,-3.4383544921875,21.706176757812,-18.613159179688
0.101,-8.4832763671875,23.147583007812,-15.049682617188
0.1015,-12.687377929688,24.669067382812,-12.487182617188
0.102,-15.810424804688,22.787231445312,-7.5623779296875
0.1025,-18.052612304688,21.385864257812,-3.8787841796875
0.103,-20.334838867188,19.223754882812,0.6055908203125
0.1035,-23.658081054688,17.662231445312,5.5704345703125
0.104,-23.698120117188,13.498168945312,9.7745361328125
0.1045,-24.338745117188,9.8546142578125,14.098754882812
0.105,-22.737182617188,6.6114501953125,15.820434570312
0.1055,-20.294799804688,1.5264892578125,18.503051757812
0.106,-18.773315429688,-2.7576904296875,21.265747070312
0.1065,-15.930541992188,-8.1629638671875,23.748168945312
0.107,-12.967651367188,-12.206909179688,24.869262695312
0.1075,-7.8426513671875,-15.810424804688,23.307739257812
0.108,-4.4793701171875,-17.371948242188,21.546020507812
0.1085,0.8458251953125,-19.894409179688,18.903442382812
0.109,5.7305908203125,-23.457885742188,17.742309570312
0.1095,10.575317382812,-23.698120117188,13.177856445312
0.11,14.539184570312,-24.859252929688,10.415161132812
0.1105,16.941528320312,-22.697143554688,5.9307861328125
0.111,19.544067382812,-20.815307617188,1.4063720703125
0.1115,21.946411132812,-18.853393554688,-3.0780029296875
0.112,24.629028320312,-16.290893554688,-8.3231201171875
0.1125,24.468872070312,-12.487182617188,-12.126831054688
0.113,24.188598632812,-8.2030029296875,-16.170776367188
0.1135,22.066528320312,-4.9998779296875,-17.371948242188
0.114,19.784301757812,0.4454345703125,-20.334838867188
0.1145,18.182739257812,5.2100830078125,-23.537963867188
0.115,13.938598632812,10.615356445312,-24.699096679688
0.1155,11.336059570312,14.178833007812,-25.660034179688
0.116,6.0108642578125,17.101684570312,-23.217651367188
0.1165,2.0469970703125,18.823364257812,-21.055541992188
0.117,-2.8778076171875,21.305786132812,-18.733276367188
0.1175,-8.3631591796875,24.789184570312,-16.811401367188
0.118,-12.567260742188,24.388793945312,-12.327026367188
0.1185,-16.531127929688,24.588989257812,-8.6834716796875
0.119,-18.212768554688,22.266723632812,-4.6795654296875
0.1195,-21.095581054688,20.184692382812,0.3653564453125
0.12,-23.417846679688,18.182739257812,4.8096923828125
0.1205,-25.019409179688,14.379028320312,10.134887695312
0.121,-25.019409179688,11.095825195312,13.498168945312
0.1215,-23.698120117188,6.4112548828125,16.901489257812
0.122,-21.375854492188,3.0079345703125,18.102661132812
0.1225,-19.333862304688,-2.1170654296875,21.145629882812
0.123,-17.291870117188,-7.4822998046875,24.468872070312
0.1235,-12.687377929688,-12.206909179688,24.629028320312
0.124,-9.8446044921875,-15.570190429688,25.029418945312
0.1245,-4.7996826171875,-17.652221679688,22.106567382812
0.125,-0.2752685546875,-19.734252929688,19.824340820312
0.1255,4.1290283203125,-22.176635742188,17.982543945312
0.126,10.014770507812,-24.899291992188,14.859497070312
0.1265,13.418090820312,-24.418823242188,11.095825195312
0.127,17.181762695312,-23.818237304688,6.8116455078125
0.1275,18.583129882812,-21.495971679688,3.0479736328125
0.128,21.626098632812,-19.654174804688,-1.9168701171875
0.1285,23.788208007812,-17.371948242188,-6.4412841796875
0.129,24.588989257812,-13.247924804688,-11.406127929688
0.1295,24.709106445312,-10.204956054688,-14.729370117188
0.13,22.667114257812,-5.4803466796875,-17.331909179688
0.1305,20.424926757812,-1.7166748046875,-18.893432617188
0.131,18.823364257812,2.9278564453125,-21.896362304688
0.1315,15.980590820312,8.6534423828125,-24.739135742188
0.132,11.656372070312,12.617309570312,-24.418823242188
0.1325,8.2930908203125,15.940551757812,-24.378784179688
0.133,3.8087158203125,17.502075195312,-21.455932617188
0.1335,-1.0360107421875,20.184692382812,-19.413940429688
0.134,-5.2401123046875,22.546997070312,-17.692260742188
0.1345,-11.045776367188,24.468872070312,-13.968627929688
0.135,-14.248901367188,23.988403320312,-10.285034179688
0.1355,-17.291870117188,22.787231445312,-6.1209716796875
0.136,-18.853393554688,20.464965820312,-2.2371826171875
0.1365,-21.936401367188,19.023559570312,2.4073486328125
0.137,-23.698120117188,16.020629882812,7.2120361328125
0.1375,-24.178588867188,12.096801757812,11.616333007812
0.138,-24.098510742188,8.9337158203125,14.859497070312
0.1385,-21.576049804688,4.3292236328125,16.941528320312
0.139,-19.694213867188,0.2052001953125,19.223754882812
0.1395,-18.212768554688,-4.3592529296875,22.266723632812
0.14,-14.769409179688,-10.084838867188,24.588989257812
0.1405,-10.685424804688,-13.608276367188,23.988403320312
0.141,-7.0018310546875,-16.451049804688,23.107543945312
0.1415,-2.4373779296875,-17.972534179688,20.184692382812
0.142,2.2872314453125,-21.055541992188,18.623168945312
0.1425,6.9317626953125,-23.057495117188,16.100708007812
0.143,11.976684570312,-24.538940429688,12.617309570312
0.1435,15.259887695312,-23.698120117188,8.6134033203125
0.144,17.822387695312,-22.096557617188,4.4893798828125
0.1445,19.824340820312,-19.854370117188,0.1251220703125
0.145,22.907348632812,-18.533081054688,-4.3592529296875
0.1455,24.068481445312,-14.769409179688,-9.4442138671875
0.146,24.188598632812,-10.765502929688,-13.448120117188
0.1465,23.588012695312,-7.6424560546875,-16.090698242188
0.147,20.785278320312,-2.8377685546875,-18.132690429688
0.1475,19.223754882812,1.5264892578125,-20.895385742188
0.148,16.901489257812,6.3712158203125,-23.377807617188
0.1485,13.498168945312,11.616333007812,-25.299682617188
0.149,9.0137939453125,15.019653320312,-24.098510742188
0.1495,5.1700439453125,17.341918945312,-22.697143554688
0.15,0.3653564453125,19.143676757812,-19.734252929688
0.1505,-4.2391357421875,22.546997070312,-18.653198242188
0.151,-9.2840576171875,23.708129882812,-14.809448242188
0.1515,-13.728393554688,24.709106445312,-11.566284179688
0.152,-16.611206054688,23.507934570312,-7.5623779296875
0.1525,-19.093627929688,21.425903320312,-2.9178466796875
0.153,-21.215698242188,19.263793945312,1.4464111328125
0.1535,-23.858276367188,17.181762695312,6.0909423828125
0.154,-24.659057617188,13.418090820312,10.855590820312
0.1545,-24.178588867188,9.0538330078125,14.779418945312
0.155,-23.057495117188,5.9708251953125,16.821411132812
0.1555,-20.134643554688,0.8858642578125,19.023559570312
0.156,-18.933471679688,-3.6385498046875,22.266723632812
0.1565,-15.369995117188,-8.6834716796875,23.708129882812
0.157,-12.407104492188,-13.127807617188,25.229614257812
0.1575,-7.6424560546875,-16.090698242188,23.427856445312
0.158,-3.4783935546875,-18.292846679688,21.465942382812
0.1585,1.2862548828125,-20.134643554688,18.703247070312
0.159,6.0909423828125,-23.658081054688,17.502075195312
0.1595,10.935668945312,-24.058471679688,13.137817382812
0.16,15.019653320312,-24.338745117188,9.4141845703125
0.1605,17.061645507812,-23.057495117188,6.0909423828125
0.161,19.704223632812,-20.575073242188,0.9659423828125
0.1615,22.186645507812,-18.853393554688,-3.3983154296875
0.162,23.788208007812,-15.690307617188,-8.0828857421875
0.1625,24.789184570312,-12.567260742188,-12.246948242188
0.163,23.467895507812,-7.8426513671875,-15.730346679688
0.1635,22.026489257812,-4.6795654296875,-17.492065429688
0.164,19.303833007812,0.2052001953125,-19.694213867188
0.1645,18.222778320312,5.0098876953125,-23.377807617188
0.165,13.738403320312,9.8946533203125,-23.778198242188
0.1655,10.895629882812,13.938598632812,-24.979370117188
0.166,6.6915283203125,16.100708007812,-22.937377929688
0.1665,2.0069580078125,18.422973632812,-20.575073242188
0.167,-2.3172607421875,20.505004882812,-18.493041992188
0.1675,-7.5223388671875,23.547973632812,-16.411010742188
0.168,-11.646362304688,24.028442382812,-12.927612304688
0.1685,-15.650268554688,23.347778320312,-8.2830810546875
0.169,-17.171752929688,22.066528320312,-5.5203857421875
0.1695,-19.814331054688,19.584106445312,-0.4754638671875
0.17,-22.777221679688,18.182739257812,4.1290283203125
0.1705,-23.257690429688,14.098754882812,8.7735595703125
0.171,-24.538940429688,11.536254882812,12.697387695312
0.1715,-22.697143554688,6.9718017578125,15.460083007812
0.172,-21.015502929688,3.2481689453125,17.462036132812
0.1725,-18.853393554688,-1.2762451171875,19.784301757812
0.173,-17.291870117188,-6.5614013671875,23.588012695312
0.1735,-13.047729492188,-10.885620117188,23.628051757812
0.174,-9.4041748046875,-14.809448242188,23.948364257812
0.1745,-5.8406982421875,-16.370971679688,21.906372070312
0.175,-0.7557373046875,-18.933471679688,19.463989257812
0.1755,3.5284423828125,-21.495971679688,17.862426757812
0.176,9.0137939453125,-23.457885742188,14.379028320312
0.1765,12.537231445312,-24.338745117188,11.816528320312
0.177,16.300903320312,-22.857299804688,6.6915283203125
0.1775,17.942504882812,-21.455932617188,3.6085205078125
0.178,20.625122070312,-19.213745117188,-1.2762451171875
