wavelength,x,y,z
0.0,3.36328125,-1.0009765625,-2.7626953125
0.0005,3.283203125,-0.400390625,-3.203125
0.001,2.8828125,0.3603515625,-3.6435546875
0.0015,2.40234375,1.12109375,-3.9638671875
0.002,1.921875,1.9619140625,-4.244140625
0.0025,1.0810546875,2.2822265625,-3.763671875
0.003,0.3603515625,2.9228515625,-3.68359375
0.0035,-0.6005859375,3.2431640625,-3.1630859375
0.004,-1.201171875,3.7236328125,-3.04296875
0.0045,-2.1220703125,3.84375,-2.2822265625
0.005,-2.6025390625,3.8837890625,-1.841796875
0.0055,-2.8828125,3.4833984375,-1.12109375
0.006,-3.36328125,3.443359375,-0.6005859375
0.0065,-3.6435546875,2.8427734375,0.3203125
0.007,-4.00390625,2.4423828125,1.0810546875
0.0075,-4.1240234375,1.5615234375,2.1220703125
0.008,-3.8837890625,1.041015625,2.4423828125
0.0085,-3.7236328125,0.080078125,3.04296875
0.009,-3.283203125,-0.640625,3.4033203125
0.0095,-3.0830078125,-1.4814453125,3.8837890625
0.01,-2.2822265625,-2.2021484375,4.083984375
0.0105,-1.6416015625,-2.9228515625,4.1640625
0.011,-0.6806640625,-3.283203125,3.5634765625
0.0115,0.0,-3.8837890625,3.5234375
0.012,0.9208984375,-4.1640625,2.9228515625
0.0125,1.5615234375,-4.5244140625,2.642578125
0.013,2.5224609375,-4.64453125,1.8818359375
0.0135,2.8427734375,-4.4443359375,1.28125
0.014,3.1630859375,-4.0439453125,0.6005859375
0.0145,3.5234375,-3.8037109375,0.0
0.015,3.763671875,-3.1630859375,-0.9609375
0.0155,3.9638671875,-2.5625,-1.76171875
0.016,4.083984375,-1.76171875,-2.72265625
0.0165,3.5634765625,-1.0009765625,-2.962890625
0.017,3.4833984375,-0.3603515625,-3.5634765625
0.0175,3.0029296875,0.560546875,-3.8037109375
0.018,2.642578125,1.2412109375,-4.244140625
0.0185,1.8818359375,2.1220703125,-4.3642578125
0.019,1.201171875,2.72265625,-4.32421875
0.0195,0.240234375,3.04296875,-3.68359375
0.02,-0.5205078125,3.5634765625,-3.5634765625
0.0205,-1.44140625,3.84375,-2.8828125
0.021,-2.0419921875,4.0439453125,-2.5224609375
0.0215,-2.962890625,4.1240234375,-1.681640625
0.022,-3.203125,3.68359375,-1.041015625
0.0225,-3.603515625,3.4833984375,-0.400390625
0.023,-3.84375,3.04296875,0.3603515625
0.0235,-4.1240234375,2.4423828125,1.1611328125
0.024,-4.1640625,1.76171875,1.9619140625
0.0245,-4.2041015625,1.041015625,2.7626953125
0.025,-3.6435546875,0.16015625,3.0029296875
0.0255,-3.5234375,-0.48046875,3.5234375
0.026,-2.962890625,-1.3212890625,3.84375
0.0265,-2.642578125,-2.001953125,4.2041015625
0.027,-1.8017578125,-2.8828125,4.32421875
0.0275,-1.041015625,-3.36328125,4.00390625
0.028,-0.1201171875,-3.8037109375,3.5634765625
0.0285,0.640625,-4.32421875,3.36328125
0.029,1.5615234375,-4.564453125,2.6826171875
0.0295,2.2021484375,-4.7646484375,2.2822265625
0.03,3.04296875,-4.884765625,1.5615234375
0.0305,3.203125,-4.244140625,0.80078125
0.031,3.7236328125,-4.1640625,0.2001953125
0.0315,3.9638671875,-3.4833984375,-0.80078125
0.032,4.2041015625,-2.9228515625,-1.6416015625
0.0325,4.2041015625,-2.1220703125,-2.5625
0.033,4.2041015625,-1.361328125,-3.283203125
0.0335,3.443359375,-0.48046875,-3.5634765625
0.034,3.4833984375,0.240234375,-4.1240234375
0.0345,2.6826171875,1.28125,-4.3642578125
0.035,2.2421875,1.921875,-4.564453125
0.0355,1.3212890625,2.8828125,-4.64453125
0.036,0.4404296875,3.2431640625,-4.083984375
0.0365,-0.5205078125,3.68359375,-3.603515625
0.037,-1.361328125,4.1240234375,-3.203125
0.0375,-2.2822265625,4.2041015625,-2.4423828125
0.038,-2.802734375,4.1640625,-1.921875
0.0385,-3.5634765625,4.1240234375,-1.1611328125
0.039,-3.5634765625,3.4033203125,-0.3603515625
0.0395,-4.0439453125,3.36328125,0.240234375
0.04,-4.1640625,2.4423828125,1.2412109375
0.0405,-4.32421875,1.9619140625,1.8818359375
0.041,-4.2041015625,1.041015625,2.72265625
0.0415,-4.00390625,0.3203125,3.123046875
0.042,-3.4033203125,-0.5205078125,3.4833984375
0.0425,-3.3232421875,-1.0810546875,3.9638671875
0.043,-2.5625,-2.0419921875,4.1640625
0.0435,-2.08203125,-2.6025390625,4.2841796875
0.044,-1.28125,-3.4033203125,4.2841796875
0.0445,-0.3603515625,-3.68359375,3.6435546875
0.045,0.4404296875,-4.2041015625,3.4833984375
0.0455,1.3212890625,-4.564453125,2.9228515625
0.046,2.0419921875,-4.8046875,2.4423828125
0.0465,2.6826171875,-4.7646484375,1.841796875
0.047,3.203125,-4.6845703125,1.201171875
0.0475,3.36328125,-4.00390625,0.3603515625
0.048,3.923828125,-4.00390625,-0.240234375
0.0485,4.0439453125,-3.04296875,-1.44140625
0.049,4.244140625,-2.642578125,-2.001953125
0.0495,4.2041015625,-1.681640625,-2.962890625
0.05,3.84375,-0.9208984375,-3.3232421875
0.0505,3.443359375,0.0,-3.8037109375
0.051,3.1630859375,0.7607421875,-4.2841796875
0.0515,2.40234375,1.76171875,-4.564453125
0.052,1.841796875,2.322265625,-4.5244140625
0.0525,0.9609375,3.123046875,-4.484375
0.053,-0.1201171875,3.3232421875,-3.7236328125
0.0535,-0.80078125,3.9638671875,-3.603515625
0.054,-1.9619140625,4.1640625,-2.72265625
0.0545,-2.5625,4.2841796875,-2.2822265625
0.055,-3.123046875,4.1240234375,-1.5615234375
0.0555,-3.5634765625,3.923828125,-0.9208984375
0.056,-3.7236328125,3.2431640625,0.0
0.0565,-4.244140625,3.123046875,0.6005859375
0.057,-4.32421875,2.001953125,1.8017578125
0.0575,-4.3642578125,1.5615234375,2.2421875
0.058,-4.2041015625,0.720703125,3.123046875
0.0585,-3.68359375,-0.16015625,3.36328125
0.059,-3.4033203125,-0.880859375,3.84375
0.0595,-2.8828125,-1.76171875,4.1640625
0.06,-2.2021484375,-2.6025390625,4.404296875
0.0605,-1.4814453125,-3.123046875,4.1640625
0.061,-0.720703125,-3.7236328125,4.083984375
0.0615,0.3203125,-3.923828125,3.3232421875
0.062,0.9609375,-4.5244140625,3.283203125
0.0625,2.0419921875,-4.6845703125,2.3623046875
0.063,2.482421875,-4.8046875,2.0419921875
0.0635,3.0029296875,-4.564453125,1.3212890625
0.064,3.283203125,-4.2041015625,0.640625
0.0645,3.5634765625,-3.8037109375,-0.16015625
0.065,3.9638671875,-3.4033203125,-0.9208984375
0.0655,4.00390625,-2.5625,-1.9619140625
0.066,4.00390625,-2.001953125,-2.40234375
0.0665,3.8837890625,-1.1611328125,-3.123046875
0.067,3.3232421875,-0.400390625,-3.36328125
0.0675,3.283203125,0.2802734375,-4.00390625
0.068,2.5625,1.28125,-4.2041015625
0.0685,2.1220703125,1.921875,-4.484375
0.069,1.28125,2.5224609375,-4.2041015625
0.0695,0.560546875,3.04296875,-4.00390625
0.07,-0.48046875,3.36328125,-3.4033203125
0.0705,-1.1611328125,3.9638671875,-3.3232421875
0.071,-2.162109375,4.0439453125,-2.40234375
0.0715,-2.5224609375,4.1240234375,-2.1220703125
0.072,-3.123046875,3.923828125,-1.361328125
0.0725,-3.36328125,3.443359375,-0.6806640625
0.073,-3.8037109375,3.1630859375,0.1201171875
0.0735,-4.083984375,2.5224609375,0.9609375
0.074,-4.244140625,1.921875,1.841796875
0.0745,-4.083984375,1.28125,2.40234375
0.075,-4.00390625,0.560546875,3.04296875
0.0755,-3.36328125,-0.3603515625,3.283203125
0.076,-3.36328125,-1.0009765625,3.923828125
0.0765,-2.482421875,-2.08203125,4.1240234375
0.077,-2.08203125,-2.6025390625,4.2841796875
0.0775,-1.1611328125,-3.203125,3.923828125
0.078,-0.3603515625,-3.68359375,3.68359375
0.0785,0.560546875,-4.0439453125,3.1630859375
0.079,1.28125,-4.484375,2.8828125
0.0795,2.2421875,-4.64453125,2.1220703125
0.08,2.482421875,-4.5244140625,1.76171875
0.0805,3.04296875,-4.3642578125,1.0810546875
0.081,3.1630859375,-3.84375,0.3203125
0.0815,3.68359375,-3.7236328125,-0.400390625
0.082,3.84375,-2.72265625,-1.44140625
0.0825,3.9638671875,-2.2822265625,-2.08203125
0.083,3.68359375,-1.521484375,-2.5625
0.0835,3.5634765625,-0.880859375,-3.0830078125
0.084,3.0830078125,0.0,-3.4033203125
0.0845,2.962890625,0.6005859375,-3.9638671875
0.085,2.162109375,1.6015625,-4.1640625
0.0855,1.76171875,2.0419921875,-4.1640625
0.086,0.8408203125,2.642578125,-3.8837890625
0.0865,0.080078125,3.0029296875,-3.4833984375
0.087,-0.720703125,3.5234375,-3.283203125
0.0875,-1.5615234375,3.8037109375,-2.7626953125
0.088,-2.2421875,3.9638671875,-2.2421875
0.0885,-2.5224609375,3.68359375,-1.8017578125
0.089,-3.04296875,3.6435546875,-1.201171875
0.0895,-3.2431640625,3.04296875,-0.400390625
0.09,-3.8037109375,3.04296875,0.2802734375
0.0905,-3.8837890625,2.0419921875,1.3212890625
0.091,-4.0439453125,1.76171875,1.8818359375
0.0915,-3.8037109375,0.9208984375,2.40234375
0.092,-3.603515625,0.3203125,2.8427734375
0.0925,-3.203125,-0.6005859375,3.3232421875
0.093,-2.9228515625,-1.28125,3.8037109375
0.0935,-2.2822265625,-2.162109375,4.00390625
0.094,-1.681640625,-2.5625,3.84375
0.0945,-0.9208984375,-3.203125,3.7236328125
0.095,0.0,-3.5634765625,3.2431640625
0.0955,0.640625,-4.1640625,3.1630859375
0.096,1.5615234375,-4.32421875,2.482421875
0.0965,2.08203125,-4.564453125,2.1220703125
0.097,2.40234375,-4.244140625,1.521484375
0.0975,2.8427734375,-4.1640625,0.9609375
0.098,3.123046875,-3.5634765625,0.16015625
0.0985,3.5634765625,-3.36328125,-0.6005859375
0.099,3.68359375,-2.4423828125,-1.6015625
0.0995,3.763671875,-2.1220703125,-2.001953125
0.1,3.5234375,-1.28125,-2.6025390625
0.1005,3.2431640625,-0.640625,-3.0029296875
0.101,3.04296875,0.16015625,-3.5634765625
0.1015,2.5625,0.9609375,-3.8837890625
0.102,2.0419921875,1.7216796875,-4.1640625
0.1025,1.28125,2.0419921875,-3.8037109375
0.103,0.6005859375,2.6826171875,-3.7236328125
0.1035,-0.3203125,3.04296875,-3.203125
0.104,-0.9208984375,3.5234375,-3.0830078125
0.1045,-1.841796875,3.6435546875,-2.322265625
0.105,-2.2021484375,3.763671875,-2.1220703125
0.1055,-2.6025390625,3.4033203125,-1.44140625
0.106,-2.962890625,3.3232421875,-0.8408203125
0.1065,-3.36328125,2.8828125,0.0
0.107,-3.68359375,2.5224609375,0.6806640625
0.1075,-3.84375,1.8017578125,1.5615234375
0.108,-3.7236328125,1.4013671875,1.921875
0.1085,-3.5634765625,0.6005859375,2.5224609375
0.109,-3.203125,-0.1201171875,2.8828125
0.1095,-3.0830078125,-0.8408203125,3.4833984375
0.11,-2.4423828125,-1.6416015625,3.68359375
0.1105,-2.0419921875,-2.2421875,3.84375
0.111,-1.2412109375,-2.6826171875,3.4833984375
0.1115,-0.640625,-3.203125,3.443359375
0.112,0.2802734375,-3.603515625,3.04296875
0.1125,0.9208984375,-4.1640625,2.8427734375
0.113,1.76171875,-4.32421875,2.2421875
0.1135,1.9619140625,-4.32421875,1.921875
0.114,2.482421875,-4.0439453125,1.28125
0.1145,2.802734375,-3.7236328125,0.6806640625
0.115,3.283203125,-3.443359375,-0.16015625
0.1155,3.5234375,-2.8427734375,-1.0009765625
0.116,3.68359375,-2.322265625,-1.76171875
0.1165,3.443359375,-1.681640625,-2.1220703125
0.117,3.4033203125,-1.0810546875,-2.72265625
0.1175,3.04296875,-0.2802734375,-3.203125
0.118,2.9228515625,0.4404296875,-3.7236328125
0.1185,2.2421875,1.3212890625,-3.923828125
0.119,1.7216796875,1.841796875,-3.923828125
0.1195,0.880859375,2.322265625,-3.5634765625
0.12,0.16015625,2.8427734375,-3.4033203125
0.1205,-0.640625,3.203125,-3.0830078125
0.121,-1.28125,3.5234375,-2.72265625
0.1215,-2.08203125,3.68359375,-2.2021484375
0.122,-2.2421875,3.443359375,-1.7216796875
0.1225,-2.7626953125,3.36328125,-1.1611328125
0.123,-3.04296875,2.9228515625,-0.400390625
0.1235,-3.4833984375,2.72265625,0.2802734375
0.124,-3.5634765625,1.9619140625,1.1611328125
0.1245,-3.763671875,1.6015625,1.681640625
0.125,-3.36328125,0.880859375,2.08203125
0.1255,-3.36328125,0.3603515625,2.5625
0.126,-2.962890625,-0.5205078125,3.0830078125
0.1265,-2.7626953125,-1.1611328125,3.4833984375
0.127,-2.2021484375,-1.9619140625,3.7236328125
0.1275,-1.6416015625,-2.322265625,3.5234375
0.128,-0.9208984375,-2.8828125,3.36328125
0.1285,-0.16015625,-3.36328125,3.123046875
0.129,0.560546875,-3.8837890625,2.9228515625
0.1295,1.28125,-4.1240234375,2.4423828125
0.13,1.8818359375,-4.32421875,2.162109375
0.1305,2.0419921875,-3.923828125,1.6015625
0.131,2.6025390625,-4.00390625,1.12109375
0.1315,2.9228515625,-3.4833984375,0.2802734375
0.132,3.36328125,-3.2431640625,-0.5205078125
0.1325,3.5234375,-2.4423828125,-1.44140625
0.133,3.603515625,-2.1220703125,-1.841796875
0.1335,3.283203125,-1.3212890625,-2.40234375
0.134,3.2431640625,-0.720703125,-2.8828125
0.1345,2.9228515625,0.1201171875,-3.4033203125
0.135,2.5224609375,0.8408203125,-3.763671875
0.1355,2.001953125,1.6015625,-4.00390625
0.136,1.2412109375,1.9619140625,-3.603515625
0.1365,0.6005859375,2.5625,-3.5634765625
0.137,-0.3203125,2.962890625,-3.1630859375
0.1375,-0.9609375,3.36328125,-3.0029296875
0.138,-1.76171875,3.5634765625,-2.322265625
0.1385,-2.2021484375,3.6435546875,-1.9619140625
0.139,-2.482421875,3.2431640625,-1.3212890625
0.1395,-2.9228515625,3.2431640625,-0.8408203125
0.14,-3.203125,2.6826171875,0.080078125
0.1405,-3.603515625,2.3623046875,0.7607421875
0.141,-3.7236328125,1.6416015625,1.6015625
0.1415,-3.5634765625,1.201171875,1.921875
0.142,-3.36328125,0.48046875,2.5224609375
0.1425,-3.1630859375,-0.2802734375,2.962890625
0.143,-2.8828125,-1.0009765625,3.443359375
0.1435,-2.3623046875,-1.7216796875,3.68359375
0.144,-1.841796875,-2.3623046875,3.8037109375
0.1445,-1.0009765625,-2.72265625,3.3232421875
0.145,-0.400390625,-3.4033203125,3.36328125
0.1455,0.48046875,-3.8037109375,2.8828125
0.146,1.0810546875,-4.1640625,2.6826171875
0.1465,1.921875,-4.2841796875,2.08203125
0.147,2.2021484375,-4.1640625,1.681640625
0.1475,2.5625,-3.8837890625,1.0009765625
0.148,2.962890625,-3.68359375,0.4404296875
0.1485,3.3232421875,-3.203125,-0.48046875
0.149,3.5234375,-2.642578125,-1.2412109375
0.1495,3.68359375,-2.0419921875,-2.0419921875
0.15,3.3232421875,-1.361328125,-2.322265625
0.1505,3.3232421875,-0.80078125,-2.962890625
0.151,2.9228515625,0.080078125,-3.36328125
0.1515,2.6826171875,0.7607421875,-3.8037109375
0.152,2.001953125,1.5615234375,-3.9638671875
0.1525,1.44140625,2.0419921875,-3.923828125
0.153,0.560546875,2.482421875,-3.4833984375
0.1535,-0.16015625,3.04296875,-3.443359375
0.154,-1.0009765625,3.3232421875,-2.8828125
0.1545,-1.5615234375,3.6435546875,-2.5625
0.155,-2.40234375,3.8037109375,-1.9619140625
0.1555,-2.6025390625,3.4833984375,-1.4013671875
0.156,-3.0830078125,3.36328125,-0.80078125
0.1565,-3.4033203125,2.962890625,0.0
0.157,-3.7236328125,2.5224609375,0.7607421875
0.1575,-3.8837890625,1.841796875,1.5615234375
0.158,-3.9638671875,1.2412109375,2.2822265625
0.1585,-3.4833984375,0.4404296875,2.6025390625
0.159,-3.5234375,-0.2001953125,3.203125
0.1595,-2.9228515625,-1.041015625,3.5634765625
0.16,-2.6025390625,-1.7216796875,3.8837890625
0.1605,-1.841796875,-2.6025390625,4.00390625
0.161,-1.12109375,-3.123046875,3.7236328125
0.1615,-0.3203125,-3.5634765625,3.3232421875
0.162,0.5205078125,-4.00390625,3.1630859375
0.1625,1.4013671875,-4.2841796875,2.5625
0.163,1.9619140625,-4.4443359375,2.162109375
0.1635,2.6826171875,-4.5244140625,1.5615234375
0.164,2.802734375,-3.923828125,0.880859375
0.1645,3.283203125,-3.8837890625,0.3203125
0.165,3.4833984375,-3.1630859375,-0.640625
0.1655,3.763671875,-2.72265625,-1.3212890625
0.166,3.763671875,-1.9619140625,-2.2021484375
0.1665,3.68359375,-1.3212890625,-2.6826171875
0.167,3.1630859375,-0.560546875,-3.0029296875
0.1675,3.1630859375,0.0,-3.5634765625
0.168,2.5224609375,0.9208984375,-3.84375
0.1685,2.162109375,1.44140625,-4.083984375
0.169,1.4013671875,2.2421875,-4.1640625
0.1695,0.6005859375,2.5625,-3.6435546875
0.17,-0.16015625,3.123046875,-3.4033203125
0.1705,-1.0009765625,3.5234375,-3.0830078125
0.171,-1.681640625,3.763671875,-2.6025390625
0.1715,-2.2822265625,3.84375,-2.08203125
0.172,-2.8427734375,3.84375,-1.521484375
0.1725,-3.04296875,3.283203125,-0.80078125
0.173,-3.5634765625,3.3232421875,-0.3203125
0.1735,-3.7236328125,2.5224609375,0.7607421875
0.174,-4.00390625,2.2021484375,1.361328125
0.1745,-4.0439453125,1.3212890625,2.2822265625
0.175,-3.84375,0.6806640625,2.6826171875
0.1755,-3.443359375,-0.16015625,3.1630859375
0.176,-3.283203125,-0.80078125,3.68359375
0.1765,-2.6826171875,-1.8017578125,3.9638671875
0.177,-2.1220703125,-2.40234375,4.083984375
0.1775,-1.4013671875,-3.1630859375,4.083984375
0.178,-0.4404296875,-3.4833984375,3.4833984375
0.1785,0.2802734375,-4.083984375,3.443359375
0.179,1.3212890625,-4.404296875,2.7626953125
0.1795,1.9619140625,-4.6044921875,2.3623046875
0.18,2.5625,-4.564453125,1.7216796875
0.1805,3.04296875,-4.4443359375,1.12109375
0.181,3.203125,-3.84375,0.3203125
0.1815,3.763671875,-3.7236328125,-0.3203125
0.182,3.84375,-2.72265625,-1.44140625
0.1825,3.9638671875,-2.322265625,-2.001953125
0.183,3.9638671875,-1.4814453125,-2.8828125
0.1835,3.5234375,-0.6806640625,-3.203125
0.184,3.2431640625,0.0400390625,-3.68359375
0.1845,2.802734375,0.8408203125,-4.1240234375
0.185,2.2421875,1.7216796875,-4.3642578125
0.1855,1.5615234375,2.2421875,-4.2841796875
0.186,0.7607421875,2.962890625,-4.1640625
0.1865,-0.2802734375,3.203125,-3.443359375
0.187,-0.880859375,3.8037109375,-3.4033203125
0.1875,-2.001953125,3.9638671875,-2.5224609375
0.188,-2.4423828125,4.083984375,-2.162109375
0.1885,-3.0830078125,3.9638671875,-1.44140625
0.189,-3.36328125,3.6435546875,-0.80078125
0.1895,-3.603515625,3.1630859375,0.0
0.19,-4.0439453125,2.8427734375,0.6806640625
0.1905,-4.1640625,1.921875,1.76171875
0.191,-4.1640625,1.4814453125,2.2421875
0.1915,-4.0439453125,0.640625,2.962890625
0.192,-3.4833984375,-0.2001953125,3.203125
0.1925,-3.36328125,-0.9208984375,3.763671875
0.193,-2.72265625,-1.841796875,4.0439453125
0.1935,-2.2421875,-2.5625,4.244140625
0.194,-1.4013671875,-3.0830078125,4.083984375
0.1945,-0.6806640625,-3.6435546875,3.8837890625
0.195,0.3203125,-3.923828125,3.2431640625
0.1955,1.0009765625,-4.5244140625,3.203125
0.196,2.08203125,-4.6845703125,2.2822265625
0.1965,2.482421875,-4.7646484375,1.9619140625
0.197,3.04296875,-4.6044921875,1.28125
0.1975,3.3232421875,-4.1640625,0.560546875
0.198,3.7236328125,-3.8037109375,-0.240234375
0.1985,4.0439453125,-3.203125,-1.1611328125
0.199,4.2041015625,-2.4423828125,-2.1220703125
0.1995,4.1240234375,-1.8017578125,-2.642578125
0.2,3.9638671875,-1.0009765625,-3.36328125
0.2005,3.36328125,-0.16015625,-3.6435546875
0.201,3.283203125,0.560546875,-4.244140625
0.2015,2.40234375,1.7216796875,-4.564453125
0.202,1.8818359375,2.40234375,-4.64453125
0.2025,0.9208984375,3.0029296875,-4.32421875
0.203,0.080078125,3.5234375,-4.00390625
0.2035,-0.9609375,3.8037109375,-3.36328125
0.204,-1.681640625,4.244140625,-3.0830078125
0.2045,-2.7626953125,4.32421875,-2.08203125
0.205,-3.0830078125,4.1240234375,-1.6416015625
0.2055,-3.603515625,3.9638671875,-0.8408203125
0.206,-3.8037109375,3.3232421875,0.0
0.2065,-4.2041015625,3.04296875,0.6806640625
0.207,-4.3642578125,2.162109375,1.7216796875
0.2075,-4.404296875,1.44140625,2.482421875
0.208,-4.0439453125,0.7607421875,2.8828125
0.2085,-3.8837890625,-0.080078125,3.4833984375
0.209,-3.203125,-1.0009765625,3.68359375
0.2095,-3.0830078125,-1.6015625,4.1240234375
0.21,-2.08203125,-2.642578125,4.32421875
0.2105,-1.6015625,-3.0830078125,4.2841796875
0.211,-0.6806640625,-3.6435546875,3.8837890625
0.2115,0.16015625,-4.00390625,3.5234375
0.212,0.9609375,-4.3642578125,3.123046875
0.2125,1.76171875,-4.6845703125,2.642578125
0.213,2.6025390625,-4.8447265625,1.921875
0.2135,2.8427734375,-4.564453125,1.44140625
0.214,3.36328125,-4.484375,0.80078125
0.2145,3.5234375,-3.8037109375,0.0
0.215,4.0439453125,-3.603515625,-0.720703125
0.2155,4.1240234375,-2.6025390625,-1.921875
0.216,4.244140625,-2.1220703125,-2.5224609375
0.2165,3.8837890625,-1.28125,-3.0830078125
0.217,3.7236328125,-0.640625,-3.603515625
0.2175,3.1630859375,0.3603515625,-3.9638671875
0.218,2.9228515625,1.12109375,-4.4443359375
0.2185,2.0419921875,2.2021484375,-4.64453125
0.219,1.4013671875,2.6025390625,-4.4443359375
0.2195,0.48046875,3.2431640625,-4.1640625
0.22,-0.5205078125,3.603515625,-3.6435546875
0.2205,-1.28125,4.083984375,-3.283203125
0.221,-2.2021484375,4.2841796875,-2.5625
0.2215,-3.0029296875,4.404296875,-1.9619140625
0.222,-3.203125,3.923828125,-1.28125
0.2225,-3.8037109375,3.8037109375,-0.6005859375
0.223,-3.923828125,3.123046875,0.3203125
0.2235,-4.3642578125,2.802734375,1.0810546875
0.224,-4.3642578125,1.76171875,2.2421875
0.2245,-4.404296875,1.201171875,2.72265625
0.225,-3.923828125,0.240234375,3.203125
0.2255,-3.68359375,-0.5205078125,3.68359375
0.226,-3.123046875,-1.3212890625,4.00390625
0.2265,-2.642578125,-2.08203125,4.32421875
0.227,-1.841796875,-3.0830078125,4.5244140625
0.2275,-1.041015625,-3.4033203125,4.0439453125
0.228,-0.2001953125,-4.00390625,3.84375
0.2285,0.720703125,-4.244140625,3.2431640625
0.229,1.44140625,-4.6845703125,2.962890625
0.2295,2.40234375,-4.8046875,2.162109375
