wavelength,x,y,z
0.0,3.693603515625,3.333251953125,-7.116943359375
0.0005,2.052001953125,5.175048828125,-7.397216796875
0.001,0.890869140625,5.775634765625,-6.796630859375
0.0015,-0.470458984375,6.816650390625,-6.516357421875
0.002,-1.631591796875,7.096923828125,-5.595458984375
0.0025,-2.912841796875,7.457275390625,-4.554443359375
0.003,-4.554443359375,7.657470703125,-3.113037109375
0.0035,-6.156005859375,7.897705078125,-1.751708984375
0.004,-6.436279296875,7.056884765625,-0.510498046875
0.0045,-7.357177734375,7.096923828125,0.450439453125
0.005,-7.156982421875,5.735595703125,1.651611328125
0.0055,-7.357177734375,4.894775390625,2.692626953125
0.006,-7.477294921875,3.293212890625,4.414306640625
0.0065,-7.197021484375,2.172119140625,5.255126953125
0.007,-6.476318359375,0.530517578125,6.135986328125
0.0075,-5.955810546875,-0.710693359375,6.736572265625
0.008,-4.594482421875,-2.232177734375,6.896728515625
0.0085,-3.633544921875,-3.553466796875,7.096923828125
0.009,-2.112060546875,-5.355224609375,7.377197265625
0.0095,-0.790771484375,-5.875732421875,6.456298828125
0.01,0.330322265625,-6.916748046875,6.496337890625
0.0105,1.771728515625,-7.036865234375,5.175048828125
0.011,3.133056640625,-7.397216796875,4.134033203125
0.0115,4.814697265625,-7.557373046875,2.572509765625
0.012,6.135986328125,-7.637451171875,1.291259765625
0.0125,6.456298828125,-6.716552734375,0.010009765625
0.013,7.136962890625,-6.596435546875,-0.830810546875
0.0135,6.936767578125,-5.074951171875,-2.232177734375
0.014,7.056884765625,-4.154052734375,-3.193115234375
0.0145,7.217041015625,-2.592529296875,-4.954833984375
0.015,6.536376953125,-1.271240234375,-5.635498046875
0.0155,5.935791015625,0.290283203125,-6.436279296875
0.016,5.094970703125,1.451416015625,-6.756591796875
0.0165,3.853759765625,2.892822265625,-6.916748046875
0.017,2.772705078125,4.174072265625,-7.076904296875
0.0175,1.331298828125,5.775634765625,-7.237060546875
0.018,-0.150146484375,6.256103515625,-6.236083984375
0.0185,-0.990966796875,7.177001953125,-6.276123046875
0.019,-2.632568359375,7.177001953125,-4.554443359375
0.0195,-3.873779296875,7.577392578125,-3.713623046875
0.02,-5.475341796875,7.657470703125,-2.152099609375
0.0205,-6.396240234375,7.497314453125,-0.990966796875
0.021,-6.756591796875,6.696533203125,0.210205078125
0.0215,-7.197021484375,6.416259765625,0.970947265625
0.022,-7.116943359375,4.894775390625,2.452392578125
0.0225,-7.197021484375,3.973876953125,3.373291015625
0.023,-7.397216796875,2.532470703125,5.054931640625
0.0235,-6.476318359375,1.131103515625,5.535400390625
0.024,-6.236083984375,-0.270263671875,6.536376953125
0.0245,-4.994873046875,-1.591552734375,6.616455078125
0.025,-3.953857421875,-3.032958984375,6.976806640625
0.0255,-2.712646484375,-4.354248046875,7.016845703125
0.026,-1.431396484375,-5.635498046875,7.016845703125
0.0265,0.010009765625,-6.075927734375,6.095947265625
0.027,0.850830078125,-6.956787109375,6.055908203125
0.0275,2.732666015625,-6.996826171875,4.134033203125
0.028,3.813720703125,-7.397216796875,3.413330078125
0.0285,5.415283203125,-7.397216796875,1.851806640625
0.029,6.095947265625,-7.036865234375,0.730712890625
0.0295,6.536376953125,-6.476318359375,-0.390380859375
0.03,6.816650390625,-5.835693359375,-1.311279296875
0.0305,6.856689453125,-4.394287109375,-2.832763671875
0.031,6.856689453125,-3.393310546875,-3.793701171875
0.0315,7.016845703125,-1.991943359375,-5.315185546875
0.032,5.935791015625,-0.510498046875,-5.755615234375
0.0325,5.735595703125,0.690673828125,-6.636474609375
0.033,4.174072265625,2.252197265625,-6.676513671875
0.0335,3.253173828125,3.573486328125,-7.076904296875
0.034,1.971923828125,4.894775390625,-6.996826171875
0.0345,0.650634765625,6.095947265625,-6.756591796875
0.035,-0.630615234375,6.496337890625,-5.915771484375
0.0355,-1.711669921875,7.257080078125,-5.595458984375
0.036,-3.673583984375,7.337158203125,-3.673583984375
0.0365,-4.674560546875,7.537353515625,-2.872802734375
0.037,-6.115966796875,7.537353515625,-1.391357421875
0.0375,-6.556396484375,6.976806640625,-0.350341796875
0.038,-6.996826171875,6.456298828125,0.690673828125
0.0385,-7.076904296875,5.415283203125,1.851806640625
0.039,-7.197021484375,4.093994140625,3.293212890625
0.0395,-6.996826171875,2.932861328125,4.254150390625
0.04,-7.076904296875,1.691650390625,5.575439453125
0.0405,-5.915771484375,0.090087890625,5.895751953125
0.041,-5.715576171875,-1.031005859375,6.736572265625
0.0415,-3.873779296875,-2.872802734375,6.696533203125
0.042,-3.072998046875,-3.993896484375,7.056884765625
0.0425,-1.671630859375,-5.155029296875,6.776611328125
0.043,-0.430419921875,-6.115966796875,6.416259765625
0.0435,0.770751953125,-6.476318359375,5.695556640625
0.044,2.011962890625,-7.076904296875,4.974853515625
0.0445,3.893798828125,-7.237060546875,3.213134765625
0.045,4.814697265625,-7.237060546875,2.252197265625
0.0455,6.095947265625,-7.197021484375,0.970947265625
0.046,6.376220703125,-6.436279296875,-0.150146484375
0.0465,6.816650390625,-6.075927734375,-1.031005859375
0.047,6.736572265625,-4.674560546875,-2.432373046875
0.0475,6.976806640625,-3.593505859375,-3.713623046875
0.048,6.616455078125,-2.272216796875,-4.634521484375
0.0485,6.576416015625,-1.111083984375,-5.835693359375
0.049,5.295166015625,0.530517578125,-6.115966796875
0.0495,5.054931640625,1.571533203125,-6.836669921875
0.05,3.173095703125,3.493408203125,-6.836669921875
0.0505,2.532470703125,4.494384765625,-7.116943359375
0.051,1.010986328125,5.695556640625,-6.756591796875
0.0515,-0.310302734375,6.496337890625,-6.276123046875
0.052,-1.431396484375,6.896728515625,-5.515380859375
0.0525,-2.872802734375,7.377197265625,-4.474365234375
0.053,-4.674560546875,7.617431640625,-2.912841796875
0.0535,-5.475341796875,7.377197265625,-1.911865234375
0.054,-6.596435546875,7.337158203125,-0.670654296875
0.0545,-6.716552734375,6.456298828125,0.490478515625
0.055,-7.197021484375,6.015869140625,1.331298828125
0.0555,-7.076904296875,4.374267578125,2.932861328125
0.056,-7.317138671875,3.413330078125,4.093994140625
0.0565,-6.796630859375,1.931884765625,5.054931640625
0.057,-6.596435546875,0.690673828125,6.095947265625
0.0575,-5.395263671875,-0.990966796875,6.336181640625
0.058,-4.874755859375,-1.991943359375,6.896728515625
0.0585,-3.072998046875,-3.913818359375,7.056884765625
0.059,-2.232177734375,-4.794677734375,6.976806640625
0.0595,-0.790771484375,-5.915771484375,6.616455078125
0.06,0.490478515625,-6.516357421875,6.015869140625
0.0605,1.571533203125,-6.916748046875,5.215087890625
0.061,3.253173828125,-7.197021484375,3.853759765625
0.0615,4.974853515625,-7.557373046875,2.452392578125
0.062,5.615478515625,-7.036865234375,1.251220703125
0.0625,6.656494140625,-7.036865234375,0.130126953125
0.063,6.616455078125,-5.915771484375,-1.031005859375
0.0635,6.976806640625,-5.435302734375,-1.911865234375
0.064,6.896728515625,-3.673583984375,-3.553466796875
0.0645,7.016845703125,-2.832763671875,-4.594482421875
0.065,6.376220703125,-1.231201171875,-5.515380859375
0.0655,6.015869140625,0.090087890625,-6.356201171875
0.066,4.774658203125,1.571533203125,-6.556396484375
0.0665,4.053955078125,2.692626953125,-6.916748046875
0.067,2.412353515625,4.614501953125,-7.156982421875
0.0675,1.411376953125,5.255126953125,-6.796630859375
0.068,0.010009765625,6.456298828125,-6.516357421875
0.0685,-1.231201171875,6.856689453125,-5.715576171875
0.069,-2.432373046875,7.297119140625,-4.914794921875
0.0695,-4.114013671875,7.457275390625,-3.353271484375
0.07,-5.635498046875,7.737548828125,-2.072021484375
0.0705,-6.115966796875,7.056884765625,-0.870849609375
0.071,-7.076904296875,7.056884765625,0.170166015625
0.0715,-6.916748046875,5.895751953125,1.291259765625
0.072,-7.156982421875,5.135009765625,2.212158203125
0.0725,-7.237060546875,3.493408203125,3.933837890625
0.073,-7.076904296875,2.492431640625,4.774658203125
0.0735,-6.516357421875,0.970947265625,5.735595703125
0.074,-5.915771484375,-0.350341796875,6.376220703125
0.0745,-4.834716796875,-1.711669921875,6.616455078125
0.075,-3.833740234375,-3.032958984375,6.856689453125
0.0755,-2.432373046875,-4.754638671875,7.177001953125
0.076,-1.271240234375,-5.275146484375,6.456298828125
0.0765,-0.150146484375,-6.396240234375,6.456298828125
0.077,1.131103515625,-6.556396484375,5.335205078125
0.0775,2.372314453125,-7.076904296875,4.614501953125
0.078,4.174072265625,-7.237060546875,2.892822265625
0.0785,5.495361328125,-7.437255859375,1.771728515625
0.079,6.055908203125,-6.716552734375,0.490478515625
0.0795,6.736572265625,-6.636474609375,-0.430419921875
0.08,6.696533203125,-5.435302734375,-1.591552734375
0.0805,6.856689453125,-4.634521484375,-2.552490234375
0.081,7.056884765625,-3.153076171875,-4.354248046875
0.0815,6.656494140625,-1.951904296875,-4.994873046875
0.082,6.256103515625,-0.470458984375,-6.115966796875
0.0825,5.295166015625,0.930908203125,-6.436279296875
0.083,4.414306640625,2.252197265625,-6.796630859375
0.0835,3.173095703125,3.693603515625,-6.996826171875
0.084,1.931884765625,5.295166015625,-7.317138671875
0.0845,0.530517578125,5.895751953125,-6.396240234375
0.085,-0.590576171875,7.016845703125,-6.556396484375
0.0855,-1.951904296875,7.056884765625,-5.114990234375
0.086,-3.273193359375,7.537353515625,-4.274169921875
0.0865,-5.195068359375,7.737548828125,-2.552490234375
0.087,-6.276123046875,7.657470703125,-1.311279296875
0.0875,-6.836669921875,6.976806640625,0.010009765625
0.088,-7.397216796875,6.696533203125,0.890869140625
0.0885,-7.277099609375,5.295166015625,2.092041015625
0.089,-7.357177734375,4.214111328125,3.253173828125
0.0895,-7.677490234375,2.772705078125,5.094970703125
0.09,-6.756591796875,1.331298828125,5.615478515625
0.0905,-6.476318359375,0.010009765625,6.696533203125
0.091,-5.275146484375,-1.511474609375,6.856689453125
0.0915,-4.234130859375,-2.872802734375,7.096923828125
0.092,-2.832763671875,-4.434326171875,7.177001953125
0.0925,-1.431396484375,-5.915771484375,7.297119140625
0.093,0.050048828125,-6.276123046875,6.216064453125
0.0935,0.930908203125,-7.237060546875,6.256103515625
0.094,2.692626953125,-7.197021484375,4.494384765625
0.0945,3.853759765625,-7.517333984375,3.573486328125
0.095,5.695556640625,-7.677490234375,1.851806640625
0.0955,6.416259765625,-7.237060546875,0.610595703125
0.096,6.896728515625,-6.636474609375,-0.590576171875
0.0965,7.096923828125,-6.075927734375,-1.431396484375
0.097,7.056884765625,-4.674560546875,-2.752685546875
0.0975,6.976806640625,-3.473388671875,-3.833740234375
0.098,7.217041015625,-2.072021484375,-5.475341796875
0.0985,6.095947265625,-0.590576171875,-5.835693359375
0.099,5.895751953125,0.650634765625,-6.796630859375
0.0995,4.454345703125,2.092041015625,-6.716552734375
0.1,3.573486328125,3.373291015625,-7.076904296875
0.1005,2.172119140625,4.854736328125,-7.156982421875
0.101,0.850830078125,6.055908203125,-6.996826171875
0.1015,-0.510498046875,6.536376953125,-6.115966796875
0.102,-1.391357421875,7.257080078125,-5.915771484375
0.1025,-3.193115234375,7.257080078125,-4.154052734375
0.103,-4.234130859375,7.577392578125,-3.313232421875
0.1035,-5.955810546875,7.737548828125,-1.751708984375
0.104,-6.396240234375,7.096923828125,-0.630615234375
0.1045,-7.036865234375,6.736572265625,0.410400390625
0.105,-7.076904296875,5.815673828125,1.411376953125
0.1055,-7.156982421875,4.654541015625,2.732666015625
0.106,-7.116943359375,3.493408203125,3.853759765625
0.1065,-7.317138671875,2.252197265625,5.255126953125
0.107,-6.196044921875,0.650634765625,5.735595703125
0.1075,-6.156005859375,-0.470458984375,6.696533203125
0.108,-4.474365234375,-2.112060546875,6.576416015625
0.1085,-3.713623046875,-3.273193359375,7.056884765625
0.109,-2.272216796875,-4.834716796875,7.056884765625
0.1095,-0.990966796875,-5.755615234375,6.656494140625
0.11,0.250244140625,-6.356201171875,6.055908203125
0.1105,1.371337890625,-6.916748046875,5.455322265625
0.111,3.173095703125,-7.076904296875,3.813720703125
0.1115,4.254150390625,-7.277099609375,2.892822265625
0.112,5.775634765625,-7.437255859375,1.451416015625
0.1125,6.095947265625,-6.716552734375,0.330322265625
0.113,6.736572265625,-6.476318359375,-0.590576171875
0.1135,6.696533203125,-5.195068359375,-1.871826171875
0.114,6.896728515625,-4.154052734375,-3.072998046875
0.1145,6.776611328125,-2.872802734375,-4.314208984375
0.115,6.776611328125,-1.631591796875,-5.475341796875
0.1155,5.655517578125,0.050048828125,-5.915771484375
0.116,5.455322265625,1.091064453125,-6.716552734375
0.1165,3.653564453125,2.852783203125,-6.676513671875
0.117,3.012939453125,3.973876953125,-7.076904296875
0.1175,1.531494140625,5.415283203125,-6.996826171875
0.118,0.170166015625,6.216064453125,-6.396240234375
0.1185,-0.990966796875,6.776611328125,-5.915771484375
0.119,-2.392333984375,7.217041015625,-4.874755859375
0.1195,-4.114013671875,7.417236328125,-3.353271484375
0.12,-5.114990234375,7.457275390625,-2.352294921875
0.1205,-6.396240234375,7.497314453125,-1.071044921875
0.121,-6.556396484375,6.576416015625,0.090087890625
0.1215,-7.116943359375,6.416259765625,0.930908203125
0.122,-7.076904296875,4.814697265625,2.492431640625
0.1225,-7.237060546875,3.853759765625,3.573486328125
0.123,-6.996826171875,2.412353515625,4.814697265625
0.1235,-6.796630859375,1.251220703125,5.735595703125
0.124,-5.715576171875,-0.390380859375,6.216064453125
0.1245,-5.275146484375,-1.511474609375,6.776611328125
0.125,-3.473388671875,-3.353271484375,6.856689453125
0.1255,-2.712646484375,-4.314208984375,6.976806640625
0.126,-1.271240234375,-5.635498046875,6.776611328125
0.1265,0.050048828125,-6.156005859375,6.095947265625
0.127,1.091064453125,-6.756591796875,5.615478515625
0.1275,2.732666015625,-7.076904296875,4.214111328125
0.128,4.214111328125,-7.397216796875,2.932861328125
0.1285,5.175048828125,-7.116943359375,1.731689453125
0.129,6.256103515625,-7.116943359375,0.610595703125
0.1295,6.336181640625,-6.115966796875,-0.550537109375
0.13,6.776611328125,-5.835693359375,-1.271240234375
0.1305,6.656494140625,-4.114013671875,-2.912841796875
0.131,6.816650390625,-3.313232421875,-3.833740234375
0.1315,6.536376953125,-1.831787109375,-4.994873046875
0.132,6.095947265625,-0.630615234375,-5.755615234375
0.1325,5.094970703125,0.850830078125,-6.156005859375
0.133,4.494384765625,1.971923828125,-6.636474609375
0.1335,2.932861328125,3.733642578125,-6.796630859375
0.134,2.172119140625,4.534423828125,-6.796630859375
0.1345,0.730712890625,5.895751953125,-6.676513671875
0.135,-0.510498046875,6.296142578125,-5.835693359375
0.1355,-1.591552734375,6.976806640625,-5.435302734375
0.136,-3.273193359375,7.217041015625,-3.753662109375
0.1365,-4.674560546875,7.457275390625,-2.832763671875
0.137,-5.595458984375,7.177001953125,-1.591552734375
0.1375,-6.476318359375,7.136962890625,-0.590576171875
0.138,-6.636474609375,6.216064453125,0.610595703125
0.1385,-7.036865234375,5.735595703125,1.451416015625
0.139,-7.076904296875,4.053955078125,3.253173828125
0.1395,-7.116943359375,3.213134765625,4.093994140625
0.14,-6.876708984375,1.771728515625,5.295166015625
0.1405,-6.196044921875,0.370361328125,5.975830078125
0.141,-5.395263671875,-1.071044921875,6.536376953125
0.1415,-4.314208984375,-2.472412109375,6.776611328125
0.142,-2.952880859375,-4.194091796875,7.177001953125
0.1425,-1.871826171875,-4.914794921875,6.696533203125
0.143,-0.510498046875,-6.236083984375,6.656494140625
0.1435,0.770751953125,-6.476318359375,5.655517578125
0.144,1.931884765625,-7.237060546875,5.054931640625
0.1445,3.973876953125,-7.317138671875,3.213134765625
0.145,5.255126953125,-7.557373046875,2.052001953125
0.1455,6.015869140625,-6.916748046875,0.770751953125
0.146,6.776611328125,-6.796630859375,-0.270263671875
0.1465,6.736572265625,-5.675537109375,-1.431396484375
0.147,6.936767578125,-4.914794921875,-2.352294921875
0.1475,7.056884765625,-3.233154296875,-4.194091796875
0.148,6.696533203125,-2.192138671875,-4.874755859375
0.1485,6.416259765625,-0.670654296875,-6.035888671875
0.149,5.415283203125,0.770751953125,-6.396240234375
0.1495,4.574462890625,2.052001953125,-6.796630859375
0.15,3.253173828125,3.533447265625,-6.876708984375
0.1505,2.052001953125,5.094970703125,-7.237060546875
0.151,0.770751953125,5.695556640625,-6.476318359375
0.1515,-0.510498046875,6.856689453125,-6.436279296875
0.152,-1.751708984375,6.896728515625,-5.195068359375
0.1525,-2.872802734375,7.377197265625,-4.594482421875
0.153,-4.834716796875,7.697509765625,-2.712646484375
0.1535,-5.915771484375,7.577392578125,-1.591552734375
0.154,-6.596435546875,7.016845703125,-0.310302734375
0.1545,-7.156982421875,6.696533203125,0.610595703125
0.155,-7.116943359375,5.615478515625,1.731689453125
0.1555,-7.197021484375,4.534423828125,2.812744140625
0.156,-7.477294921875,3.173095703125,4.494384765625
0.1565,-6.796630859375,1.931884765625,5.094970703125
0.157,-6.676513671875,0.570556640625,6.296142578125
0.1575,-5.435302734375,-0.990966796875,6.496337890625
0.158,-4.754638671875,-2.192138671875,6.976806640625
0.1585,-3.193115234375,-3.833740234375,7.056884765625
0.159,-2.072021484375,-5.195068359375,7.257080078125
0.1595,-0.670654296875,-5.795654296875,6.416259765625
0.16,0.370361328125,-6.956787109375,6.416259765625
0.1605,1.771728515625,-6.996826171875,5.094970703125
0.161,2.972900390625,-7.477294921875,4.294189453125
0.1615,5.175048828125,-7.717529296875,2.372314453125
0.162,6.015869140625,-7.397216796875,1.211181640625
0.1625,6.736572265625,-6.956787109375,0.010009765625
0.163,7.056884765625,-6.396240234375,-1.031005859375
0.1635,7.096923828125,-5.275146484375,-2.232177734375
0.164,7.096923828125,-3.993896484375,-3.473388671875
0.1645,7.457275390625,-2.632568359375,-5.155029296875
0.165,6.456298828125,-1.071044921875,-5.715576171875
0.1655,6.336181640625,0.290283203125,-6.836669921875
0.166,4.854736328125,1.771728515625,-6.836669921875
0.1665,4.093994140625,3.012939453125,-7.237060546875
0.167,2.452392578125,4.774658203125,-7.357177734375
0.1675,1.171142578125,6.095947265625,-7.317138671875
0.168,-0.350341796875,6.656494140625,-6.396240234375
0.1685,-1.311279296875,7.497314453125,-6.276123046875
0.169,-2.952880859375,7.497314453125,-4.634521484375
0.1695,-4.194091796875,7.897705078125,-3.673583984375
0.17,-6.356201171875,8.177978515625,-1.791748046875
0.1705,-6.876708984375,7.537353515625,-0.590576171875
0.171,-7.557373046875,7.096923828125,0.610595703125
0.1715,-7.717529296875,6.256103515625,1.651611328125
0.172,-7.717529296875,4.934814453125,2.932861328125
0.1725,-7.637451171875,3.573486328125,4.294189453125
0.173,-7.837646484375,2.132080078125,5.895751953125
0.1735,-6.556396484375,0.490478515625,6.296142578125
0.174,-6.476318359375,-0.790771484375,7.337158203125
0.1745,-4.674560546875,-2.432373046875,7.177001953125
0.175,-3.833740234375,-3.633544921875,7.497314453125
0.1755,-2.112060546875,-5.435302734375,7.497314453125
0.176,-0.750732421875,-6.476318359375,7.096923828125
0.1765,0.650634765625,-7.036865234375,6.256103515625
0.177,1.731689453125,-7.717529296875,5.775634765625
0.1775,3.493408203125,-7.637451171875,4.013916015625
0.178,4.614501953125,-7.757568359375,2.972900390625
0.1785,6.496337890625,-7.997802734375,1.291259765625
0.179,6.776611328125,-7.036865234375,0.010009765625
0.1795,7.417236328125,-6.756591796875,-0.990966796875
0.18,7.337158203125,-5.515380859375,-2.192138671875
0.1805,7.337158203125,-4.354248046875,-3.353271484375
0.181,7.177001953125,-2.912841796875,-4.634521484375
0.1815,7.217041015625,-1.591552734375,-5.955810546875
0.182,5.975830078125,0.130126953125,-6.356201171875
0.1825,5.775634765625,1.171142578125,-7.156982421875
0.183,3.973876953125,2.852783203125,-7.036865234375
0.1835,3.253173828125,3.893798828125,-7.317138671875
0.184,1.651611328125,5.575439453125,-7.397216796875
0.1845,0.290283203125,6.376220703125,-6.716552734375
0.185,-0.910888671875,7.056884765625,-6.276123046875
0.1855,-2.112060546875,7.497314453125,-5.395263671875
0.186,-3.793701171875,7.617431640625,-3.873779296875
0.1865,-4.954833984375,7.697509765625,-2.752685546875
0.187,-6.476318359375,7.897705078125,-1.351318359375
0.1875,-6.716552734375,6.976806640625,-0.150146484375
0.188,-7.397216796875,6.896728515625,0.730712890625
