wavelength,x,y,z
0.0,-5.0048828125,-2.4423828125,6.2060546875
0.0005,-5.365234375,-1.8017578125,6.166015625
0.001,-5.3251953125,-1.041015625,5.685546875
0.0015,-5.205078125,0.0,4.8447265625
0.002,-5.2451171875,1.361328125,3.8837890625
0.0025,-5.1650390625,2.6826171875,2.7626953125
0.003,-5.0849609375,3.603515625,1.921875
0.0035,-4.724609375,4.1640625,1.1611328125
0.004,-3.9638671875,4.5244140625,0.2001953125
0.0045,-2.9228515625,4.8447265625,-1.1611328125
0.005,-1.8818359375,5.3251953125,-2.6025390625
0.0055,-1.0009765625,5.60546875,-3.84375
0.006,-0.3203125,5.845703125,-4.6845703125
0.0065,0.6806640625,5.4853515625,-5.28515625
0.007,1.921875,4.484375,-5.7255859375
0.0075,3.2431640625,3.3232421875,-6.166015625
0.008,4.32421875,2.162109375,-6.3662109375
0.0085,4.96484375,1.28125,-6.40625
0.009,5.0849609375,0.6005859375,-6.2060546875
0.0095,4.96484375,-0.3603515625,-5.525390625
0.01,4.8447265625,-1.361328125,-4.564453125
0.0105,4.9248046875,-2.72265625,-3.5634765625
0.011,4.8046875,-3.923828125,-2.4423828125
0.0115,4.6044921875,-4.724609375,-1.6416015625
0.012,4.1240234375,-5.1650390625,-0.8408203125
0.0125,3.1630859375,-5.4453125,0.3203125
0.013,2.0419921875,-5.845703125,1.76171875
0.0135,1.0009765625,-6.166015625,3.1630859375
0.014,0.240234375,-6.486328125,4.2041015625
0.0145,-0.6005859375,-6.5263671875,4.96484375
0.015,-1.6416015625,-5.845703125,5.4853515625
0.0155,-3.0029296875,-4.6845703125,5.8857421875
0.016,-4.32421875,-3.4833984375,6.24609375
0.0165,-5.205078125,-2.40234375,6.326171875
0.017,-5.60546875,-1.681640625,6.326171875
0.0175,-5.6455078125,-1.0009765625,5.8857421875
0.018,-5.4453125,0.1201171875,5.044921875
0.0185,-5.365234375,1.4013671875,4.00390625
0.019,-5.3251953125,2.802734375,2.8427734375
0.0195,-5.205078125,3.84375,1.841796875
0.02,-4.884765625,4.484375,1.0810546875
0.0205,-4.1240234375,4.8046875,0.16015625
0.021,-2.962890625,5.044921875,-1.201171875
0.0215,-1.8818359375,5.4853515625,-2.72265625
0.022,-0.8408203125,5.7255859375,-4.00390625
0.0225,0.0,6.005859375,-5.0048828125
0.023,0.80078125,5.7255859375,-5.6455078125
0.0235,2.0419921875,4.724609375,-6.0458984375
0.024,3.443359375,3.4833984375,-6.40625
0.0245,4.6044921875,2.1220703125,-6.6064453125
0.025,5.3251953125,1.12109375,-6.646484375
0.0255,5.525390625,0.400390625,-6.486328125
0.026,5.4052734375,-0.5205078125,-5.765625
0.0265,5.1650390625,-1.6416015625,-4.6845703125
0.027,5.125,-3.0830078125,-3.5234375
0.0275,5.0048828125,-4.3642578125,-2.2822265625
0.028,4.7646484375,-5.205078125,-1.361328125
0.0285,4.244140625,-5.7255859375,-0.6005859375
0.029,3.203125,-5.8857421875,0.6005859375
0.0295,1.921875,-6.1259765625,2.0419921875
0.03,0.640625,-6.4462890625,3.6435546875
0.0305,-0.3203125,-6.6865234375,4.8046875
0.031,-1.0009765625,-6.7265625,5.60546875
0.0315,-2.08203125,-6.0859375,6.0859375
0.032,-3.5234375,-4.724609375,6.4462890625
0.0325,-4.884765625,-3.4033203125,6.6865234375
0.033,-5.8056640625,-2.1220703125,6.7265625
0.0335,-6.2861328125,-1.2412109375,6.6064453125
0.034,-6.2060546875,-0.400390625,6.2060546875
0.0345,-5.92578125,0.6806640625,5.1650390625
0.035,-5.6455078125,1.9619140625,3.8837890625
0.0355,-5.525390625,3.4833984375,2.5625
0.036,-5.28515625,4.564453125,1.4013671875
0.0365,-4.884765625,5.205078125,0.560546875
0.037,-4.0439453125,5.4052734375,-0.48046875
0.0375,-2.7626953125,5.5654296875,-1.76171875
0.038,-1.44140625,5.8056640625,-3.36328125
0.0385,-0.2802734375,6.005859375,-4.7646484375
0.039,0.6005859375,6.0859375,-5.6455078125
0.0395,1.3212890625,5.8857421875,-6.2861328125
0.04,2.5224609375,4.8447265625,-6.6064453125
0.0405,3.923828125,3.36328125,-6.8466796875
0.041,5.1650390625,1.921875,-7.046875
0.0415,5.845703125,0.720703125,-6.9267578125
0.042,6.0859375,0.0,-6.6865234375
0.0425,5.8857421875,-0.9208984375,-5.9658203125
0.043,5.4853515625,-2.001953125,-4.8046875
0.0435,5.28515625,-3.36328125,-3.5234375
0.044,5.0849609375,-4.7646484375,-2.1220703125
0.0445,4.8046875,-5.6455078125,-1.12109375
0.045,4.32421875,-6.166015625,-0.3203125
0.0455,3.3232421875,-6.2861328125,0.720703125
0.046,1.9619140625,-6.40625,2.162109375
0.0465,0.6005859375,-6.6064453125,3.8037109375
0.047,-0.6005859375,-6.7265625,4.96484375
0.0475,-1.2412109375,-6.8466796875,5.8056640625
0.048,-2.08203125,-6.3662109375,6.326171875
0.0485,-3.4033203125,-5.125,6.56640625
0.049,-4.7646484375,-3.7236328125,6.8466796875
0.0495,-5.92578125,-2.322265625,6.88671875
0.05,-6.4462890625,-1.28125,6.7666015625
0.0505,-6.486328125,-0.5205078125,6.4462890625
0.051,-6.2060546875,0.4404296875,5.6455078125
0.0515,-5.845703125,1.681640625,4.32421875
0.052,-5.7255859375,3.123046875,3.04296875
0.0525,-5.4453125,4.404296875,1.7216796875
0.053,-5.0849609375,5.125,0.7607421875
0.0535,-4.4443359375,5.4853515625,0.0
0.054,-3.283203125,5.60546875,-1.28125
0.0545,-1.921875,5.8056640625,-2.802734375
0.055,-0.6005859375,6.005859375,-4.3642578125
0.0555,0.3603515625,6.1259765625,-5.4453125
0.056,1.041015625,6.1259765625,-6.1259765625
0.0565,2.0419921875,5.365234375,-6.56640625
0.057,3.4833984375,3.9638671875,-6.806640625
0.0575,4.7646484375,2.5625,-7.0869140625
0.058,5.7255859375,1.2412109375,-7.0068359375
0.0585,6.0859375,0.3203125,-6.88671875
0.059,6.0458984375,-0.5205078125,-6.40625
0.0595,5.7255859375,-1.4814453125,-5.365234375
0.06,5.4052734375,-2.802734375,-4.0439453125
0.0605,5.2451171875,-4.2841796875,-2.6826171875
0.061,5.0048828125,-5.4052734375,-1.4814453125
0.0615,4.6044921875,-6.0458984375,-0.640625
0.062,3.8037109375,-6.2861328125,0.3203125
0.0625,2.5224609375,-6.40625,1.6015625
0.063,1.0810546875,-6.6064453125,3.2431640625
0.0635,-0.2802734375,-6.7265625,4.64453125
0.064,-1.0009765625,-6.88671875,5.60546875
0.0645,-1.76171875,-6.7265625,6.24609375
0.065,-2.962890625,-5.6455078125,6.6064453125
0.0655,-4.4443359375,-4.2041015625,6.8466796875
0.066,-5.685546875,-2.72265625,7.046875
0.0665,-6.40625,-1.4814453125,6.88671875
0.067,-6.6064453125,-0.6806640625,6.6865234375
0.0675,-6.40625,0.240234375,6.005859375
0.068,-6.0859375,1.361328125,4.8046875
0.0685,-5.8056640625,2.802734375,3.443359375
0.069,-5.6455078125,4.2041015625,2.0419921875
0.0695,-5.28515625,5.1650390625,0.9609375
0.07,-4.724609375,5.6455078125,0.1201171875
0.0705,-3.7236328125,5.7255859375,-1.0009765625
0.071,-2.2421875,5.8857421875,-2.5224609375
0.0715,-0.80078125,6.1259765625,-4.2041015625
0.072,0.3603515625,6.2060546875,-5.4453125
0.0725,1.041015625,6.24609375,-6.24609375
0.073,1.921875,5.7255859375,-6.7265625
0.0735,3.2431640625,4.32421875,-7.0068359375
0.074,4.64453125,2.9228515625,-7.20703125
0.0745,5.7255859375,1.44140625,-7.20703125
0.075,6.2861328125,0.400390625,-7.0068359375
0.0755,6.24609375,-0.48046875,-6.6064453125
0.076,5.8857421875,-1.361328125,-5.685546875
0.0765,5.5654296875,-2.642578125,-4.3642578125
0.077,5.365234375,-4.1240234375,-2.9228515625
0.0775,5.0849609375,-5.3251953125,-1.6416015625
0.078,4.64453125,-6.0458984375,-0.720703125
0.0785,3.9638671875,-6.3662109375,0.240234375
0.079,2.802734375,-6.40625,1.3212890625
0.0795,1.361328125,-6.56640625,2.8828125
0.08,0.0,-6.6865234375,4.404296875
0.0805,-1.0009765625,-6.8466796875,5.4453125
0.081,-1.6015625,-6.7666015625,6.0859375
0.0815,-2.642578125,-6.0458984375,6.4462890625
0.082,-3.9638671875,-4.564453125,6.6865234375
0.0825,-5.2451171875,-3.203125,6.9267578125
0.083,-6.1259765625,-1.8818359375,6.88671875
0.0835,-6.4462890625,-1.0009765625,6.6865234375
0.084,-6.3662109375,-0.3203125,6.2060546875
0.0845,-6.0458984375,0.7607421875,5.205078125
0.085,-5.7255859375,1.9619140625,3.9638671875
0.0855,-5.5654296875,3.4033203125,2.642578125
0.086,-5.28515625,4.484375,1.44140625
0.0865,-4.884765625,5.0849609375,0.640625
0.087,-4.1240234375,5.4052734375,-0.3203125
0.0875,-2.962890625,5.4853515625,-1.44140625
0.088,-1.681640625,5.765625,-3.0029296875
0.0885,-0.48046875,5.845703125,-4.4443359375
0.089,0.3603515625,6.0458984375,-5.365234375
0.0895,1.041015625,5.92578125,-6.0458984375
0.09,2.162109375,5.0849609375,-6.3662109375
0.0905,3.5234375,3.763671875,-6.6865234375
0.091,4.7646484375,2.40234375,-6.88671875
0.0915,5.5654296875,1.2412109375,-6.8466796875
0.092,5.8056640625,0.5205078125,-6.7265625
0.0925,5.7255859375,-0.3603515625,-6.166015625
0.093,5.4052734375,-1.361328125,-5.125
0.0935,5.2451171875,-2.6826171875,-3.9638671875
0.094,5.0849609375,-4.1240234375,-2.642578125
0.0945,4.884765625,-5.125,-1.6416015625
0.095,4.484375,-5.685546875,-0.8408203125
0.0955,3.68359375,-5.92578125,0.16015625
0.096,2.482421875,-6.1259765625,1.44140625
0.0965,1.1611328125,-6.4462890625,3.04296875
0.097,0.0400390625,-6.6064453125,4.32421875
0.0975,-0.720703125,-6.806640625,5.205078125
0.098,-1.5615234375,-6.40625,5.8056640625
0.0985,-2.802734375,-5.3251953125,6.166015625
0.099,-4.1640625,-4.0439453125,6.486328125
0.0995,-5.28515625,-2.72265625,6.646484375
0.1,-5.92578125,-1.681640625,6.6064453125
0.1005,-6.0859375,-1.041015625,6.3662109375
0.101,-5.8857421875,-0.240234375,5.685546875
0.1015,-5.6455078125,1.0009765625,4.6044921875
0.102,-5.525390625,2.40234375,3.4033203125
0.1025,-5.3251953125,3.6435546875,2.2021484375
0.103,-5.0849609375,4.484375,1.28125
0.1035,-4.5244140625,4.884765625,0.48046875
0.104,-3.5634765625,5.0849609375,-0.640625
0.1045,-2.40234375,5.365234375,-2.001953125
0.105,-1.1611328125,5.60546875,-3.5634765625
0.1055,-0.3203125,5.765625,-4.6044921875
0.106,0.4404296875,5.92578125,-5.365234375
0.1065,1.3212890625,5.4052734375,-5.8056640625
0.107,2.5625,4.2041015625,-6.1259765625
0.1075,3.8837890625,3.04296875,-6.486328125
0.108,4.8447265625,1.76171875,-6.5263671875
0.1085,5.365234375,0.9609375,-6.5263671875
0.109,5.4052734375,0.2802734375,-6.24609375
0.1095,5.1650390625,-0.640625,-5.4453125
0.11,5.0048828125,-1.7216796875,-4.5244140625
0.1105,4.96484375,-3.0830078125,-3.283203125
0.111,4.8046875,-4.244140625,-2.2421875
0.1115,4.6044921875,-4.96484375,-1.4814453125
0.112,3.9638671875,-5.365234375,-0.6806640625
0.1125,3.04296875,-5.60546875,0.48046875
0.113,1.921875,-5.9658203125,1.921875
0.1135,0.7607421875,-6.24609375,3.203125
0.114,0.080078125,-6.486328125,4.32421875
0.1145,-0.6806640625,-6.5263671875,5.044921875
0.115,-1.7216796875,-5.8056640625,5.4453125
0.1155,-3.0029296875,-4.7646484375,5.8857421875
0.116,-4.2841796875,-3.5634765625,6.24609375
0.1165,-5.125,-2.5224609375,6.326171875
0.117,-5.525390625,-1.8017578125,6.326171875
0.1175,-5.5654296875,-1.12109375,5.92578125
0.118,-5.4052734375,-0.2001953125,5.1650390625
0.1185,-5.365234375,1.12109375,4.2041015625
0.119,-5.28515625,2.4423828125,3.0830078125
0.1195,-5.1650390625,3.4833984375,2.1220703125
0.12,-4.884765625,4.1240234375,1.4013671875
0.1205,-4.244140625,4.484375,0.48046875
0.121,-3.283203125,4.8046875,-0.80078125
0.1215,-2.2021484375,5.2451171875,-2.2822265625
0.122,-1.2412109375,5.525390625,-3.4833984375
0.1225,-0.5205078125,5.8056640625,-4.484375
0.123,0.3603515625,5.685546875,-5.0849609375
0.1235,1.4814453125,4.8447265625,-5.525390625
0.124,2.802734375,3.8037109375,-5.9658203125
0.1245,3.9638671875,2.6025390625,-6.2861328125
0.125,4.724609375,1.6416015625,-6.3662109375
0.1255,5.0048828125,1.041015625,-6.326171875
0.126,4.96484375,0.2802734375,-5.765625
0.1265,4.8447265625,-0.80078125,-5.0048828125
0.127,4.9248046875,-2.08203125,-4.00390625
0.1275,4.8046875,-3.3232421875,-2.9228515625
0.128,4.724609375,-4.2041015625,-2.1220703125
0.1285,4.3642578125,-4.8447265625,-1.4013671875
0.129,3.5634765625,-5.1650390625,-0.48046875
0.1295,2.6025390625,-5.5654296875,0.880859375
0.13,1.5615234375,-5.92578125,2.322265625
0.1305,0.6806640625,-6.24609375,3.4833984375
0.131,0.080078125,-6.4462890625,4.3642578125
0.1315,-0.9609375,-6.1259765625,4.96484375
0.132,-2.162109375,-5.1650390625,5.4052734375
0.1325,-3.4833984375,-4.1240234375,5.845703125
0.133,-4.5244140625,-2.962890625,6.0458984375
0.1335,-5.125,-2.2822265625,6.2060546875
0.134,-5.28515625,-1.6015625,6.005859375
0.1345,-5.205078125,-0.80078125,5.4052734375
0.135,-5.205078125,0.3203125,4.6044921875
0.1355,-5.2451171875,1.6416015625,3.603515625
0.136,-5.1650390625,2.8427734375,2.6025390625
0.1365,-5.0048828125,3.6435546875,1.841796875
0.137,-4.5244140625,4.1240234375,1.041015625
0.1375,-3.7236328125,4.4443359375,0.0
0.138,-2.7626953125,4.96484375,-1.44140625
0.1385,-1.681640625,5.3251953125,-2.8427734375
0.139,-1.0009765625,5.685546875,-3.8837890625
0.1395,-0.2802734375,5.7255859375,-4.6845703125
0.14,0.8408203125,5.1650390625,-5.1650390625
0.1405,2.1220703125,4.1640625,-5.6455078125
0.141,3.443359375,3.04296875,-6.0458984375
0.1415,4.32421875,2.0419921875,-6.24609375
0.142,4.8046875,1.361328125,-6.2861328125
0.1425,4.8447265625,0.6806640625,-5.9658203125
0.143,4.8046875,-0.3203125,-5.28515625
0.1435,4.8046875,-1.4814453125,-4.4443359375
0.144,4.8046875,-2.802734375,-3.36328125
0.1445,4.7646484375,-3.8837890625,-2.4423828125
0.145,4.564453125,-4.564453125,-1.76171875
0.1455,3.8837890625,-5.0048828125,-0.9208984375
0.146,3.0029296875,-5.28515625,0.400390625
0.1465,1.9619140625,-5.765625,1.841796875
0.147,1.0009765625,-6.1259765625,3.0830078125
0.1475,0.3603515625,-6.4462890625,4.083984375
0.148,-0.640625,-6.2861328125,4.8046875
0.1485,-1.76171875,-5.4453125,5.2451171875
0.149,-3.0830078125,-4.4443359375,5.7255859375
0.1495,-4.244140625,-3.283203125,6.0458984375
0.15,-5.0048828125,-2.4423828125,6.2060546875
0.1505,-5.28515625,-1.76171875,6.1259765625
0.151,-5.28515625,-1.0009765625,5.60546875
0.1515,-5.1650390625,0.080078125,4.8046875
0.152,-5.28515625,1.361328125,3.84375
0.1525,-5.205078125,2.6025390625,2.802734375
0.153,-5.0849609375,3.5234375,1.9619140625
0.1535,-4.6845703125,4.00390625,1.1611328125
0.154,-3.8837890625,4.4443359375,0.2001953125
0.1545,-2.9228515625,4.8447265625,-1.201171875
0.155,-1.841796875,5.2451171875,-2.642578125
0.1555,-1.041015625,5.6455078125,-3.763671875
0.156,-0.3603515625,5.8056640625,-4.64453125
0.1565,0.6806640625,5.4052734375,-5.205078125
0.157,1.921875,4.404296875,-5.6455078125
0.1575,3.283203125,3.2431640625,-6.1259765625
0.158,4.32421875,2.08203125,-6.2861328125
0.1585,4.884765625,1.3212890625,-6.3662109375
0.159,5.044921875,0.6806640625,-6.1259765625
0.1595,4.9248046875,-0.2802734375,-5.4052734375
0.16,4.8447265625,-1.4013671875,-4.5244140625
0.1605,4.884765625,-2.8427734375,-3.443359375
0.161,4.8046875,-3.9638671875,-2.4423828125
0.1615,4.6044921875,-4.7646484375,-1.7216796875
0.162,4.00390625,-5.125,-0.8408203125
0.1625,3.0830078125,-5.4052734375,0.3603515625
0.163,2.001953125,-5.8056640625,1.8017578125
0.1635,0.9609375,-6.166015625,3.1630859375
0.164,0.240234375,-6.486328125,4.2041015625
0.1645,-0.640625,-6.4462890625,4.96484375
0.165,-1.76171875,-5.685546875,5.4453125
0.1655,-3.123046875,-4.5244140625,5.8857421875
0.166,-4.4443359375,-3.283203125,6.24609375
0.1665,-5.2451171875,-2.2822265625,6.326171875
0.167,-5.6455078125,-1.5615234375,6.326171875
0.1675,-5.60546875,-0.8408203125,5.8056640625
0.168,-5.4052734375,0.2802734375,4.9248046875
0.1685,-5.365234375,1.5615234375,3.84375
0.169,-5.28515625,2.9228515625,2.642578125
0.1695,-5.1650390625,3.8837890625,1.7216796875
0.17,-4.7646484375,4.484375,0.9609375
0.1705,-3.923828125,4.7646484375,0.0
0.171,-2.802734375,5.044921875,-1.4013671875
0.1715,-1.6416015625,5.4453125,-2.9228515625
0.172,-0.720703125,5.7255859375,-4.1640625
0.1725,0.0400390625,5.8857421875,-5.044921875
0.173,0.9609375,5.525390625,-5.6455078125
0.1735,2.2021484375,4.484375,-6.005859375
0.174,3.603515625,3.2431640625,-6.40625
0.1745,4.724609375,1.9619140625,-6.56640625
0.175,5.3251953125,1.0009765625,-6.5263671875
0.1755,5.4453125,0.3603515625,-6.326171875
0.176,5.2451171875,-0.6005859375,-5.5654296875
0.1765,5.0849609375,-1.8017578125,-4.5244140625
0.177,5.044921875,-3.203125,-3.3232421875
0.1775,4.8447265625,-4.5244140625,-2.2021484375
0.178,4.64453125,-5.1650390625,-1.3212890625
0.1785,4.1240234375,-5.60546875,-0.560546875
0.179,3.0830078125,-5.765625,0.640625
0.1795,1.841796875,-6.1259765625,2.162109375
0.18,0.6005859375,-6.40625,3.6435546875
0.1805,-0.3203125,-6.6064453125,4.724609375
0.181,-1.0009765625,-6.6865234375,5.4853515625
0.1815,-2.0419921875,-5.92578125,5.9658203125
0.182,-3.5234375,-4.6044921875,6.326171875
0.1825,-4.8447265625,-3.2431640625,6.646484375
0.183,-5.765625,-2.001953125,6.646484375
0.1835,-6.1259765625,-1.2412109375,6.56640625
0.184,-6.1259765625,-0.48046875,6.0859375
0.1845,-5.8056640625,0.640625,5.0849609375
0.185,-5.6455078125,1.9619140625,3.8037109375
0.1855,-5.5654296875,3.4033203125,2.482421875
0.186,-5.28515625,4.5244140625,1.4013671875
0.1865,-4.884765625,5.0849609375,0.6005859375
0.187,-4.00390625,5.3251953125,-0.4404296875
0.1875,-2.72265625,5.4453125,-1.8017578125
0.188,-1.4013671875,5.8056640625,-3.4033203125
0.1885,-0.2802734375,5.9658203125,-4.7646484375
0.189,0.560546875,6.1259765625,-5.6455078125
0.1895,1.3212890625,5.8056640625,-6.2861328125
0.19,2.6025390625,4.6845703125,-6.6064453125
0.1905,4.0439453125,3.2431640625,-6.8466796875
0.191,5.28515625,1.841796875,-7.046875
0.1915,5.92578125,0.6806640625,-6.9267578125
0.192,6.0859375,-0.16015625,-6.646484375
0.1925,5.8056640625,-1.041015625,-5.8056640625
0.193,5.4453125,-2.2822265625,-4.564453125
0.1935,5.28515625,-3.68359375,-3.283203125
0.194,5.0849609375,-5.0048828125,-1.921875
0.1945,4.7646484375,-5.8056640625,-0.9609375
0.195,4.1240234375,-6.2060546875,0.0
0.1955,3.0830078125,-6.2861328125,1.0009765625
0.196,1.6416015625,-6.4462890625,2.5224609375
0.1965,0.2802734375,-6.6865234375,4.1240234375
0.197,-0.80078125,-6.7666015625,5.28515625
0.1975,-1.44140625,-6.806640625,6.0458984375
0.198,-2.40234375,-6.166015625,6.486328125
0.1985,-3.8037109375,-4.7646484375,6.7265625
0.199,-5.1650390625,-3.3232421875,6.966796875
0.1995,-6.166015625,-1.921875,6.966796875
0.2,-6.56640625,-0.9609375,6.7666015625
0.2005,-6.56640625,-0.2802734375,6.3662109375
0.201,-6.2060546875,0.80078125,5.3251953125
0.2015,-5.845703125,2.08203125,4.00390625
0.202,-5.685546875,3.5634765625,2.6025390625
0.2025,-5.4052734375,4.8046875,1.3212890625
0.203,-4.96484375,5.4052734375,0.4404296875
0.2035,-4.1640625,5.685546875,-0.5205078125
0.204,-2.8828125,5.7255859375,-1.76171875
0.2045,-1.4814453125,5.92578125,-3.36328125
0.205,-0.16015625,6.0859375,-4.8447265625
0.2055,0.6806640625,6.2060546875,-5.765625
0.206,1.361328125,6.0458984375,-6.40625
0.2065,2.4423828125,5.125,-6.7265625
0.207,3.84375,3.68359375,-6.9267578125
0.2075,5.125,2.2421875,-7.126953125
0.208,5.92578125,0.9208984375,-7.0068359375
0.2085,6.2060546875,0.0400390625,-6.7666015625
0.209,6.005859375,-0.80078125,-6.2060546875
0.2095,5.5654296875,-1.8818359375,-5.044921875
0.21,5.365234375,-3.1630859375,-3.763671875
0.2105,5.1650390625,-4.564453125,-2.3623046875
0.211,4.884765625,-5.60546875,-1.28125
0.2115,4.4443359375,-6.1259765625,-0.5205078125
0.212,3.5634765625,-6.2861328125,0.5205078125
0.2125,2.2421875,-6.3662109375,1.841796875
0.213,0.8408203125,-6.6064453125,3.5234375
0.2135,-0.4404296875,-6.7265625,4.8046875
0.214,-1.12109375,-6.8466796875,5.685546875
0.2145,-1.8818359375,-6.56640625,6.2861328125
0.215,-3.0830078125,-5.4453125,6.5263671875
0.2155,-4.5244140625,-4.00390625,6.8466796875
0.216,-5.765625,-2.5625,6.966796875
0.2165,-6.40625,-1.4814453125,6.88671875
0.217,-6.5263671875,-0.720703125,6.56640625
0.2175,-6.2861328125,0.2001953125,5.8056640625
0.218,-5.92578125,1.4013671875,4.6044921875
0.2185,-5.765625,2.8427734375,3.3232421875
0.219,-5.525390625,4.2041015625,1.921875
0.2195,-5.205078125,5.0849609375,0.9609375
0.22,-4.64453125,5.4853515625,0.1201171875
0.2205,-3.603515625,5.6455078125,-1.0009765625
0.221,-2.2021484375,5.8056640625,-2.5224609375
0.2215,-0.80078125,6.0458984375,-4.1640625
0.222,0.2802734375,6.166015625,-5.3251953125
0.2225,0.9609375,6.24609375,-6.1259765625
0.223,1.921875,5.6455078125,-6.6064453125
0.2235,3.283203125,4.2041015625,-6.8466796875
0.224,4.64453125,2.8427734375,-7.126953125
0.2245,5.7255859375,1.3212890625,-7.126953125
0.225,6.2060546875,0.3603515625,-6.966796875
0.2255,6.166015625,-0.48046875,-6.56640625
0.226,5.8056640625,-1.4013671875,-5.5654296875
0.2265,5.4853515625,-2.72265625,-4.244140625
0.227,5.365234375,-4.2041015625,-2.8427734375
