wavelength,x,y,z
0.0,16.701293945312,9.6544189453125,-26.500854492188
0.0005,11.656372070312,13.898559570312,-25.660034179688
0.001,6.9718017578125,18.222778320312,-25.259643554688
0.0015,3.0479736328125,20.665161132812,-23.898315429688
0.002,-2.8778076171875,24.068481445312,-21.455932617188
0.0025,-7.8026123046875,25.910278320312,-18.453002929688
0.003,-13.127807617188,26.070434570312,-13.408081054688
0.0035,-16.731323242188,26.230590820312,-10.084838867188
0.004,-20.615112304688,24.989379882812,-4.9998779296875
0.0045,-23.177612304688,23.708129882812,-1.1561279296875
0.005,-25.259643554688,20.945434570312,3.8087158203125
0.0055,-26.901245117188,17.542114257812,8.9737548828125
0.006,-25.459838867188,12.016723632812,13.097778320312
0.0065,-25.740112304688,8.3731689453125,17.101684570312
0.007,-24.058471679688,4.1290283203125,19.704223632812
0.0075,-22.256713867188,-1.1561279296875,23.187622070312
0.008,-19.213745117188,-5.7606201171875,24.629028320312
0.0085,-14.929565429688,-11.245971679688,25.750122070312
0.009,-10.405151367188,-14.889526367188,24.989379882812
0.0095,-5.7606201171875,-18.933471679688,24.188598632812
0.01,-1.6365966796875,-21.015502929688,22.346801757812
0.0105,3.6885986328125,-23.898315429688,20.104614257812
0.011,8.8936767578125,-25.619995117188,16.701293945312
0.0115,13.578247070312,-25.059448242188,11.496215820312
0.012,17.141723632812,-25.619995117188,8.6134033203125
0.0125,20.545043945312,-24.138549804688,3.7686767578125
0.013,23.227661132812,-22.657104492188,-0.5155029296875
0.0135,24.669067382812,-19.814331054688,-4.7996826171875
0.014,26.030395507812,-16.170776367188,-9.8846435546875
0.0145,24.629028320312,-11.045776367188,-13.688354492188
0.015,24.709106445312,-7.4022216796875,-17.492065429688
0.0155,22.907348632812,-3.3983154296875,-19.694213867188
0.016,21.265747070312,1.7266845703125,-23.097534179688
0.0165,17.782348632812,6.4112548828125,-24.378784179688
0.017,13.257934570312,11.496215820312,-24.899291992188
0.0175,9.4542236328125,15.019653320312,-24.659057617188
0.018,4.6094970703125,18.743286132812,-23.457885742188
0.0185,0.4053955078125,21.065551757812,-21.616088867188
0.019,-4.3192138671875,23.467895507812,-19.413940429688
0.0195,-9.7244873046875,25.029418945312,-15.730346679688
0.02,-13.888549804688,24.188598632812,-10.725463867188
0.0205,-17.492065429688,24.869262695312,-7.9627685546875
0.021,-20.374877929688,23.067504882812,-3.3582763671875
0.0215,-23.177612304688,21.505981445312,1.1260986328125
0.022,-24.058471679688,18.422973632812,5.2100830078125
0.0225,-25.139526367188,14.459106445312,10.214965820312
0.023,-24.138549804688,9.9747314453125,13.818481445312
0.0235,-23.938354492188,6.0509033203125,17.622192382812
0.024,-22.096557617188,2.1270751953125,19.704223632812
0.0245,-20.374877929688,-2.8377685546875,22.907348632812
0.025,-16.411010742188,-7.8026123046875,23.908325195312
0.0255,-11.686401367188,-12.527221679688,23.748168945312
0.026,-8.5233154296875,-15.850463867188,24.028442382812
0.0265,-3.2381591796875,-19.213745117188,22.106567382812
0.027,1.1260986328125,-21.656127929688,20.344848632812
0.0275,5.6505126953125,-23.578002929688,17.782348632812
0.028,11.015747070312,-24.859252929688,13.858520507812
0.0285,14.859497070312,-23.898315429688,9.0938720703125
0.029,18.503051757812,-24.418823242188,6.0909423828125
0.0295,21.105590820312,-22.456909179688,1.5665283203125
0.03,23.868286132812,-20.655151367188,-3.1580810546875
0.0305,24.188598632812,-17.011596679688,-7.1619873046875
0.031,24.829223632812,-12.847534179688,-12.046752929688
0.0315,24.108520507812,-9.0037841796875,-15.249877929688
0.032,23.227661132812,-4.5194091796875,-18.933471679688
0.0325,21.225708007812,-0.4754638671875,-21.095581054688
0.033,19.063598632812,4.4893798828125,-23.698120117188
0.0335,14.739379882812,9.4942626953125,-24.418823242188
0.034,9.7344970703125,13.938598632812,-23.738159179688
0.0345,6.8917236328125,17.141723632812,-24.098510742188
0.035,1.2862548828125,20.224731445312,-21.616088867188
0.0355,-3.1981201171875,22.787231445312,-19.854370117188
0.036,-7.7625732421875,23.948364257812,-16.491088867188
0.0365,-12.807495117188,24.949340820312,-12.567260742188
0.037,-16.370971679688,23.908325195312,-8.1229248046875
0.0375,-19.774291992188,23.828247070312,-4.6395263671875
0.038,-21.936401367188,21.626098632812,-0.3153076171875
0.0385,-24.378784179688,19.504028320312,4.4493408203125
0.039,-24.138549804688,15.299926757812,8.4532470703125
0.0395,-24.378784179688,10.855590820312,13.137817382812
0.04,-23.978393554688,7.6124267578125,16.100708007812
0.0405,-22.296752929688,2.6075439453125,19.423950195312
0.041,-20.374877929688,-1.5565185546875,21.626098632812
0.0415,-17.532104492188,-6.2811279296875,23.387817382812
0.042,-13.408081054688,-10.965698242188,24.028442382812
0.0425,-8.4031982421875,-14.929565429688,22.947387695312
0.043,-5.4403076171875,-17.892456054688,22.907348632812
0.0435,0.0050048828125,-20.494995117188,20.344848632812
0.044,4.4093017578125,-23.097534179688,18.543090820312
0.0445,8.9737548828125,-23.417846679688,14.379028320312
0.045,13.418090820312,-24.218627929688,10.855590820312
0.0455,16.781372070312,-23.578002929688,6.9718017578125
0.046,19.904418945312,-22.817260742188,3.0479736328125
0.0465,21.866333007812,-20.695190429688,-1.0760498046875
0.047,23.828247070312,-18.292846679688,-5.4803466796875
0.0475,23.507934570312,-14.048706054688,-9.5242919921875
0.048,23.307739257812,-9.6444091796875,-13.808471679688
0.0485,23.147583007812,-7.0018310546875,-16.370971679688
0.049,21.065551757812,-1.8768310546875,-19.494018554688
0.0495,19.383911132812,2.2071533203125,-21.776245117188
0.05,15.660278320312,6.8116455078125,-22.577026367188
0.0505,12.016723632812,11.255981445312,-23.417846679688
0.051,7.4923095703125,14.859497070312,-22.456909179688
0.0515,4.0889892578125,17.662231445312,-21.816284179688
0.052,-0.5955810546875,20.024536132812,-19.614135742188
0.0525,-5.1199951171875,22.546997070312,-17.732299804688
0.053,-9.4442138671875,22.386840820312,-13.328002929688
0.0535,-13.488159179688,23.027465820312,-9.9647216796875
0.054,-16.451049804688,22.747192382812,-6.8817138671875
0.0545,-19.373901367188,21.465942382812,-2.6776123046875
0.055,-21.175659179688,19.504028320312,1.2462158203125
0.0555,-22.456909179688,16.621215820312,5.3702392578125
0.056,-22.577026367188,12.777465820312,9.4542236328125
0.0565,-22.096557617188,8.5333251953125,13.257934570312
0.057,-21.976440429688,5.9307861328125,15.740356445312
0.0575,-20.054565429688,1.2061767578125,18.543090820312
0.058,-18.412963867188,-2.9178466796875,21.025512695312
0.0585,-14.248901367188,-7.2420654296875,21.265747070312
0.059,-10.925659179688,-11.446166992188,22.026489257812
0.0595,-7.0819091796875,-14.689331054688,21.465942382812
0.06,-3.0780029296875,-17.492065429688,20.184692382812
0.0605,0.9259033203125,-19.574096679688,18.503051757812
0.061,5.7706298828125,-21.936401367188,16.020629882812
0.0615,9.6944580078125,-21.776245117188,12.016723632812
0.062,13.778442382812,-22.296752929688,8.5733642578125
0.0625,16.380981445312,-22.136596679688,5.8907470703125
0.063,19.343872070312,-20.655151367188,1.4464111328125
0.0635,21.185668945312,-18.693237304688,-2.4774169921875
0.064,21.786254882812,-15.249877929688,-6.5213623046875
0.0645,22.346801757812,-11.886596679688,-10.565307617188
0.065,21.746215820312,-7.8826904296875,-14.048706054688
0.0655,21.105590820312,-4.7596435546875,-16.651245117188
0.066,19.383911132812,-0.3553466796875,-19.293823242188
0.0665,17.101684570312,4.4493408203125,-21.656127929688
0.067,12.777465820312,8.5733642578125,-21.495971679688
0.0675,9.4542236328125,12.617309570312,-22.136596679688
0.068,5.8507080078125,15.540161132812,-21.495971679688
0.0685,1.2462158203125,18.543090820312,-19.894409179688
0.069,-2.7176513671875,20.505004882812,-18.052612304688
0.0695,-7.8426513671875,22.266723632812,-14.769409179688
0.07,-11.486206054688,22.146606445312,-11.165893554688
0.0705,-15.450073242188,22.346801757812,-7.4022216796875
0.071,-17.732299804688,21.706176757812,-4.5194091796875
0.0715,-20.494995117188,19.984497070312,0.0050048828125
0.072,-22.176635742188,17.502075195312,4.2091064453125
0.0725,-22.096557617188,13.378051757812,8.2930908203125
0.073,-22.697143554688,10.214965820312,12.136840820312
0.0735,-21.816284179688,6.1710205078125,15.299926757812
0.074,-20.655151367188,2.4073486328125,18.022583007812
0.0745,-18.733276367188,-1.8367919921875,20.264770507812
0.075,-15.650268554688,-6.9217529296875,22.266723632812
0.0755,-11.245971679688,-10.725463867188,21.586059570312
0.076,-7.8426513671875,-14.609252929688,22.066528320312
0.0765,-3.9989013671875,-17.011596679688,20.665161132812
0.077,0.7657470703125,-20.014526367188,19.063598632812
0.0775,4.9698486328125,-21.696166992188,16.621215820312
0.078,9.9346923828125,-22.617065429688,12.697387695312
0.0785,13.217895507812,-22.657104492188,9.4942626953125
0.079,17.101684570312,-22.456909179688,5.4903564453125
0.0795,19.223754882812,-21.295776367188,2.2071533203125
0.08,21.505981445312,-19.333862304688,-2.0770263671875
0.0805,22.947387695312,-16.451049804688,-6.5614013671875
0.081,22.146606445312,-11.886596679688,-10.405151367188
0.0815,22.747192382812,-9.0037841796875,-13.968627929688
0.082,21.385864257812,-4.8397216796875,-16.731323242188
0.0825,20.024536132812,-0.6356201171875,-19.654174804688
0.083,17.622192382812,3.5284423828125,-21.295776367188
0.0835,14.098754882812,8.6134033203125,-22.817260742188
0.084,9.8946533203125,12.056762695312,-22.016479492188
0.0845,6.2510986328125,15.940551757812,-22.216674804688
0.085,2.2872314453125,18.022583007812,-20.414916992188
0.0855,-2.3172607421875,20.865356445312,-18.773315429688
0.086,-6.7215576171875,22.266723632812,-15.810424804688
0.0865,-11.245971679688,22.426879882812,-11.606323242188
0.087,-14.489135742188,22.867309570312,-8.8836669921875
0.0875,-17.932495117188,21.946411132812,-4.5994873046875
0.088,-20.094604492188,20.625122070312,-1.1160888671875
0.0885,-21.776245117188,18.342895507812,2.9278564453125
0.089,-23.017456054688,15.019653320312,7.5323486328125
0.0895,-22.056518554688,10.415161132812,11.135864257812
0.09,-22.617065429688,7.6124267578125,14.739379882812
0.0905,-20.895385742188,3.5284423828125,17.141723632812
0.091,-19.614135742188,-0.9158935546875,20.224731445312
0.0915,-16.611206054688,-4.9998779296875,21.305786132812
0.092,-12.807495117188,-9.8846435546875,22.386840820312
0.0925,-9.0838623046875,-13.127807617188,21.906372070312
0.093,-4.9598388671875,-16.811401367188,21.425903320312
0.0935,-0.9959716796875,-18.813354492188,19.504028320312
0.094,3.4483642578125,-21.415893554688,17.782348632812
0.0945,8.1729736328125,-22.496948242188,14.258911132812
0.095,12.256958007812,-22.296752929688,10.054809570312
0.0955,15.620239257812,-23.017456054688,7.5323486328125
0.096,18.663208007812,-21.616088867188,3.0880126953125
0.0965,21.105590820312,-20.094604492188,-0.9959716796875
0.097,22.106567382812,-17.452026367188,-4.6395263671875
0.0975,23.027465820312,-13.848510742188,-9.2840576171875
0.098,22.146606445312,-9.4842529296875,-12.767456054688
0.0985,22.386840820312,-6.3211669921875,-16.210815429688
0.099,20.384887695312,-2.1170654296875,-18.453002929688
0.0995,18.983520507812,2.3673095703125,-21.495971679688
0.1,15.099731445312,6.8116455078125,-22.056518554688
0.1005,11.095825195312,11.376098632812,-22.577026367188
0.101,7.8526611328125,14.579223632812,-22.536987304688
0.1015,3.1680908203125,17.942504882812,-21.175659179688
0.102,-1.0360107421875,20.144653320312,-19.253784179688
0.1025,-5.4002685546875,22.226684570312,-17.171752929688
0.103,-10.124877929688,23.067504882812,-13.328002929688
0.1035,-13.928588867188,22.466918945312,-9.0438232421875
0.104,-17.171752929688,23.027465820312,-6.4012451171875
0.1045,-19.894409179688,21.105590820312,-1.8768310546875
0.105,-22.296752929688,19.263793945312,2.4874267578125
0.1055,-22.617065429688,15.940551757812,6.1309814453125
0.106,-23.377807617188,12.176879882812,10.855590820312
0.1065,-22.577026367188,8.2130126953125,14.098754882812
0.107,-22.176635742188,4.4893798828125,17.421997070312
0.1075,-20.054565429688,0.1651611328125,19.664184570312
0.108,-18.212768554688,-4.3592529296875,22.266723632812
0.1085,-13.968627929688,-8.9237060546875,22.546997070312
0.109,-9.6444091796875,-13.167846679688,22.426879882812
0.1095,-6.6414794921875,-16.210815429688,22.466918945312
0.11,-1.3162841796875,-19.333862304688,20.384887695312
0.1105,3.0079345703125,-21.616088867188,18.463012695312
0.111,7.5723876953125,-23.017456054688,15.380004882812
0.1115,11.896606445312,-23.698120117188,11.776489257812
0.112,15.660278320312,-23.017456054688,7.4522705078125
0.1125,18.823364257812,-23.097534179688,4.4493408203125
0.113,21.265747070312,-21.015502929688,-0.2752685546875
0.1135,23.427856445312,-18.853393554688,-4.7196044921875
0.114,23.187622070312,-14.729370117188,-8.5233154296875
0.1145,23.708129882812,-10.885620117188,-12.967651367188
0.115,23.027465820312,-7.2020263671875,-15.930541992188
0.1155,21.786254882812,-2.6776123046875,-19.293823242188
0.116,19.584106445312,1.6866455078125,-21.455932617188
0.1165,16.781372070312,6.5313720703125,-23.417846679688
0.117,12.577270507812,10.815551757812,-23.497924804688
0.1175,8.0528564453125,14.859497070312,-23.017456054688
0.118,4.9698486328125,17.702270507812,-22.777221679688
0.1185,-0.5955810546875,20.785278320312,-20.374877929688
0.119,-4.9998779296875,22.987426757812,-18.252807617188
0.1195,-9.7645263671875,23.547973632812,-14.128784179688
0.12,-13.808471679688,24.148559570312,-10.885620117188
0.1205,-17.452026367188,23.307739257812,-6.4412841796875
0.121,-20.374877929688,22.627075195312,-2.8778076171875
0.1215,-22.456909179688,20.424926757812,1.6065673828125
0.122,-24.418823242188,17.702270507812,6.2911376953125
0.1225,-23.578002929688,13.097778320312,10.094848632812
0.123,-23.858276367188,9.2540283203125,14.338989257812
0.1235,-23.057495117188,5.7305908203125,17.021606445312
0.124,-21.335815429688,0.7657470703125,20.384887695312
0.1245,-19.013549804688,-3.5584716796875,22.306762695312
0.125,-15.410034179688,-8.6033935546875,23.668090820312
0.1255,-11.366088867188,-12.527221679688,23.547973632812
0.126,-6.8016357421875,-16.491088867188,22.907348632812
0.1265,-3.1981201171875,-18.973510742188,21.826293945312
0.127,1.9669189453125,-21.776245117188,19.584106445312
0.1275,6.7716064453125,-23.898315429688,17.061645507812
0.128,11.376098632812,-23.698120117188,12.296997070312
0.1285,15.219848632812,-24.378784179688,9.2139892578125
0.129,18.783325195312,-23.497924804688,4.8096923828125
0.1295,21.546020507812,-22.456909179688,0.7257080078125
0.13,23.227661132812,-19.734252929688,-3.4383544921875
0.1305,24.829223632812,-16.571166992188,-8.2830810546875
0.131,23.748168945312,-11.886596679688,-11.926635742188
0.1315,23.868286132812,-8.0028076171875,-16.010620117188
0.132,22.707153320312,-4.4393310546875,-18.453002929688
0.1325,20.905395507812,0.7657470703125,-21.776245117188
0.133,18.062622070312,5.2501220703125,-23.377807617188
0.1335,13.738403320312,10.214965820312,-24.018432617188
0.134,10.094848632812,13.858520507812,-24.058471679688
0.1345,5.3302001953125,17.742309570312,-23.137573242188
0.135,1.2862548828125,20.184692382812,-21.576049804688
0.1355,-3.5184326171875,22.627075195312,-19.373901367188
0.136,-8.6834716796875,24.548950195312,-16.290893554688
0.1365,-12.927612304688,23.708129882812,-11.286010742188
0.137,-16.731323242188,24.388793945312,-8.2830810546875
0.1375,-19.854370117188,23.187622070312,-3.8387451171875
0.138,-22.697143554688,21.666137695312,0.5255126953125
0.1385,-23.778198242188,18.703247070312,4.6094970703125
0.139,-24.859252929688,14.899536132812,9.5743408203125
0.1395,-23.938354492188,10.455200195312,13.177856445312
0.14,-23.818237304688,6.4512939453125,17.101684570312
0.1405,-22.296752929688,2.7677001953125,19.263793945312
0.141,-20.414916992188,-2.3172607421875,22.466918945312
0.1415,-16.971557617188,-7.0819091796875,23.788208007812
0.142,-12.206909179688,-11.846557617188,23.668090820312
0.1425,-8.9237060546875,-15.329956054688,23.908325195312
0.143,-3.8387451171875,-18.933471679688,22.426879882812
0.1435,0.6055908203125,-21.415893554688,20.625122070312
0.144,4.9298095703125,-23.337768554688,18.222778320312
0.1445,10.335083007812,-24.939331054688,14.539184570312
0.145,14.178833007812,-23.858276367188,9.6544189453125
0.1455,17.942504882812,-24.538940429688,6.6114501953125
0.146,20.825317382812,-22.777221679688,2.1270751953125
0.1465,23.628051757812,-21.015502929688,-2.5174560546875
0.147,24.228637695312,-17.772338867188,-6.4412841796875
0.1475,24.829223632812,-13.568237304688,-11.366088867188
0.148,24.188598632812,-9.5643310546875,-14.769409179688
0.1485,23.588012695312,-5.1600341796875,-18.573120117188
0.149,21.666137695312,-1.1561279296875,-20.735229492188
0.1495,19.704223632812,3.6085205078125,-23.457885742188
0.15,15.660278320312,8.6534423828125,-24.418823242188
0.1505,10.695434570312,13.097778320312,-23.858276367188
0.151,7.5723876953125,16.661254882812,-24.338745117188
0.1515,2.1671142578125,19.904418945312,-22.216674804688
0.152,-2.4774169921875,22.587036132812,-20.334838867188
0.1525,-6.7615966796875,23.948364257812,-17.492065429688
0.153,-12.126831054688,25.109497070312,-13.448120117188
0.1535,-15.650268554688,24.068481445312,-8.9637451171875
0.154,-19.574096679688,24.388793945312,-5.4002685546875
0.1545,-21.896362304688,22.306762695312,-1.0360107421875
0.155,-24.498901367188,20.304809570312,3.7286376953125
0.1555,-24.578979492188,16.461059570312,7.7325439453125
0.156,-24.779174804688,11.856567382812,12.537231445312
0.1565,-24.378784179688,8.2930908203125,15.820434570312
0.157,-23.137573242188,3.3682861328125,19.504028320312
0.1575,-21.135620117188,-0.9959716796875,21.786254882812
0.158,-18.653198242188,-5.5604248046875,23.908325195312
0.1585,-14.409057617188,-10.565307617188,24.629028320312
0.159,-9.2440185546875,-14.649291992188,23.507934570312
0.1595,-6.1610107421875,-18.092651367188,23.948364257812
0.16,-0.5155029296875,-21.055541992188,21.305786132812
0.1605,4.1290283203125,-23.738159179688,19.423950195312
0.161,8.6934814453125,-24.418823242188,15.660278320312
0.1615,13.498168945312,-25.419799804688,11.736450195312
0.162,17.181762695312,-24.378784179688,7.3321533203125
0.1625,20.985473632812,-24.218627929688,3.3682861328125
0.163,23.107543945312,-21.816284179688,-1.2362060546875
0.1635,25.429809570312,-19.534057617188,-5.8406982421875
0.164,25.029418945312,-15.129760742188,-9.9647216796875
0.1645,24.909301757812,-10.405151367188,-14.609252929688
0.165,24.629028320312,-7.2020263671875,-17.612182617188
0.1655,22.707153320312,-1.6766357421875,-21.215698242188
0.166,20.545043945312,2.7677001953125,-23.497924804688
0.1665,17.181762695312,7.6524658203125,-24.899291992188
0.167,12.937622070312,12.457153320312,-25.499877929688
0.1675,7.6925048828125,16.501098632812,-24.218627929688
0.168,4.1690673828125,19.784301757812,-24.058471679688
0.1685,-1.4764404296875,22.466918945312,-21.255737304688
0.169,-6.3211669921875,25.109497070312,-19.173706054688
0.1695,-10.965698242188,25.069458007812,-14.449096679688
0.17,-15.530151367188,25.630004882812,-10.645385742188
0.1705,-19.053588867188,24.709106445312,-6.3612060546875
0.171,-22.536987304688,23.748168945312,-1.8367919921875
0.1715,-24.418823242188,21.105590820312,2.8477783203125
0.172,-26.300659179688,18.222778320312,7.6124267578125
0.1725,-25.539916992188,13.418090820312,11.736450195312
0.173,-25.179565429688,8.6934814453125,16.220825195312
0.1735,-24.699096679688,5.4903564453125,18.943481445312
0.174,-22.376831054688,-0.3553466796875,22.426879882812
0.1745,-19.934448242188,-4.9598388671875,24.629028320312
0.175,-15.570190429688,-9.9647216796875,25.229614257812
0.1755,-11.526245117188,-14.369018554688,25.509887695312
0.176,-6.3612060546875,-18.252807617188,24.188598632812
0.1765,-2.1971435546875,-21.295776367188,23.107543945312
0.177,3.1680908203125,-23.738159179688,20.344848632812
0.1775,8.3731689453125,-26.220581054688,17.782348632812
0.178,12.937622070312,-25.339721679688,12.457153320312
