wavelength,x,y,z
0.0,-4.714599609375,4.134033203125,0.170166015625
0.0005,-4.634521484375,3.173095703125,1.010986328125
0.001,-4.754638671875,2.812744140625,1.531494140625
0.0015,-4.834716796875,1.731689453125,2.612548828125
0.002,-4.634521484375,1.131103515625,3.093017578125
0.0025,-4.274169921875,0.050048828125,3.693603515625
0.003,-3.873779296875,-0.710693359375,4.013916015625
0.0035,-3.193115234375,-1.591552734375,4.174072265625
0.004,-2.632568359375,-2.352294921875,4.374267578125
0.0045,-1.791748046875,-3.353271484375,4.534423828125
0.005,-0.990966796875,-3.713623046875,4.053955078125
0.0055,-0.350341796875,-4.394287109375,4.093994140625
0.006,0.530517578125,-4.474365234375,3.293212890625
0.0065,1.211181640625,-4.834716796875,2.972900390625
0.007,2.332275390625,-4.954833984375,1.971923828125
0.0075,3.012939453125,-4.994873046875,1.371337890625
0.008,3.413330078125,-4.514404296875,0.490478515625
0.0085,3.813720703125,-4.474365234375,0.050048828125
0.009,3.853759765625,-3.673583984375,-0.790771484375
0.0095,4.053955078125,-3.273193359375,-1.351318359375
0.01,4.254150390625,-2.352294921875,-2.432373046875
0.0105,3.933837890625,-1.631591796875,-2.792724609375
0.011,3.813720703125,-0.710693359375,-3.553466796875
0.0115,3.173095703125,0.130126953125,-3.713623046875
0.012,2.772705078125,0.930908203125,-4.033935546875
0.0125,2.052001953125,1.771728515625,-4.194091796875
0.013,1.411376953125,2.612548828125,-4.394287109375
0.0135,0.530517578125,3.012939453125,-3.873779296875
0.014,0.010009765625,3.613525390625,-3.953857421875
0.0145,-0.950927734375,3.693603515625,-3.153076171875
0.015,-1.591552734375,4.013916015625,-2.792724609375
0.0155,-2.672607421875,4.174072265625,-1.871826171875
0.016,-3.153076171875,4.013916015625,-1.311279296875
0.0165,-3.633544921875,3.733642578125,-0.590576171875
0.017,-3.833740234375,3.493408203125,-0.070068359375
0.0175,-3.993896484375,2.892822265625,0.610595703125
0.018,-4.114013671875,2.412353515625,1.291259765625
0.0185,-4.354248046875,1.771728515625,2.132080078125
0.019,-3.913818359375,0.970947265625,2.492431640625
0.0195,-4.033935546875,0.330322265625,3.173095703125
0.02,-3.233154296875,-0.630615234375,3.293212890625
0.0205,-3.113037109375,-1.231201171875,3.733642578125
0.021,-2.312255859375,-2.112060546875,3.853759765625
0.0215,-1.871826171875,-2.632568359375,3.933837890625
0.022,-1.111083984375,-3.193115234375,3.653564453125
0.0225,-0.630615234375,-3.673583984375,3.653564453125
0.023,0.290283203125,-3.873779296875,3.012939453125
0.0235,0.970947265625,-4.234130859375,2.652587890625
0.024,1.931884765625,-4.514404296875,1.931884765625
0.0245,2.252197265625,-4.314208984375,1.371337890625
0.025,2.892822265625,-4.354248046875,0.850830078125
0.0255,3.012939453125,-3.873779296875,0.250244140625
0.026,3.413330078125,-3.553466796875,-0.430419921875
0.0265,3.533447265625,-2.872802734375,-1.191162109375
0.027,3.853759765625,-2.432373046875,-1.871826171875
0.0275,3.413330078125,-1.511474609375,-2.432373046875
0.028,3.533447265625,-0.990966796875,-3.032958984375
0.0285,2.772705078125,0.010009765625,-3.233154296875
0.029,2.652587890625,0.650634765625,-3.713623046875
0.0295,1.931884765625,1.611572265625,-3.913818359375
0.03,1.371337890625,2.052001953125,-3.833740234375
0.0305,0.690673828125,2.692626953125,-3.753662109375
0.031,0.010009765625,3.052978515625,-3.433349609375
0.0315,-0.790771484375,3.373291015625,-2.952880859375
0.032,-1.591552734375,3.653564453125,-2.432373046875
0.0325,-2.432373046875,3.853759765625,-1.871826171875
0.033,-2.752685546875,3.453369140625,-1.191162109375
0.0335,-3.273193359375,3.613525390625,-0.790771484375
0.034,-3.353271484375,3.012939453125,0.010009765625
0.0345,-3.713623046875,2.812744140625,0.490478515625
0.035,-3.873779296875,2.052001953125,1.331298828125
0.0355,-3.953857421875,1.571533203125,1.891845703125
0.036,-3.633544921875,0.730712890625,2.452392578125
0.0365,-3.553466796875,0.170166015625,2.892822265625
0.037,-2.992919921875,-0.710693359375,3.173095703125
0.0375,-2.752685546875,-1.311279296875,3.533447265625
0.038,-2.112060546875,-2.192138671875,3.693603515625
0.0385,-1.551513671875,-2.552490234375,3.493408203125
0.039,-1.071044921875,-3.193115234375,3.653564453125
0.0395,-0.310302734375,-3.393310546875,3.093017578125
0.04,0.410400390625,-3.833740234375,2.852783203125
0.0405,1.291259765625,-4.114013671875,2.172119140625
0.041,1.891845703125,-4.274169921875,1.771728515625
0.0415,2.292236328125,-3.993896484375,1.051025390625
0.042,2.652587890625,-4.033935546875,0.810791015625
0.0425,2.892822265625,-3.393310546875,0.010009765625
0.043,3.213134765625,-3.273193359375,-0.510498046875
0.0435,3.533447265625,-2.552490234375,-1.471435546875
0.044,3.453369140625,-1.991943359375,-1.951904296875
0.0445,3.373291015625,-1.231201171875,-2.632568359375
0.045,3.012939453125,-0.510498046875,-2.912841796875
0.0455,2.692626953125,0.290283203125,-3.353271484375
0.046,2.252197265625,1.091064453125,-3.713623046875
0.0465,1.691650390625,1.891845703125,-3.913818359375
0.047,0.930908203125,2.292236328125,-3.593505859375
0.0475,0.490478515625,2.932861328125,-3.753662109375
0.048,-0.510498046875,3.133056640625,-2.992919921875
0.0485,-1.231201171875,3.533447265625,-2.752685546875
0.049,-2.192138671875,3.693603515625,-1.991943359375
0.0495,-2.672607421875,3.653564453125,-1.431396484375
0.05,-3.153076171875,3.533447265625,-0.790771484375
0.0505,-3.353271484375,3.293212890625,-0.310302734375
0.051,-3.593505859375,2.732666015625,0.490478515625
0.0515,-3.833740234375,2.292236328125,1.131103515625
0.052,-4.033935546875,1.651611328125,1.931884765625
0.0525,-3.673583984375,0.810791015625,2.372314453125
0.053,-3.713623046875,0.250244140625,2.972900390625
0.0535,-3.032958984375,-0.630615234375,3.173095703125
0.054,-2.792724609375,-1.311279296875,3.533447265625
0.0545,-2.112060546875,-2.152099609375,3.693603515625
0.055,-1.551513671875,-2.792724609375,3.693603515625
0.0555,-0.910888671875,-3.193115234375,3.453369140625
0.056,-0.310302734375,-3.673583984375,3.373291015625
0.0565,0.650634765625,-3.873779296875,2.572509765625
0.057,1.291259765625,-4.234130859375,2.292236328125
0.0575,2.252197265625,-4.434326171875,1.531494140625
0.058,2.572509765625,-4.073974609375,0.930908203125
0.0585,3.052978515625,-4.033935546875,0.490478515625
0.059,3.173095703125,-3.553466796875,-0.150146484375
0.0595,3.453369140625,-3.153076171875,-0.910888671875
0.06,3.573486328125,-2.472412109375,-1.631591796875
0.0605,3.773681640625,-1.871826171875,-2.432373046875
0.061,3.213134765625,-0.910888671875,-2.832763671875
0.0615,3.253173828125,-0.350341796875,-3.393310546875
0.062,2.412353515625,0.650634765625,-3.553466796875
0.0625,2.212158203125,1.331298828125,-3.953857421875
0.063,1.411376953125,2.252197265625,-4.033935546875
0.0635,0.650634765625,2.852783203125,-3.873779296875
0.064,0.010009765625,3.253173828125,-3.593505859375
0.0645,-0.790771484375,3.653564453125,-3.273193359375
0.065,-1.871826171875,3.853759765625,-2.432373046875
0.0655,-2.512451171875,3.973876953125,-1.951904296875
0.066,-3.353271484375,4.134033203125,-1.151123046875
0.0665,-3.673583984375,3.653564453125,-0.390380859375
0.067,-4.033935546875,3.533447265625,0.130126953125
0.0675,-4.114013671875,2.692626953125,0.970947265625
0.068,-4.354248046875,2.212158203125,1.651611328125
0.0685,-4.314208984375,1.371337890625,2.452392578125
0.069,-4.274169921875,0.650634765625,3.173095703125
0.0695,-3.593505859375,-0.350341796875,3.453369140625
0.07,-3.473388671875,-0.990966796875,3.853759765625
0.0705,-2.432373046875,-2.152099609375,3.973876953125
0.071,-2.031982421875,-2.712646484375,4.134033203125
0.0715,-1.151123046875,-3.553466796875,4.093994140625
0.072,-0.390380859375,-3.953857421875,3.773681640625
0.0725,0.210205078125,-4.354248046875,3.453369140625
0.073,1.211181640625,-4.634521484375,2.772705078125
0.0735,2.212158203125,-4.754638671875,1.931884765625
0.074,2.772705078125,-4.634521484375,1.291259765625
0.0745,3.533447265625,-4.674560546875,0.610595703125
0.075,3.653564453125,-4.033935546875,-0.190185546875
0.0755,3.933837890625,-3.873779296875,-0.630615234375
0.076,3.973876953125,-2.872802734375,-1.671630859375
0.0765,4.134033203125,-2.392333984375,-2.272216796875
0.077,3.973876953125,-1.431396484375,-3.072998046875
0.0775,3.853759765625,-0.630615234375,-3.713623046875
0.078,3.173095703125,0.330322265625,-3.873779296875
0.0785,2.852783203125,1.010986328125,-4.234130859375
0.079,1.771728515625,2.252197265625,-4.394287109375
0.0795,1.291259765625,2.812744140625,-4.434326171875
0.08,0.330322265625,3.653564453125,-4.314208984375
0.0805,-0.510498046875,3.973876953125,-3.873779296875
0.081,-1.191162109375,4.214111328125,-3.513427734375
0.0815,-2.352294921875,4.534423828125,-2.552490234375
0.082,-3.353271484375,4.694580078125,-1.711669921875
0.0825,-3.913818359375,4.414306640625,-0.870849609375
0.083,-4.634521484375,4.334228515625,-0.110107421875
0.0835,-4.674560546875,3.533447265625,0.730712890625
0.084,-4.874755859375,3.213134765625,1.251220703125
0.0845,-4.994873046875,2.052001953125,2.492431640625
0.085,-4.914794921875,1.371337890625,3.052978515625
0.0855,-4.634521484375,0.290283203125,3.813720703125
0.086,-4.234130859375,-0.630615234375,4.334228515625
0.0865,-3.473388671875,-1.551513671875,4.414306640625
0.087,-2.912841796875,-2.352294921875,4.654541015625
0.0875,-1.791748046875,-3.633544921875,4.814697265625
0.088,-0.990966796875,-4.114013671875,4.454345703125
0.0885,-0.110107421875,-4.834716796875,4.294189453125
0.089,0.730712890625,-5.074951171875,3.653564453125
0.0895,1.491455078125,-5.235107421875,3.173095703125
0.09,2.732666015625,-5.435302734375,2.052001953125
0.0905,3.693603515625,-5.435302734375,1.131103515625
0.091,4.093994140625,-4.874755859375,0.250244140625
0.0915,4.694580078125,-4.794677734375,-0.470458984375
0.092,4.534423828125,-3.833740234375,-1.271240234375
0.0925,4.694580078125,-3.393310546875,-1.831787109375
0.093,4.814697265625,-2.192138671875,-3.113037109375
0.0935,4.574462890625,-1.431396484375,-3.593505859375
0.094,4.174072265625,-0.350341796875,-4.314208984375
0.0945,3.733642578125,0.610595703125,-4.674560546875
0.095,2.852783203125,1.491455078125,-4.754638671875
0.0955,2.212158203125,2.412353515625,-4.954833984375
0.096,1.131103515625,3.653564453125,-5.114990234375
0.0965,0.210205078125,3.973876953125,-4.554443359375
0.097,-0.670654296875,4.734619140625,-4.434326171875
0.0975,-1.551513671875,4.854736328125,-3.633544921875
0.098,-2.352294921875,5.054931640625,-3.032958984375
0.0985,-3.713623046875,5.175048828125,-1.871826171875
0.099,-4.634521484375,5.175048828125,-0.950927734375
0.0995,-4.994873046875,4.454345703125,0.130126953125
0.1,-5.515380859375,4.334228515625,0.770751953125
0.1005,-5.355224609375,3.253173828125,1.651611328125
0.101,-5.435302734375,2.652587890625,2.292236328125
0.1015,-5.555419921875,1.411376953125,3.653564453125
0.102,-5.114990234375,0.490478515625,4.134033203125
0.1025,-4.634521484375,-0.670654296875,4.734619140625
0.103,-4.073974609375,-1.591552734375,5.054931640625
0.1035,-3.153076171875,-2.512451171875,5.014892578125
0.104,-2.312255859375,-3.473388671875,5.094970703125
0.1045,-1.191162109375,-4.754638671875,5.175048828125
0.105,-0.110107421875,-4.994873046875,4.414306640625
0.1055,0.570556640625,-5.595458984375,4.334228515625
0.106,1.651611328125,-5.635498046875,3.333251953125
0.1065,2.412353515625,-5.755615234375,2.652587890625
0.107,3.693603515625,-5.795654296875,1.491455078125
0.1075,4.494384765625,-5.595458984375,0.530517578125
0.108,4.734619140625,-4.834716796875,-0.510498046875
0.1085,5.135009765625,-4.634521484375,-1.031005859375
0.109,4.974853515625,-3.553466796875,-1.951904296875
0.1095,4.974853515625,-2.872802734375,-2.592529296875
0.11,5.094970703125,-1.671630859375,-3.913818359375
0.1105,4.494384765625,-0.630615234375,-4.274169921875
0.111,4.093994140625,0.370361328125,-4.874755859375
0.1115,3.333251953125,1.291259765625,-4.994873046875
0.112,2.492431640625,2.052001953125,-5.074951171875
0.1125,1.651611328125,3.093017578125,-5.155029296875
0.113,0.610595703125,4.214111328125,-5.195068359375
0.1135,-0.510498046875,4.534423828125,-4.314208984375
0.114,-1.111083984375,5.094970703125,-4.314208984375
0.1145,-2.272216796875,5.094970703125,-3.113037109375
0.115,-3.032958984375,5.215087890625,-2.552490234375
0.1155,-4.314208984375,5.295166015625,-1.311279296875
0.116,-4.954833984375,4.974853515625,-0.390380859375
0.1165,-5.235107421875,4.294189453125,0.570556640625
0.117,-5.515380859375,3.973876953125,1.171142578125
0.1175,-5.435302734375,2.852783203125,2.212158203125
0.118,-5.395263671875,2.132080078125,2.812744140625
0.1185,-5.515380859375,1.010986328125,4.013916015625
0.119,-4.714599609375,-0.150146484375,4.334228515625
0.1195,-4.474365234375,-1.031005859375,4.854736328125
0.12,-3.393310546875,-1.951904296875,4.974853515625
0.1205,-2.752685546875,-2.952880859375,5.014892578125
0.121,-1.791748046875,-3.873779296875,4.974853515625
0.1215,-0.790771484375,-4.794677734375,4.894775390625
0.122,0.250244140625,-4.994873046875,4.093994140625
0.1225,0.810791015625,-5.475341796875,4.013916015625
0.123,2.092041015625,-5.475341796875,2.732666015625
0.1235,2.692626953125,-5.515380859375,2.252197265625
0.124,3.893798828125,-5.595458984375,1.091064453125
0.1245,4.334228515625,-5.114990234375,0.210205078125
0.125,4.614501953125,-4.634521484375,-0.590576171875
0.1255,4.734619140625,-4.073974609375,-1.231201171875
0.126,4.734619140625,-3.153076171875,-2.112060546875
0.1265,4.654541015625,-2.432373046875,-2.752685546875
0.127,4.814697265625,-1.431396484375,-3.873779296875
0.1275,3.933837890625,-0.310302734375,-4.154052734375
0.128,3.773681640625,0.450439453125,-4.634521484375
0.1285,2.732666015625,1.451416015625,-4.674560546875
0.129,2.252197265625,2.252197265625,-4.834716796875
0.1295,1.291259765625,3.253173828125,-4.834716796875
0.13,0.330322265625,4.013916015625,-4.634521484375
0.1305,-0.630615234375,4.294189453125,-3.993896484375
0.131,-1.271240234375,4.734619140625,-3.833740234375
0.1315,-2.512451171875,4.774658203125,-2.592529296875
0.132,-3.072998046875,4.814697265625,-2.112060546875
0.1325,-4.194091796875,4.894775390625,-1.031005859375
0.133,-4.514404296875,4.294189453125,-0.150146484375
0.1335,-4.874755859375,3.973876953125,0.490478515625
0.134,-4.914794921875,3.253173828125,1.251220703125
0.1345,-4.994873046875,2.492431640625,2.092041015625
0.135,-4.874755859375,1.651611328125,2.772705078125
0.1355,-4.994873046875,0.770751953125,3.693603515625
0.136,-4.033935546875,-0.470458984375,3.853759765625
0.1365,-4.033935546875,-1.031005859375,4.454345703125
0.137,-2.912841796875,-2.272216796875,4.294189453125
0.1375,-2.472412109375,-2.752685546875,4.614501953125
0.138,-1.431396484375,-3.713623046875,4.494384765625
0.1385,-0.630615234375,-4.234130859375,4.174072265625
0.139,0.130126953125,-4.514404296875,3.773681640625
0.1395,0.850830078125,-4.834716796875,3.333251953125
0.14,1.931884765625,-4.954833984375,2.372314453125
0.1405,2.492431640625,-4.954833984375,1.891845703125
0.141,3.413330078125,-4.994873046875,1.010986328125
0.1415,3.573486328125,-4.394287109375,0.210205078125
0.142,4.013916015625,-4.314208984375,-0.270263671875
0.1425,3.973876953125,-3.433349609375,-1.111083984375
0.143,4.174072265625,-3.032958984375,-1.751708984375
0.1435,4.134033203125,-2.072021484375,-2.552490234375
0.144,4.093994140625,-1.431396484375,-3.193115234375
0.1445,3.453369140625,-0.390380859375,-3.593505859375
0.145,3.493408203125,0.250244140625,-4.033935546875
0.1455,2.372314453125,1.291259765625,-4.114013671875
0.146,2.092041015625,1.931884765625,-4.394287109375
0.1465,1.131103515625,2.892822265625,-4.354248046875
0.147,0.330322265625,3.333251953125,-3.993896484375
0.1475,-0.310302734375,3.813720703125,-3.833740234375
0.148,-1.271240234375,4.013916015625,-3.153076171875
0.1485,-2.112060546875,4.294189453125,-2.472412109375
0.149,-2.832763671875,4.294189453125,-1.791748046875
0.1495,-3.593505859375,4.294189453125,-1.111083984375
0.15,-3.833740234375,3.693603515625,-0.310302734375
0.1505,-4.194091796875,3.693603515625,0.130126953125
0.151,-4.194091796875,2.692626953125,1.091064453125
0.1515,-4.434326171875,2.372314453125,1.611572265625
0.152,-4.354248046875,1.371337890625,2.452392578125
0.1525,-4.194091796875,0.610595703125,2.972900390625
0.153,-3.753662109375,-0.310302734375,3.413330078125
0.1535,-3.393310546875,-0.910888671875,3.693603515625
0.154,-2.592529296875,-1.871826171875,3.893798828125
0.1545,-2.232177734375,-2.432373046875,4.013916015625
0.155,-1.391357421875,-3.193115234375,3.973876953125
0.1555,-0.670654296875,-3.553466796875,3.573486328125
0.156,-0.150146484375,-3.993896484375,3.533447265625
0.1565,0.850830078125,-4.154052734375,2.692626953125
0.157,1.451416015625,-4.434326171875,2.372314453125
0.1575,2.212158203125,-4.394287109375,1.611572265625
0.158,2.692626953125,-4.354248046875,1.131103515625
0.1585,2.932861328125,-3.953857421875,0.450439453125
0.159,3.213134765625,-3.873779296875,0.090087890625
0.1595,3.373291015625,-3.153076171875,-0.790771484375
0.16,3.573486328125,-2.872802734375,-1.311279296875
0.1605,3.693603515625,-2.072021484375,-2.232177734375
0.161,3.413330078125,-1.351318359375,-2.592529296875
0.1615,3.253173828125,-0.590576171875,-3.193115234375
0.162,2.812744140625,0.170166015625,-3.353271484375
0.1625,2.412353515625,0.970947265625,-3.793701171875
0.163,1.851806640625,1.651611328125,-3.873779296875
0.1635,1.211181640625,2.412353515625,-3.953857421875
0.164,0.490478515625,2.772705078125,-3.553466796875
0.1645,-0.070068359375,3.333251953125,-3.593505859375
0.165,-1.151123046875,3.493408203125,-2.712646484375
0.1655,-1.791748046875,3.853759765625,-2.512451171875
0.166,-2.592529296875,3.853759765625,-1.631591796875
0.1665,-2.992919921875,3.733642578125,-1.151123046875
0.167,-3.393310546875,3.493408203125,-0.510498046875
0.1675,-3.593505859375,3.173095703125,0.010009765625
0.168,-3.873779296875,2.532470703125,0.850830078125
0.1685,-3.993896484375,2.011962890625,1.451416015625
0.169,-4.114013671875,1.331298828125,2.252197265625
0.1695,-3.633544921875,0.530517578125,2.612548828125
0.17,-3.593505859375,-0.110107421875,3.173095703125
0.1705,-2.872802734375,-1.031005859375,3.333251953125
0.171,-2.632568359375,-1.671630859375,3.773681640625
0.1715,-1.911865234375,-2.392333984375,3.693603515625
0.172,-1.311279296875,-2.952880859375,3.693603515625
0.1725,-0.670654296875,-3.273193359375,3.333251953125
0.173,-0.070068359375,-3.713623046875,3.173095703125
0.1735,0.930908203125,-3.913818359375,2.412353515625
0.174,1.451416015625,-4.154052734375,2.092041015625
0.1745,2.132080078125,-4.154052734375,1.411376953125
0.175,2.412353515625,-3.873779296875,0.930908203125
0.1755,2.812744140625,-3.833740234375,0.450439453125
0.176,2.892822265625,-3.313232421875,-0.230224609375
0.1765,3.253173828125,-3.072998046875,-0.830810546875
0.177,3.293212890625,-2.392333984375,-1.551513671875
0.1775,3.453369140625,-1.831787109375,-2.152099609375
0.178,3.012939453125,-0.950927734375,-2.552490234375
0.1785,3.052978515625,-0.470458984375,-3.072998046875
0.179,2.332275390625,0.530517578125,-3.233154296875
0.1795,2.252197265625,1.091064453125,-3.713623046875
0.18,1.451416015625,1.891845703125,-3.713623046875
0.1805,0.930908203125,2.372314453125,-3.673583984375
0.181,0.250244140625,2.852783203125,-3.473388671875
0.1815,-0.550537109375,3.173095703125,-3.032958984375
0.182,-1.391357421875,3.573486328125,-2.512451171875
0.1825,-2.031982421875,3.693603515625,-2.031982421875
0.183,-2.712646484375,3.813720703125,-1.431396484375
0.1835,-3.032958984375,3.453369140625,-0.790771484375
0.184,-3.473388671875,3.333251953125,-0.390380859375
0.1845,-3.593505859375,2.612548828125,0.530517578125
0.185,-3.953857421875,2.292236328125,1.131103515625
0.1855,-3.873779296875,1.531494140625,1.931884765625
0.186,-3.873779296875,0.930908203125,2.492431640625
0.1865,-3.433349609375,0.010009765625,2.892822265625
0.187,-3.233154296875,-0.630615234375,3.293212890625
0.1875,-2.552490234375,-1.591552734375,3.573486328125
0.188,-2.192138671875,-2.112060546875,3.693603515625
