wavelength,x,y,z
0.0,-15.565185546875,-4.154052734375,18.908447265625
0.0005,-12.602294921875,-7.397216796875,19.228759765625
0.001,-9.078857421875,-10.880615234375,19.268798828125
0.0015,-4.474365234375,-14.604248046875,18.508056640625
0.002,-0.830810546875,-16.686279296875,17.306884765625
0.0025,2.572509765625,-18.367919921875,15.825439453125
0.003,5.815673828125,-19.448974609375,13.823486328125
0.0035,9.299072265625,-19.088623046875,10.179931640625
0.004,12.662353515625,-18.928466796875,6.696533203125
0.0045,15.545166015625,-18.407958984375,3.493408203125
0.005,17.627197265625,-16.646240234375,-0.350341796875
0.0055,18.828369140625,-14.924560546875,-3.193115234375
0.006,19.268798828125,-12.041748046875,-6.476318359375
0.0065,19.108642578125,-8.518310546875,-9.799560546875
0.007,18.788330078125,-4.674560546875,-13.322998046875
0.0075,18.067626953125,-1.711669921875,-15.645263671875
0.008,16.666259765625,1.771728515625,-17.607177734375
0.0085,14.584228515625,4.974853515625,-18.888427734375
0.009,10.940673828125,8.338134765625,-18.728271484375
0.0095,7.377197265625,12.021728515625,-18.768310546875
0.01,3.373291015625,15.144775390625,-18.247802734375
0.0105,-0.670654296875,17.146728515625,-16.446044921875
0.011,-3.593505859375,18.508056640625,-15.084716796875
0.0115,-6.876708984375,19.228759765625,-12.762451171875
0.012,-10.360107421875,18.908447265625,-9.038818359375
0.0125,-13.763427734375,18.468017578125,-5.435302734375
0.013,-16.165771484375,17.667236328125,-2.272216796875
0.0135,-18.087646484375,15.905517578125,1.411376953125
0.014,-19.048583984375,13.903564453125,4.334228515625
0.0145,-19.088623046875,10.500244140625,7.737548828125
0.015,-19.048583984375,7.096923828125,11.060791015625
0.0155,-18.728271484375,3.533447265625,14.384033203125
0.016,-17.487060546875,0.170166015625,16.466064453125
0.0165,-16.005615234375,-3.072998046875,18.147705078125
0.017,-13.763427734375,-6.356201171875,19.228759765625
0.0175,-9.799560546875,-9.759521484375,18.868408203125
0.018,-5.875732421875,-13.282958984375,18.628173828125
0.0185,-2.192138671875,-16.005615234375,17.867431640625
0.019,1.931884765625,-17.887451171875,15.945556640625
0.0195,4.654541015625,-18.928466796875,14.384033203125
0.02,8.097900390625,-19.208740234375,11.461181640625
0.0205,11.621337890625,-18.928466796875,7.817626953125
0.021,14.784423828125,-18.447998046875,4.214111328125
0.0215,16.946533203125,-17.126708984375,0.850830078125
0.022,18.628173828125,-15.445068359375,-2.512451171875
0.0225,19.268798828125,-12.962646484375,-5.595458984375
0.023,19.068603515625,-9.239013671875,-9.118896484375
0.0235,18.908447265625,-5.755615234375,-12.362060546875
0.024,18.548095703125,-2.552490234375,-15.244873046875
0.0245,16.946533203125,1.051025390625,-17.246826171875
0.025,15.224853515625,4.053955078125,-18.568115234375
0.0255,12.302001953125,7.417236328125,-19.208740234375
0.026,8.258056640625,11.100830078125,-18.848388671875
0.0265,4.294189453125,14.384033203125,-18.367919921875
0.027,0.610595703125,16.706298828125,-17.206787109375
0.0275,-3.153076171875,18.508056640625,-15.525146484375
0.028,-6.035888671875,19.188720703125,-13.483154296875
0.0285,-9.559326171875,19.148681640625,-10.079833984375
0.029,-13.002685546875,18.868408203125,-6.476318359375
0.0295,-15.845458984375,18.187744140625,-3.072998046875
0.03,-17.847412109375,16.385986328125,0.690673828125
0.0305,-19.208740234375,14.664306640625,3.733642578125
0.031,-19.569091796875,11.661376953125,7.056884765625
0.0315,-19.288818359375,7.817626953125,10.620361328125
0.032,-18.968505859375,4.294189453125,13.783447265625
0.0325,-18.247802734375,1.051025390625,16.305908203125
0.033,-16.606201171875,-2.672607421875,18.307861328125
0.0335,-14.444091796875,-5.675537109375,19.228759765625
0.034,-11.080810546875,-9.038818359375,19.388916015625
0.0345,-6.916748046875,-12.802490234375,19.188720703125
0.035,-2.912841796875,-15.765380859375,18.307861328125
0.0355,0.970947265625,-17.687255859375,16.626220703125
0.036,4.294189453125,-19.248779296875,15.104736328125
0.0365,7.417236328125,-19.569091796875,12.462158203125
0.037,11.020751953125,-19.248779296875,8.658447265625
0.0375,14.384033203125,-18.928466796875,5.175048828125
0.038,16.946533203125,-17.927490234375,1.651611328125
0.0385,18.788330078125,-16.005615234375,-2.072021484375
0.039,19.589111328125,-13.883544921875,-4.994873046875
0.0395,19.749267578125,-10.560302734375,-8.438232421875
0.04,19.428955078125,-6.516357421875,-12.121826171875
0.0405,18.948486328125,-3.193115234375,-15.004638671875
0.041,17.667236328125,0.170166015625,-17.046630859375
0.0415,16.025634765625,3.693603515625,-19.048583984375
0.042,13.182861328125,6.896728515625,-19.368896484375
0.0425,9.459228515625,10.340087890625,-19.248779296875
0.043,5.415283203125,14.063720703125,-19.048583984375
0.0435,1.411376953125,16.666259765625,-17.967529296875
0.044,-2.432373046875,18.387939453125,-16.005615234375
0.0445,-5.435302734375,19.549072265625,-14.404052734375
0.045,-8.798583984375,19.629150390625,-11.361083984375
0.0455,-12.482177734375,19.108642578125,-7.277099609375
0.046,-15.405029296875,18.708251953125,-3.993896484375
0.0465,-17.647216796875,17.226806640625,-0.390380859375
0.047,-19.408935546875,15.344970703125,3.253173828125
0.0475,-19.769287109375,12.662353515625,6.256103515625
0.048,-19.729248046875,9.098876953125,9.739501953125
0.0485,-19.448974609375,5.135009765625,13.383056640625
0.049,-18.808349609375,1.851806640625,16.025634765625
0.0495,-17.166748046875,-1.751708984375,17.827392578125
0.05,-15.525146484375,-4.914794921875,19.509033203125
0.0505,-12.322021484375,-8.157958984375,19.709228515625
0.051,-8.157958984375,-11.801513671875,19.268798828125
0.0515,-4.354248046875,-15.004638671875,18.908447265625
0.052,-0.190185546875,-17.447021484375,17.427001953125
0.0525,3.573486328125,-19.088623046875,15.585205078125
0.053,6.456298828125,-19.649169921875,13.463134765625
0.0535,9.939697265625,-19.729248046875,10.219970703125
0.054,13.743408203125,-19.168701171875,6.015869140625
0.0545,16.345947265625,-18.447998046875,2.772705078125
0.055,18.307861328125,-16.806396484375,-0.830810546875
0.0555,19.949462890625,-14.924560546875,-4.234130859375
0.056,19.869384765625,-11.681396484375,-7.437255859375
0.0565,19.709228515625,-7.957763671875,-11.040771484375
0.057,19.468994140625,-4.434326171875,-14.323974609375
0.0575,18.548095703125,-0.910888671875,-16.966552734375
0.058,16.666259765625,2.852783203125,-18.648193359375
0.0585,14.584228515625,5.895751953125,-19.729248046875
0.059,11.060791015625,9.459228515625,-19.889404296875
0.0595,6.376220703125,13.423095703125,-19.368896484375
0.06,2.852783203125,16.145751953125,-18.768310546875
0.0605,-1.311279296875,18.267822265625,-17.006591796875
0.061,-4.914794921875,19.949462890625,-15.324951171875
0.0615,-7.997802734375,19.989501953125,-12.442138671875
0.062,-11.561279296875,19.909423828125,-8.998779296875
0.0625,-15.324951171875,19.428955078125,-4.874755859375
0.063,-17.807373046875,18.147705078125,-1.191162109375
0.0635,-19.489013671875,16.265869140625,2.412353515625
0.064,-20.770263671875,14.063720703125,5.775634765625
0.0645,-20.530029296875,10.380126953125,9.259033203125
0.065,-20.289794921875,6.095947265625,13.222900390625
0.0655,-19.849365234375,2.812744140625,16.025634765625
0.066,-18.447998046875,-0.990966796875,18.468017578125
0.0665,-16.446044921875,-4.714599609375,20.229736328125
0.067,-13.483154296875,-7.837646484375,20.469970703125
0.0675,-9.919677734375,-11.401123046875,20.590087890625
0.068,-4.874755859375,-15.485107421875,19.869384765625
0.0685,-0.910888671875,-17.927490234375,18.548095703125
0.069,2.932861328125,-19.569091796875,16.666259765625
0.0695,6.496337890625,-21.010498046875,14.784423828125
0.07,9.979736328125,-20.610107421875,11.020751953125
0.0705,13.663330078125,-20.209716796875,7.096923828125
0.071,16.906494140625,-19.729248046875,3.533447265625
0.0715,19.228759765625,-17.887451171875,-0.670654296875
0.072,20.710205078125,-15.845458984375,-4.114013671875
0.0725,21.150634765625,-12.962646484375,-7.437255859375
0.073,21.070556640625,-9.279052734375,-11.040771484375
0.0735,20.550048828125,-4.754638671875,-15.084716796875
0.074,19.709228515625,-1.431396484375,-17.447021484375
0.0745,17.987548828125,2.292236328125,-19.408935546875
0.075,15.905517578125,6.095947265625,-21.130615234375
0.0755,11.901611328125,9.459228515625,-20.730224609375
0.076,8.097900390625,13.102783203125,-20.690185546875
0.0765,3.533447265625,16.826416015625,-20.089599609375
0.077,-1.031005859375,19.188720703125,-18.127685546875
0.0775,-4.514404296875,20.469970703125,-16.245849609375
0.078,-7.997802734375,21.470947265625,-13.923583984375
0.0785,-11.721435546875,21.030517578125,-9.959716796875
0.079,-15.525146484375,20.269775390625,-5.475341796875
0.0795,-18.247802734375,19.468994140625,-2.072021484375
0.08,-20.329833984375,17.346923828125,2.052001953125
0.0805,-21.651123046875,15.104736328125,5.615478515625
0.081,-21.531005859375,11.421142578125,9.098876953125
0.0815,-21.410888671875,7.697509765625,12.662353515625
0.082,-20.810302734375,3.333251953125,16.506103515625
0.0825,-19.408935546875,-0.470458984375,18.868408203125
0.083,-17.447021484375,-3.993896484375,20.469970703125
0.0835,-15.244873046875,-7.557373046875,21.911376953125
0.084,-10.760498046875,-11.240966796875,21.270751953125
0.0845,-6.276123046875,-15.084716796875,20.790283203125
0.085,-2.232177734375,-18.007568359375,19.949462890625
0.0855,2.532470703125,-20.209716796875,17.667236328125
0.086,5.895751953125,-21.330810546875,15.665283203125
0.0865,9.459228515625,-21.571044921875,12.502197265625
0.087,13.182861328125,-21.290771484375,8.698486328125
0.0875,17.026611328125,-20.369873046875,4.093994140625
0.088,19.388916015625,-18.928466796875,0.290283203125
0.0885,21.110595703125,-16.966552734375,-3.353271484375
0.089,22.151611328125,-14.444091796875,-6.916748046875
0.0895,21.671142578125,-10.239990234375,-10.720458984375
0.09,21.390869140625,-6.236083984375,-14.283935546875
0.0905,20.830322265625,-2.512451171875,-17.487060546875
0.091,18.988525390625,1.691650390625,-19.809326171875
0.0915,16.706298828125,5.215087890625,-21.130615234375
0.092,13.783447265625,8.818603515625,-21.891357421875
0.0925,9.379150390625,12.662353515625,-21.490966796875
0.093,4.334228515625,16.666259765625,-20.690185546875
0.0935,0.490478515625,19.148681640625,-19.489013671875
0.094,-3.953857421875,21.070556640625,-17.326904296875
0.0945,-7.437255859375,22.071533203125,-15.084716796875
0.095,-11.281005859375,21.791259765625,-11.040771484375
0.0955,-14.884521484375,21.430908203125,-7.277099609375
0.096,-18.367919921875,20.469970703125,-2.952880859375
0.0965,-20.690185546875,18.267822265625,1.531494140625
0.097,-22.051513671875,16.145751953125,4.974853515625
0.0975,-22.732177734375,13.062744140625,8.618408203125
0.098,-22.171630859375,8.618408203125,12.582275390625
0.0985,-21.611083984375,4.334228515625,16.305908203125
0.099,-20.770263671875,0.810791015625,18.948486328125
0.0995,-18.648193359375,-3.553466796875,21.190673828125
0.1,-16.125732421875,-7.076904296875,22.271728515625
0.1005,-12.322021484375,-10.760498046875,22.351806640625
0.101,-7.997802734375,-14.604248046875,21.951416015625
0.1015,-2.872802734375,-18.287841796875,20.790283203125
0.102,1.611572265625,-20.449951171875,18.748291015625
0.1025,5.415283203125,-21.931396484375,16.666259765625
0.103,9.018798828125,-22.572021484375,14.023681640625
0.1035,13.062744140625,-21.931396484375,9.419189453125
0.104,16.586181640625,-21.290771484375,5.415283203125
0.1045,19.509033203125,-20.209716796875,1.451416015625
0.105,21.631103515625,-17.807373046875,-3.153076171875
0.1055,22.552001953125,-15.405029296875,-6.396240234375
0.106,22.712158203125,-11.681396484375,-10.119873046875
0.1065,22.151611328125,-7.357177734375,-13.923583984375
0.107,21.350830078125,-3.072998046875,-17.366943359375
0.1075,19.869384765625,0.610595703125,-19.569091796875
0.108,17.867431640625,4.614501953125,-21.531005859375
0.1085,14.944580078125,8.177978515625,-22.291748046875
0.109,10.420166015625,12.021728515625,-21.811279296875
0.1095,6.216064453125,15.745361328125,-21.490966796875
0.11,1.571533203125,18.908447265625,-20.289794921875
0.1105,-3.113037109375,20.790283203125,-17.807373046875
0.111,-6.396240234375,21.911376953125,-15.885498046875
0.1115,-9.999755859375,22.271728515625,-12.802490234375
0.112,-13.963623046875,21.510986328125,-8.318115234375
0.1125,-17.326904296875,20.670166015625,-4.194091796875
0.113,-19.849365234375,19.228759765625,-0.390380859375
0.1135,-21.771240234375,16.866455078125,3.933837890625
0.114,-22.371826171875,14.143798828125,7.177001953125
0.1145,-22.171630859375,10.099853515625,11.100830078125
0.115,-21.731201171875,6.015869140625,14.744384765625
0.1155,-21.010498046875,2.052001953125,17.947509765625
0.116,-19.048583984375,-1.951904296875,19.989501953125
0.1165,-17.046630859375,-5.475341796875,21.591064453125
0.117,-14.003662109375,-9.038818359375,22.191650390625
0.1175,-9.279052734375,-12.882568359375,21.470947265625
0.118,-4.954833984375,-16.446044921875,20.910400390625
0.1185,-0.630615234375,-19.168701171875,19.549072265625
0.119,4.013916015625,-21.010498046875,17.146728515625
0.1195,7.096923828125,-21.771240234375,14.984619140625
0.12,10.860595703125,-21.811279296875,11.421142578125
0.1205,14.744384765625,-21.250732421875,7.056884765625
0.121,17.947509765625,-20.369873046875,3.133056640625
0.1215,20.149658203125,-18.568115234375,-0.950927734375
0.122,21.831298828125,-16.365966796875,-4.674560546875
0.1225,22.111572265625,-13.162841796875,-8.117919921875
0.123,21.791259765625,-8.838623046875,-12.121826171875
0.1235,21.350830078125,-4.954833984375,-15.525146484375
0.124,20.550048828125,-1.271240234375,-18.447998046875
0.1245,18.307861328125,3.052978515625,-20.449951171875
0.125,16.065673828125,6.376220703125,-21.611083984375
0.1255,12.542236328125,10.099853515625,-21.971435546875
0.126,7.657470703125,14.183837890625,-21.290771484375
0.1265,3.373291015625,17.427001953125,-20.530029296875
0.127,-1.031005859375,19.829345703125,-18.768310546875
0.1275,-5.195068359375,21.631103515625,-16.686279296875
0.128,-8.478271484375,21.951416015625,-13.963623046875
0.1285,-12.442138671875,21.791259765625,-10.039794921875
0.129,-16.205810546875,21.110595703125,-5.755615234375
0.1295,-19.128662109375,19.949462890625,-1.791748046875
0.13,-21.130615234375,17.747314453125,2.492431640625
0.1305,-22.531982421875,15.505126953125,6.095947265625
0.131,-22.572021484375,11.781494140625,9.779541015625
0.1315,-22.131591796875,7.177001953125,13.943603515625
0.132,-21.490966796875,3.333251953125,17.146728515625
0.1325,-20.249755859375,-0.630615234375,19.789306640625
0.133,-17.967529296875,-4.834716796875,21.831298828125
0.1335,-15.124755859375,-8.117919921875,22.351806640625
0.134,-11.200927734375,-12.001708984375,22.431884765625
0.1345,-6.115966796875,-16.165771484375,21.751220703125
0.135,-1.631591796875,-19.048583984375,20.429931640625
0.1355,2.772705078125,-20.970458984375,18.227783203125
0.136,6.656494140625,-22.572021484375,16.185791015625
0.1365,10.219970703125,-22.451904296875,12.662353515625
0.137,14.183837890625,-21.931396484375,8.298095703125
0.1375,17.747314453125,-21.330810546875,4.214111328125
0.138,20.429931640625,-19.609130859375,0.010009765625
0.1385,22.231689453125,-17.246826171875,-4.154052734375
0.139,22.872314453125,-14.444091796875,-7.557373046875
0.1395,22.792236328125,-10.520263671875,-11.401123046875
0.14,22.151611328125,-5.715576171875,-15.605224609375
0.1405,21.270751953125,-2.072021484375,-18.327880859375
0.141,19.509033203125,1.931884765625,-20.489990234375
0.1415,17.266845703125,6.055908203125,-22.451904296875
0.142,13.503173828125,9.499267578125,-22.251708984375
0.1425,9.379150390625,13.302978515625,-22.091552734375
0.143,4.534423828125,17.306884765625,-21.490966796875
0.1435,-0.150146484375,19.909423828125,-19.729248046875
0.144,-4.234130859375,21.470947265625,-17.447021484375
0.1445,-7.757568359375,22.592041015625,-15.284912109375
0.145,-11.521240234375,22.351806640625,-11.441162109375
0.1455,-15.565185546875,21.470947265625,-6.756591796875
0.146,-18.528076171875,20.790283203125,-3.153076171875
0.1465,-20.930419921875,18.748291015625,1.291259765625
0.147,-22.612060546875,16.385986328125,5.255126953125
0.1475,-22.652099609375,12.942626953125,8.658447265625
0.148,-22.572021484375,8.978759765625,12.542236328125
0.1485,-21.931396484375,4.374267578125,16.546142578125
0.149,-20.810302734375,0.610595703125,19.228759765625
0.1495,-18.728271484375,-3.273193359375,20.950439453125
0.15,-16.606201171875,-7.076904296875,22.712158203125
0.1505,-12.482177734375,-10.640380859375,22.311767578125
0.151,-7.837646484375,-14.604248046875,21.791259765625
0.1515,-3.593505859375,-17.887451171875,21.110595703125
0.152,1.291259765625,-20.369873046875,18.988525390625
0.1525,5.295166015625,-21.891357421875,16.786376953125
0.153,8.618408203125,-22.331787109375,14.023681640625
0.1535,12.502197265625,-22.251708984375,10.219970703125
0.154,16.626220703125,-21.290771484375,5.295166015625
0.1545,19.228759765625,-20.129638671875,1.731689453125
0.155,21.190673828125,-18.087646484375,-2.312255859375
0.1555,22.752197265625,-15.725341796875,-6.115966796875
0.156,22.351806640625,-11.801513671875,-9.679443359375
0.1565,22.111572265625,-7.717529296875,-13.563232421875
0.157,21.591064453125,-3.673583984375,-17.006591796875
0.1575,20.149658203125,0.490478515625,-19.609130859375
0.158,17.787353515625,4.334228515625,-21.210693359375
0.1585,15.224853515625,7.817626953125,-22.251708984375
0.159,11.060791015625,11.661376953125,-22.091552734375
0.1595,5.815673828125,15.945556640625,-21.290771484375
0.16,2.092041015625,18.548095703125,-20.409912109375
0.1605,-2.592529296875,20.670166015625,-18.247802734375
0.161,-6.436279296875,22.151611328125,-16.165771484375
0.1615,-9.959716796875,21.911376953125,-12.602294921875
0.162,-13.683349609375,21.831298828125,-8.838623046875
0.1625,-17.567138671875,20.990478515625,-4.274169921875
0.163,-20.009521484375,19.228759765625,-0.150146484375
0.1635,-21.571044921875,17.106689453125,3.573486328125
0.164,-22.692138671875,14.464111328125,7.297119140625
0.1645,-22.291748046875,10.260009765625,11.020751953125
0.165,-21.851318359375,5.775634765625,15.064697265625
0.1655,-21.210693359375,2.292236328125,17.907470703125
0.166,-19.489013671875,-1.911865234375,20.349853515625
0.1665,-17.126708984375,-5.755615234375,21.911376953125
0.167,-13.803466796875,-9.118896484375,22.071533203125
0.1675,-9.919677734375,-12.882568359375,22.071533203125
0.168,-4.514404296875,-17.126708984375,21.110595703125
0.1685,-0.310302734375,-19.448974609375,19.509033203125
0.169,3.693603515625,-21.130615234375,17.427001953125
0.1695,7.497314453125,-22.451904296875,15.184814453125
0.17,11.260986328125,-21.771240234375,10.980712890625
0.1705,14.984619140625,-21.290771484375,7.016845703125
0.171,18.187744140625,-20.570068359375,3.173095703125
0.1715,20.469970703125,-18.447998046875,-1.271240234375
0.172,21.751220703125,-16.325927734375,-4.634521484375
0.1725,22.151611328125,-13.082763671875,-8.238037109375
0.173,21.911376953125,-9.158935546875,-11.881591796875
0.1735,21.270751953125,-4.514404296875,-15.885498046875
0.174,20.309814453125,-1.191162109375,-18.247802734375
0.1745,18.468017578125,2.692626953125,-20.249755859375
0.175,16.145751953125,6.536376953125,-21.811279296875
0.1755,11.901611328125,10.099853515625,-21.290771484375
0.176,7.977783203125,13.783447265625,-21.250732421875
0.1765,3.373291015625,17.346923828125,-20.489990234375
0.177,-1.271240234375,19.589111328125,-18.367919921875
0.1775,-4.634521484375,20.870361328125,-16.526123046875
0.178,-8.238037109375,21.791259765625,-13.963623046875
0.1785,-12.001708984375,21.310791015625,-9.919677734375
0.179,-15.805419921875,20.469970703125,-5.435302734375
0.1795,-18.367919921875,19.589111328125,-2.072021484375
0.18,-20.369873046875,17.507080078125,1.971923828125
0.1805,-21.611083984375,15.224853515625,5.455322265625
0.181,-21.450927734375,11.461181640625,9.058837890625
