wavelength,x,y,z
0.0,-2.592529296875,-4.594482421875,7.136962890625
0.0005,-1.551513671875,-5.195068359375,6.656494140625
0.001,-0.310302734375,-6.115966796875,6.256103515625
0.0015,1.010986328125,-6.476318359375,5.335205078125
0.002,2.292236328125,-6.836669921875,4.454345703125
0.0025,3.853759765625,-7.116943359375,3.133056640625
0.003,5.335205078125,-7.437255859375,1.971923828125
0.0035,5.615478515625,-6.556396484375,0.730712890625
0.004,6.456298828125,-6.476318359375,-0.270263671875
0.0045,6.296142578125,-5.155029296875,-1.471435546875
0.005,6.656494140625,-4.514404296875,-2.432373046875
0.0055,6.816650390625,-3.153076171875,-4.033935546875
0.006,6.656494140625,-2.192138671875,-4.794677734375
0.0065,5.935791015625,-0.670654296875,-5.595458984375
0.007,5.255126953125,0.610595703125,-6.075927734375
0.0075,4.134033203125,1.971923828125,-6.316162109375
0.008,3.373291015625,3.173095703125,-6.716552734375
0.0085,2.252197265625,4.734619140625,-7.116943359375
0.009,1.091064453125,5.175048828125,-6.356201171875
0.0095,0.010009765625,6.216064453125,-6.316162109375
0.01,-1.431396484375,6.416259765625,-5.034912109375
0.0105,-2.712646484375,7.056884765625,-4.394287109375
0.011,-4.354248046875,7.337158203125,-2.952880859375
0.0115,-5.515380859375,7.497314453125,-1.951904296875
0.012,-5.915771484375,6.656494140625,-0.710693359375
0.0125,-6.676513671875,6.576416015625,0.250244140625
0.013,-6.676513671875,5.295166015625,1.571533203125
0.0135,-6.996826171875,4.534423828125,2.612548828125
0.014,-7.357177734375,3.213134765625,4.294189453125
0.0145,-6.796630859375,2.052001953125,4.974853515625
0.015,-6.316162109375,0.610595703125,5.855712890625
0.0155,-5.395263671875,-0.790771484375,6.256103515625
0.016,-4.394287109375,-2.272216796875,6.656494140625
0.0165,-3.353271484375,-3.633544921875,6.936767578125
0.017,-2.112060546875,-5.155029296875,7.177001953125
0.0175,-0.790771484375,-5.595458984375,6.135986328125
0.018,0.290283203125,-6.556396484375,6.216064453125
0.0185,1.971923828125,-6.676513671875,4.534423828125
0.019,3.173095703125,-7.197021484375,3.853759765625
0.0195,4.894775390625,-7.437255859375,2.372314453125
0.02,5.815673828125,-7.237060546875,1.251220703125
0.0205,6.216064453125,-6.396240234375,0.010009765625
0.021,6.656494140625,-5.995849609375,-0.990966796875
0.0215,6.696533203125,-4.554443359375,-2.512451171875
0.022,6.856689453125,-3.713623046875,-3.473388671875
0.0225,7.177001953125,-2.352294921875,-5.114990234375
0.023,6.216064453125,-0.990966796875,-5.555419921875
0.0235,5.735595703125,0.450439453125,-6.356201171875
0.024,4.454345703125,1.931884765625,-6.516357421875
0.0245,3.493408203125,3.213134765625,-6.916748046875
0.025,2.412353515625,4.494384765625,-6.996826171875
0.0255,1.211181640625,5.775634765625,-7.076904296875
0.026,-0.270263671875,6.095947265625,-5.915771484375
0.0265,-1.271240234375,6.976806640625,-5.755615234375
0.027,-3.113037109375,7.056884765625,-3.993896484375
0.0275,-4.073974609375,7.417236328125,-3.353271484375
0.028,-5.635498046875,7.617431640625,-1.951904296875
0.0285,-6.196044921875,7.056884765625,-0.790771484375
0.029,-6.636474609375,6.416259765625,0.370361328125
0.0295,-6.876708984375,5.695556640625,1.411376953125
0.03,-7.036865234375,4.414306640625,2.852783203125
0.0305,-7.036865234375,3.493408203125,3.773681640625
0.031,-7.237060546875,2.252197265625,5.175048828125
0.0315,-6.115966796875,0.770751953125,5.495361328125
0.032,-5.835693359375,-0.470458984375,6.376220703125
0.0325,-4.314208984375,-2.112060546875,6.376220703125
0.033,-3.673583984375,-3.273193359375,6.896728515625
0.0335,-2.432373046875,-4.554443359375,6.856689453125
0.034,-1.271240234375,-5.435302734375,6.656494140625
0.0345,0.050048828125,-5.835693359375,5.735595703125
0.035,1.131103515625,-6.556396484375,5.375244140625
0.0355,2.932861328125,-6.756591796875,3.733642578125
0.036,3.813720703125,-7.076904296875,3.173095703125
0.0365,5.295166015625,-7.237060546875,1.731689453125
0.037,5.615478515625,-6.516357421875,0.690673828125
0.0375,6.216064453125,-6.115966796875,-0.390380859375
0.038,6.376220703125,-5.155029296875,-1.551513671875
0.0385,6.656494140625,-4.114013671875,-2.832763671875
0.039,6.656494140625,-3.113037109375,-3.833740234375
0.0395,6.736572265625,-1.951904296875,-5.114990234375
0.04,5.575439453125,-0.430419921875,-5.435302734375
0.0405,5.375244140625,0.690673828125,-6.276123046875
0.041,3.773681640625,2.492431640625,-6.396240234375
0.0415,3.253173828125,3.533447265625,-6.956787109375
0.042,1.971923828125,4.854736328125,-6.956787109375
0.0425,0.770751953125,5.695556640625,-6.476318359375
0.043,-0.590576171875,6.256103515625,-5.755615234375
0.0435,-1.951904296875,6.936767578125,-5.034912109375
0.044,-3.753662109375,7.217041015625,-3.553466796875
0.0445,-4.594482421875,7.417236328125,-2.832763671875
0.045,-6.035888671875,7.537353515625,-1.471435546875
0.0455,-6.276123046875,6.656494140625,-0.310302734375
0.046,-6.876708984375,6.256103515625,0.770751953125
0.0465,-7.076904296875,4.854736328125,2.412353515625
0.047,-7.317138671875,3.893798828125,3.573486328125
0.0475,-7.076904296875,2.612548828125,4.654541015625
0.048,-7.036865234375,1.451416015625,5.775634765625
0.0485,-5.635498046875,-0.390380859375,6.055908203125
0.049,-5.275146484375,-1.591552734375,6.816650390625
0.0495,-3.393310546875,-3.593505859375,6.976806640625
0.05,-2.752685546875,-4.434326171875,7.177001953125
0.0505,-1.311279296875,-5.675537109375,6.896728515625
0.051,0.010009765625,-6.276123046875,6.216064453125
0.0515,1.291259765625,-6.716552734375,5.375244140625
0.052,2.892822265625,-7.237060546875,4.214111328125
0.0525,4.614501953125,-7.477294921875,2.732666015625
0.053,5.295166015625,-7.237060546875,1.771728515625
0.0535,6.456298828125,-7.156982421875,0.530517578125
0.054,6.456298828125,-6.035888671875,-0.790771484375
0.0545,6.896728515625,-5.515380859375,-1.671630859375
0.055,6.936767578125,-3.873779296875,-3.433349609375
0.0555,7.056884765625,-3.032958984375,-4.394287109375
0.056,6.616455078125,-1.591552734375,-5.355224609375
0.0565,6.296142578125,-0.470458984375,-6.196044921875
0.057,4.814697265625,1.291259765625,-6.356201171875
0.0575,4.334228515625,2.372314453125,-6.956787109375
0.058,2.612548828125,4.334228515625,-7.076904296875
0.0585,2.052001953125,4.974853515625,-7.076904296875
0.059,0.570556640625,6.176025390625,-6.756591796875
0.0595,-0.790771484375,6.616455078125,-5.915771484375
0.06,-1.991943359375,7.096923828125,-5.114990234375
0.0605,-3.673583984375,7.457275390625,-3.793701171875
0.061,-5.155029296875,7.817626953125,-2.632568359375
0.0615,-5.835693359375,7.377197265625,-1.511474609375
0.062,-6.796630859375,7.257080078125,-0.390380859375
0.0625,-6.836669921875,6.095947265625,0.970947265625
0.063,-7.317138671875,5.615478515625,1.931884765625
0.0635,-7.397216796875,3.853759765625,3.733642578125
0.064,-7.477294921875,3.093017578125,4.574462890625
0.0645,-6.996826171875,1.491455078125,5.615478515625
0.065,-6.436279296875,0.210205078125,6.376220703125
0.0655,-5.114990234375,-1.551513671875,6.656494140625
0.066,-4.354248046875,-2.752685546875,7.096923828125
0.0665,-2.832763671875,-4.594482421875,7.377197265625
0.067,-1.911865234375,-5.195068359375,7.056884765625
0.0675,-0.510498046875,-6.396240234375,6.736572265625
0.068,0.930908203125,-6.716552734375,5.695556640625
0.0685,2.212158203125,-7.237060546875,4.934814453125
0.069,4.053955078125,-7.517333984375,3.333251953125
0.0695,5.495361328125,-7.837646484375,2.212158203125
0.07,6.095947265625,-7.076904296875,0.850830078125
0.0705,6.936767578125,-6.916748046875,-0.310302734375
0.071,6.856689453125,-5.515380859375,-1.631591796875
0.0715,7.177001953125,-4.914794921875,-2.592529296875
0.072,7.337158203125,-3.193115234375,-4.474365234375
0.0725,7.096923828125,-2.272216796875,-5.235107421875
0.073,6.456298828125,-0.670654296875,-6.156005859375
0.0735,5.615478515625,0.810791015625,-6.676513671875
0.074,4.374267578125,2.292236328125,-6.876708984375
0.0745,3.413330078125,3.653564453125,-7.197021484375
0.075,2.052001953125,5.415283203125,-7.557373046875
0.0755,0.890869140625,5.855712890625,-6.796630859375
0.076,-0.510498046875,6.936767578125,-6.556396484375
0.0765,-1.831787109375,7.056884765625,-5.275146484375
0.077,-3.072998046875,7.617431640625,-4.514404296875
0.0775,-4.954833984375,7.817626953125,-2.832763671875
0.078,-6.196044921875,7.977783203125,-1.751708984375
0.0785,-6.636474609375,7.056884765625,-0.350341796875
0.079,-7.357177734375,6.856689453125,0.690673828125
0.0795,-7.197021484375,5.455322265625,1.931884765625
0.08,-7.437255859375,4.614501953125,3.052978515625
0.0805,-7.717529296875,3.052978515625,4.814697265625
0.081,-7.197021484375,1.891845703125,5.415283203125
0.0815,-6.676513671875,0.490478515625,6.416259765625
0.082,-5.595458984375,-1.111083984375,6.696533203125
0.0825,-4.554443359375,-2.472412109375,7.056884765625
0.083,-3.353271484375,-3.913818359375,7.257080078125
0.0835,-2.112060546875,-5.475341796875,7.577392578125
0.084,-0.750732421875,-5.875732421875,6.536376953125
0.0845,0.410400390625,-6.916748046875,6.456298828125
0.085,1.931884765625,-6.916748046875,4.934814453125
0.0855,3.133056640625,-7.557373046875,4.214111328125
0.086,5.094970703125,-7.717529296875,2.532470703125
0.0865,6.055908203125,-7.637451171875,1.371337890625
0.087,6.536376953125,-6.756591796875,0.010009765625
0.0875,7.016845703125,-6.396240234375,-0.990966796875
0.088,7.016845703125,-5.034912109375,-2.272216796875
0.0885,7.096923828125,-4.073974609375,-3.393310546875
0.089,7.497314453125,-2.712646484375,-5.155029296875
0.0895,6.616455078125,-1.311279296875,-5.635498046875
0.09,6.216064453125,0.170166015625,-6.596435546875
0.0905,4.854736328125,1.571533203125,-6.676513671875
0.091,4.013916015625,2.932861328125,-7.116943359375
0.0915,2.692626953125,4.454345703125,-7.277099609375
0.092,1.571533203125,5.855712890625,-7.517333984375
0.0925,0.090087890625,6.256103515625,-6.356201171875
0.093,-0.990966796875,7.177001953125,-6.276123046875
0.0935,-2.672607421875,7.257080078125,-4.594482421875
0.094,-3.833740234375,7.737548828125,-3.873779296875
0.0945,-5.755615234375,8.017822265625,-2.272216796875
0.095,-6.476318359375,7.617431640625,-1.031005859375
0.0955,-7.036865234375,6.936767578125,0.290283203125
0.096,-7.357177734375,6.256103515625,1.291259765625
0.0965,-7.517333984375,4.934814453125,2.692626953125
0.097,-7.517333984375,3.813720703125,3.853759765625
0.0975,-7.837646484375,2.492431640625,5.575439453125
0.098,-6.716552734375,0.970947265625,5.935791015625
0.0985,-6.436279296875,-0.470458984375,6.976806640625
0.099,-4.834716796875,-2.112060546875,6.976806640625
0.0995,-3.993896484375,-3.473388671875,7.417236328125
0.1,-2.552490234375,-4.954833984375,7.457275390625
0.1005,-1.231201171875,-6.156005859375,7.337158203125
0.101,0.290283203125,-6.556396484375,6.216064453125
0.1015,1.331298828125,-7.357177734375,5.895751953125
0.102,3.293212890625,-7.437255859375,4.013916015625
0.1025,4.334228515625,-7.717529296875,3.213134765625
0.103,6.095947265625,-7.917724609375,1.611572265625
0.1035,6.536376953125,-7.116943359375,0.370361328125
0.104,7.056884765625,-6.516357421875,-0.830810546875
0.1045,7.136962890625,-5.555419921875,-1.991943359375
0.105,7.217041015625,-4.234130859375,-3.393310546875
0.1055,7.177001953125,-3.072998046875,-4.514404296875
0.106,7.337158203125,-1.751708984375,-5.915771484375
0.1065,6.015869140625,-0.150146484375,-6.196044921875
0.107,5.655517578125,1.131103515625,-6.996826171875
0.1075,3.893798828125,2.852783203125,-6.956787109375
0.108,3.173095703125,4.013916015625,-7.357177734375
0.1085,1.891845703125,5.415283203125,-7.397216796875
0.109,0.490478515625,6.376220703125,-6.916748046875
0.1095,-0.830810546875,6.776611328125,-6.035888671875
0.11,-2.072021484375,7.377197265625,-5.355224609375
0.1105,-3.873779296875,7.577392578125,-3.713623046875
0.111,-4.794677734375,7.737548828125,-2.912841796875
0.1115,-6.356201171875,7.897705078125,-1.471435546875
0.112,-6.596435546875,6.976806640625,-0.310302734375
0.1125,-7.237060546875,6.536376953125,0.810791015625
0.113,-7.277099609375,5.255126953125,2.212158203125
0.1135,-7.517333984375,4.254150390625,3.493408203125
0.114,-7.397216796875,3.012939453125,4.614501953125
0.1145,-7.437255859375,1.811767578125,5.815673828125
0.115,-6.115966796875,0.130126953125,6.135986328125
0.1155,-5.835693359375,-1.151123046875,7.056884765625
0.116,-3.993896484375,-3.072998046875,7.056884765625
0.1165,-3.353271484375,-4.073974609375,7.377197265625
0.117,-1.871826171875,-5.515380859375,7.337158203125
0.1175,-0.550537109375,-6.276123046875,6.696533203125
0.118,0.810791015625,-6.836669921875,5.935791015625
0.1185,2.332275390625,-7.397216796875,4.934814453125
0.119,4.134033203125,-7.637451171875,3.373291015625
0.1195,5.054931640625,-7.677490234375,2.492431640625
0.12,6.416259765625,-7.797607421875,0.970947265625
0.1205,6.576416015625,-6.636474609375,-0.310302734375
0.121,7.177001953125,-6.236083984375,-1.311279296875
0.1215,7.257080078125,-4.554443359375,-2.992919921875
0.122,7.377197265625,-3.593505859375,-4.154052734375
0.1225,7.136962890625,-2.192138671875,-5.275146484375
0.123,6.896728515625,-0.910888671875,-6.356201171875
0.1235,5.415283203125,0.930908203125,-6.556396484375
0.124,4.974853515625,2.092041015625,-7.237060546875
0.1245,3.052978515625,4.134033203125,-7.317138671875
0.125,2.452392578125,4.974853515625,-7.477294921875
0.1255,0.890869140625,6.296142578125,-7.197021484375
0.126,-0.590576171875,6.856689453125,-6.356201171875
0.1265,-1.871826171875,7.337158203125,-5.515380859375
0.127,-3.513427734375,7.737548828125,-4.234130859375
0.1275,-5.155029296875,7.977783203125,-2.832763671875
0.128,-5.795654296875,7.817626953125,-1.751708984375
0.1285,-7.076904296875,7.577392578125,-0.510498046875
0.129,-7.076904296875,6.376220703125,0.930908203125
0.1295,-7.517333984375,5.895751953125,1.851806640625
0.13,-7.557373046875,4.134033203125,3.653564453125
0.1305,-7.677490234375,3.253173828125,4.614501953125
0.131,-7.197021484375,1.731689453125,5.655517578125
0.1315,-6.796630859375,0.490478515625,6.456298828125
0.132,-5.355224609375,-1.311279296875,6.736572265625
0.1325,-4.754638671875,-2.512451171875,7.297119140625
0.133,-2.952880859375,-4.474365234375,7.417236328125
0.1335,-2.232177734375,-5.155029296875,7.297119140625
0.134,-0.710693359375,-6.396240234375,6.976806640625
0.1345,0.730712890625,-6.756591796875,5.975830078125
0.135,1.931884765625,-7.277099609375,5.215087890625
0.1355,3.733642578125,-7.557373046875,3.733642578125
0.136,5.094970703125,-7.997802734375,2.532470703125
0.1365,5.895751953125,-7.437255859375,1.291259765625
0.137,6.896728515625,-7.237060546875,0.170166015625
0.1375,6.856689453125,-5.915771484375,-1.271240234375
0.138,7.297119140625,-5.435302734375,-2.192138671875
0.1385,7.337158203125,-3.553466796875,-4.073974609375
0.139,7.337158203125,-2.792724609375,-4.874755859375
0.1395,6.736572265625,-1.191162109375,-5.915771484375
0.14,6.095947265625,0.250244140625,-6.556396484375
0.1405,4.774658203125,1.851806640625,-6.796630859375
0.141,3.973876953125,3.093017578125,-7.197021484375
0.1415,2.492431640625,4.934814453125,-7.517333984375
0.142,1.571533203125,5.455322265625,-7.116943359375
0.1425,0.130126953125,6.696533203125,-6.796630859375
0.143,-1.311279296875,6.976806640625,-5.715576171875
0.1435,-2.552490234375,7.537353515625,-4.994873046875
0.144,-4.354248046875,7.697509765625,-3.353271484375
0.1445,-5.715576171875,7.977783203125,-2.312255859375
0.145,-6.356201171875,7.177001953125,-1.071044921875
0.1455,-7.116943359375,7.096923828125,0.170166015625
0.146,-7.116943359375,5.815673828125,1.531494140625
0.1465,-7.477294921875,5.175048828125,2.532470703125
0.147,-7.637451171875,3.533447265625,4.334228515625
0.1475,-7.397216796875,2.532470703125,5.054931640625
0.148,-6.916748046875,1.010986328125,6.095947265625
0.1485,-5.955810546875,-0.510498046875,6.576416015625
0.149,-4.874755859375,-1.991943359375,6.936767578125
0.1495,-3.793701171875,-3.393310546875,7.217041015625
0.15,-2.512451171875,-5.074951171875,7.537353515625
0.1505,-1.271240234375,-5.595458984375,6.776611328125
0.151,0.010009765625,-6.716552734375,6.656494140625
0.1515,1.451416015625,-6.796630859375,5.255126953125
0.152,2.652587890625,-7.517333984375,4.614501953125
0.1525,4.614501953125,-7.677490234375,2.852783203125
0.153,5.735595703125,-7.717529296875,1.891845703125
0.1535,6.296142578125,-6.916748046875,0.410400390625
0.154,6.936767578125,-6.636474609375,-0.670654296875
0.1545,6.896728515625,-5.275146484375,-1.951904296875
0.155,7.096923828125,-4.434326171875,-3.072998046875
0.1555,7.417236328125,-2.912841796875,-4.794677734375
0.156,6.816650390625,-1.791748046875,-5.355224609375
0.1565,6.376220703125,-0.310302734375,-6.396240234375
0.157,5.094970703125,1.291259765625,-6.556396484375
0.1575,4.294189453125,2.532470703125,-6.996826171875
0.158,2.972900390625,4.053955078125,-7.156982421875
0.1585,1.931884765625,5.495361328125,-7.517333984375
0.159,0.530517578125,5.895751953125,-6.476318359375
0.1595,-0.630615234375,6.976806640625,-6.396240234375
0.16,-2.072021484375,6.976806640625,-4.874755859375
0.1605,-3.313232421875,7.537353515625,-4.234130859375
0.161,-5.235107421875,7.697509765625,-2.592529296875
0.1615,-6.115966796875,7.657470703125,-1.511474609375
0.162,-6.676513671875,6.896728515625,-0.190185546875
0.1625,-7.076904296875,6.416259765625,0.850830078125
0.163,-7.197021484375,5.255126953125,2.092041015625
0.1635,-7.317138671875,4.174072265625,3.253173828125
0.164,-7.717529296875,2.972900390625,4.934814453125
0.1645,-6.756591796875,1.611572265625,5.415283203125
0.165,-6.556396484375,0.250244140625,6.456298828125
0.1655,-5.155029296875,-1.351318359375,6.576416015625
0.166,-4.474365234375,-2.592529296875,7.096923828125
0.1665,-3.032958984375,-4.194091796875,7.177001953125
0.167,-1.951904296875,-5.475341796875,7.337158203125
0.1675,-0.470458984375,-5.915771484375,6.296142578125
0.168,0.610595703125,-6.956787109375,6.176025390625
0.1685,2.252197265625,-7.036865234375,4.614501953125
0.169,3.493408203125,-7.557373046875,3.853759765625
0.1695,5.455322265625,-7.797607421875,2.212158203125
0.17,6.095947265625,-7.317138671875,1.010986328125
0.1705,6.736572265625,-6.756591796875,-0.310302734375
0.171,6.976806640625,-5.955810546875,-1.351318359375
0.1715,7.096923828125,-4.794677734375,-2.672607421875
0.172,7.177001953125,-3.593505859375,-3.913818359375
0.1725,7.537353515625,-2.312255859375,-5.515380859375
0.173,6.336181640625,-0.670654296875,-5.915771484375
0.1735,6.055908203125,0.610595703125,-6.876708984375
0.174,4.454345703125,2.252197265625,-6.876708984375
0.1745,3.693603515625,3.533447265625,-7.357177734375
0.175,2.252197265625,5.175048828125,-7.477294921875
0.1755,0.930908203125,6.296142578125,-7.237060546875
0.176,-0.590576171875,6.656494140625,-6.236083984375
0.1765,-1.671630859375,7.417236328125,-5.835693359375
0.177,-3.553466796875,7.537353515625,-4.114013671875
0.1775,-4.594482421875,7.857666015625,-3.193115234375
0.178,-6.396240234375,8.137939453125,-1.671630859375
0.1785,-6.756591796875,7.177001953125,-0.390380859375
0.179,-7.357177734375,6.776611328125,0.770751953125
0.1795,-7.397216796875,5.615478515625,1.971923828125
0.18,-7.557373046875,4.454345703125,3.333251953125
0.1805,-7.517333984375,3.173095703125,4.534423828125
0.181,-7.637451171875,1.931884765625,5.935791015625
0.1815,-6.276123046875,0.250244140625,6.216064453125
0.182,-5.955810546875,-0.990966796875,7.056884765625
0.1825,-4.154052734375,-2.832763671875,7.016845703125
0.183,-3.473388671875,-3.873779296875,7.377197265625
0.1835,-1.991943359375,-5.395263671875,7.377197265625
0.184,-0.670654296875,-6.236083984375,6.776611328125
0.1845,0.610595703125,-6.716552734375,5.975830078125
0.185,1.931884765625,-7.277099609375,5.135009765625
0.1855,3.693603515625,-7.437255859375,3.653564453125
0.186,4.614501953125,-7.557373046875,2.772705078125
0.1865,6.176025390625,-7.717529296875,1.331298828125
0.187,6.336181640625,-6.676513671875,0.130126953125
0.1875,6.976806640625,-6.396240234375,-0.910888671875
0.188,6.976806640625,-4.994873046875,-2.312255859375
