wavelength,x,y,z
0.0,14.459106445312,-19.734252929688,5.8907470703125
0.0005,17.502075195312,-18.573120117188,1.8468017578125
0.001,19.904418945312,-16.931518554688,-2.2371826171875
0.0015,20.505004882812,-14.929565429688,-4.8397216796875
0.002,20.464965820312,-12.006713867188,-7.6424560546875
0.0025,20.304809570312,-8.6434326171875,-10.885620117188
0.003,19.423950195312,-3.9989013671875,-14.649291992188
0.0035,17.942504882812,0.4854736328125,-17.612182617188
0.004,16.340942382812,3.5684814453125,-19.133666992188
0.0045,14.258911132812,6.5313720703125,-20.134643554688
0.005,10.895629882812,9.5743408203125,-19.814331054688
0.0055,6.1710205078125,13.618286132812,-18.893432617188
0.006,1.4464111328125,16.781372070312,-17.972534179688
0.0065,-3.1180419921875,19.383911132812,-16.290893554688
0.007,-5.7606201171875,20.264770507812,-14.689331054688
0.0075,-8.6434326171875,20.625122070312,-12.407104492188
0.008,-11.646362304688,20.545043945312,-9.5242919921875
0.0085,-15.410034179688,19.343872070312,-4.6795654296875
0.009,-18.453002929688,17.782348632812,-0.2752685546875
0.0095,-20.414916992188,16.260864257812,3.1280517578125
0.01,-20.775268554688,14.098754882812,5.7305908203125
0.0105,-20.535034179688,10.935668945312,8.6534423828125
0.011,-20.054565429688,6.8116455078125,12.337036132812
0.0115,-19.173706054688,2.5274658203125,15.740356445312
0.012,-17.692260742188,-1.8768310546875,18.623168945312
0.0125,-15.730346679688,-4.7596435546875,19.584106445312
0.013,-13.448120117188,-7.6424560546875,20.304809570312
0.0135,-9.7645263671875,-10.965698242188,19.984497070312
0.014,-4.4793701171875,-14.769409179688,18.703247070312
0.0145,0.2452392578125,-17.932495117188,17.341918945312
0.015,4.0889892578125,-20.014526367188,15.860473632812
0.0155,6.7315673828125,-20.655151367188,14.098754882812
0.016,9.7745361328125,-20.695190429688,11.336059570312
0.0165,13.097778320312,-20.414916992188,7.8126220703125
0.017,16.501098632812,-19.173706054688,3.3682861328125
0.0175,19.343872070312,-17.492065429688,-1.2362060546875
0.018,20.344848632812,-15.650268554688,-3.9188232421875
0.0185,20.785278320312,-13.247924804688,-6.6815185546875
0.019,20.464965820312,-9.8846435546875,-9.7645263671875
0.0195,19.624145507812,-5.3201904296875,-13.488159179688
0.02,18.583129882812,-1.1961669921875,-16.651245117188
0.0205,17.141723632812,2.7677001953125,-19.093627929688
0.021,14.859497070312,5.6104736328125,-19.734252929688
0.0215,12.136840820312,8.5333251953125,-20.014526367188
0.022,7.9727783203125,12.296997070312,-19.734252929688
0.0225,2.8477783203125,15.860473632812,-18.332885742188
0.023,-1.8768310546875,18.743286132812,-16.731323242188
0.0235,-4.9998779296875,20.224731445312,-15.329956054688
0.024,-7.7225341796875,20.785278320312,-13.448120117188
0.0245,-10.765502929688,20.625122070312,-10.405151367188
0.025,-14.328979492188,19.824340820312,-6.2811279296875
0.0255,-17.652221679688,18.543090820312,-1.8768310546875
0.026,-20.094604492188,16.781372070312,2.4073486328125
0.0265,-20.655151367188,14.739379882812,4.9698486328125
0.027,-20.935424804688,12.096801757812,7.8927001953125
0.0275,-20.575073242188,8.2930908203125,11.376098632812
0.028,-19.574096679688,3.7286376953125,14.939575195312
0.0285,-18.252807617188,-0.5955810546875,17.902465820312
0.029,-16.651245117188,-4.1190185546875,19.864379882812
0.0295,-14.248901367188,-6.9217529296875,20.344848632812
0.03,-10.965698242188,-9.9647216796875,20.184692382812
0.0305,-6.4012451171875,-13.808471679688,19.544067382812
0.031,-1.2762451171875,-17.251831054688,18.062622070312
0.0315,3.2481689453125,-19.734252929688,16.340942382812
0.032,6.0108642578125,-20.655151367188,14.779418945312
0.0325,8.9337158203125,-21.135620117188,12.537231445312
0.033,12.176879882812,-20.775268554688,9.0938720703125
0.0335,15.620239257812,-19.734252929688,4.7296142578125
0.034,18.743286132812,-18.252807617188,0.2852783203125
0.0345,20.745239257812,-16.451049804688,-3.4783935546875
0.035,20.905395507812,-14.088745117188,-6.0008544921875
0.0355,20.985473632812,-11.085815429688,-9.0438232421875
0.036,20.424926757812,-6.8016357421875,-12.807495117188
0.0365,19.343872070312,-2.4373779296875,-16.170776367188
0.037,17.782348632812,1.8868408203125,-18.773315429688
0.0375,15.980590820312,4.9698486328125,-20.134643554688
0.038,13.418090820312,7.8927001953125,-20.535034179688
0.0385,9.3341064453125,11.416137695312,-20.134643554688
0.039,4.6495361328125,14.979614257812,-19.173706054688
0.0395,-0.4754638671875,18.342895507812,-17.692260742188
0.04,-4.4793701171875,20.424926757812,-16.010620117188
0.0405,-7.0819091796875,20.945434570312,-14.168823242188
0.041,-10.084838867188,21.185668945312,-11.766479492188
0.0415,-13.808471679688,20.585083007812,-7.6424560546875
0.042,-17.011596679688,19.383911132812,-3.1981201171875
0.0425,-19.854370117188,17.742309570312,1.2462158203125
0.043,-21.415893554688,15.860473632812,4.5694580078125
0.0435,-21.455932617188,13.177856445312,7.2921142578125
0.044,-21.415893554688,9.7344970703125,10.695434570312
0.0445,-20.575073242188,5.2100830078125,14.419067382812
0.045,-19.373901367188,0.6456298828125,17.822387695312
0.0455,-17.612182617188,-3.4383544921875,20.104614257812
0.046,-15.410034179688,-6.3612060546875,20.865356445312
0.0465,-12.647338867188,-9.4041748046875,21.265747070312
0.047,-7.7225341796875,-13.408081054688,20.464965820312
0.0475,-2.9178466796875,-16.651245117188,19.063598632812
0.048,2.0469970703125,-19.694213867188,17.462036132812
0.0485,5.7706298828125,-21.455932617188,15.740356445312
0.049,8.4532470703125,-21.616088867188,13.378051757812
0.0495,11.496215820312,-21.776245117188,10.735473632812
0.05,15.420043945312,-20.775268554688,5.9708251953125
0.0505,18.663208007812,-19.253784179688,1.4063720703125
0.051,20.985473632812,-17.452026367188,-2.7176513671875
0.0515,21.906372070312,-15.329956054688,-5.7205810546875
0.052,21.826293945312,-12.367065429688,-8.6033935546875
0.0525,21.465942382812,-8.0828857421875,-12.487182617188
0.053,20.344848632812,-3.8787841796875,-15.970581054688
0.0535,19.023559570312,0.8458251953125,-18.973510742188
0.054,17.021606445312,4.6094970703125,-20.815307617188
0.0545,14.298950195312,7.4522705078125,-21.015502929688
0.055,11.456176757812,10.575317382812,-21.295776367188
0.0555,5.8106689453125,14.899536132812,-20.214721679688
0.056,0.9259033203125,18.062622070312,-18.613159179688
0.0565,-3.4783935546875,20.464965820312,-16.971557617188
0.057,-6.7615966796875,21.786254882812,-15.249877929688
0.0575,-9.6444091796875,21.666137695312,-12.607299804688
0.058,-12.847534179688,21.505981445312,-9.3240966796875
0.0585,-16.571166992188,20.424926757812,-4.6795654296875
0.059,-19.854370117188,18.623168945312,0.2852783203125
0.0595,-21.536010742188,16.701293945312,3.8887939453125
0.06,-21.976440429688,14.338989257812,6.6915283203125
0.0605,-21.816284179688,11.456176757812,9.6544189453125
0.061,-21.415893554688,6.3712158203125,13.938598632812
0.0615,-19.974487304688,2.1270751953125,16.941528320312
0.062,-18.533081054688,-2.1571044921875,19.704223632812
0.0625,-16.531127929688,-5.7205810546875,21.305786132812
0.063,-13.448120117188,-8.4832763671875,21.105590820312
0.0635,-10.044799804688,-11.806518554688,21.065551757812
0.064,-4.6395263671875,-15.810424804688,19.864379882812
0.0645,0.7257080078125,-19.053588867188,18.062622070312
0.065,4.4893798828125,-20.855346679688,16.340942382812
0.0655,7.3721923828125,-21.816284179688,14.539184570312
0.066,10.415161132812,-21.776245117188,11.736450195312
0.0665,14.098754882812,-20.975463867188,7.5323486328125
0.067,17.261840820312,-19.894409179688,3.3682861328125
0.0675,20.184692382812,-18.132690429688,-1.2762451171875
0.068,21.505981445312,-16.130737304688,-4.5194091796875
0.0685,21.465942382812,-13.408081054688,-7.1219482421875
0.069,21.505981445312,-10.405151367188,-10.285034179688
0.0695,20.625122070312,-5.3201904296875,-14.489135742188
0.07,19.263793945312,-0.9158935546875,-17.572143554688
0.0705,17.662231445312,2.8477783203125,-19.654174804688
0.071,15.660278320312,6.1309814453125,-20.975463867188
0.0715,12.417114257812,9.0137939453125,-20.775268554688
0.072,8.0128173828125,12.817504882812,-20.254760742188
0.0725,3.3282470703125,16.300903320312,-19.093627929688
0.073,-1.9569091796875,19.463989257812,-17.411987304688
0.0735,-5.3201904296875,20.825317382812,-15.730346679688
0.074,-8.0428466796875,21.345825195312,-13.608276367188
0.0745,-10.965698242188,21.586059570312,-11.165893554688
0.075,-15.089721679688,20.464965820312,-6.0809326171875
0.0755,-18.252807617188,19.063598632812,-1.7166748046875
0.076,-20.655151367188,17.421997070312,2.2872314453125
0.0765,-21.696166992188,15.380004882812,5.3702392578125
0.077,-21.495971679688,12.296997070312,8.1729736328125
0.0775,-21.375854492188,8.6934814453125,11.696411132812
0.078,-20.454956054688,4.0089111328125,15.500122070312
0.0785,-18.973510742188,-0.7557373046875,18.783325195312
0.079,-17.011596679688,-4.1990966796875,20.344848632812
0.0795,-14.889526367188,-7.2020263671875,21.185668945312
0.08,-11.686401367188,-10.285034179688,21.145629882812
0.0805,-5.9207763671875,-14.569213867188,20.024536132812
0.081,-1.4364013671875,-17.732299804688,18.703247070312
0.0815,3.2081298828125,-20.494995117188,17.061645507812
0.082,6.4512939453125,-21.616088867188,15.259887695312
0.0825,9.4542236328125,-21.656127929688,12.497192382812
0.083,12.417114257812,-21.656127929688,9.7745361328125
0.0835,16.501098632812,-20.414916992188,4.6495361328125
0.084,19.704223632812,-18.653198242188,-0.2752685546875
0.0845,21.265747070312,-16.891479492188,-3.5584716796875
0.085,21.986450195312,-14.689331054688,-6.4412841796875
0.0855,21.666137695312,-11.406127929688,-9.3641357421875
0.086,21.105590820312,-6.8016357421875,-13.448120117188
0.0865,20.104614257812,-2.5975341796875,-16.651245117188
0.087,18.583129882812,2.0469970703125,-19.774291992188
0.0875,16.300903320312,5.4102783203125,-20.895385742188
0.088,13.578247070312,8.3331298828125,-21.135620117188
0.0885,10.214965820312,11.696411132812,-21.215698242188
0.089,4.2891845703125,15.980590820312,-19.814331054688
0.0895,-0.7957763671875,19.103637695312,-18.212768554688
0.09,-4.5994873046875,21.105590820312,-16.611206054688
0.0905,-7.6424560546875,22.066528320312,-14.729370117188
0.091,-10.845581054688,21.826293945312,-11.526245117188
0.0915,-14.168823242188,21.385864257812,-7.9627685546875
0.092,-17.772338867188,20.184692382812,-3.2781982421875
0.0925,-20.895385742188,18.142700195312,1.8468017578125
0.093,-21.896362304688,16.100708007812,4.8096923828125
0.0935,-22.256713867188,13.458129882812,7.7325439453125
0.094,-22.016479492188,10.214965820312,10.815551757812
0.0945,-21.055541992188,4.9698486328125,15.099731445312
0.095,-19.694213867188,0.6055908203125,18.142700195312
0.0955,-18.132690429688,-3.4783935546875,20.625122070312
0.096,-15.730346679688,-6.8016357421875,21.626098632812
0.0965,-12.367065429688,-9.8045654296875,21.305786132812
0.097,-8.4832763671875,-13.408081054688,21.105590820312
0.0975,-2.8778076171875,-17.331909179688,19.544067382812
0.098,2.5274658203125,-20.254760742188,17.582153320312
0.0985,5.6505126953125,-21.536010742188,15.940551757812
0.099,8.6934814453125,-22.256713867188,13.818481445312
0.0995,11.816528320312,-21.936401367188,10.615356445312
0.1,15.580200195312,-20.895385742188,6.0108642578125
0.1005,18.783325195312,-19.614135742188,1.6466064453125
0.101,21.385864257812,-17.652221679688,-2.8778076171875
0.1015,21.906372070312,-15.410034179688,-5.6405029296875
0.102,21.906372070312,-12.447143554688,-8.5633544921875
0.1025,21.626098632812,-8.9237060546875,-11.846557617188
0.103,20.464965820312,-3.8787841796875,-15.810424804688
0.1035,18.903442382812,0.7657470703125,-18.773315429688
0.104,17.221801757812,4.1690673828125,-20.575073242188
0.1045,14.859497070312,7.2520751953125,-21.335815429688
0.105,11.215942382812,10.335083007812,-20.895385742188
0.1055,6.3712158203125,14.258911132812,-20.214721679688
0.106,1.4063720703125,17.782348632812,-18.893432617188
0.1065,-3.5184326171875,20.464965820312,-16.971557617188
0.107,-6.2811279296875,21.305786132812,-15.209838867188
0.1075,-9.2840576171875,21.706176757812,-12.847534179688
0.108,-12.367065429688,21.465942382812,-9.7645263671875
0.1085,-16.210815429688,20.184692382812,-4.7596435546875
0.109,-19.293823242188,18.623168945312,-0.2352294921875
0.1095,-21.255737304688,16.821411132812,3.4884033203125
0.11,-21.776245117188,14.539184570312,6.2510986328125
0.1105,-21.495971679688,11.215942382812,9.2940673828125
0.111,-21.015502929688,7.1319580078125,12.937622070312
0.1115,-20.014526367188,2.6075439453125,16.501098632812
0.112,-18.332885742188,-2.0369873046875,19.423950195312
0.1125,-16.290893554688,-5.0799560546875,20.464965820312
0.113,-14.008666992188,-8.0428466796875,21.185668945312
0.1135,-10.124877929688,-11.406127929688,20.745239257812
0.114,-4.7996826171875,-15.289916992188,19.504028320312
0.1145,0.0850830078125,-18.493041992188,18.062622070312
0.115,4.2891845703125,-20.695190429688,16.380981445312
0.1155,7.0919189453125,-21.215698242188,14.459106445312
0.116,10.134887695312,-21.455932617188,11.656372070312
0.1165,13.418090820312,-21.095581054688,8.2130126953125
0.117,16.941528320312,-19.734252929688,3.4884033203125
0.1175,19.864379882812,-17.972534179688,-1.1561279296875
0.118,21.105590820312,-16.090698242188,-4.1590576171875
0.1185,21.465942382812,-13.608276367188,-6.9617919921875
0.119,21.105590820312,-10.204956054688,-10.084838867188
0.1195,20.304809570312,-5.6405029296875,-13.888549804688
0.12,19.223754882812,-1.3162841796875,-17.091674804688
0.1205,17.622192382812,2.8477783203125,-19.694213867188
0.121,15.299926757812,5.7305908203125,-20.294799804688
0.1215,12.577270507812,8.7335205078125,-20.695190429688
0.122,8.3331298828125,12.537231445312,-20.294799804688
0.1225,3.1280517578125,16.140747070312,-18.893432617188
0.123,-1.7166748046875,19.143676757812,-17.291870117188
0.1235,-5.1600341796875,20.825317382812,-15.530151367188
0.124,-7.9227294921875,21.265747070312,-13.648315429688
0.1245,-11.005737304688,21.145629882812,-10.765502929688
0.125,-14.609252929688,20.464965820312,-6.5614013671875
0.1255,-17.972534179688,19.143676757812,-2.0770263671875
0.126,-20.535034179688,17.301879882812,2.4073486328125
0.1265,-21.215698242188,15.179809570312,5.0899658203125
0.127,-21.495971679688,12.497192382812,8.0128173828125
0.1275,-21.135620117188,8.6534423828125,11.536254882812
0.128,-20.054565429688,4.0089111328125,15.139770507812
0.1285,-18.733276367188,-0.3953857421875,18.182739257812
0.129,-17.171752929688,-4.0789794921875,20.304809570312
0.1295,-14.689331054688,-7.0018310546875,20.665161132812
0.13,-11.526245117188,-9.9647216796875,20.665161132812
0.1305,-6.8016357421875,-13.848510742188,20.024536132812
0.131,-1.5565185546875,-17.331909179688,18.422973632812
0.1315,3.0479736328125,-19.854370117188,16.661254882812
0.132,6.0108642578125,-20.895385742188,15.099731445312
0.1325,8.8135986328125,-21.335815429688,12.817504882812
0.133,12.056762695312,-20.975463867188,9.4542236328125
0.1335,15.540161132812,-19.934448242188,5.0899658203125
0.134,18.703247070312,-18.533081054688,0.6456298828125
0.1345,20.745239257812,-16.651245117188,-3.1981201171875
0.135,20.905395507812,-14.328979492188,-5.7205810546875
0.1355,20.985473632812,-11.446166992188,-8.7235107421875
0.136,20.464965820312,-7.2420654296875,-12.407104492188
0.1365,19.383911132812,-2.8778076171875,-15.730346679688
0.137,17.902465820312,1.3663330078125,-18.453002929688
0.1375,16.100708007812,4.4893798828125,-19.894409179688
0.138,13.578247070312,7.4122314453125,-20.254760742188
0.1385,9.8946533203125,10.695434570312,-19.934448242188
0.139,5.2100830078125,14.338989257812,-19.093627929688
0.1395,0.2052001953125,17.742309570312,-17.652221679688
0.14,-3.8787841796875,19.864379882812,-15.970581054688
0.1405,-6.4012451171875,20.464965820312,-14.288940429688
0.141,-9.3240966796875,20.825317382812,-11.966674804688
0.1415,-12.807495117188,20.344848632812,-8.1629638671875
0.142,-16.050659179688,19.183715820312,-3.8787841796875
0.1425,-18.933471679688,17.662231445312,0.4454345703125
0.143,-20.535034179688,15.900512695312,3.7286376953125
0.1435,-20.695190429688,13.418090820312,6.1710205078125
0.144,-20.695190429688,10.214965820312,9.5343017578125
0.1445,-20.014526367188,5.8907470703125,13.217895507812
0.145,-18.933471679688,1.5264892578125,16.541137695312
0.1455,-17.411987304688,-2.5574951171875,18.943481445312
0.146,-15.450073242188,-5.2801513671875,19.864379882812
0.1465,-12.927612304688,-8.2030029296875,20.344848632812
0.147,-8.4031982421875,-12.006713867188,19.704223632812
0.1475,-3.7987060546875,-15.329956054688,18.543090820312
0.148,1.0059814453125,-18.453002929688,17.141723632812
0.1485,4.6495361328125,-20.254760742188,15.580200195312
0.149,7.2120361328125,-20.575073242188,13.578247070312
0.1495,10.134887695312,-20.855346679688,11.175903320312
0.15,14.058715820312,-20.134643554688,6.6915283203125
0.1505,17.221801757812,-18.853393554688,2.4073486328125
0.151,19.624145507812,-17.331909179688,-1.5965576171875
0.1515,20.545043945312,-15.450073242188,-4.4793701171875
0.152,20.825317382812,-12.727416992188,-7.2420654296875
0.1525,20.545043945312,-8.8436279296875,-10.925659179688
0.153,19.704223632812,-4.6795654296875,-14.248901367188
0.1535,18.583129882812,-0.2752685546875,-17.612182617188
0.154,16.901489257812,3.5284423828125,-19.614135742188
0.1545,14.499145507812,6.2510986328125,-20.014526367188
0.155,11.816528320312,9.2540283203125,-20.454956054688
0.1555,6.5313720703125,13.538208007812,-19.574096679688
0.156,1.8468017578125,16.741333007812,-18.212768554688
0.1565,-2.5174560546875,19.343872070312,-16.731323242188
0.157,-5.8006591796875,20.825317382812,-15.209838867188
0.1575,-8.4832763671875,20.865356445312,-12.807495117188
0.158,-11.646362304688,20.865356445312,-9.8045654296875
0.1585,-15.410034179688,19.984497070312,-5.3201904296875
0.159,-18.573120117188,18.382934570312,-0.7957763671875
0.1595,-20.575073242188,16.621215820312,3.0479736328125
0.16,-21.175659179688,14.419067382812,5.7706298828125
0.1605,-21.295776367188,11.536254882812,8.7735595703125
0.161,-20.775268554688,6.8917236328125,12.897583007812
0.1615,-19.654174804688,2.7677001953125,15.900512695312
0.162,-18.332885742188,-1.4764404296875,18.863403320312
0.1625,-16.451049804688,-4.9998779296875,20.545043945312
0.163,-13.608276367188,-7.7625732421875,20.464965820312
0.1635,-10.405151367188,-10.965698242188,20.625122070312
0.164,-5.0799560546875,-15.049682617188,19.504028320312
0.1645,0.1651611328125,-18.252807617188,17.782348632812
0.165,3.9288330078125,-20.214721679688,16.220825195312
0.1655,6.8917236328125,-21.215698242188,14.499145507812
0.166,9.8546142578125,-21.255737304688,11.816528320312
0.1665,13.338012695312,-20.655151367188,7.8927001953125
0.167,16.541137695312,-19.614135742188,3.8087158203125
0.1675,19.544067382812,-17.972534179688,-0.8358154296875
0.168,20.985473632812,-16.050659179688,-4.0789794921875
0.1685,20.985473632812,-13.488159179688,-6.6815185546875
0.169,21.065551757812,-10.605346679688,-9.6444091796875
0.1695,20.224731445312,-5.6405029296875,-13.848510742188
0.17,18.943481445312,-1.3563232421875,-16.811401367188
0.1705,17.622192382812,2.4073486328125,-19.093627929688
0.171,15.580200195312,5.6104736328125,-20.414916992188
0.1715,12.497192382812,8.4532470703125,-20.254760742188
0.172,8.3731689453125,12.096801757812,-19.854370117188
0.1725,3.7286376953125,15.580200195312,-18.893432617188
0.173,-1.4364013671875,18.703247070312,-17.171752929688
0.1735,-4.7596435546875,20.224731445312,-15.570190429688
0.174,-7.3621826171875,20.745239257812,-13.648315429688
0.1745,-10.244995117188,20.985473632812,-11.286010742188
0.175,-14.248901367188,19.984497070312,-6.4412841796875
0.1755,-17.211791992188,18.743286132812,-2.3973388671875
0.176,-19.654174804688,17.261840820312,1.5665283203125
0.1765,-20.815307617188,15.339965820312,4.5294189453125
0.177,-20.655151367188,12.497192382812,7.1719970703125
0.1775,-20.615112304688,9.0538330078125,10.535278320312
0.178,-19.814331054688,4.6094970703125,14.298950195312
