wavelength,x,y,z
0.0,-0.90087890625,2.86279296875,-2.54248046875
0.0005,-0.50048828125,2.74267578125,-3.06298828125
0.001,0.06005859375,2.42236328125,-3.34326171875
0.0015,0.70068359375,1.86181640625,-3.54345703125
0.002,1.58154296875,1.14111328125,-3.62353515625
0.0025,2.22216796875,0.62060546875,-3.70361328125
0.003,2.62255859375,0.14013671875,-3.74365234375
0.0035,2.90283203125,-0.26025390625,-3.70361328125
0.004,2.90283203125,-0.74072265625,-3.22314453125
0.0045,2.86279296875,-1.26123046875,-2.54248046875
0.005,2.90283203125,-1.90185546875,-1.94189453125
0.0055,3.02294921875,-2.42236328125,-1.30126953125
0.006,2.94287109375,-2.70263671875,-0.90087890625
0.0065,2.74267578125,-2.82275390625,-0.42041015625
0.007,2.26220703125,-2.78271484375,0.22021484375
0.0075,1.58154296875,-2.70263671875,1.02099609375
0.008,1.06103515625,-2.74267578125,1.66162109375
0.0085,0.62060546875,-2.82275390625,2.26220703125
0.009,0.26025390625,-2.70263671875,2.66259765625
0.0095,-0.34033203125,-2.30224609375,2.82275390625
0.01,-0.98095703125,-1.62158203125,2.94287109375
0.0105,-1.70166015625,-0.98095703125,3.06298828125
0.011,-2.26220703125,-0.50048828125,3.14306640625
0.0115,-2.58251953125,-0.10009765625,3.18310546875
0.012,-2.82275390625,0.30029296875,3.06298828125
0.0125,-2.86279296875,0.74072265625,2.58251953125
0.013,-2.82275390625,1.30126953125,1.94189453125
0.0135,-2.90283203125,1.90185546875,1.38134765625
0.014,-3.02294921875,2.38232421875,0.82080078125
0.0145,-3.02294921875,2.66259765625,0.46044921875
0.015,-2.70263671875,2.74267578125,-0.14013671875
0.0155,-2.26220703125,2.74267578125,-0.78076171875
0.016,-1.58154296875,2.74267578125,-1.58154296875
0.0165,-1.02099609375,2.74267578125,-2.26220703125
0.017,-0.62060546875,2.74267578125,-2.82275390625
0.0175,-0.30029296875,2.62255859375,-3.22314453125
0.018,0.46044921875,2.18212890625,-3.46337890625
0.0185,1.22119140625,1.50146484375,-3.58349609375
0.019,1.94189453125,0.82080078125,-3.74365234375
0.0195,2.54248046875,0.34033203125,-3.86376953125
0.02,2.86279296875,-0.10009765625,-3.82373046875
0.0205,2.98291015625,-0.50048828125,-3.54345703125
0.021,2.98291015625,-1.10107421875,-2.90283203125
0.0215,3.02294921875,-1.78173828125,-2.18212890625
0.022,3.10302734375,-2.34228515625,-1.58154296875
0.0225,3.14306640625,-2.74267578125,-1.06103515625
0.023,3.02294921875,-2.94287109375,-0.58056640625
0.0235,2.50244140625,-2.90283203125,0.10009765625
0.024,1.86181640625,-2.90283203125,0.86083984375
0.0245,1.18115234375,-2.94287109375,1.70166015625
0.025,0.66064453125,-2.90283203125,2.30224609375
0.0255,0.26025390625,-2.82275390625,2.70263671875
0.026,-0.30029296875,-2.46240234375,2.98291015625
0.0265,-1.02099609375,-1.74169921875,3.06298828125
0.027,-1.78173828125,-0.98095703125,3.18310546875
0.0275,-2.38232421875,-0.38037109375,3.18310546875
0.028,-2.74267578125,0.02001953125,3.22314453125
0.0285,-2.94287109375,0.34033203125,3.10302734375
0.029,-2.90283203125,0.78076171875,2.58251953125
0.0295,-2.86279296875,1.30126953125,1.98193359375
0.03,-2.86279296875,1.94189453125,1.26123046875
0.0305,-2.94287109375,2.42236328125,0.78076171875
0.031,-2.90283203125,2.66259765625,0.30029296875
0.0315,-2.78271484375,2.78271484375,-0.14013671875
0.032,-2.26220703125,2.70263671875,-0.78076171875
0.0325,-1.58154296875,2.66259765625,-1.46142578125
0.033,-0.98095703125,2.66259765625,-2.22216796875
0.0335,-0.62060546875,2.66259765625,-2.78271484375
0.034,-0.26025390625,2.62255859375,-3.18310546875
0.0345,0.30029296875,2.26220703125,-3.38330078125
0.035,0.98095703125,1.66162109375,-3.54345703125
0.0355,1.78173828125,0.94091796875,-3.66357421875
0.036,2.30224609375,0.42041015625,-3.74365234375
0.0365,2.70263671875,0.02001953125,-3.82373046875
0.037,2.94287109375,-0.34033203125,-3.70361328125
0.0375,2.90283203125,-0.90087890625,-3.14306640625
0.038,2.94287109375,-1.42138671875,-2.54248046875
0.0385,3.06298828125,-2.10205078125,-1.82177734375
0.039,3.14306640625,-2.58251953125,-1.30126953125
0.0395,3.06298828125,-2.86279296875,-0.82080078125
0.04,2.82275390625,-2.90283203125,-0.30029296875
0.0405,2.22216796875,-2.98291015625,0.46044921875
0.041,1.58154296875,-2.98291015625,1.30126953125
0.0415,0.94091796875,-2.98291015625,1.98193359375
0.042,0.58056640625,-2.94287109375,2.58251953125
0.0425,0.10009765625,-2.74267578125,2.94287109375
0.043,-0.62060546875,-2.18212890625,3.10302734375
0.0435,-1.42138671875,-1.46142578125,3.22314453125
0.044,-2.26220703125,-0.66064453125,3.34326171875
0.0445,-2.70263671875,-0.22021484375,3.34326171875
0.045,-2.98291015625,0.26025390625,3.26318359375
0.0455,-3.06298828125,0.62060546875,2.94287109375
0.046,-2.98291015625,1.22119140625,2.22216796875
0.0465,-3.02294921875,1.86181640625,1.58154296875
0.047,-3.06298828125,2.42236328125,0.86083984375
0.0475,-3.10302734375,2.74267578125,0.42041015625
0.048,-2.86279296875,2.86279296875,-0.14013671875
0.0485,-2.42236328125,2.82275390625,-0.66064453125
0.049,-1.74169921875,2.74267578125,-1.46142578125
0.0495,-1.06103515625,2.74267578125,-2.26220703125
0.05,-0.54052734375,2.70263671875,-2.86279296875
0.0505,-0.18017578125,2.66259765625,-3.26318359375
0.051,0.34033203125,2.30224609375,-3.54345703125
0.0515,1.02099609375,1.62158203125,-3.54345703125
0.052,1.74169921875,0.98095703125,-3.70361328125
0.0525,2.42236328125,0.30029296875,-3.78369140625
0.053,2.78271484375,0.02001953125,-3.78369140625
0.0535,2.94287109375,-0.46044921875,-3.58349609375
0.054,2.98291015625,-0.82080078125,-3.18310546875
0.0545,2.94287109375,-1.42138671875,-2.54248046875
0.055,2.94287109375,-1.98193359375,-1.86181640625
0.0555,3.02294921875,-2.50244140625,-1.30126953125
0.056,3.06298828125,-2.82275390625,-0.86083984375
0.0565,2.82275390625,-2.94287109375,-0.38037109375
0.057,2.30224609375,-2.86279296875,0.26025390625
0.0575,1.70166015625,-2.90283203125,0.98095703125
0.058,1.10107421875,-2.86279296875,1.78173828125
0.0585,0.62060546875,-2.86279296875,2.30224609375
0.059,0.30029296875,-2.74267578125,2.74267578125
0.0595,-0.26025390625,-2.42236328125,2.98291015625
0.06,-1.02099609375,-1.62158203125,3.10302734375
0.0605,-1.78173828125,-0.98095703125,3.22314453125
0.061,-2.42236328125,-0.42041015625,3.26318359375
0.0615,-2.82275390625,0.02001953125,3.34326171875
0.062,-2.94287109375,0.38037109375,3.14306640625
0.0625,-2.94287109375,0.86083984375,2.58251953125
0.063,-3.02294921875,1.50146484375,1.94189453125
0.0635,-3.06298828125,2.14208984375,1.26123046875
0.064,-3.10302734375,2.58251953125,0.74072265625
0.0645,-3.06298828125,2.86279296875,0.30029296875
0.065,-2.74267578125,2.86279296875,-0.30029296875
0.0655,-2.18212890625,2.74267578125,-1.02099609375
0.066,-1.46142578125,2.86279296875,-1.78173828125
0.0665,-0.90087890625,2.86279296875,-2.54248046875
0.067,-0.50048828125,2.82275390625,-3.06298828125
0.0675,0.06005859375,2.58251953125,-3.38330078125
0.068,0.62060546875,2.06201171875,-3.54345703125
0.0685,1.46142578125,1.26123046875,-3.62353515625
0.069,2.10205078125,0.62060546875,-3.74365234375
0.0695,2.62255859375,0.14013671875,-3.74365234375
0.07,2.90283203125,-0.26025390625,-3.78369140625
0.0705,2.94287109375,-0.62060546875,-3.34326171875
0.071,2.86279296875,-1.18115234375,-2.70263671875
0.0715,2.90283203125,-1.74169921875,-2.06201171875
0.072,3.02294921875,-2.38232421875,-1.42138671875
0.0725,2.94287109375,-2.70263671875,-0.98095703125
0.073,2.86279296875,-2.90283203125,-0.54052734375
0.0735,2.46240234375,-2.86279296875,0.02001953125
0.074,1.78173828125,-2.78271484375,0.82080078125
0.0745,1.26123046875,-2.82275390625,1.54150390625
0.075,0.70068359375,-2.74267578125,2.18212890625
0.0755,0.38037109375,-2.78271484375,2.58251953125
0.076,-0.14013671875,-2.42236328125,2.86279296875
0.0765,-0.78076171875,-1.86181640625,2.98291015625
0.077,-1.54150390625,-1.14111328125,3.10302734375
0.0775,-2.18212890625,-0.58056640625,3.18310546875
0.078,-2.58251953125,-0.18017578125,3.22314453125
0.0785,-2.86279296875,0.22021484375,3.18310546875
0.079,-2.90283203125,0.62060546875,2.82275390625
0.0795,-2.86279296875,1.22119140625,2.14208984375
0.08,-2.94287109375,1.78173828125,1.58154296875
0.0805,-3.06298828125,2.34228515625,0.94091796875
0.081,-3.06298828125,2.62255859375,0.58056640625
0.0815,-2.86279296875,2.70263671875,0.02001953125
0.082,-2.42236328125,2.78271484375,-0.62060546875
0.0825,-1.74169921875,2.82275390625,-1.42138671875
0.083,-1.14111328125,2.82275390625,-2.18212890625
0.0835,-0.70068359375,2.78271484375,-2.74267578125
0.084,-0.34033203125,2.78271484375,-3.18310546875
0.0845,0.30029296875,2.30224609375,-3.46337890625
0.085,1.02099609375,1.62158203125,-3.58349609375
0.0855,1.78173828125,0.98095703125,-3.70361328125
0.086,2.42236328125,0.42041015625,-3.82373046875
0.0865,2.74267578125,0.06005859375,-3.82373046875
0.087,2.94287109375,-0.42041015625,-3.58349609375
0.0875,2.98291015625,-0.90087890625,-3.06298828125
0.088,2.94287109375,-1.58154296875,-2.34228515625
0.0885,3.06298828125,-2.22216796875,-1.78173828125
0.089,3.10302734375,-2.70263671875,-1.18115234375
0.0895,3.06298828125,-2.90283203125,-0.78076171875
0.09,2.66259765625,-2.90283203125,-0.22021484375
0.0905,2.06201171875,-2.86279296875,0.58056640625
0.091,1.38134765625,-2.86279296875,1.42138671875
0.0915,0.86083984375,-2.86279296875,2.06201171875
0.092,0.42041015625,-2.78271484375,2.54248046875
0.0925,0.02001953125,-2.62255859375,2.86279296875
0.093,-0.66064453125,-2.06201171875,3.06298828125
0.0935,-1.42138671875,-1.26123046875,3.10302734375
0.094,-2.06201171875,-0.66064453125,3.14306640625
0.0945,-2.58251953125,-0.18017578125,3.22314453125
0.095,-2.86279296875,0.18017578125,3.18310546875
0.0955,-2.86279296875,0.58056640625,2.82275390625
0.096,-2.86279296875,1.06103515625,2.26220703125
0.0965,-2.86279296875,1.66162109375,1.58154296875
0.097,-2.90283203125,2.18212890625,1.02099609375
0.0975,-2.94287109375,2.50244140625,0.50048828125
0.098,-2.90283203125,2.78271484375,0.14013671875
0.0985,-2.50244140625,2.70263671875,-0.46044921875
0.099,-1.86181640625,2.70263671875,-1.18115234375
0.0995,-1.26123046875,2.70263671875,-1.94189453125
0.1,-0.78076171875,2.74267578125,-2.58251953125
0.1005,-0.46044921875,2.70263671875,-3.02294921875
0.101,0.06005859375,2.46240234375,-3.34326171875
0.1015,0.70068359375,1.90185546875,-3.46337890625
0.102,1.50146484375,1.14111328125,-3.58349609375
0.1025,2.10205078125,0.62060546875,-3.70361328125
0.103,2.58251953125,0.18017578125,-3.78369140625
0.1035,2.86279296875,-0.18017578125,-3.74365234375
0.104,2.90283203125,-0.66064453125,-3.30322265625
0.1045,2.94287109375,-1.30126953125,-2.74267578125
0.105,3.02294921875,-1.94189453125,-2.02197265625
0.1055,3.10302734375,-2.50244140625,-1.46142578125
0.106,3.10302734375,-2.74267578125,-0.98095703125
0.1065,2.90283203125,-2.90283203125,-0.50048828125
0.107,2.38232421875,-2.86279296875,0.18017578125
0.1075,1.70166015625,-2.86279296875,1.02099609375
0.108,1.10107421875,-2.86279296875,1.78173828125
0.1085,0.66064453125,-2.94287109375,2.38232421875
0.109,0.26025390625,-2.82275390625,2.78271484375
0.1095,-0.34033203125,-2.30224609375,2.94287109375
0.11,-1.10107421875,-1.66162109375,3.10302734375
0.1105,-1.94189453125,-0.90087890625,3.18310546875
0.111,-2.46240234375,-0.38037109375,3.26318359375
0.1115,-2.82275390625,0.10009765625,3.22314453125
0.112,-2.94287109375,0.42041015625,3.06298828125
0.1125,-2.90283203125,0.90087890625,2.42236328125
0.113,-2.90283203125,1.50146484375,1.78173828125
0.1135,-2.94287109375,2.06201171875,1.14111328125
0.114,-3.02294921875,2.54248046875,0.62060546875
0.1145,-2.94287109375,2.70263671875,0.26025390625
0.115,-2.58251953125,2.74267578125,-0.34033203125
0.1155,-2.06201171875,2.70263671875,-0.98095703125
0.116,-1.34130859375,2.70263671875,-1.78173828125
0.1165,-0.86083984375,2.70263671875,-2.42236328125
0.117,-0.50048828125,2.70263671875,-2.90283203125
0.1175,-0.10009765625,2.54248046875,-3.26318359375
0.118,0.58056640625,1.98193359375,-3.42333984375
0.1185,1.30126953125,1.34130859375,-3.54345703125
0.119,2.06201171875,0.66064453125,-3.70361328125
0.1195,2.54248046875,0.26025390625,-3.78369140625
0.12,2.82275390625,-0.14013671875,-3.74365234375
0.1205,2.94287109375,-0.58056640625,-3.46337890625
0.121,2.90283203125,-1.14111328125,-2.86279296875
0.1215,2.86279296875,-1.78173828125,-2.18212890625
0.122,3.06298828125,-2.26220703125,-1.58154296875
0.1225,3.14306640625,-2.70263671875,-1.14111328125
0.123,3.02294921875,-2.86279296875,-0.66064453125
0.1235,2.54248046875,-2.86279296875,0.02001953125
0.124,1.98193359375,-2.86279296875,0.70068359375
0.1245,1.30126953125,-2.90283203125,1.58154296875
0.125,0.82080078125,-2.90283203125,2.18212890625
0.1255,0.42041015625,-2.86279296875,2.62255859375
0.126,-0.10009765625,-2.58251953125,2.94287109375
0.1265,-0.82080078125,-1.86181640625,3.06298828125
0.127,-1.58154296875,-1.18115234375,3.18310546875
0.1275,-2.26220703125,-0.50048828125,3.22314453125
0.128,-2.70263671875,-0.14013671875,3.34326171875
0.1285,-2.90283203125,0.26025390625,3.18310546875
0.129,-2.90283203125,0.66064453125,2.70263671875
0.1295,-2.90283203125,1.22119140625,2.06201171875
0.13,-2.94287109375,1.94189453125,1.38134765625
0.1305,-2.98291015625,2.38232421875,0.86083984375
0.131,-2.98291015625,2.66259765625,0.38037109375
0.1315,-2.82275390625,2.74267578125,0.02001953125
0.132,-2.26220703125,2.70263671875,-0.66064453125
0.1325,-1.66162109375,2.70263671875,-1.42138671875
0.133,-1.06103515625,2.70263671875,-2.22216796875
0.1335,-0.66064453125,2.74267578125,-2.70263671875
0.134,-0.30029296875,2.58251953125,-3.10302734375
0.1345,0.26025390625,2.26220703125,-3.34326171875
0.135,0.98095703125,1.58154296875,-3.42333984375
0.1355,1.66162109375,0.98095703125,-3.58349609375
0.136,2.22216796875,0.42041015625,-3.62353515625
0.1365,2.62255859375,0.06005859375,-3.70361328125
0.137,2.82275390625,-0.30029296875,-3.54345703125
0.1375,2.74267578125,-0.82080078125,-3.06298828125
0.138,2.86279296875,-1.34130859375,-2.54248046875
0.1385,2.94287109375,-2.02197265625,-1.82177734375
0.139,3.06298828125,-2.42236328125,-1.38134765625
0.1395,2.98291015625,-2.70263671875,-0.94091796875
0.14,2.78271484375,-2.82275390625,-0.42041015625
0.1405,2.18212890625,-2.78271484375,0.30029296875
0.141,1.62158203125,-2.86279296875,1.06103515625
0.1415,1.02099609375,-2.86279296875,1.78173828125
0.142,0.66064453125,-2.90283203125,2.38232421875
0.1425,0.26025390625,-2.70263671875,2.70263671875
0.143,-0.38037109375,-2.26220703125,2.90283203125
0.1435,-1.18115234375,-1.58154296875,3.06298828125
0.144,-1.94189453125,-0.86083984375,3.22314453125
0.1445,-2.50244140625,-0.42041015625,3.26318359375
0.145,-2.82275390625,0.02001953125,3.26318359375
0.1455,-2.94287109375,0.38037109375,2.98291015625
0.146,-2.86279296875,1.02099609375,2.30224609375
0.1465,-2.94287109375,1.58154296875,1.74169921875
0.147,-3.02294921875,2.26220703125,1.02099609375
0.1475,-3.06298828125,2.58251953125,0.62060546875
0.148,-2.90283203125,2.74267578125,0.14013671875
0.1485,-2.50244140625,2.74267578125,-0.46044921875
0.149,-1.86181640625,2.74267578125,-1.22119140625
0.1495,-1.26123046875,2.74267578125,-1.98193359375
0.15,-0.74072265625,2.70263671875,-2.58251953125
0.1505,-0.38037109375,2.70263671875,-3.06298828125
0.151,0.14013671875,2.38232421875,-3.26318359375
0.1515,0.78076171875,1.74169921875,-3.34326171875
0.152,1.46142578125,1.10107421875,-3.50341796875
0.1525,2.18212890625,0.50048828125,-3.62353515625
0.153,2.54248046875,0.14013671875,-3.66357421875
0.1535,2.70263671875,-0.30029296875,-3.54345703125
0.154,2.78271484375,-0.62060546875,-3.18310546875
0.1545,2.74267578125,-1.18115234375,-2.58251953125
0.155,2.86279296875,-1.78173828125,-1.98193359375
0.1555,2.90283203125,-2.26220703125,-1.42138671875
0.156,3.02294921875,-2.62255859375,-1.02099609375
0.1565,2.82275390625,-2.70263671875,-0.62060546875
0.157,2.34228515625,-2.70263671875,0.06005859375
0.1575,1.78173828125,-2.74267578125,0.78076171875
0.158,1.22119140625,-2.82275390625,1.58154296875
0.1585,0.78076171875,-2.82275390625,2.10205078125
0.159,0.42041015625,-2.74267578125,2.58251953125
0.1595,-0.14013671875,-2.50244140625,2.86279296875
0.16,-0.86083984375,-1.78173828125,2.90283203125
0.1605,-1.58154296875,-1.22119140625,3.10302734375
0.161,-2.26220703125,-0.62060546875,3.22314453125
0.1615,-2.70263671875,-0.26025390625,3.34326171875
0.162,-2.82275390625,0.22021484375,3.14306640625
0.1625,-2.86279296875,0.70068359375,2.66259765625
0.163,-2.90283203125,1.34130859375,1.98193359375
0.1635,-2.98291015625,1.98193359375,1.34130859375
0.164,-3.06298828125,2.42236328125,0.82080078125
0.1645,-3.06298828125,2.74267578125,0.38037109375
0.165,-2.74267578125,2.82275390625,-0.18017578125
0.1655,-2.10205078125,2.74267578125,-0.90087890625
0.166,-1.54150390625,2.78271484375,-1.66162109375
0.1665,-0.98095703125,2.82275390625,-2.42236328125
0.167,-0.54052734375,2.74267578125,-2.90283203125
0.1675,0.02001953125,2.54248046875,-3.22314453125
0.168,0.54052734375,2.06201171875,-3.46337890625
0.1685,1.34130859375,1.26123046875,-3.54345703125
0.169,1.98193359375,0.70068359375,-3.62353515625
0.1695,2.46240234375,0.18017578125,-3.66357421875
0.17,2.78271484375,-0.14013671875,-3.70361328125
0.1705,2.82275390625,-0.54052734375,-3.30322265625
0.171,2.74267578125,-1.02099609375,-2.70263671875
0.1715,2.82275390625,-1.62158203125,-2.10205078125
0.172,2.90283203125,-2.18212890625,-1.54150390625
0.1725,2.90283203125,-2.50244140625,-1.10107421875
0.173,2.78271484375,-2.70263671875,-0.66064453125
0.1735,2.46240234375,-2.70263671875,-0.14013671875
0.174,1.86181640625,-2.66259765625,0.62060546875
0.1745,1.30126953125,-2.70263671875,1.30126953125
0.175,0.82080078125,-2.70263671875,1.94189453125
0.1755,0.54052734375,-2.74267578125,2.42236328125
0.176,0.06005859375,-2.46240234375,2.62255859375
0.1765,-0.58056640625,-1.98193359375,2.82275390625
0.177,-1.30126953125,-1.30126953125,2.94287109375
0.1775,-1.98193359375,-0.78076171875,3.06298828125
0.178,-2.38232421875,-0.34033203125,3.14306640625
0.1785,-2.70263671875,0.06005859375,3.18310546875
0.179,-2.82275390625,0.50048828125,2.86279296875
0.1795,-2.74267578125,1.02099609375,2.22216796875
0.18,-2.86279296875,1.58154296875,1.66162109375
0.1805,-3.02294921875,2.26220703125,1.06103515625
0.181,-3.06298828125,2.54248046875,0.66064453125
0.1815,-2.86279296875,2.70263671875,0.18017578125
0.182,-2.50244140625,2.74267578125,-0.50048828125
0.1825,-1.82177734375,2.78271484375,-1.30126953125
0.183,-1.26123046875,2.82275390625,-2.06201171875
0.1835,-0.78076171875,2.82275390625,-2.66259765625
0.184,-0.42041015625,2.82275390625,-3.18310546875
0.1845,0.22021484375,2.34228515625,-3.38330078125
0.185,0.98095703125,1.66162109375,-3.54345703125
0.1855,1.74169921875,0.94091796875,-3.70361328125
0.186,2.42236328125,0.46044921875,-3.82373046875
0.1865,2.74267578125,0.06005859375,-3.82373046875
0.187,2.90283203125,-0.38037109375,-3.54345703125
0.1875,2.94287109375,-0.94091796875,-3.06298828125
0.188,2.90283203125,-1.58154296875,-2.26220703125
0.1885,3.02294921875,-2.18212890625,-1.66162109375
0.189,3.06298828125,-2.58251953125,-1.14111328125
0.1895,3.02294921875,-2.86279296875,-0.74072265625
0.19,2.58251953125,-2.82275390625,-0.18017578125
0.1905,1.98193359375,-2.78271484375,0.58056640625
0.191,1.30126953125,-2.82275390625,1.42138671875
0.1915,0.82080078125,-2.82275390625,2.06201171875
0.192,0.38037109375,-2.70263671875,2.50244140625
0.1925,0.02001953125,-2.58251953125,2.82275390625
0.193,-0.66064453125,-1.98193359375,2.94287109375
0.1935,-1.42138671875,-1.26123046875,2.98291015625
0.194,-2.02197265625,-0.66064453125,3.06298828125
0.1945,-2.54248046875,-0.22021484375,3.14306640625
0.195,-2.74267578125,0.14013671875,3.14306640625
0.1955,-2.78271484375,0.50048828125,2.74267578125
0.196,-2.74267578125,0.98095703125,2.26220703125
0.1965,-2.74267578125,1.58154296875,1.58154296875
0.197,-2.86279296875,2.10205078125,1.06103515625
0.1975,-2.90283203125,2.42236328125,0.62060546875
0.198,-2.90283203125,2.70263671875,0.22021484375
0.1985,-2.50244140625,2.66259765625,-0.34033203125
0.199,-1.94189453125,2.62255859375,-1.06103515625
0.1995,-1.34130859375,2.66259765625,-1.78173828125
