wavelength,x,y,z
0.0,-11.37109375,4.7646484375,6.88671875
0.0005,-11.291015625,6.40625,5.125
0.001,-11.451171875,8.80859375,2.7626953125
0.0015,-10.25,9.44921875,0.80078125
0.002,-10.1298828125,10.650390625,-0.640625
0.0025,-8.328125,10.8505859375,-2.72265625
0.003,-6.1259765625,10.169921875,-4.32421875
0.0035,-4.0439453125,10.2099609375,-6.486328125
0.004,-1.5615234375,9.7294921875,-8.6083984375
0.0045,0.2802734375,8.7685546875,-9.369140625
0.005,1.921875,8.568359375,-10.890625
0.0055,4.1240234375,6.486328125,-10.970703125
0.006,5.8857421875,4.484375,-10.810546875
0.0065,8.728515625,2.0419921875,-11.1708984375
0.007,9.9697265625,-0.5205078125,-9.9697265625
0.0075,10.8505859375,-1.8818359375,-9.4892578125
0.008,11.8115234375,-3.5634765625,-8.728515625
0.0085,11.37109375,-5.525390625,-6.24609375
0.009,11.2509765625,-7.3671875,-4.32421875
0.0095,11.37109375,-9.7294921875,-2.0419921875
0.01,9.849609375,-9.9697265625,0.0
0.0105,9.76953125,-10.9306640625,1.1611328125
0.011,7.6875,-10.9306640625,3.3232421875
0.0115,5.28515625,-10.2099609375,5.0048828125
0.012,3.203125,-10.2900390625,7.287109375
0.0125,0.720703125,-9.689453125,9.208984375
0.013,-1.0009765625,-8.6484375,9.8095703125
0.0135,-2.5224609375,-8.328125,11.130859375
0.014,-4.8447265625,-5.9658203125,11.05078125
0.0145,-6.7666015625,-3.763671875,10.810546875
0.015,-9.5693359375,-1.3212890625,11.130859375
0.0155,-10.5703125,1.12109375,9.7294921875
0.016,-11.2109375,2.162109375,9.369140625
0.0165,-11.8916015625,3.84375,8.328125
0.017,-11.451171875,6.005859375,5.7255859375
0.0175,-11.37109375,7.84765625,3.5234375
0.018,-11.4111328125,10.169921875,1.28125
0.0185,-9.6494140625,10.2099609375,-0.640625
0.019,-9.5693359375,10.970703125,-1.6015625
0.0195,-7.20703125,10.8505859375,-3.923828125
0.02,-4.64453125,10.08984375,-5.8056640625
0.0205,-2.4423828125,10.2099609375,-8.16796875
0.021,0.080078125,9.44921875,-9.9296875
0.0215,1.5615234375,8.2880859375,-10.25
0.022,2.962890625,7.9677734375,-11.3310546875
0.0225,5.5654296875,5.28515625,-11.2509765625
0.023,7.5673828125,2.9228515625,-10.890625
0.0235,10.3701171875,0.2802734375,-11.05078125
0.024,11.0908203125,-2.001953125,-9.5693359375
0.0245,11.4912109375,-2.8828125,-9.12890625
0.025,12.091796875,-4.8447265625,-7.7275390625
0.0255,11.53125,-7.0869140625,-4.96484375
0.026,11.291015625,-8.9287109375,-2.72265625
0.0265,11.2109375,-10.970703125,-0.4404296875
0.027,9.369140625,-10.7705078125,1.3212890625
0.0275,9.0087890625,-11.2509765625,2.2421875
0.028,6.40625,-10.970703125,4.724609375
0.0285,3.763671875,-10.25,6.646484375
0.029,1.4814453125,-10.25,9.0087890625
0.0295,-1.0009765625,-9.3291015625,10.5302734375
0.03,-2.2421875,-8.2080078125,10.650390625
0.0305,-3.763671875,-7.4072265625,11.4111328125
0.031,-6.486328125,-4.5244140625,11.3310546875
0.0315,-8.328125,-2.2822265625,10.8505859375
0.032,-10.9306640625,0.3203125,10.9306640625
0.0325,-11.4111328125,2.322265625,9.44921875
0.033,-11.69140625,3.1630859375,8.80859375
0.0335,-12.1318359375,5.4052734375,6.88671875
0.034,-11.53125,7.4873046875,4.2841796875
0.0345,-11.2509765625,9.2490234375,2.1220703125
0.035,-11.0107421875,11.130859375,-0.16015625
0.0355,-9.12890625,10.73046875,-1.681640625
0.036,-8.48828125,10.9306640625,-2.6826171875
0.0365,-5.60546875,10.73046875,-5.4052734375
0.037,-3.203125,9.9697265625,-7.0869140625
0.0375,-0.880859375,9.9296875,-9.4892578125
0.038,1.44140625,8.9287109375,-10.73046875
0.0385,2.5224609375,7.8076171875,-10.7705078125
0.039,4.32421875,6.5263671875,-11.3310546875
0.0395,7.0869140625,3.7236328125,-11.2509765625
0.04,8.6884765625,1.521484375,-10.6103515625
0.0405,11.0908203125,-1.0009765625,-10.6103515625
0.041,11.451171875,-2.8828125,-9.0087890625
0.0415,11.5712890625,-3.8837890625,-8.248046875
0.042,11.8515625,-6.2861328125,-6.0458984375
0.0425,11.3310546875,-8.0078125,-3.6435546875
0.043,10.970703125,-9.609375,-1.6416015625
0.0435,10.5302734375,-11.2109375,0.560546875
0.044,8.6484375,-10.650390625,2.001953125
0.0445,7.6875,-10.7705078125,3.1630859375
0.045,4.7646484375,-10.5703125,5.92578125
0.0455,2.6025390625,-9.8896484375,7.4873046875
0.046,0.3203125,-9.76953125,9.7294921875
0.0465,-1.841796875,-8.6884765625,10.73046875
0.047,-2.962890625,-7.447265625,10.6904296875
0.0475,-5.0849609375,-5.765625,11.130859375
0.048,-7.6474609375,-3.123046875,11.0107421875
0.0485,-9.048828125,-1.0009765625,10.2900390625
0.049,-11.0908203125,1.0810546875,10.2900390625
0.0495,-11.4111328125,2.9228515625,8.6484375
0.05,-11.4111328125,4.1240234375,7.6474609375
0.0505,-11.69140625,6.646484375,5.2451171875
0.051,-11.1708984375,8.2080078125,3.123046875
0.0515,-10.7705078125,9.609375,1.28125
0.052,-10.25,10.9306640625,-0.80078125
0.0525,-8.2080078125,10.41015625,-2.3623046875
0.053,-6.9267578125,10.4501953125,-3.8037109375
0.0535,-4.1240234375,10.2900390625,-6.5263671875
0.054,-2.001953125,9.5693359375,-7.8876953125
0.0545,0.080078125,9.44921875,-9.8896484375
0.055,2.1220703125,8.248046875,-10.7705078125
0.0555,3.4833984375,6.8466796875,-10.6904296875
0.056,5.8857421875,4.8046875,-11.05078125
0.0565,8.2880859375,2.2021484375,-10.9306640625
0.057,9.529296875,0.0,-9.9697265625
0.0575,11.291015625,-1.76171875,-10.1298828125
0.058,11.451171875,-3.7236328125,-8.2080078125
0.0585,11.37109375,-5.0048828125,-6.806640625
0.059,11.5712890625,-7.4873046875,-4.484375
0.0595,10.9306640625,-8.9287109375,-2.2822265625
0.06,10.3701171875,-9.9697265625,-0.640625
0.0605,9.76953125,-11.1708984375,1.3212890625
0.061,7.4873046875,-10.5302734375,3.0830078125
0.0615,5.8857421875,-10.41015625,4.64453125
0.062,3.203125,-10.330078125,7.3271484375
0.0625,1.1611328125,-9.44921875,8.48828125
0.063,-0.720703125,-9.2890625,10.2099609375
0.0635,-2.8828125,-7.9677734375,11.0107421875
0.064,-4.4443359375,-6.1259765625,10.810546875
0.0645,-6.88671875,-3.9638671875,11.0908203125
0.065,-9.12890625,-1.44140625,10.8505859375
0.0655,-10.0498046875,0.6005859375,9.689453125
0.066,-11.5712890625,2.0419921875,9.8896484375
0.0665,-11.611328125,4.1240234375,7.767578125
0.067,-11.37109375,5.60546875,6.005859375
0.0675,-11.6513671875,8.087890625,3.763671875
0.068,-10.810546875,9.4091796875,1.521484375
0.0685,-10.1298828125,10.169921875,0.0
0.069,-9.44921875,11.1708984375,-1.8818359375
0.0695,-6.806640625,10.41015625,-3.84375
0.07,-5.044921875,10.25,-5.525390625
0.0705,-2.482421875,10.2099609375,-8.1279296875
0.071,-0.3603515625,9.0888671875,-9.12890625
0.0715,1.2412109375,8.9287109375,-10.5703125
0.072,3.4033203125,7.4873046875,-11.291015625
0.0725,5.2451171875,5.28515625,-10.970703125
0.073,7.8076171875,2.9228515625,-11.2109375
0.0735,9.9697265625,0.2802734375,-10.7705078125
0.074,10.5703125,-1.6015625,-9.44921875
0.0745,11.8916015625,-2.7626953125,-9.609375
0.075,11.771484375,-5.044921875,-7.1669921875
0.0755,11.37109375,-6.6865234375,-5.0849609375
0.076,11.6513671875,-9.12890625,-2.8828125
0.0765,10.6103515625,-10.25,-0.640625
0.077,9.849609375,-10.6904296875,0.8408203125
0.0775,8.9287109375,-11.451171875,2.5625
0.078,6.005859375,-10.5703125,4.6845703125
0.0785,4.00390625,-10.330078125,6.4462890625
0.079,1.4814453125,-10.330078125,9.0888671875
0.0795,-0.720703125,-8.9287109375,9.849609375
0.08,-2.001953125,-8.728515625,11.0107421875
0.0805,-4.2841796875,-7.046875,11.4912109375
0.081,-6.2861328125,-4.564453125,11.0908203125
0.0815,-8.9287109375,-2.162109375,11.2109375
0.082,-10.8505859375,0.5205078125,10.6103515625
0.0825,-11.0908203125,2.08203125,9.3291015625
0.083,-12.171875,3.1630859375,9.2890625
0.0835,-11.9716796875,5.60546875,6.646484375
0.084,-11.4912109375,7.3671875,4.32421875
0.0845,-11.771484375,9.8896484375,2.0419921875
0.085,-10.41015625,10.6904296875,-0.3203125
0.0855,-9.609375,10.8505859375,-1.4013671875
0.086,-8.408203125,11.3310546875,-3.1630859375
0.0865,-5.4052734375,10.5302734375,-5.4453125
0.087,-3.203125,10.2099609375,-7.4072265625
0.0875,-0.6806640625,10.169921875,-9.8896484375
0.088,1.4013671875,8.5283203125,-10.330078125
0.0885,2.40234375,8.3681640625,-11.2509765625
0.089,4.8447265625,6.24609375,-11.5712890625
0.0895,6.88671875,3.7236328125,-11.1708984375
0.09,9.609375,1.12109375,-11.1708984375
0.0905,11.291015625,-1.44140625,-10.3701171875
0.091,11.3310546875,-2.7626953125,-9.048828125
0.0915,12.171875,-3.8837890625,-8.6884765625
0.092,11.8515625,-6.486328125,-5.765625
0.0925,11.3310546875,-8.16796875,-3.5634765625
0.093,11.53125,-10.5703125,-1.2412109375
0.0935,9.9296875,-11.0107421875,0.9609375
0.094,9.12890625,-10.970703125,1.841796875
0.0945,7.607421875,-11.2109375,3.68359375
0.095,4.6044921875,-10.41015625,5.9658203125
0.0955,2.3623046875,-10.08984375,7.927734375
0.096,0.0,-9.8896484375,10.169921875
0.0965,-1.9619140625,-8.328125,10.41015625
0.097,-2.8828125,-8.0078125,11.130859375
0.0975,-5.4853515625,-5.6455078125,11.291015625
0.098,-7.3671875,-3.203125,10.810546875
0.0985,-9.8896484375,-0.6806640625,10.810546875
0.099,-11.2109375,1.5615234375,9.9296875
0.0995,-11.1708984375,2.6826171875,8.80859375
0.1,-11.8115234375,4.083984375,7.9677734375
0.1005,-11.53125,6.646484375,5.125
0.101,-11.05078125,8.1279296875,3.123046875
0.1015,-11.1708984375,10.3701171875,0.9208984375
0.102,-9.5693359375,10.5302734375,-1.0810546875
0.1025,-8.80859375,10.5302734375,-1.8818359375
0.103,-6.88671875,10.6103515625,-3.9638671875
0.1035,-4.1640625,9.9296875,-6.0859375
0.104,-1.9619140625,9.6494140625,-8.1279296875
0.1045,0.400390625,9.2890625,-10.009765625
0.105,1.921875,7.8876953125,-10.2099609375
0.1055,2.9228515625,7.3671875,-10.810546875
0.106,5.8056640625,4.7646484375,-10.970703125
0.1065,7.4873046875,2.5625,-10.490234375
0.107,9.849609375,0.16015625,-10.41015625
0.1075,10.9306640625,-1.9619140625,-9.4892578125
0.108,10.9306640625,-3.0830078125,-8.328125
0.1085,11.451171875,-4.6845703125,-7.1669921875
0.109,11.1708984375,-7.0869140625,-4.5244140625
0.1095,10.6904296875,-8.3681640625,-2.6025390625
0.11,10.73046875,-10.41015625,-0.5205078125
0.1105,9.048828125,-10.41015625,1.28125
0.111,8.16796875,-10.2900390625,2.162109375
0.1115,5.92578125,-10.3701171875,4.5244140625
0.112,3.5234375,-9.7294921875,6.40625
0.1125,1.4013671875,-9.609375,8.3681640625
0.113,-0.8408203125,-9.048828125,10.08984375
0.1135,-2.2822265625,-7.7275390625,10.1298828125
0.114,-3.5634765625,-6.7265625,10.5302734375
0.1145,-6.4462890625,-4.1240234375,10.810546875
0.115,-7.9677734375,-1.9619140625,10.2099609375
0.1155,-10.0498046875,0.2001953125,10.169921875
0.116,-10.890625,2.0419921875,9.12890625
0.1165,-10.890625,3.2431640625,7.9677734375
0.117,-11.2509765625,5.125,6.326171875
0.1175,-11.05078125,7.3271484375,3.8837890625
0.118,-10.490234375,8.4482421875,2.1220703125
0.1185,-10.41015625,10.2099609375,0.2001953125
0.119,-8.6884765625,10.1298828125,-1.6015625
0.1195,-7.5673828125,10.009765625,-2.642578125
0.12,-5.125,10.08984375,-5.2451171875
0.1205,-2.8828125,9.44921875,-6.966796875
0.121,-0.9609375,9.2490234375,-8.728515625
0.1215,1.201171875,8.6083984375,-10.25
0.122,2.6025390625,7.2470703125,-10.25
0.1225,4.32421875,5.8056640625,-10.5703125
0.123,7.1669921875,3.203125,-10.7705078125
0.1235,8.48828125,1.0009765625,-9.8896484375
0.124,10.2900390625,-0.8408203125,-9.9697265625
0.1245,11.0107421875,-2.72265625,-8.728515625
0.125,10.890625,-4.0439453125,-7.2470703125
0.1255,11.130859375,-6.1259765625,-5.4052734375
0.126,10.890625,-8.087890625,-3.123046875
0.1265,10.2099609375,-8.96875,-1.44140625
0.127,10.08984375,-10.5302734375,0.3603515625
0.1275,8.0478515625,-10.25,2.2021484375
0.128,6.646484375,-10.009765625,3.443359375
0.1285,4.2041015625,-10.1298828125,6.0458984375
0.129,1.9619140625,-9.44921875,7.607421875
0.1295,0.240234375,-9.12890625,9.0888671875
0.13,-1.841796875,-8.328125,10.3701171875
0.1305,-3.4833984375,-6.6064453125,10.2900390625
0.131,-5.4052734375,-4.884765625,10.5302734375
0.1315,-8.0078125,-2.482421875,10.73046875
0.132,-9.048828125,-0.3203125,9.609375
0.1325,-10.6103515625,1.201171875,9.7294921875
0.133,-11.1708984375,3.0830078125,8.328125
0.1335,-10.890625,4.5244140625,6.56640625
0.134,-11.05078125,6.646484375,4.64453125
0.1345,-10.7705078125,8.48828125,2.40234375
0.135,-9.849609375,9.0888671875,0.80078125
0.1355,-9.7294921875,10.41015625,-0.80078125
0.136,-7.447265625,10.0498046875,-2.7626953125
0.1365,-5.8056640625,9.7294921875,-4.1640625
0.137,-3.5634765625,9.8896484375,-6.6865234375
0.1375,-1.3212890625,8.96875,-8.087890625
0.138,0.2802734375,8.6884765625,-9.3291015625
0.1385,2.2421875,7.8876953125,-10.490234375
0.139,4.00390625,5.92578125,-10.3701171875
0.1395,6.1259765625,3.9638671875,-10.5302734375
0.14,8.6484375,1.5615234375,-10.5703125
0.1405,9.44921875,-0.640625,-9.2490234375
0.141,10.810546875,-1.8017578125,-9.4892578125
0.1415,11.130859375,-3.763671875,-7.8076171875
0.142,10.7705078125,-5.3251953125,-5.8056640625
0.1425,11.0107421875,-7.4873046875,-3.8837890625
0.143,10.5302734375,-9.12890625,-1.681640625
0.1435,9.529296875,-9.5693359375,-0.16015625
0.144,9.2490234375,-10.6103515625,1.361328125
0.1445,6.7666015625,-10.08984375,3.36328125
0.145,4.96484375,-9.8095703125,4.9248046875
0.1455,2.72265625,-10.009765625,7.4072265625
0.146,0.560546875,-8.9287109375,8.6083984375
0.1465,-0.9208984375,-8.6484375,9.7294921875
0.147,-2.8828125,-7.5673828125,10.650390625
0.1475,-4.8046875,-5.4052734375,10.41015625
0.148,-7.0869140625,-3.203125,10.5302734375
0.1485,-9.44921875,-0.80078125,10.4501953125
0.149,-9.9697265625,1.1611328125,9.0888671875
0.1495,-11.130859375,2.08203125,9.3291015625
0.15,-11.2509765625,4.2041015625,7.3271484375
0.1505,-10.890625,5.9658203125,5.1650390625
0.151,-11.2109375,8.2080078125,3.1630859375
0.1515,-10.4501953125,9.609375,0.9208984375
0.152,-9.4091796875,9.8095703125,-0.5205078125
0.1525,-8.96875,10.650390625,-1.921875
0.153,-6.2060546875,10.0498046875,-4.083984375
0.1535,-4.1640625,9.7294921875,-5.845703125
0.154,-1.921875,9.8896484375,-8.3681640625
0.1545,0.400390625,8.6083984375,-9.3291015625
0.155,1.4814453125,8.328125,-10.2099609375
0.1555,3.4833984375,7.0068359375,-10.890625
0.156,5.5654296875,4.64453125,-10.6103515625
0.1565,8.0078125,2.2421875,-10.6103515625
0.157,10.2099609375,-0.3203125,-10.3701171875
0.1575,10.4501953125,-2.001953125,-8.9287109375
0.158,11.37109375,-2.8828125,-8.96875
0.1585,11.37109375,-5.2451171875,-6.56640625
0.159,10.9306640625,-7.0068359375,-4.32421875
0.1595,11.1708984375,-9.2890625,-2.162109375
0.16,10.1298828125,-10.330078125,0.080078125
0.1605,9.048828125,-10.2900390625,1.201171875
0.161,8.2880859375,-10.8505859375,2.5625
0.1615,5.4052734375,-10.1298828125,4.8447265625
0.162,3.203125,-9.76953125,6.6865234375
0.1625,0.9609375,-9.849609375,9.0888671875
0.163,-1.2412109375,-8.328125,9.7294921875
0.1635,-2.08203125,-8.087890625,10.41015625
0.164,-4.2841796875,-6.3662109375,10.810546875
0.1645,-6.326171875,-3.923828125,10.490234375
0.165,-8.6884765625,-1.5615234375,10.490234375
0.1655,-10.5302734375,0.7607421875,10.009765625
0.166,-10.5302734375,2.162109375,8.6884765625
0.1665,-11.2509765625,3.123046875,8.4482421875
0.167,-11.2109375,5.5654296875,5.8857421875
0.1675,-10.7705078125,7.126953125,3.8037109375
0.168,-10.890625,9.4091796875,1.6416015625
0.1685,-9.6494140625,10.08984375,-0.400390625
0.169,-8.80859375,9.9296875,-1.3212890625
0.1695,-7.5673828125,10.25,-2.8828125
0.17,-4.8447265625,9.6494140625,-5.0849609375
0.1705,-2.72265625,9.3291015625,-7.0068359375
0.171,-0.6005859375,9.3291015625,-9.12890625
0.1715,1.28125,7.927734375,-9.4892578125
0.172,2.08203125,7.6875,-10.169921875
0.1725,4.5244140625,5.5654296875,-10.490234375
0.173,6.3662109375,3.4033203125,-10.169921875
0.1735,8.6884765625,1.0009765625,-10.1298828125
0.174,10.2099609375,-1.1611328125,-9.4892578125
0.1745,10.2099609375,-2.322265625,-8.328125
0.175,10.8505859375,-3.5634765625,-7.767578125
0.1755,10.73046875,-5.92578125,-5.1650390625
0.176,10.330078125,-7.3271484375,-3.36328125
0.1765,10.5302734375,-9.44921875,-1.3212890625
0.177,9.1689453125,-9.8095703125,0.560546875
0.1775,8.3681640625,-9.7294921875,1.3212890625
0.178,6.7265625,-9.8896484375,3.1630859375
0.1785,4.2841796875,-9.369140625,5.1650390625
0.179,2.2421875,-9.208984375,7.126953125
0.1795,0.16015625,-9.0087890625,9.048828125
0.18,-1.4013671875,-7.7275390625,9.2490234375
0.1805,-2.40234375,-7.287109375,9.8896484375
0.181,-4.96484375,-4.96484375,10.1298828125
0.1815,-6.6865234375,-2.962890625,9.8896484375
0.182,-8.8486328125,-0.7607421875,9.849609375
0.1825,-10.009765625,1.1611328125,9.1689453125
0.183,-10.1298828125,2.2421875,8.1279296875
0.1835,-10.650390625,3.8037109375,7.0869140625
0.184,-10.650390625,5.92578125,4.64453125
0.1845,-10.2099609375,7.3671875,2.962890625
0.185,-10.2900390625,9.2890625,1.041015625
0.1855,-8.888671875,9.529296875,-0.720703125
0.186,-8.0478515625,9.4892578125,-1.6015625
0.1865,-6.0458984375,9.609375,-3.84375
0.187,-3.763671875,9.208984375,-5.765625
0.1875,-1.76171875,9.0087890625,-7.6474609375
0.188,0.3203125,8.6484375,-9.3291015625
0.1885,1.76171875,7.4072265625,-9.5693359375
0.189,3.04296875,6.56640625,-10.009765625
0.1895,5.8857421875,4.083984375,-10.330078125
0.19,7.447265625,2.001953125,-9.849609375
0.1905,9.4091796875,0.0400390625,-9.8095703125
0.191,10.3701171875,-1.8818359375,-8.96875
0.1915,10.3701171875,-3.203125,-7.6474609375
0.192,10.810546875,-5.0048828125,-6.1259765625
0.1925,10.6904296875,-7.2470703125,-3.84375
0.193,10.2099609375,-8.328125,-2.2822265625
0.1935,10.1298828125,-9.9697265625,-0.3603515625
0.194,8.4482421875,-9.9697265625,1.4814453125
0.1945,7.1669921875,-9.76953125,2.5625
0.195,4.9248046875,-9.849609375,5.0048828125
0.1955,2.72265625,-9.3291015625,6.7666015625
0.196,0.880859375,-9.0087890625,8.3681640625
0.1965,-1.1611328125,-8.6083984375,9.9296875
0.197,-2.7626953125,-7.046875,9.9697265625
0.1975,-4.3642578125,-5.6455078125,10.25
0.198,-7.126953125,-3.203125,10.5703125
0.1985,-8.4482421875,-1.0810546875,9.7294921875
0.199,-10.0498046875,0.6806640625,9.689453125
0.1995,-10.890625,2.4423828125,8.6884765625
0.2,-10.650390625,3.8837890625,7.0068359375
0.2005,-10.890625,5.8056640625,5.2451171875
0.201,-10.890625,7.8076171875,3.0830078125
0.2015,-9.9697265625,8.6884765625,1.361328125
0.202,-9.9697265625,10.1298828125,-0.2802734375
0.2025,-8.0078125,10.009765625,-2.2021484375
0.203,-6.4462890625,9.6494140625,-3.443359375
0.2035,-4.1640625,9.76953125,-5.92578125
0.204,-1.9619140625,9.12890625,-7.5673828125
0.2045,-0.3203125,8.7685546875,-8.8486328125
0.205,1.6015625,8.248046875,-10.25
0.2055,3.4033203125,6.40625,-10.2099609375
0.206,5.2451171875,4.724609375,-10.330078125
0.2065,7.927734375,2.2421875,-10.5703125
0.207,9.0087890625,0.0400390625,-9.44921875
0.2075,10.3701171875,-1.4013671875,-9.4892578125
0.208,11.0107421875,-3.203125,-8.248046875
0.2085,10.6904296875,-4.8046875,-6.3662109375
0.209,10.810546875,-6.7265625,-4.484375
0.2095,10.6103515625,-8.6083984375,-2.322265625
0.21,9.609375,-9.12890625,-0.720703125
0.2105,9.529296875,-10.3701171875,0.7607421875
0.211,7.287109375,-10.009765625,2.7626953125
0.2115,5.60546875,-9.6494140625,4.083984375
0.212,3.4033203125,-9.76953125,6.5263671875
0.2125,1.28125,-9.0087890625,7.9677734375
0.213,-0.3203125,-8.6083984375,9.0888671875
0.2135,-2.1220703125,-7.8876953125,10.2099609375
0.214,-3.9638671875,-5.8857421875,10.08984375
0.2145,-5.9658203125,-3.9638671875,10.2099609375
0.215,-8.48828125,-1.7216796875,10.3701171875
0.2155,-9.2490234375,0.4404296875,9.12890625
0.216,-10.4501953125,1.44140625,9.2890625
0.2165,-10.8505859375,3.3232421875,7.767578125
0.217,-10.5302734375,4.9248046875,5.8056640625
0.2175,-10.7705078125,7.046875,3.8837890625
0.218,-10.41015625,8.6884765625,1.841796875
0.2185,-9.369140625,9.048828125,0.3203125
0.219,-9.2490234375,10.08984375,-1.0009765625
0.2195,-6.7666015625,9.6494140625,-3.0830078125
0.22,-5.044921875,9.3291015625,-4.6044921875
0.2205,-2.8427734375,9.5693359375,-7.046875
0.221,-0.80078125,8.6484375,-8.248046875
0.2215,0.6005859375,8.2880859375,-9.2890625
0.222,2.40234375,7.447265625,-10.25
0.2225,4.32421875,5.365234375,-10.08984375
0.223,6.56640625,3.203125,-10.2099609375
0.2235,8.96875,0.880859375,-10.2099609375
0.224,9.529296875,-1.1611328125,-8.888671875
