wavelength,x,y,z
0.0,-11.245971679688,22.426879882812,-11.606323242188
0.0005,-14.769409179688,23.187622070312,-9.0037841796875
0.001,-17.572143554688,21.906372070312,-4.9598388671875
0.0015,-19.894409179688,20.625122070312,-1.3162841796875
0.002,-21.576049804688,17.982543945312,3.1280517578125
0.0025,-23.377807617188,14.619262695312,8.3331298828125
0.003,-23.017456054688,10.655395507812,12.016723632812
0.0035,-23.257690429688,7.5323486328125,15.420043945312
0.004,-21.936401367188,4.4093017578125,17.301879882812
0.0045,-20.214721679688,-0.1951904296875,20.104614257812
0.005,-17.291870117188,-4.8397216796875,21.786254882812
0.0055,-13.287963867188,-9.9246826171875,22.867309570312
0.006,-10.244995117188,-13.287963867188,23.227661132812
0.0065,-5.9608154296875,-16.330932617188,21.946411132812
0.007,-2.3172607421875,-18.212768554688,20.264770507812
0.0075,2.1671142578125,-20.254760742188,17.982543945312
0.008,7.6925048828125,-22.176635742188,14.459106445312
0.0085,11.816528320312,-22.096557617188,10.295043945312
0.009,15.299926757812,-22.897338867188,7.6124267578125
0.0095,17.862426757812,-21.375854492188,3.5684814453125
0.01,20.424926757812,-19.814331054688,-0.5155029296875
0.0105,21.746215820312,-17.011596679688,-4.6795654296875
0.011,23.267700195312,-13.568237304688,-9.7244873046875
0.0115,22.987426757812,-10.084838867188,-13.007690429688
0.012,22.787231445312,-6.6414794921875,-16.290893554688
0.0125,21.265747070312,-3.3182373046875,-18.132690429688
0.013,19.544067382812,1.2862548828125,-20.895385742188
0.0135,15.900512695312,6.4112548828125,-22.416870117188
0.014,11.816528320312,11.175903320312,-23.097534179688
0.0145,9.0938720703125,14.338989257812,-23.578002929688
0.015,4.5294189453125,17.141723632812,-21.856323242188
0.0155,0.4454345703125,19.263793945312,-19.934448242188
0.016,-3.9989013671875,20.985473632812,-17.331909179688
0.0165,-9.6844482421875,22.907348632812,-13.648315429688
0.017,-13.448120117188,22.346801757812,-9.4041748046875
0.0175,-16.851440429688,22.867309570312,-6.6414794921875
0.018,-19.213745117188,21.025512695312,-2.4373779296875
0.0185,-21.776245117188,19.223754882812,2.0469970703125
0.019,-22.577026367188,15.780395507812,6.4112548828125
0.0195,-23.858276367188,12.096801757812,11.456176757812
0.02,-23.497924804688,8.7335205078125,14.419067382812
0.0205,-22.817260742188,4.7296142578125,17.782348632812
0.021,-20.815307617188,0.9259033203125,19.624145507812
0.0215,-18.733276367188,-3.7987060546875,22.226684570312
0.022,-14.769409179688,-9.0037841796875,23.467895507812
0.0225,-10.405151367188,-13.408081054688,23.427856445312
0.023,-7.6824951171875,-16.210815429688,23.547973632812
0.0235,-2.3572998046875,-19.053588867188,21.105590820312
0.024,2.0469970703125,-21.175659179688,19.023559570312
0.0245,6.6915283203125,-22.296752929688,15.500122070312
0.025,11.976684570312,-23.978393554688,11.976684570312
0.0255,15.540161132812,-23.017456054688,7.4923095703125
0.026,18.863403320312,-22.937377929688,4.2491455078125
0.0265,21.065551757812,-20.575073242188,-0.3953857421875
0.027,23.628051757812,-18.372924804688,-5.1600341796875
0.0275,23.708129882812,-14.409057617188,-9.3641357421875
0.028,24.508911132812,-10.605346679688,-14.048706054688
0.0285,23.948364257812,-7.5223388671875,-16.531127929688
0.029,22.506958007812,-2.9178466796875,-19.734252929688
0.0295,20.184692382812,1.2061767578125,-21.536010742188
0.03,17.261840820312,6.2510986328125,-23.537963867188
0.0305,13.297973632812,11.215942382812,-24.619018554688
0.031,8.5733642578125,15.219848632812,-23.858276367188
0.0315,5.8907470703125,17.702270507812,-23.698120117188
0.032,0.3653564453125,20.184692382812,-20.775268554688
0.0325,-4.1190185546875,22.346801757812,-18.573120117188
0.033,-9.0838623046875,22.787231445312,-14.128784179688
0.0335,-13.808471679688,24.108520507812,-10.885620117188
0.034,-16.971557617188,23.067504882812,-6.6815185546875
0.0345,-19.934448242188,22.426879882812,-3.0379638671875
0.035,-21.736206054688,19.824340820312,1.4063720703125
0.0355,-24.018432617188,17.141723632812,6.4112548828125
0.036,-23.898315429688,12.977661132812,10.495239257812
0.0365,-24.218627929688,9.0938720703125,14.779418945312
0.037,-23.698120117188,6.4112548828125,16.981567382812
0.0375,-21.776245117188,1.5264892578125,19.944458007812
0.038,-19.574096679688,-2.6375732421875,21.906372070312
0.0385,-15.890502929688,-7.6424560546875,23.187622070312
0.039,-12.487182617188,-12.206909179688,24.348754882812
0.0395,-7.8426513671875,-15.650268554688,23.107543945312
0.04,-4.7596435546875,-18.092651367188,22.546997070312
0.0405,0.4854736328125,-20.294799804688,19.544067382812
0.041,5.1700439453125,-22.536987304688,17.261840820312
0.0415,9.9346923828125,-22.657104492188,12.657348632812
0.042,14.178833007812,-23.578002929688,9.4942626953125
0.0425,17.101684570312,-22.777221679688,5.8507080078125
0.043,19.984497070312,-21.495971679688,1.6466064453125
0.0435,21.786254882812,-19.053588867188,-2.6375732421875
0.044,23.668090820312,-16.050659179688,-7.5623779296875
0.0445,23.668090820312,-12.246948242188,-11.486206054688
0.045,23.547973632812,-8.4031982421875,-15.209838867188
0.0455,23.067504882812,-5.8406982421875,-17.371948242188
0.046,20.905395507812,-0.9559326171875,-20.134643554688
0.0465,18.623168945312,3.5684814453125,-22.336791992188
0.047,14.379028320312,8.6534423828125,-23.097534179688
0.0475,11.336059570312,12.857543945312,-24.298706054688
0.048,6.9718017578125,15.860473632812,-22.977416992188
0.0485,3.3682861328125,18.302856445312,-21.856323242188
0.049,-1.4364013671875,20.344848632812,-19.213745117188
0.0495,-6.6014404296875,22.627075195312,-16.451049804688
0.05,-11.125854492188,22.546997070312,-11.926635742188
0.0505,-15.089721679688,23.227661132812,-8.6834716796875
0.051,-17.692260742188,22.426879882812,-5.2801513671875
0.0515,-20.454956054688,20.825317382812,-0.9959716796875
0.052,-22.176635742188,18.182739257812,3.5684814453125
0.0525,-23.658081054688,14.699340820312,8.5333251953125
0.053,-23.858276367188,11.175903320312,12.337036132812
0.0535,-23.337768554688,7.1719970703125,15.860473632812
0.054,-22.577026367188,4.2091064453125,18.062622070312
0.0545,-20.374877929688,-0.6356201171875,20.665161132812
0.055,-17.692260742188,-5.6405029296875,23.027465820312
0.0555,-13.127807617188,-10.405151367188,23.187622070312
0.056,-10.204956054688,-14.208862304688,24.028442382812
0.0565,-5.7606201171875,-17.051635742188,22.466918945312
0.057,-1.4364013671875,-19.614135742188,20.785278320312
0.0575,3.0479736328125,-21.335815429688,18.102661132812
0.058,8.7735595703125,-23.417846679688,14.699340820312
0.0585,12.777465820312,-23.057495117188,10.375122070312
0.059,16.701293945312,-23.417846679688,6.8516845703125
0.0595,19.183715820312,-22.136596679688,3.1680908203125
0.06,21.826293945312,-20.214721679688,-1.5565185546875
0.0605,23.307739257812,-17.211791992188,-6.1209716796875
0.061,24.228637695312,-13.287963867188,-10.965698242188
0.0615,24.348754882812,-10.084838867188,-14.409057617188
0.062,23.387817382812,-5.8406982421875,-17.692260742188
0.0625,22.026489257812,-2.3973388671875,-19.814331054688
0.063,19.704223632812,2.3673095703125,-22.136596679688
0.0635,16.140747070312,7.9327392578125,-24.178588867188
0.064,11.456176757812,12.377075195312,-23.938354492188
0.0645,8.4532470703125,15.860473632812,-24.498901367188
0.065,3.9288330078125,18.422973632812,-22.496948242188
0.0655,-0.7957763671875,20.905395507812,-20.454956054688
0.066,-5.1600341796875,22.186645507812,-17.371948242188
0.0665,-11.045776367188,24.068481445312,-13.448120117188
0.067,-14.609252929688,23.387817382812,-9.3240966796875
0.0675,-18.332885742188,23.347778320312,-5.6405029296875
0.068,-20.374877929688,21.586059570312,-1.8367919921875
0.0685,-22.817260742188,19.463989257812,2.8878173828125
0.069,-23.938354492188,15.940551757812,7.6124267578125
0.0695,-24.378784179688,11.616333007812,12.337036132812
0.07,-24.498901367188,8.7335205078125,15.460083007812
0.0705,-23.057495117188,4.2091064453125,18.543090820312
0.071,-21.335815429688,0.4854736328125,20.625122070312
0.0715,-18.773315429688,-4.0389404296875,22.506958007812
0.072,-15.049682617188,-9.7645263671875,24.468872070312
0.0725,-10.325073242188,-13.688354492188,23.668090820312
0.073,-7.2420654296875,-16.931518554688,23.748168945312
0.0735,-2.5174560546875,-19.173706054688,21.305786132812
0.074,2.1671142578125,-21.616088867188,19.343872070312
0.0745,6.6915283203125,-22.456909179688,15.700317382812
0.075,12.176879882812,-23.978393554688,11.856567382812
0.0755,15.380004882812,-23.337768554688,8.1329345703125
0.076,18.903442382812,-22.777221679688,3.9688720703125
0.0765,20.785278320312,-20.815307617188,0.1651611328125
0.077,23.027465820312,-18.493041992188,-4.4393310546875
0.0775,23.988403320312,-14.849487304688,-9.0838623046875
0.078,23.828247070312,-10.565307617188,-13.328002929688
0.0785,23.988403320312,-8.0028076171875,-16.090698242188
0.079,22.106567382812,-3.3582763671875,-18.933471679688
0.0795,20.464965820312,0.5655517578125,-21.175659179688
0.08,17.301879882812,5.1300048828125,-22.577026367188
0.0805,13.738403320312,10.535278320312,-24.418823242188
0.081,9.2540283203125,14.018676757812,-23.377807617188
0.0815,5.9708251953125,17.141723632812,-23.257690429688
0.082,1.5264892578125,19.063598632812,-20.735229492188
0.0825,-2.9979248046875,21.505981445312,-18.853393554688
0.083,-7.8426513671875,22.146606445312,-14.769409179688
0.0835,-12.727416992188,23.187622070312,-10.885620117188
0.084,-15.690307617188,22.987426757812,-7.8426513671875
0.0845,-18.933471679688,21.786254882812,-3.4783935546875
0.085,-20.695190429688,19.904418945312,0.2852783203125
0.0855,-22.536987304688,17.221801757812,4.8497314453125
0.086,-23.658081054688,13.698364257812,9.5343017578125
0.0865,-23.137573242188,9.3341064453125,13.418090820312
0.087,-23.417846679688,6.9317626953125,16.180786132812
0.0875,-21.295776367188,2.3272705078125,18.703247070312
0.088,-19.854370117188,-1.7567138671875,21.265747070312
0.0885,-16.050659179688,-6.3612060546875,22.066528320312
0.089,-12.807495117188,-11.406127929688,23.828247070312
0.0895,-8.7235107421875,-14.489135742188,22.787231445312
0.09,-4.8397216796875,-17.532104492188,22.066528320312
0.0905,-0.5155029296875,-19.253784179688,19.504028320312
0.091,4.1290283203125,-21.656127929688,17.421997070312
0.0915,9.0538330078125,-22.296752929688,13.257934570312
0.092,13.458129882812,-22.737182617188,9.3341064453125
0.0925,16.300903320312,-22.777221679688,6.6514892578125
0.093,19.343872070312,-21.095581054688,1.8868408203125
0.0935,21.425903320312,-19.093627929688,-2.2371826171875
0.094,22.707153320312,-16.010620117188,-6.6414794921875
0.0945,23.828247070312,-12.767456054688,-11.125854492188
0.095,22.987426757812,-8.5233154296875,-14.609252929688
0.0955,22.947387695312,-5.7606201171875,-17.371948242188
0.096,20.665161132812,-1.1561279296875,-19.654174804688
0.0965,18.903442382812,3.3282470703125,-22.416870117188
0.097,14.459106445312,8.1329345703125,-22.737182617188
0.0975,11.175903320312,12.777465820312,-24.098510742188
0.098,7.5323486328125,15.500122070312,-23.137573242188
0.0985,3.0479736328125,18.543090820312,-21.736206054688
0.099,-1.3563232421875,20.304809570312,-19.213745117188
0.0995,-6.4012451171875,22.386840820312,-16.370971679688
0.1,-11.125854492188,22.987426757812,-12.367065429688
0.1005,-15.209838867188,22.907348632812,-8.2830810546875
0.101,-17.852416992188,22.747192382812,-5.4803466796875
0.1015,-20.575073242188,20.705200195312,-0.6756591796875
0.102,-22.777221679688,18.302856445312,3.9688720703125
0.1025,-23.417846679688,14.459106445312,8.5333251953125
0.103,-24.498901367188,11.376098632812,12.777465820312
0.1035,-23.377807617188,7.0919189453125,15.940551757812
0.104,-22.817260742188,3.8087158203125,18.743286132812
0.1045,-20.254760742188,-0.9959716796875,20.945434570312
0.105,-17.972534179688,-6.0408935546875,23.668090820312
0.1055,-13.287963867188,-10.685424804688,23.547973632812
0.106,-9.7244873046875,-14.809448242188,24.228637695312
0.1065,-6.1209716796875,-17.251831054688,23.027465820312
0.107,-0.9158935546875,-20.214721679688,20.945434570312
0.1075,3.5684814453125,-21.856323242188,18.182739257812
0.108,9.1339111328125,-23.658081054688,14.459106445312
0.1085,13.217895507812,-23.978393554688,10.815551757812
0.109,17.221801757812,-23.377807617188,6.3311767578125
0.1095,19.704223632812,-22.617065429688,3.1280517578125
0.11,22.266723632812,-20.214721679688,-1.9569091796875
0.1105,24.348754882812,-17.452026367188,-6.8817138671875
0.111,24.308715820312,-13.047729492188,-11.326049804688
0.1115,25.109497070312,-10.124877929688,-15.089721679688
0.112,23.628051757812,-5.8406982421875,-17.892456054688
0.1125,22.386840820312,-1.9569091796875,-20.615112304688
0.113,19.624145507812,2.8077392578125,-22.536987304688
0.1135,16.300903320312,8.4532470703125,-24.939331054688
0.114,11.656372070312,12.697387695312,-24.498901367188
0.1145,7.9727783203125,16.581176757812,-24.659057617188
0.115,4.3292236328125,18.703247070312,-23.137573242188
0.1155,-1.1561279296875,21.586059570312,-20.655151367188
0.116,-5.7205810546875,22.987426757812,-17.612182617188
0.1165,-11.446166992188,24.308715820312,-13.287963867188
0.117,-15.049682617188,24.348754882812,-9.9246826171875
0.1175,-18.733276367188,23.467895507812,-5.2801513671875
0.118,-20.975463867188,22.146606445312,-1.7967529296875
0.1185,-23.217651367188,19.584106445312,3.1280517578125
0.119,-25.059448242188,16.300903320312,8.3331298828125
0.1195,-24.659057617188,11.576293945312,12.697387695312
0.12,-25.259643554688,8.7335205078125,16.180786132812
0.1205,-23.537963867188,4.3292236328125,18.903442382812
0.121,-21.856323242188,-0.1151123046875,21.666137695312
0.1215,-18.973510742188,-4.5994873046875,23.187622070312
0.122,-15.249877929688,-10.405151367188,25.309692382812
0.1225,-10.845581054688,-14.128784179688,24.629028320312
0.123,-6.8016357421875,-17.732299804688,24.228637695312
0.1235,-2.6375732421875,-19.734252929688,22.066528320312
0.124,2.5675048828125,-22.456909179688,19.744262695312
0.1245,7.5323486328125,-23.658081054688,16.140747070312
0.125,12.817504882812,-24.458862304688,11.696411132812
0.1255,16.180786132812,-24.538940429688,8.4932861328125
0.126,19.824340820312,-23.257690429688,3.6485595703125
0.1265,21.986450195312,-21.495971679688,-0.3953857421875
0.127,23.948364257812,-18.813354492188,-5.0799560546875
0.1275,25.589965820312,-15.249877929688,-10.325073242188
0.128,24.709106445312,-10.525268554688,-14.288940429688
0.1285,25.029418945312,-7.7625732421875,-17.492065429688
0.129,22.987426757812,-3.1981201171875,-19.934448242188
0.1295,21.225708007812,1.3663330078125,-22.777221679688
0.13,17.662231445312,6.2110595703125,-23.978393554688
0.1305,13.738403320312,11.896606445312,-25.740112304688
0.131,9.5343017578125,15.299926757812,-24.939331054688
0.1315,5.2901611328125,18.743286132812,-24.178588867188
0.132,0.9659423828125,20.545043945312,-21.656127929688
0.1325,-4.0389404296875,23.067504882812,-19.373901367188
0.133,-9.4442138671875,24.188598632812,-15.129760742188
0.1335,-14.369018554688,24.468872070312,-10.605346679688
0.134,-17.452026367188,24.548950195312,-7.7225341796875
0.1345,-20.775268554688,22.787231445312,-2.5975341796875
0.135,-22.857299804688,20.785278320312,1.5665283203125
0.1355,-24.378784179688,17.662231445312,6.2510986328125
0.136,-25.900268554688,13.978637695312,11.536254882812
0.1365,-24.819213867188,9.1739501953125,15.259887695312
0.137,-24.939331054688,6.1309814453125,18.422973632812
0.1375,-22.456909179688,1.4464111328125,20.705200195312
0.138,-20.695190429688,-3.1981201171875,23.588012695312
0.1385,-16.491088867188,-8.1629638671875,24.268676757812
0.139,-12.527221679688,-13.448120117188,25.670043945312
0.1395,-8.6033935546875,-16.451049804688,24.669067382812
0.14,-3.7586669921875,-19.854370117188,23.347778320312
0.1405,0.8858642578125,-21.536010742188,20.545043945312
0.141,5.8106689453125,-23.818237304688,17.942504882812
0.1415,11.255981445312,-24.739135742188,13.578247070312
0.142,15.700317382812,-24.498901367188,8.8936767578125
0.1425,18.663208007812,-24.619018554688,6.1309814453125
0.143,21.786254882812,-22.296752929688,0.6456298828125
0.1435,24.028442382812,-20.054565429688,-3.8787841796875
0.144,24.909301757812,-16.411010742188,-8.4832763671875
0.1445,26.190551757812,-12.887573242188,-13.448120117188
0.145,24.869262695312,-8.3231201171875,-16.691284179688
0.1455,24.508911132812,-4.9197998046875,-19.854370117188
0.146,21.746215820312,0.0050048828125,-21.856323242188
0.1465,19.704223632812,4.9698486328125,-24.779174804688
0.147,14.859497070312,10.054809570312,-25.019409179688
0.1475,10.895629882812,14.979614257812,-25.940307617188
0.148,7.3321533203125,17.582153320312,-25.019409179688
0.1485,1.9669189453125,20.825317382812,-22.937377929688
0.149,-2.6776123046875,22.466918945312,-20.134643554688
0.1495,-7.8826904296875,24.388793945312,-16.931518554688
0.15,-13.007690429688,25.229614257812,-12.727416992188
0.1505,-17.091674804688,24.468872070312,-7.9227294921875
0.151,-19.854370117188,24.308715820312,-5.0799560546875
0.1515,-22.577026367188,21.706176757812,0.3653564453125
0.152,-24.979370117188,19.183715820312,5.3302001953125
0.1525,-25.179565429688,14.819458007812,9.9346923828125
0.153,-26.340698242188,11.416137695312,14.579223632812
0.1535,-24.899291992188,6.9718017578125,17.542114257812
0.154,-24.058471679688,3.1280517578125,20.705200195312
0.1545,-21.175659179688,-1.7567138671875,22.587036132812
0.155,-18.733276367188,-7.0819091796875,25.469848632812
0.1555,-13.808471679688,-11.846557617188,25.309692382812
0.156,-9.6043701171875,-16.330932617188,25.589965820312
0.1565,-6.2410888671875,-18.573120117188,24.508911132812
0.157,-0.3553466796875,-21.736206054688,21.866333007812
0.1575,4.3292236328125,-23.417846679688,19.063598632812
0.158,9.9346923828125,-24.859252929688,14.979614257812
0.1585,14.379028320312,-25.579956054688,11.296020507812
0.159,18.342895507812,-24.498901367188,6.3311767578125
0.1595,21.025512695312,-23.778198242188,3.0079345703125
0.16,23.547973632812,-21.055541992188,-2.3172607421875
0.1605,25.910278320312,-18.252807617188,-7.6424560546875
0.161,25.549926757812,-13.528198242188,-12.046752929688
0.1615,26.390747070312,-10.325073242188,-16.210815429688
0.162,24.829223632812,-6.1209716796875,-18.773315429688
0.1625,23.347778320312,-1.6365966796875,-21.896362304688
0.163,20.424926757812,3.1680908203125,-23.658081054688
0.1635,16.941528320312,8.9737548828125,-26.020385742188
0.164,12.296997070312,13.418090820312,-25.820190429688
0.1645,7.9727783203125,17.421997070312,-25.499877929688
0.165,4.6495361328125,19.504028320312,-24.298706054688
0.1655,-1.3563232421875,22.426879882812,-21.375854492188
0.166,-6.1209716796875,24.108520507812,-18.292846679688
0.1665,-11.926635742188,25.069458007812,-13.568237304688
0.167,-15.810424804688,25.549926757812,-10.285034179688
0.1675,-19.413940429688,24.268676757812,-5.4403076171875
0.168,-21.816284179688,23.027465820312,-1.7967529296875
0.1685,-23.938354492188,20.184692382812,3.2481689453125
0.169,-26.140502929688,16.901489257812,8.8135986328125
0.1695,-25.499877929688,11.936645507812,13.137817382812
0.17,-26.020385742188,8.7735595703125,16.941528320312
0.1705,-24.378784179688,4.7696533203125,19.343872070312
0.171,-22.577026367188,-0.1151123046875,22.386840820312
0.1715,-19.534057617188,-4.7996826171875,23.988403320312
0.172,-15.570190429688,-10.725463867188,25.910278320312
0.1725,-11.366088867188,-14.569213867188,25.589965820312
0.173,-6.8817138671875,-18.212768554688,24.749145507812
0.1735,-3.0780029296875,-20.094604492188,22.907348632812
0.174,2.5675048828125,-22.817260742188,20.144653320312
0.1745,7.8126220703125,-24.498901367188,16.661254882812
0.175,13.097778320312,-24.859252929688,11.856567382812
0.1755,16.621215820312,-25.299682617188,8.8135986328125
0.176,19.984497070312,-23.738159179688,3.9688720703125
0.1765,22.426879882812,-22.176635742188,-0.2352294921875
0.177,24.228637695312,-19.253784179688,-4.9197998046875
0.1775,26.190551757812,-15.730346679688,-10.565307617188
0.178,25.269653320312,-10.965698242188,-14.369018554688
