wavelength,x,y,z
0.0,3.4783935546875,-19.824340820312,16.330932617188
0.0005,6.5213623046875,-20.625122070312,14.288940429688
0.001,9.6043701171875,-20.665161132812,11.566284179688
0.0015,13.608276367188,-19.904418945312,7.0018310546875
0.002,16.771362304688,-19.103637695312,3.1580810546875
0.0025,19.293823242188,-17.341918945312,-1.2061767578125
0.003,20.815307617188,-15.259887695312,-4.6495361328125
0.0035,20.975463867188,-12.497192382812,-7.5723876953125
0.004,21.135620117188,-9.4942626953125,-10.815551757812
0.0045,20.655151367188,-5.0499267578125,-14.699340820312
0.005,19.574096679688,-0.9259033203125,-17.782348632812
0.0055,17.692260742188,2.6776123046875,-19.584106445312
0.006,15.810424804688,5.9608154296875,-20.825317382812
0.0065,12.567260742188,10.244995117188,-20.785278320312
0.007,7.9627685546875,12.767456054688,-20.184692382812
0.0075,3.8787841796875,15.970581054688,-19.504028320312
0.008,-1.0059814453125,18.573120117188,-17.582153320312
0.0085,-4.5294189453125,19.974487304688,-15.660278320312
0.009,-7.4122314453125,20.174682617188,-13.297973632812
0.0095,-10.575317382812,20.334838867188,-10.695434570312
0.01,-14.619262695312,19.574096679688,-5.7305908203125
0.0105,-17.622192382812,18.212768554688,-1.4464111328125
0.011,-19.744262695312,16.451049804688,2.2371826171875
0.0115,-20.985473632812,14.369018554688,5.6004638671875
0.012,-20.945434570312,11.326049804688,8.6033935546875
0.0125,-20.905395507812,7.7225341796875,12.166870117188
0.013,-20.384887695312,3.8787841796875,15.530151367188
0.0135,-18.943481445312,-0.5255126953125,18.372924804688
0.014,-17.021606445312,-4.0089111328125,19.934448242188
0.0145,-14.739379882812,-6.8516845703125,20.655151367188
0.015,-11.816528320312,-9.8145751953125,20.775268554688
0.0155,-5.1300048828125,-14.018676757812,19.814331054688
0.016,-2.2872314453125,-16.941528320312,18.693237304688
0.0165,2.1170654296875,-19.103637695312,16.891479492188
0.017,5.4403076171875,-20.464965820312,15.009643554688
0.0175,8.2830810546875,-20.384887695312,12.166870117188
0.018,11.566284179688,-20.224731445312,9.0838623046875
0.0185,15.490112304688,-19.383911132812,4.6395263671875
0.019,18.493041992188,-17.662231445312,1.2762451171875
0.0195,20.054565429688,-15.860473632812,-3.3682861328125
0.02,20.855346679688,-13.578247070312,-5.1300048828125
0.0205,20.855346679688,-10.695434570312,-9.3341064453125
0.021,20.655151367188,-6.2911376953125,-13.458129882812
0.0215,19.854370117188,-2.6475830078125,-16.020629882812
0.022,18.412963867188,1.3963623046875,-18.903442382812
0.0225,16.170776367188,4.8397216796875,-20.224731445312
0.023,13.368041992188,8.9637451171875,-20.264770507812
0.0235,10.204956054688,10.845581054688,-20.464965820312
0.024,4.9998779296875,14.849487304688,-19.463989257812
0.0245,0.4354248046875,17.612182617188,-17.822387695312
0.025,-2.9278564453125,20.494995117188,-16.180786132812
0.0255,-6.3712158203125,20.334838867188,-14.058715820312
0.026,-9.3741455078125,19.974487304688,-11.255981445312
0.0265,-13.017700195312,19.494018554688,-7.1719970703125
0.027,-16.380981445312,18.693237304688,-3.2481689453125
0.0275,-18.983520507812,16.811401367188,1.2362060546875
0.028,-20.264770507812,14.849487304688,4.3992919921875
0.0285,-20.625122070312,12.286987304688,7.3621826171875
0.029,-20.705200195312,9.5242919921875,11.526245117188
0.0295,-20.264770507812,4.9197998046875,14.208862304688
0.03,-19.103637695312,1.1160888671875,17.091674804688
0.0305,-17.622192382812,-2.4874267578125,19.053588867188
0.031,-15.580200195312,-5.6505126953125,20.334838867188
0.0315,-12.377075195312,-8.5333251953125,20.094604492188
0.032,-8.5733642578125,-12.056762695312,19.894409179688
0.0325,-4.0489501953125,-15.660278320312,19.093627929688
0.033,0.9559326171875,-17.982543945312,17.131713867188
0.0335,4.0789794921875,-19.383911132812,15.329956054688
0.034,6.9617919921875,-19.984497070312,13.287963867188
0.0345,9.9647216796875,-19.984497070312,10.445190429688
0.035,14.008666992188,-19.183715820312,5.8006591796875
0.0355,16.971557617188,-18.102661132812,1.8768310546875
0.036,20.494995117188,-16.340942382812,-2.0870361328125
0.0365,20.134643554688,-14.298950195312,-5.0499267578125
0.037,20.334838867188,-11.296020507812,-8.2130126953125
0.0375,20.414916992188,-8.0928955078125,-11.215942382812
0.038,19.974487304688,-4.1690673828125,-15.059692382812
0.0385,18.533081054688,0.1551513671875,-17.782348632812
0.039,17.932495117188,3.3582763671875,-17.942504882812
0.0395,14.569213867188,7.6824951171875,-20.224731445312
0.04,11.286010742188,9.4041748046875,-20.024536132812
0.0405,6.5213623046875,13.167846679688,-19.383911132812
0.041,2.3973388671875,16.451049804688,-18.422973632812
0.0415,-2.0870361328125,18.773315429688,-16.461059570312
0.042,-5.1700439453125,19.574096679688,-14.739379882812
0.0425,-8.1329345703125,19.814331054688,-12.176879882812
0.043,-11.416137695312,19.734252929688,-9.0137939453125
0.0435,-15.219848632812,18.853393554688,-4.5294189453125
0.044,-18.142700195312,17.291870117188,-0.1651611328125
0.0445,-19.864379882812,15.410034179688,3.2781982421875
0.045,-20.585083007812,13.287963867188,6.3612060546875
0.0455,-20.665161132812,10.084838867188,9.3240966796875
0.046,-20.224731445312,6.2410888671875,13.047729492188
0.0465,-19.824340820312,2.5174560546875,16.290893554688
0.047,-18.102661132812,-1.7667236328125,18.813354492188
0.0475,-16.020629882812,-4.7696533203125,19.854370117188
0.048,-13.738403320312,-7.7325439453125,20.414916992188
0.0485,-10.054809570312,-11.055786132812,20.214721679688
0.049,-5.0098876953125,-14.659301757812,19.253784179688
0.0495,-0.8458251953125,-17.662231445312,17.772338867188
0.05,3.1981201171875,-19.343872070312,16.010620117188
0.0505,6.2010498046875,-20.024536132812,14.008666992188
0.051,9.2440185546875,-19.904418945312,11.045776367188
0.0515,12.767456054688,-19.544067382812,7.3621826171875
0.052,16.250854492188,-18.583129882812,3.1580810546875
0.0525,18.893432617188,-16.701293945312,-1.3262939453125
0.053,19.894409179688,-14.699340820312,-4.0489501953125
0.0535,20.334838867188,-12.497192382812,-7.2120361328125
0.054,20.454956054688,-9.1339111328125,-10.295043945312
0.0545,19.814331054688,-5.0098876953125,-13.978637695312
0.055,18.893432617188,-0.0050048828125,-16.741333007812
0.0555,17.251831054688,2.5174560546875,-18.943481445312
0.056,15.009643554688,5.4803466796875,-19.624145507812
0.0565,12.086791992188,8.3231201171875,-19.664184570312
0.057,8.3631591796875,11.806518554688,-19.383911132812
0.0575,3.4383544921875,15.169799804688,-18.583129882812
0.058,-0.8458251953125,17.612182617188,-16.701293945312
0.0585,-3.8887939453125,18.933471679688,-15.139770507812
0.059,-6.8116455078125,19.494018554688,-13.057739257812
0.0595,-9.8145751953125,19.253784179688,-10.054809570312
0.06,-13.338012695312,18.653198242188,-6.0509033203125
0.0605,-16.380981445312,17.532104492188,-2.1270751953125
0.061,-18.703247070312,15.650268554688,1.9168701171875
0.0615,-19.303833007812,13.728393554688,4.6795654296875
0.062,-19.744262695312,11.165893554688,8.9637451171875
0.0625,-19.744262695312,7.9227294921875,10.885620117188
0.063,-19.263793945312,3.9588623046875,14.328979492188
0.0635,-16.661254882812,0.1151123046875,16.891479492188
0.064,-16.581176757812,-3.0880126953125,18.613159179688
0.0645,-14.379028320312,-5.8106689453125,19.453979492188
0.065,-11.296020507812,-8.8135986328125,20.494995117188
0.0655,-7.3321533203125,-12.537231445312,18.693237304688
0.066,-2.8077392578125,-15.580200195312,17.812377929688
0.0665,1.5164794921875,-17.662231445312,15.970581054688
0.067,4.1990966796875,-18.583129882812,14.369018554688
0.0675,7.1619873046875,-19.063598632812,12.206909179688
0.068,10.405151367188,-18.943481445312,8.9237060546875
0.0685,13.768432617188,-18.302856445312,4.9598388671875
0.069,17.932495117188,-16.701293945312,1.2362060546875
0.0695,18.533081054688,-15.259887695312,-2.4473876953125
0.07,19.133666992188,-13.177856445312,-5.0899658203125
0.0705,19.373901367188,-10.455200195312,-8.0128173828125
0.071,20.494995117188,-6.8116455078125,-10.255004882812
0.0715,18.853393554688,-3.2081298828125,-14.779418945312
0.072,17.331909179688,0.5555419921875,-17.221801757812
0.0725,15.650268554688,3.4383544921875,-18.342895507812
0.073,13.488159179688,7.6824951171875,-19.063598632812
0.0735,10.004760742188,9.5643310546875,-18.903442382812
0.074,5.6805419921875,13.007690429688,-18.262817382812
0.0745,1.3963623046875,15.970581054688,-17.061645507812
0.075,-2.4473876953125,17.892456054688,-15.500122070312
0.0755,-5.0899658203125,18.493041992188,-13.738403320312
0.076,-7.8526611328125,18.893432617188,-11.336059570312
0.0765,-11.616333007812,18.493041992188,-7.5723876953125
0.077,-15.099731445312,17.652221679688,-3.6085205078125
0.0775,-17.421997070312,16.210815429688,0.3553466796875
0.078,-18.943481445312,14.449096679688,3.4783935546875
0.0785,-19.383911132812,12.206909179688,6.2410888671875
0.079,-19.624145507812,9.1239013671875,9.4442138671875
0.0795,-19.303833007812,5.4002685546875,12.887573242188
0.08,-18.543090820312,1.5164794921875,15.930541992188
0.0805,-16.941528320312,-2.1671142578125,18.092651367188
0.081,-14.939575195312,-4.8897705078125,18.853393554688
0.0815,-12.657348632812,-7.7725830078125,19.413940429688
0.082,-8.3731689453125,-11.376098632812,19.013549804688
0.0825,-4.0089111328125,-14.579223632812,18.132690429688
0.083,0.2352294921875,-17.101684570312,16.611206054688
0.0835,3.6785888671875,-18.703247070312,15.089721679688
0.084,6.3612060546875,-18.983520507812,13.087768554688
0.0845,9.3641357421875,-19.183715820312,10.204956054688
0.085,12.967651367188,-18.903442382812,6.2010498046875
0.0855,16.290893554688,-17.542114257812,2.0770263671875
0.086,18.412963867188,-15.900512695312,-1.8067626953125
0.0865,19.494018554688,-13.938598632812,-4.6895751953125
0.087,19.814331054688,-11.496215820312,-7.6124267578125
0.0875,19.894409179688,-7.6524658203125,-11.215942382812
0.088,19.253784179688,-4.1290283203125,-14.579223632812
0.0885,18.132690429688,-0.3253173828125,-17.061645507812
0.089,16.370971679688,3.4383544921875,-18.943481445312
0.0895,14.048706054688,6.0809326171875,-19.383911132812
0.09,11.326049804688,10.244995117188,-19.624145507812
0.0905,6.6815185546875,12.847534179688,-19.103637695312
0.091,2.2772216796875,16.010620117188,-16.661254882812
0.0915,-1.9669189453125,18.012573242188,-16.100708007812
0.092,-4.9298095703125,20.494995117188,-14.619262695312
0.0925,-7.8126220703125,19.453979492188,-12.136840820312
0.093,-11.376098632812,19.093627929688,-8.6934814453125
0.0935,-14.499145507812,18.533081054688,-4.8497314453125
0.094,-17.582153320312,17.131713867188,-0.5255126953125
0.0945,-19.504028320312,15.209838867188,3.2381591796875
0.095,-19.824340820312,12.967651367188,5.9207763671875
0.0955,-20.464965820312,10.405151367188,10.244995117188
0.096,-20.024536132812,6.2010498046875,14.088745117188
0.0965,-19.303833007812,2.4774169921875,15.890502929688
0.097,-17.862426757812,-0.0050048828125,18.132690429688
0.0975,-16.020629882812,-4.6895751953125,19.774291992188
0.098,-13.378051757812,-7.4522705078125,19.894409179688
0.0985,-9.9747314453125,-10.615356445312,19.814331054688
0.099,-5.2901611328125,-14.138793945312,19.093627929688
0.0995,-0.6856689453125,-17.141723632812,17.612182617188
0.1,3.1180419921875,-18.943481445312,15.810424804688
0.1005,5.8807373046875,-19.624145507812,13.968627929688
0.101,9.0838623046875,-19.784301757812,11.366088867188
0.1015,12.767456054688,-17.942504882812,7.0418701171875
0.102,15.850463867188,-18.342895507812,3.3182373046875
0.1025,18.292846679688,-16.821411132812,-0.8057861328125
0.103,19.974487304688,-15.019653320312,-4.3292236328125
0.1035,20.374877929688,-12.056762695312,-7.0118408203125
0.104,20.454956054688,-9.3341064453125,-10.214965820312
0.1045,19.974487304688,-5.2100830078125,-13.938598632812
0.105,19.093627929688,-1.1661376953125,-16.941528320312
0.1055,17.171752929688,2.3973388671875,-18.903442382812
0.106,15.329956054688,5.4403076171875,-20.024536132812
0.1065,12.407104492188,8.4432373046875,-20.184692382812
0.107,7.9227294921875,12.286987304688,-19.544067382812
0.1075,3.8787841796875,15.209838867188,-18.983520507812
0.108,-0.8057861328125,17.972534179688,-17.141723632812
0.1085,-4.3692626953125,19.534057617188,-15.139770507812
0.109,-7.2120361328125,19.694213867188,-12.977661132812
0.1095,-10.094848632812,19.974487304688,-10.495239257812
0.11,-14.298950195312,19.173706054688,-5.7305908203125
0.1105,-17.181762695312,17.852416992188,-1.6065673828125
0.111,-19.183715820312,16.250854492188,2.2371826171875
0.1115,-20.585083007812,14.208862304688,5.6805419921875
0.112,-20.705200195312,11.205932617188,8.4031982421875
0.1125,-20.665161132812,7.6424560546875,12.166870117188
0.113,-20.184692382812,3.8787841796875,15.329956054688
0.1135,-18.943481445312,-0.5255126953125,18.212768554688
0.114,-16.941528320312,-4.0889892578125,19.854370117188
0.1145,-14.419067382812,-6.7315673828125,20.334838867188
0.115,-11.936645507812,-9.9346923828125,20.695190429688
0.1155,-5.1300048828125,-13.978637695312,19.694213867188
0.116,-2.1270751953125,-16.821411132812,18.533081054688
0.1165,2.1170654296875,-19.063598632812,16.691284179688
0.117,5.6805419921875,-20.304809570312,14.849487304688
0.1175,8.3631591796875,-20.184692382812,12.086791992188
0.118,11.806518554688,-20.024536132812,8.9237060546875
0.1185,15.570190429688,-19.263793945312,4.5594482421875
0.119,18.412963867188,-17.662231445312,0.0350341796875
0.1195,20.134643554688,-15.740356445312,-3.4083251953125
0.12,20.975463867188,-13.458129882812,-6.6114501953125
0.1205,21.055541992188,-10.695434570312,-9.3741455078125
0.121,20.655151367188,-6.1309814453125,-13.538208007812
0.1215,19.774291992188,-2.6475830078125,-16.501098632812
0.122,18.372924804688,1.4764404296875,-19.023559570312
0.1225,16.210815429688,4.9598388671875,-19.223754882812
0.123,13.408081054688,7.9227294921875,-19.223754882812
0.1235,10.204956054688,11.045776367188,-20.745239257812
0.124,5.0399169921875,15.049682617188,-19.624145507812
0.1245,0.2752685546875,17.972534179688,-17.782348632812
0.125,-3.2081298828125,19.494018554688,-16.220825195312
0.1255,-6.4913330078125,20.454956054688,-14.258911132812
0.126,-9.4942626953125,20.334838867188,-11.175903320312
0.1265,-13.217895507812,19.694213867188,-7.0518798828125
0.127,-16.621215820312,18.853393554688,-3.0880126953125
0.1275,-19.303833007812,16.931518554688,1.3963623046875
0.128,-20.625122070312,14.889526367188,4.7596435546875
0.1285,-20.985473632812,12.166870117188,7.6424560546875
0.129,-21.185668945312,9.4041748046875,10.725463867188
0.1295,-20.625122070312,4.7996826171875,14.809448242188
0.13,-19.463989257812,0.8758544921875,17.612182617188
0.1305,-17.702270507812,-2.7677001953125,19.534057617188
0.131,-15.740356445312,-5.9708251953125,20.935424804688
0.1315,-12.377075195312,-9.0137939453125,20.535034179688
0.132,-8.4932861328125,-12.537231445312,20.334838867188
0.1325,-3.8087158203125,-16.020629882812,19.373901367188
0.133,1.3162841796875,-18.623168945312,17.291870117188
0.1335,4.4793701171875,-20.024536132812,15.490112304688
0.134,7.5623779296875,-19.223754882812,13.287963867188
0.1345,10.485229492188,-20.665161132812,10.365112304688
0.135,14.569213867188,-19.584106445312,5.6805419921875
0.1355,17.652221679688,-18.422973632812,1.5164794921875
0.136,19.854370117188,-16.541137695312,-2.4473876953125
0.1365,20.895385742188,-14.338989257812,-5.4503173828125
0.137,20.975463867188,-11.376098632812,-8.6934814453125
0.1375,21.135620117188,-8.0528564453125,-12.056762695312
0.138,20.414916992188,-4.0089111328125,-15.740356445312
0.1385,18.773315429688,0.4754638671875,-18.503051757812
0.139,16.931518554688,5.1199951171875,-19.824340820312
0.1395,14.769409179688,6.8817138671875,-20.945434570312
0.14,11.366088867188,9.9647216796875,-20.665161132812
0.1405,7.6824951171875,14.048706054688,-19.864379882812
0.141,2.2371826171875,17.091674804688,-18.983520507812
0.1415,-2.6475830078125,19.333862304688,-16.861450195312
0.142,-5.8106689453125,20.334838867188,-14.859497070312
0.1425,-8.6134033203125,20.535034179688,-12.136840820312
0.143,-12.016723632812,20.334838867188,-9.0538330078125
0.1435,-15.980590820312,19.373901367188,-4.3292236328125
0.144,-18.903442382812,17.652221679688,0.2352294921875
0.1445,-20.665161132812,15.690307617188,3.7186279296875
0.145,-21.465942382812,13.408081054688,6.9617919921875
0.1455,-21.185668945312,10.164916992188,10.084838867188
0.146,-20.745239257812,6.2010498046875,13.768432617188
0.1465,-20.464965820312,2.2371826171875,17.011596679688
0.147,-18.583129882812,-2.0870361328125,19.654174804688
0.1475,-16.380981445312,-5.2901611328125,20.655151367188
0.148,-13.818481445312,-8.2530517578125,21.175659179688
0.1485,-8.9737548828125,-11.496215820312,21.055541992188
0.149,-5.0098876953125,-15.460083007812,19.814331054688
0.1495,1.2762451171875,-18.262817382812,18.172729492188
0.15,5.1199951171875,-19.944458007812,16.411010742188
0.1505,6.8016357421875,-21.145629882812,14.208862304688
0.151,10.124877929688,-20.705200195312,11.045776367188
0.1515,13.608276367188,-20.344848632812,7.3621826171875
0.152,17.131713867188,-19.263793945312,3.0379638671875
0.1525,19.974487304688,-17.341918945312,-1.8868408203125
0.153,21.055541992188,-15.219848632812,-4.8497314453125
0.1535,21.696166992188,-12.577270507812,-8.0928955078125
0.154,21.495971679688,-9.1739501953125,-11.296020507812
0.1545,20.855346679688,-4.8096923828125,-15.420043945312
0.155,19.854370117188,-0.8458251953125,-18.102661132812
0.1555,18.052612304688,3.1981201171875,-20.384887695312
0.156,15.570190429688,6.3612060546875,-21.305786132812
0.1565,12.407104492188,9.5242919921875,-21.025512695312
0.157,8.5233154296875,13.167846679688,-20.865356445312
0.1575,3.2781982421875,16.691284179688,-19.624145507812
0.158,-1.7266845703125,19.133666992188,-17.662231445312
0.1585,-5.0098876953125,20.695190429688,-15.700317382812
0.159,-8.1329345703125,21.095581054688,-13.458129882812
0.1595,-11.496215820312,20.775268554688,-10.014770507812
0.16,-15.259887695312,20.094604492188,-5.5303955078125
0.1605,-18.583129882812,18.693237304688,-1.3663330078125
0.161,-20.865356445312,17.932495117188,3.2381591796875
0.1615,-21.425903320312,14.288940429688,6.1610107421875
0.162,-21.986450195312,11.245971679688,9.4442138671875
0.1625,-20.505004882812,7.6424560546875,13.047729492188
0.163,-21.025512695312,3.3182373046875,17.932495117188
0.1635,-19.423950195312,-1.0460205078125,19.333862304688
0.164,-17.502075195312,-4.5694580078125,21.255737304688
0.1645,-15.019653320312,-7.7325439453125,21.696166992188
0.165,-11.055786132812,-10.815551757812,21.375854492188
0.1655,-6.8917236328125,-14.579223632812,20.775268554688
0.166,-1.8868408203125,-18.022583007812,19.333862304688
0.1665,2.9578857421875,-20.184692382812,17.171752929688
0.167,6.0008544921875,-21.025512695312,15.129760742188
0.1675,9.2039794921875,-21.345825195312,12.527221679688
0.168,12.767456054688,-20.825317382812,8.7235107421875
0.1685,16.330932617188,-20.064575195312,4.3192138671875
0.169,19.413940429688,-18.222778320312,-0.3253173828125
0.1695,21.135620117188,-16.380981445312,-4.2891845703125
0.17,21.736206054688,-13.738403320312,-7.1319580078125
0.1705,21.856323242188,-10.375122070312,-10.575317382812
0.171,21.415893554688,-6.3712158203125,-14.138793945312
0.1715,20.655151367188,-2.2071533203125,-17.542114257812
0.172,18.613159179688,1.9569091796875,-20.144653320312
0.1725,16.611206054688,5.4002685546875,-21.145629882812
0.173,13.848510742188,8.3631591796875,-21.706176757812
0.1735,9.9246826171875,12.166870117188,-21.025512695312
0.174,6.4012451171875,15.450073242188,-20.384887695312
0.1745,0.3153076171875,18.533081054688,-18.623168945312
0.175,-3.9688720703125,20.414916992188,-16.541137695312
0.1755,-6.8116455078125,20.775268554688,-14.298950195312
0.176,-10.014770507812,20.975463867188,-11.416137695312
0.1765,-13.938598632812,20.214721679688,-7.4122314453125
0.177,-17.261840820312,19.133666992188,-3.0880126953125
0.1775,-19.944458007812,17.331909179688,1.5565185546875
0.178,-21.345825195312,15.329956054688,5.0399169921875
