wavelength,x,y,z
0.0,-5.38525390625,-0.18017578125,5.14501953125
0.0005,-5.26513671875,0.94091796875,4.30419921875
0.001,-5.14501953125,2.26220703125,3.10302734375
0.0015,-4.98486328125,3.26318359375,2.06201171875
0.002,-4.78466796875,4.10400390625,1.30126953125
0.0025,-4.18408203125,4.50439453125,0.46044921875
0.003,-3.26318359375,4.78466796875,-0.70068359375
0.0035,-2.26220703125,5.10498046875,-2.02197265625
0.004,-1.22119140625,5.30517578125,-3.26318359375
0.0045,-0.50048828125,5.62548828125,-4.34423828125
0.005,0.38037109375,5.58544921875,-5.06494140625
0.0055,1.42138671875,4.86474609375,-5.50537109375
0.006,2.54248046875,3.94384765625,-5.86572265625
0.0065,3.70361328125,2.78271484375,-6.10595703125
0.007,4.50439453125,1.78173828125,-6.14599609375
0.0075,4.94482421875,1.02099609375,-6.14599609375
0.008,4.94482421875,0.30029296875,-5.74560546875
0.0085,4.82470703125,-0.74072265625,-4.98486328125
0.009,4.78466796875,-1.90185546875,-4.02392578125
0.0095,4.62451171875,-3.06298828125,-2.98291015625
0.01,4.54443359375,-4.02392578125,-2.06201171875
0.0105,4.30419921875,-4.70458984375,-1.30126953125
0.011,3.58349609375,-5.06494140625,-0.46044921875
0.0115,2.74267578125,-5.42529296875,0.78076171875
0.012,1.70166015625,-5.74560546875,2.10205078125
0.0125,0.78076171875,-5.98583984375,3.26318359375
0.013,0.14013671875,-6.30615234375,4.26416015625
0.0135,-0.78076171875,-6.10595703125,4.94482421875
0.014,-1.94189453125,-5.30517578125,5.38525390625
0.0145,-3.10302734375,-4.34423828125,5.78564453125
0.015,-4.14404296875,-3.18310546875,5.94580078125
0.0155,-4.90478515625,-2.26220703125,6.06591796875
0.016,-5.18505859375,-1.62158203125,5.98583984375
0.0165,-5.14501953125,-0.90087890625,5.42529296875
0.017,-5.10498046875,0.14013671875,4.66455078125
0.0175,-5.14501953125,1.34130859375,3.70361328125
0.018,-4.98486328125,2.54248046875,2.70263671875
0.0185,-4.90478515625,3.50341796875,1.90185546875
0.019,-4.50439453125,4.06396484375,1.10107421875
0.0195,-3.74365234375,4.38427734375,0.14013671875
0.02,-2.90283203125,4.82470703125,-1.18115234375
0.0205,-1.86181640625,5.10498046875,-2.46240234375
0.021,-1.02099609375,5.46533203125,-3.58349609375
0.0215,-0.30029296875,5.66552734375,-4.50439453125
0.022,0.70068359375,5.26513671875,-5.10498046875
0.0225,1.86181640625,4.42431640625,-5.54541015625
0.023,3.06298828125,3.34326171875,-5.94580078125
0.0235,3.98388671875,2.26220703125,-6.02587890625
0.024,4.62451171875,1.46142578125,-6.14599609375
0.0245,4.82470703125,0.74072265625,-5.94580078125
0.025,4.78466796875,-0.22021484375,-5.26513671875
0.0255,4.70458984375,-1.26123046875,-4.50439453125
0.026,4.70458984375,-2.46240234375,-3.46337890625
0.0265,4.58447265625,-3.54345703125,-2.50244140625
0.027,4.50439453125,-4.42431640625,-1.70166015625
0.0275,3.94384765625,-4.82470703125,-0.90087890625
0.028,3.14306640625,-5.18505859375,0.30029296875
0.0285,2.22216796875,-5.62548828125,1.58154296875
0.029,1.18115234375,-5.90576171875,2.86279296875
0.0295,0.46044921875,-6.26611328125,3.90380859375
0.03,-0.46044921875,-6.26611328125,4.78466796875
0.0305,-1.54150390625,-5.58544921875,5.26513671875
0.031,-2.74267578125,-4.62451171875,5.70556640625
0.0315,-3.90380859375,-3.50341796875,5.94580078125
0.032,-4.78466796875,-2.42236328125,6.06591796875
0.0325,-5.26513671875,-1.78173828125,6.06591796875
0.033,-5.26513671875,-0.98095703125,5.62548828125
0.0335,-5.18505859375,0.02001953125,4.78466796875
0.034,-5.14501953125,1.26123046875,3.90380859375
0.0345,-5.02490234375,2.50244140625,2.78271484375
0.035,-4.90478515625,3.46337890625,1.90185546875
0.0355,-4.58447265625,4.10400390625,1.14111328125
0.036,-3.86376953125,4.50439453125,0.18017578125
0.0365,-2.98291015625,4.78466796875,-1.06103515625
0.037,-1.94189453125,5.14501953125,-2.46240234375
0.0375,-0.98095703125,5.38525390625,-3.58349609375
0.038,-0.30029296875,5.70556640625,-4.62451171875
0.0385,0.66064453125,5.38525390625,-5.26513671875
0.039,1.86181640625,4.50439453125,-5.62548828125
0.0395,3.06298828125,3.46337890625,-6.02587890625
0.04,4.10400390625,2.26220703125,-6.14599609375
0.0405,4.78466796875,1.30126953125,-6.26611328125
0.041,5.06494140625,0.62060546875,-6.06591796875
0.0415,4.90478515625,-0.30029296875,-5.46533203125
0.042,4.82470703125,-1.30126953125,-4.50439453125
0.0425,4.82470703125,-2.58251953125,-3.46337890625
0.043,4.62451171875,-3.74365234375,-2.38232421875
0.0435,4.50439453125,-4.62451171875,-1.58154296875
0.044,4.02392578125,-5.10498046875,-0.74072265625
0.0445,3.14306640625,-5.34521484375,0.38037109375
0.045,2.18212890625,-5.70556640625,1.62158203125
0.0455,1.02099609375,-5.94580078125,3.02294921875
0.046,0.26025390625,-6.26611328125,4.10400390625
0.0465,-0.62060546875,-6.38623046875,4.98486328125
0.047,-1.62158203125,-5.78564453125,5.50537109375
0.0475,-2.90283203125,-4.74462890625,5.90576171875
0.048,-4.10400390625,-3.54345703125,6.22607421875
0.0485,-4.98486328125,-2.42236328125,6.18603515625
0.049,-5.54541015625,-1.62158203125,6.26611328125
0.0495,-5.62548828125,-0.90087890625,5.78564453125
0.05,-5.38525390625,0.18017578125,4.98486328125
0.0505,-5.26513671875,1.34130859375,3.98388671875
0.051,-5.14501953125,2.70263671875,2.82275390625
0.0515,-4.98486328125,3.70361328125,1.78173828125
0.052,-4.70458984375,4.42431640625,0.98095703125
0.0525,-4.02392578125,4.74462890625,0.10009765625
0.053,-2.94287109375,4.94482421875,-1.14111328125
0.0535,-1.86181640625,5.30517578125,-2.58251953125
0.054,-0.78076171875,5.46533203125,-3.82373046875
0.0545,0.02001953125,5.74560546875,-4.82470703125
0.055,0.82080078125,5.58544921875,-5.54541015625
0.0555,1.94189453125,4.70458984375,-5.94580078125
0.056,3.18310546875,3.54345703125,-6.26611328125
0.0565,4.34423828125,2.26220703125,-6.42626953125
0.057,5.06494140625,1.22119140625,-6.42626953125
0.0575,5.38525390625,0.42041015625,-6.34619140625
0.058,5.30517578125,-0.38037109375,-5.70556640625
0.0585,5.06494140625,-1.46142578125,-4.66455078125
0.059,4.98486328125,-2.78271484375,-3.54345703125
0.0595,4.82470703125,-4.02392578125,-2.30224609375
0.06,4.62451171875,-4.98486328125,-1.38134765625
0.0605,4.14404296875,-5.50537109375,-0.58056640625
0.061,3.26318359375,-5.74560546875,0.54052734375
0.0615,2.10205078125,-6.02587890625,1.90185546875
0.062,0.86083984375,-6.26611328125,3.38330078125
0.0625,-0.18017578125,-6.42626953125,4.50439453125
0.063,-0.90087890625,-6.58642578125,5.42529296875
0.0635,-1.86181640625,-6.10595703125,6.02587890625
0.064,-3.18310546875,-4.86474609375,6.38623046875
0.0645,-4.50439453125,-3.62353515625,6.66650390625
0.065,-5.46533203125,-2.26220703125,6.58642578125
0.0655,-6.06591796875,-1.30126953125,6.50634765625
0.066,-6.10595703125,-0.50048828125,6.10595703125
0.0665,-5.86572265625,0.62060546875,5.22509765625
0.067,-5.62548828125,1.86181640625,3.98388671875
0.0675,-5.42529296875,3.22314453125,2.62255859375
0.068,-5.14501953125,4.34423828125,1.42138671875
0.0685,-4.82470703125,5.10498046875,0.58056640625
0.069,-4.06396484375,5.38525390625,-0.46044921875
0.0695,-2.86279296875,5.50537109375,-1.66162109375
0.07,-1.54150390625,5.74560546875,-3.18310546875
0.0705,-0.30029296875,5.82568359375,-4.54443359375
0.071,0.62060546875,5.90576171875,-5.50537109375
0.0715,1.34130859375,5.78564453125,-6.26611328125
0.072,2.50244140625,4.86474609375,-6.62646484375
0.0725,3.82373046875,3.50341796875,-6.82666015625
0.073,4.98486328125,2.10205078125,-6.98681640625
0.0735,5.70556640625,0.82080078125,-6.78662109375
0.074,6.02587890625,0.02001953125,-6.58642578125
0.0745,5.86572265625,-0.90087890625,-5.90576171875
0.075,5.50537109375,-1.98193359375,-4.74462890625
0.0755,5.22509765625,-3.34326171875,-3.42333984375
0.076,4.98486328125,-4.62451171875,-2.06201171875
0.0765,4.62451171875,-5.58544921875,-0.98095703125
0.077,4.18408203125,-6.10595703125,-0.14013671875
0.0775,3.22314453125,-6.26611328125,0.94091796875
0.078,1.94189453125,-6.34619140625,2.26220703125
0.0785,0.58056640625,-6.54638671875,3.82373046875
0.079,-0.62060546875,-6.54638671875,4.94482421875
0.0795,-1.30126953125,-6.66650390625,5.82568359375
0.08,-2.18212890625,-6.30615234375,6.46630859375
0.0805,-3.46337890625,-5.14501953125,6.74658203125
0.081,-4.74462890625,-3.74365234375,6.94677734375
0.0815,-5.82568359375,-2.38232421875,6.90673828125
0.082,-6.38623046875,-1.14111328125,6.70654296875
0.0825,-6.50634765625,-0.34033203125,6.42626953125
0.083,-6.22607421875,0.62060546875,5.58544921875
0.0835,-5.82568359375,1.82177734375,4.30419921875
0.084,-5.62548828125,3.18310546875,2.94287109375
0.0845,-5.26513671875,4.34423828125,1.58154296875
0.085,-4.90478515625,5.14501953125,0.62060546875
0.0855,-4.26416015625,5.58544921875,-0.30029296875
0.086,-3.18310546875,5.70556640625,-1.34130859375
0.0865,-1.86181640625,5.78564453125,-2.82275390625
0.087,-0.58056640625,5.90576171875,-4.30419921875
0.0875,0.54052734375,5.94580078125,-5.38525390625
0.088,1.18115234375,6.06591796875,-6.14599609375
0.0885,2.14208984375,5.34521484375,-6.66650390625
0.089,3.46337890625,4.02392578125,-6.90673828125
0.0895,4.62451171875,2.70263671875,-7.06689453125
0.09,5.58544921875,1.34130859375,-6.90673828125
0.0905,6.02587890625,0.34033203125,-6.70654296875
0.091,6.06591796875,-0.54052734375,-6.30615234375
0.0915,5.70556640625,-1.46142578125,-5.34521484375
0.092,5.38525390625,-2.70263671875,-4.06396484375
0.0925,5.14501953125,-4.10400390625,-2.70263671875
0.093,4.82470703125,-5.14501953125,-1.46142578125
0.0935,4.50439453125,-5.90576171875,-0.62060546875
0.094,3.74365234375,-6.22607421875,0.42041015625
0.0945,2.58251953125,-6.30615234375,1.58154296875
0.095,1.26123046875,-6.46630859375,3.06298828125
0.0955,0.02001953125,-6.54638671875,4.50439453125
0.096,-0.98095703125,-6.66650390625,5.46533203125
0.0965,-1.70166015625,-6.66650390625,6.22607421875
0.097,-2.82275390625,-5.74560546875,6.62646484375
0.0975,-4.14404296875,-4.42431640625,6.82666015625
0.098,-5.34521484375,-2.98291015625,7.02685546875
0.0985,-6.10595703125,-1.62158203125,6.78662109375
0.099,-6.46630859375,-0.78076171875,6.62646484375
0.0995,-6.34619140625,0.14013671875,6.02587890625
0.1,-6.02587890625,1.22119140625,4.86474609375
0.1005,-5.74560546875,2.54248046875,3.54345703125
0.101,-5.42529296875,3.90380859375,2.14208984375
0.1015,-5.10498046875,4.86474609375,1.02099609375
0.102,-4.62451171875,5.46533203125,0.14013671875
0.1025,-3.78369140625,5.66552734375,-0.90087890625
0.103,-2.42236328125,5.74560546875,-2.26220703125
0.1035,-1.10107421875,5.94580078125,-3.82373046875
0.104,0.22021484375,5.94580078125,-5.06494140625
0.1045,0.94091796875,6.06591796875,-5.94580078125
0.105,1.74169921875,5.70556640625,-6.54638671875
0.1055,2.94287109375,4.50439453125,-6.90673828125
0.106,4.30419921875,3.18310546875,-7.06689453125
0.1065,5.42529296875,1.78173828125,-7.06689453125
0.107,5.98583984375,0.58056640625,-6.86669921875
0.1075,6.14599609375,-0.30029296875,-6.54638671875
0.108,5.90576171875,-1.22119140625,-5.74560546875
0.1085,5.54541015625,-2.42236328125,-4.50439453125
0.109,5.30517578125,-3.78369140625,-3.10302734375
0.1095,4.94482421875,-4.98486328125,-1.74169921875
0.11,4.62451171875,-5.82568359375,-0.74072265625
0.1105,3.98388671875,-6.26611328125,0.18017578125
0.111,2.94287109375,-6.34619140625,1.30126953125
0.1115,1.58154296875,-6.46630859375,2.66259765625
0.112,0.18017578125,-6.58642578125,4.18408203125
0.1125,-0.82080078125,-6.66650390625,5.22509765625
0.113,-1.50146484375,-6.70654296875,6.06591796875
0.1135,-2.50244140625,-6.10595703125,6.50634765625
0.114,-3.82373046875,-4.74462890625,6.78662109375
0.1145,-4.98486328125,-3.38330078125,6.98681640625
0.115,-5.90576171875,-1.98193359375,6.82666015625
0.1155,-6.38623046875,-0.98095703125,6.62646484375
0.116,-6.38623046875,-0.26025390625,6.22607421875
0.1165,-6.06591796875,0.78076171875,5.26513671875
0.117,-5.70556640625,1.94189453125,4.02392578125
0.1175,-5.46533203125,3.34326171875,2.66259765625
0.118,-5.10498046875,4.38427734375,1.42138671875
0.1185,-4.78466796875,5.14501953125,0.54052734375
0.119,-4.10400390625,5.42529296875,-0.42041015625
0.1195,-2.94287109375,5.50537109375,-1.54150390625
0.12,-1.70166015625,5.74560546875,-2.94287109375
0.1205,-0.42041015625,5.74560546875,-4.30419921875
0.121,0.50048828125,5.82568359375,-5.26513671875
0.1215,1.14111328125,5.82568359375,-6.06591796875
0.122,2.18212890625,5.10498046875,-6.38623046875
0.1225,3.42333984375,3.86376953125,-6.66650390625
0.123,4.58447265625,2.58251953125,-6.86669921875
0.1235,5.34521484375,1.30126953125,-6.70654296875
0.124,5.78564453125,0.46044921875,-6.58642578125
0.1245,5.74560546875,-0.38037109375,-6.10595703125
0.125,5.42529296875,-1.34130859375,-5.10498046875
0.1255,5.22509765625,-2.54248046875,-3.98388671875
0.126,4.98486328125,-3.86376953125,-2.66259765625
0.1265,4.74462890625,-4.90478515625,-1.58154296875
0.127,4.46435546875,-5.62548828125,-0.78076171875
0.1275,3.66357421875,-5.90576171875,0.26025390625
0.128,2.54248046875,-6.06591796875,1.42138671875
0.1285,1.30126953125,-6.38623046875,2.90283203125
0.129,0.14013671875,-6.42626953125,4.14404296875
0.1295,-0.74072265625,-6.70654296875,5.14501953125
0.13,-1.46142578125,-6.42626953125,5.90576171875
0.1305,-2.66259765625,-5.50537109375,6.26611328125
0.131,-3.94384765625,-4.30419921875,6.58642578125
0.1315,-5.10498046875,-2.90283203125,6.70654296875
0.132,-5.74560546875,-1.74169921875,6.54638671875
0.1325,-6.10595703125,-0.98095703125,6.38623046875
0.133,-5.94580078125,-0.18017578125,5.74560546875
0.1335,-5.66552734375,1.02099609375,4.66455078125
0.134,-5.50537109375,2.30224609375,3.50341796875
0.1345,-5.22509765625,3.54345703125,2.18212890625
0.135,-4.98486328125,4.46435546875,1.22119140625
0.1355,-4.50439453125,4.98486328125,0.38037109375
0.136,-3.58349609375,5.18505859375,-0.66064453125
0.1365,-2.42236328125,5.30517578125,-1.98193359375
0.137,-1.18115234375,5.54541015625,-3.46337890625
0.1375,-0.26025390625,5.62548828125,-4.50439453125
0.138,0.54052734375,5.86572265625,-5.42529296875
0.1385,1.42138671875,5.42529296875,-5.94580078125
0.139,2.58251953125,4.34423828125,-6.26611328125
0.1395,3.78369140625,3.18310546875,-6.54638671875
0.14,4.78466796875,1.90185546875,-6.50634765625
0.1405,5.30517578125,0.94091796875,-6.42626953125
0.141,5.42529296875,0.26025390625,-6.18603515625
0.1415,5.26513671875,-0.70068359375,-5.46533203125
0.142,5.06494140625,-1.78173828125,-4.42431640625
0.1425,4.86474609375,-3.02294921875,-3.26318359375
0.143,4.62451171875,-4.14404296875,-2.10205078125
0.1435,4.50439453125,-4.94482421875,-1.30126953125
0.144,3.90380859375,-5.42529296875,-0.50048828125
0.1445,3.02294921875,-5.62548828125,0.62060546875
0.145,1.98193359375,-5.94580078125,1.90185546875
0.1455,0.78076171875,-6.10595703125,3.22314453125
0.146,0.02001953125,-6.26611328125,4.26416015625
0.1465,-0.78076171875,-6.42626953125,5.10498046875
0.147,-1.70166015625,-5.86572265625,5.62548828125
0.1475,-2.90283203125,-4.86474609375,5.98583984375
0.148,-4.10400390625,-3.70361328125,6.26611328125
0.1485,-4.98486328125,-2.50244140625,6.22607421875
0.149,-5.46533203125,-1.78173828125,6.26611328125
0.1495,-5.58544921875,-0.98095703125,5.90576171875
0.15,-5.42529296875,-0.14013671875,5.14501953125
0.1505,-5.30517578125,1.02099609375,4.26416015625
0.151,-5.18505859375,2.30224609375,3.14306640625
0.1515,-4.98486328125,3.30322265625,2.10205078125
0.152,-4.78466796875,4.10400390625,1.30126953125
0.1525,-4.22412109375,4.50439453125,0.50048828125
0.153,-3.30322265625,4.78466796875,-0.70068359375
0.1535,-2.34228515625,5.10498046875,-2.02197265625
0.154,-1.26123046875,5.38525390625,-3.22314453125
0.1545,-0.54052734375,5.66552734375,-4.26416015625
0.155,0.34033203125,5.66552734375,-5.06494140625
0.1555,1.34130859375,4.98486328125,-5.50537109375
0.156,2.54248046875,4.02392578125,-5.90576171875
0.1565,3.66357421875,2.86279296875,-6.14599609375
0.157,4.50439453125,1.86181640625,-6.18603515625
0.1575,4.94482421875,1.14111328125,-6.22607421875
0.158,4.98486328125,0.42041015625,-5.82568359375
0.1585,4.82470703125,-0.62060546875,-5.06494140625
0.159,4.82470703125,-1.78173828125,-4.14404296875
0.1595,4.70458984375,-2.94287109375,-3.06298828125
0.16,4.58447265625,-3.94384765625,-2.18212890625
0.1605,4.34423828125,-4.66455078125,-1.42138671875
0.161,3.70361328125,-5.10498046875,-0.50048828125
0.1615,2.82275390625,-5.46533203125,0.70068359375
0.162,1.78173828125,-5.74560546875,2.06201171875
0.1625,0.86083984375,-6.02587890625,3.18310546875
0.163,0.18017578125,-6.38623046875,4.22412109375
0.1635,-0.78076171875,-6.14599609375,4.90478515625
0.164,-1.90185546875,-5.34521484375,5.38525390625
0.1645,-3.06298828125,-4.38427734375,5.82568359375
0.165,-4.14404296875,-3.22314453125,5.98583984375
0.1655,-4.86474609375,-2.34228515625,6.10595703125
0.166,-5.18505859375,-1.62158203125,6.02587890625
0.1665,-5.18505859375,-0.90087890625,5.42529296875
0.167,-5.10498046875,0.22021484375,4.70458984375
0.1675,-5.10498046875,1.42138671875,3.74365234375
0.168,-4.98486328125,2.54248046875,2.70263671875
0.1685,-4.86474609375,3.46337890625,1.90185546875
0.169,-4.50439453125,3.98388671875,1.10107421875
0.1695,-3.78369140625,4.34423828125,0.10009765625
0.17,-2.86279296875,4.86474609375,-1.22119140625
0.1705,-1.82177734375,5.10498046875,-2.50244140625
0.171,-1.02099609375,5.42529296875,-3.58349609375
0.1715,-0.34033203125,5.66552734375,-4.50439453125
0.172,0.70068359375,5.26513671875,-5.10498046875
0.1725,1.86181640625,4.42431640625,-5.54541015625
0.173,3.06298828125,3.38330078125,-5.94580078125
0.1735,3.98388671875,2.26220703125,-6.06591796875
0.174,4.62451171875,1.50146484375,-6.18603515625
0.1745,4.82470703125,0.78076171875,-5.94580078125
0.175,4.82470703125,-0.14013671875,-5.30517578125
0.1755,4.78466796875,-1.26123046875,-4.50439453125
0.176,4.74462890625,-2.50244140625,-3.46337890625
0.1765,4.62451171875,-3.58349609375,-2.50244140625
0.177,4.50439453125,-4.42431640625,-1.74169921875
0.1775,3.90380859375,-4.94482421875,-0.90087890625
0.178,3.14306640625,-5.18505859375,0.30029296875
0.1785,2.22216796875,-5.66552734375,1.58154296875
0.179,1.18115234375,-5.90576171875,2.86279296875
0.1795,0.46044921875,-6.26611328125,3.90380859375
0.18,-0.46044921875,-6.26611328125,4.74462890625
0.1805,-1.54150390625,-5.62548828125,5.26513671875
0.181,-2.74267578125,-4.66455078125,5.74560546875
0.1815,-3.90380859375,-3.54345703125,6.02587890625
0.182,-4.78466796875,-2.50244140625,6.06591796875
0.1825,-5.22509765625,-1.78173828125,6.10595703125
0.183,-5.26513671875,-1.02099609375,5.66552734375
0.1835,-5.14501953125,0.02001953125,4.86474609375
0.184,-5.18505859375,1.18115234375,3.98388671875
0.1845,-5.06494140625,2.38232421875,2.86279296875
0.185,-4.94482421875,3.34326171875,1.98193359375
0.1855,-4.62451171875,3.98388671875,1.14111328125
0.186,-3.94384765625,4.42431640625,0.30029296875
0.1865,-3.02294921875,4.78466796875,-0.98095703125
0.187,-1.94189453125,5.14501953125,-2.34228515625
0.1875,-1.02099609375,5.38525390625,-3.54345703125
0.188,-0.38037109375,5.70556640625,-4.50439453125
0.1885,0.62060546875,5.42529296875,-5.14501953125
0.189,1.74169921875,4.54443359375,-5.62548828125
0.1895,2.98291015625,3.54345703125,-6.02587890625
0.19,4.02392578125,2.38232421875,-6.10595703125
0.1905,4.70458984375,1.46142578125,-6.22607421875
0.191,4.98486328125,0.78076171875,-6.10595703125
0.1915,4.90478515625,-0.14013671875,-5.46533203125
0.192,4.82470703125,-1.18115234375,-4.58447265625
0.1925,4.82470703125,-2.46240234375,-3.62353515625
0.193,4.62451171875,-3.58349609375,-2.50244140625
0.1935,4.50439453125,-4.50439453125,-1.74169921875
0.194,4.10400390625,-4.98486328125,-0.90087890625
0.1945,3.22314453125,-5.26513671875,0.22021484375
0.195,2.26220703125,-5.70556640625,1.50146484375
0.1955,1.14111328125,-5.94580078125,2.86279296875
0.196,0.38037109375,-6.26611328125,3.94384765625
0.1965,-0.46044921875,-6.38623046875,4.82470703125
0.197,-1.46142578125,-5.86572265625,5.42529296875
0.1975,-2.70263671875,-4.82470703125,5.82568359375
0.198,-3.98388671875,-3.70361328125,6.18603515625
0.1985,-4.86474609375,-2.50244140625,6.18603515625
0.199,-5.42529296875,-1.66162109375,6.26611328125
