wavelength,x,y,z
0.0,20.590087890625,-4.394287109375,-15.445068359375
0.0005,19.028564453125,-0.270263671875,-18.087646484375
0.001,16.666259765625,3.573486328125,-19.569091796875
0.0015,14.704345703125,6.816650390625,-20.850341796875
0.002,11.661376953125,9.939697265625,-21.010498046875
0.0025,7.136962890625,13.783447265625,-20.409912109375
0.003,3.093017578125,16.586181640625,-19.328857421875
0.0035,-1.871826171875,18.868408203125,-16.966552734375
0.004,-5.515380859375,20.229736328125,-14.884521484375
0.0045,-8.478271484375,20.469970703125,-12.402099609375
0.005,-11.521240234375,20.830322265625,-9.999755859375
0.0055,-15.445068359375,19.869384765625,-5.195068359375
0.006,-18.007568359375,18.027587890625,-0.990966796875
0.0065,-19.769287109375,15.945556640625,2.852783203125
0.007,-21.090576171875,13.783447265625,6.296142578125
0.0075,-21.090576171875,10.700439453125,9.459228515625
0.008,-21.010498046875,7.016845703125,13.102783203125
0.0085,-20.329833984375,3.173095703125,16.185791015625
0.009,-18.447998046875,-1.271240234375,18.828369140625
0.0095,-16.085693359375,-4.994873046875,20.189697265625
0.01,-13.843505859375,-7.877685546875,20.950439453125
0.0105,-11.000732421875,-10.960693359375,21.270751953125
0.011,-5.715576171875,-15.084716796875,20.189697265625
0.0115,-1.391357421875,-17.647216796875,18.548095703125
0.012,2.932861328125,-19.448974609375,16.385986328125
0.0125,6.496337890625,-20.770263671875,14.384033203125
0.013,9.699462890625,-20.650146484375,11.381103515625
0.0135,12.822509765625,-20.650146484375,8.458251953125
0.014,16.345947265625,-19.729248046875,4.134033203125
0.0145,18.908447265625,-17.447021484375,-0.630615234375
0.015,20.309814453125,-15.284912109375,-4.154052734375
0.0155,21.110595703125,-12.882568359375,-7.357177734375
0.016,21.270751953125,-9.959716796875,-10.440185546875
0.0165,20.630126953125,-5.475341796875,-14.444091796875
0.017,19.589111328125,-1.911865234375,-17.006591796875
0.0175,17.627197265625,2.332275390625,-19.208740234375
0.018,15.344970703125,5.935791015625,-20.570068359375
0.0185,12.302001953125,8.978759765625,-20.650146484375
0.019,9.339111328125,12.181884765625,-20.970458984375
0.0195,4.134033203125,15.985595703125,-19.729248046875
0.02,-0.750732421875,18.347900390625,-17.447021484375
0.0205,-4.314208984375,19.709228515625,-15.485107421875
0.021,-7.637451171875,20.790283203125,-13.483154296875
0.0215,-10.840576171875,20.630126953125,-10.440185546875
0.022,-14.283935546875,19.989501953125,-6.476318359375
0.0225,-17.166748046875,18.908447265625,-2.632568359375
0.023,-19.448974609375,16.506103515625,1.971923828125
0.0235,-20.489990234375,14.263916015625,5.295166015625
0.024,-20.970458984375,11.541259765625,8.458251953125
0.0245,-21.130615234375,8.658447265625,11.501220703125
0.025,-20.369873046875,4.093994140625,15.385009765625
0.0255,-18.728271484375,0.050048828125,17.787353515625
0.026,-16.646240234375,-3.633544921875,19.388916015625
0.0265,-14.604248046875,-6.916748046875,20.790283203125
0.027,-11.281005859375,-9.959716796875,20.550048828125
0.0275,-7.557373046875,-13.403076171875,20.309814453125
0.028,-3.032958984375,-16.526123046875,19.108642578125
0.0285,1.971923828125,-18.688232421875,16.546142578125
0.029,5.175048828125,-19.729248046875,14.584228515625
0.0295,8.298095703125,-20.409912109375,12.422119140625
0.03,11.260986328125,-20.409912109375,9.659423828125
0.0305,14.984619140625,-19.368896484375,5.094970703125
0.031,17.467041015625,-17.807373046875,1.171142578125
0.0315,19.308837890625,-15.725341796875,-2.752685546875
0.032,20.229736328125,-13.523193359375,-5.875732421875
0.0325,20.229736328125,-10.560302734375,-8.958740234375
0.033,20.269775390625,-7.397216796875,-12.121826171875
0.0335,19.589111328125,-3.553466796875,-15.405029296875
0.034,17.627197265625,0.810791015625,-17.687255859375
0.0345,15.585205078125,4.053955078125,-18.848388671875
0.035,13.503173828125,7.096923828125,-20.009521484375
0.0355,10.460205078125,10.059814453125,-19.969482421875
0.036,5.815673828125,13.783447265625,-19.128662109375
0.0365,1.851806640625,16.385986328125,-17.927490234375
0.037,-2.632568359375,18.347900390625,-15.685302734375
0.0375,-5.635498046875,19.268798828125,-13.843505859375
0.038,-8.718505859375,19.549072265625,-11.240966796875
0.0385,-11.641357421875,19.669189453125,-8.678466796875
0.039,-15.084716796875,18.628173828125,-4.354248046875
0.0395,-17.447021484375,16.666259765625,0.010009765625
0.04,-18.928466796875,14.784423828125,3.173095703125
0.0405,-19.889404296875,12.622314453125,6.256103515625
0.041,-19.929443359375,9.739501953125,9.259033203125
0.0415,-19.569091796875,5.895751953125,12.822509765625
0.042,-18.888427734375,2.412353515625,15.665283203125
0.0425,-16.926513671875,-1.791748046875,17.907470703125
0.043,-14.924560546875,-4.834716796875,18.988525390625
0.0435,-12.602294921875,-7.837646484375,19.709228515625
0.044,-9.599365234375,-10.960693359375,19.869384765625
0.0445,-4.634521484375,-14.604248046875,18.708251953125
0.045,-0.350341796875,-16.886474609375,16.866455078125
0.0455,3.413330078125,-18.568115234375,15.064697265625
0.046,6.456298828125,-19.489013671875,13.182861328125
0.0465,9.579345703125,-19.529052734375,10.340087890625
0.047,12.822509765625,-19.248779296875,7.056884765625
0.0475,15.865478515625,-18.207763671875,3.133056640625
0.048,18.067626953125,-16.005615234375,-1.351318359375
0.0485,19.148681640625,-14.083740234375,-4.274169921875
0.049,19.869384765625,-11.641357421875,-7.397216796875
0.0495,19.909423828125,-8.798583984375,-10.440185546875
0.05,19.268798828125,-4.594482421875,-14.043701171875
0.0505,18.067626953125,-0.990966796875,-16.446044921875
0.051,16.145751953125,2.932861328125,-18.367919921875
0.0515,14.063720703125,5.975830078125,-19.368896484375
0.052,11.180908203125,9.018798828125,-19.609130859375
0.0525,7.697509765625,12.462158203125,-19.689208984375
0.053,3.052978515625,15.745361328125,-18.447998046875
0.0535,-1.631591796875,17.787353515625,-16.085693359375
0.054,-4.714599609375,19.068603515625,-14.444091796875
0.0545,-7.877685546875,19.869384765625,-12.322021484375
0.055,-11.000732421875,19.789306640625,-9.359130859375
0.0555,-14.444091796875,19.068603515625,-5.395263671875
0.056,-17.126708984375,17.627197265625,-1.431396484375
0.0565,-19.208740234375,15.385009765625,2.852783203125
0.057,-19.889404296875,13.222900390625,5.735595703125
0.0575,-20.369873046875,10.340087890625,9.018798828125
0.058,-20.289794921875,7.056884765625,12.342041015625
0.0585,-19.529052734375,3.052978515625,15.665283203125
0.059,-17.647216796875,-1.111083984375,17.867431640625
0.0595,-15.685302734375,-4.594482421875,19.468994140625
0.06,-13.443115234375,-7.637451171875,20.349853515625
0.0605,-10.159912109375,-10.760498046875,20.189697265625
0.061,-6.035888671875,-14.243896484375,19.669189453125
0.0615,-1.351318359375,-17.166748046875,18.107666015625
0.062,3.253173828125,-18.968505859375,15.665283203125
0.0625,6.095947265625,-19.809326171875,13.783447265625
0.063,9.419189453125,-20.329833984375,11.341064453125
0.0635,12.622314453125,-20.009521484375,8.017822265625
0.064,15.865478515625,-18.968505859375,3.853759765625
0.0645,18.227783203125,-17.126708984375,-0.350341796875
0.065,19.949462890625,-14.924560546875,-4.234130859375
0.0655,20.469970703125,-12.522216796875,-7.156982421875
0.066,20.590087890625,-9.399169921875,-10.400146484375
0.0665,20.149658203125,-5.635498046875,-13.803466796875
0.067,19.188720703125,-1.711669921875,-16.766357421875
0.0675,16.906494140625,2.532470703125,-18.688232421875
0.068,14.864501953125,5.615478515625,-19.769287109375
0.0685,12.422119140625,8.738525390625,-20.489990234375
0.069,8.658447265625,12.141845703125,-20.209716796875
0.0695,4.254150390625,15.344970703125,-19.208740234375
0.07,-0.350341796875,17.787353515625,-17.326904296875
0.0705,-4.514404296875,19.549072265625,-15.124755859375
0.071,-7.277099609375,19.989501953125,-13.042724609375
0.0715,-10.480224609375,20.349853515625,-10.400146484375
0.072,-13.963623046875,19.789306640625,-6.596435546875
0.0725,-16.886474609375,18.427978515625,-2.472412109375
0.073,-18.968505859375,16.225830078125,1.771728515625
0.0735,-20.369873046875,14.103759765625,5.175048828125
0.074,-20.810302734375,11.501220703125,8.338134765625
0.0745,-20.850341796875,8.177978515625,11.781494140625
0.075,-20.169677734375,4.214111328125,15.024658203125
0.0755,-18.768310546875,0.170166015625,17.787353515625
0.076,-16.486083984375,-4.033935546875,19.709228515625
0.0765,-14.243896484375,-6.916748046875,20.389892578125
0.077,-11.601318359375,-10.079833984375,20.950439453125
0.0775,-7.317138671875,-13.803466796875,20.469970703125
0.078,-2.712646484375,-16.686279296875,18.988525390625
0.0785,1.851806640625,-18.728271484375,16.746337890625
0.079,5.615478515625,-20.289794921875,14.784423828125
0.0795,8.578369140625,-20.530029296875,12.302001953125
0.08,11.781494140625,-20.610107421875,9.419189453125
0.0805,15.304931640625,-19.929443359375,5.295166015625
0.081,18.107666015625,-18.127685546875,0.810791015625
0.0815,19.989501953125,-15.845458984375,-3.393310546875
0.082,20.830322265625,-13.523193359375,-6.436279296875
0.0825,21.190673828125,-10.640380859375,-9.759521484375
0.083,20.870361328125,-6.716552734375,-13.443115234375
0.0835,20.029541015625,-2.952880859375,-16.285888671875
0.084,18.187744140625,1.291259765625,-18.568115234375
0.0845,15.945556640625,5.135009765625,-20.369873046875
0.085,13.302978515625,8.057861328125,-20.650146484375
0.0855,10.420166015625,11.180908203125,-21.010498046875
0.086,5.615478515625,15.064697265625,-20.209716796875
0.0865,0.890869140625,17.787353515625,-18.447998046875
0.087,-3.433349609375,19.468994140625,-16.005615234375
0.0875,-6.716552734375,20.630126953125,-14.203857421875
0.088,-9.919677734375,20.790283203125,-11.401123046875
0.0885,-13.282958984375,20.429931640625,-7.917724609375
0.089,-16.365966796875,19.509033203125,-4.033935546875
0.0895,-18.968505859375,17.386962890625,0.690673828125
0.09,-20.650146484375,15.064697265625,4.614501953125
0.0905,-21.130615234375,12.502197265625,7.617431640625
0.091,-21.531005859375,9.659423828125,10.900634765625
0.0915,-20.890380859375,5.175048828125,14.824462890625
0.092,-19.729248046875,1.291259765625,17.587158203125
0.0925,-17.567138671875,-2.752685546875,19.468994140625
0.093,-15.525146484375,-6.396240234375,21.110595703125
0.0935,-12.522216796875,-9.439208984375,21.150634765625
0.094,-8.998779296875,-12.762451171875,21.070556640625
0.0945,-4.474365234375,-16.165771484375,20.149658203125
0.095,0.730712890625,-18.768310546875,17.827392578125
0.0955,4.734619140625,-20.209716796875,15.505126953125
0.096,7.777587890625,-20.970458984375,13.423095703125
0.0965,10.980712890625,-21.250732421875,10.740478515625
0.097,14.744384765625,-20.369873046875,6.256103515625
0.0975,17.547119140625,-19.088623046875,2.372314453125
0.098,19.789306640625,-16.846435546875,-2.072021484375
0.0985,21.190673828125,-14.564208984375,-5.755615234375
0.099,21.270751953125,-11.561279296875,-8.878662109375
0.0995,21.470947265625,-8.558349609375,-12.161865234375
0.1,20.710205078125,-4.194091796875,-15.765380859375
0.1005,19.108642578125,0.130126953125,-18.447998046875
0.101,16.706298828125,3.973876953125,-19.889404296875
0.1015,14.584228515625,7.217041015625,-21.130615234375
0.102,11.501220703125,10.380126953125,-21.250732421875
0.1025,6.976806640625,14.183837890625,-20.650146484375
0.103,2.852783203125,16.986572265625,-19.489013671875
0.1035,-2.272216796875,19.308837890625,-17.006591796875
0.104,-5.915771484375,20.590087890625,-14.884521484375
0.1045,-8.958740234375,20.790283203125,-12.322021484375
0.105,-11.961669921875,21.110595703125,-9.799560546875
0.1055,-15.885498046875,20.029541015625,-4.994873046875
0.106,-18.488037109375,18.227783203125,-0.670654296875
0.1065,-20.249755859375,15.985595703125,3.253173828125
0.107,-21.490966796875,13.743408203125,6.736572265625
0.1075,-21.490966796875,10.540283203125,9.939697265625
0.108,-21.330810546875,6.896728515625,13.583251953125
0.1085,-20.570068359375,3.012939453125,16.666259765625
0.109,-18.608154296875,-1.551513671875,19.308837890625
0.1095,-16.205810546875,-5.315185546875,20.670166015625
0.11,-13.803466796875,-8.318115234375,21.390869140625
0.1105,-10.920654296875,-11.481201171875,21.711181640625
0.111,-5.555419921875,-15.565185546875,20.550048828125
0.1115,-1.191162109375,-18.087646484375,18.908447265625
0.112,3.333251953125,-19.969482421875,16.546142578125
0.1125,6.896728515625,-21.290771484375,14.464111328125
0.113,10.219970703125,-21.130615234375,11.301025390625
0.1135,13.383056640625,-21.090576171875,8.338134765625
0.114,16.946533203125,-20.009521484375,3.893798828125
0.1145,19.509033203125,-17.687255859375,-1.031005859375
0.115,20.910400390625,-15.405029296875,-4.594482421875
0.1155,21.751220703125,-12.922607421875,-7.957763671875
0.116,21.791259765625,-9.879638671875,-11.080810546875
0.1165,21.190673828125,-5.275146484375,-15.124755859375
0.117,20.109619140625,-1.631591796875,-17.727294921875
0.1175,17.947509765625,2.852783203125,-20.009521484375
0.118,15.585205078125,6.416259765625,-21.290771484375
0.1185,12.382080078125,9.619384765625,-21.410888671875
0.119,9.379150390625,12.862548828125,-21.691162109375
0.1195,3.933837890625,16.786376953125,-20.329833984375
0.12,-1.071044921875,19.188720703125,-17.967529296875
0.1205,-4.914794921875,20.550048828125,-15.845458984375
0.121,-8.318115234375,21.591064453125,-13.723388671875
0.1215,-11.681396484375,21.390869140625,-10.400146484375
0.122,-15.124755859375,20.750244140625,-6.396240234375
0.1225,-18.167724609375,19.509033203125,-2.312255859375
0.123,-20.570068359375,16.946533203125,2.652587890625
0.1235,-21.611083984375,14.544189453125,6.055908203125
0.124,-22.091552734375,11.541259765625,9.539306640625
0.1245,-22.171630859375,8.578369140625,12.662353515625
0.125,-21.290771484375,3.733642578125,16.666259765625
0.1255,-19.569091796875,-0.510498046875,19.148681640625
0.126,-17.326904296875,-4.514404296875,20.950439453125
0.1265,-15.084716796875,-7.997802734375,22.151611328125
0.127,-11.361083984375,-11.281005859375,21.871337890625
0.1275,-7.517333984375,-14.764404296875,21.631103515625
0.128,-2.552490234375,-18.127685546875,20.309814453125
0.1285,2.812744140625,-20.409912109375,17.386962890625
0.129,6.256103515625,-21.410888671875,15.224853515625
0.1295,9.739501953125,-22.051513671875,12.702392578125
0.13,12.942626953125,-21.851318359375,9.579345703125
0.1305,16.786376953125,-20.690185546875,4.694580078125
0.131,19.468994140625,-18.968505859375,0.450439453125
0.1315,21.470947265625,-16.486083984375,-4.114013671875
0.132,22.271728515625,-13.963623046875,-7.397216796875
0.1325,22.271728515625,-10.440185546875,-10.960693359375
0.133,22.071533203125,-7.076904296875,-14.203857421875
0.1335,21.150634765625,-2.592529296875,-17.767333984375
0.134,18.868408203125,2.052001953125,-20.129638671875
0.1345,16.385986328125,5.615478515625,-21.290771484375
0.135,14.023681640625,9.058837890625,-22.371826171875
0.1355,10.219970703125,12.422119140625,-21.971435546875
0.136,5.255126953125,15.985595703125,-21.090576171875
0.1365,0.810791015625,18.908447265625,-19.489013671875
0.137,-4.354248046875,20.910400390625,-16.686279296875
0.1375,-7.437255859375,21.631103515625,-14.444091796875
0.138,-11.040771484375,21.871337890625,-11.401123046875
0.1385,-14.163818359375,21.631103515625,-8.278076171875
0.139,-17.807373046875,20.229736328125,-3.393310546875
0.1395,-20.209716796875,17.947509765625,1.291259765625
0.14,-21.771240234375,15.585205078125,5.135009765625
0.1405,-22.451904296875,12.942626953125,8.458251953125
0.141,-22.291748046875,9.339111328125,12.021728515625
0.1415,-21.731201171875,5.295166015625,15.545166015625
0.142,-20.570068359375,1.211181640625,18.548095703125
0.1425,-18.207763671875,-3.553466796875,20.790283203125
0.143,-15.645263671875,-6.876708984375,21.631103515625
0.1435,-12.922607421875,-10.119873046875,22.271728515625
0.144,-9.198974609375,-13.523193359375,21.911376953125
0.1445,-3.873779296875,-17.166748046875,20.469970703125
0.145,0.730712890625,-19.529052734375,18.427978515625
0.1455,5.175048828125,-21.170654296875,16.025634765625
0.146,8.338134765625,-21.771240234375,13.703369140625
0.1465,11.861572265625,-21.691162109375,10.300048828125
0.147,15.104736328125,-21.170654296875,6.776611328125
0.1475,18.387939453125,-19.729248046875,2.212158203125
0.148,20.630126953125,-17.126708984375,-2.632568359375
0.1485,21.711181640625,-14.764404296875,-5.995849609375
0.149,22.271728515625,-12.001708984375,-9.359130859375
0.1495,22.071533203125,-8.438232421875,-12.802490234375
0.15,21.190673828125,-4.033935546875,-16.365966796875
0.1505,19.669189453125,0.010009765625,-18.888427734375
0.151,17.306884765625,4.334228515625,-20.890380859375
0.1515,14.744384765625,7.537353515625,-21.571044921875
0.152,11.581298828125,10.900634765625,-21.811279296875
0.1525,7.577392578125,14.424072265625,-21.531005859375
0.153,2.572509765625,17.787353515625,-20.009521484375
0.1535,-2.432373046875,19.869384765625,-17.326904296875
0.154,-6.035888671875,21.110595703125,-15.324951171875
0.1545,-9.319091796875,21.631103515625,-12.802490234375
0.155,-12.682373046875,21.430908203125,-9.439208984375
0.1555,-16.125732421875,20.550048828125,-5.315185546875
0.156,-18.968505859375,18.828369140625,-0.830810546875
0.1565,-21.090576171875,16.265869140625,3.813720703125
0.157,-21.771240234375,13.783447265625,6.936767578125
0.1575,-22.171630859375,10.740478515625,10.460205078125
0.158,-21.851318359375,6.936767578125,14.023681640625
0.1585,-20.890380859375,2.652587890625,17.346923828125
0.159,-18.848388671875,-1.671630859375,19.549072265625
0.1595,-16.606201171875,-5.595458984375,21.270751953125
0.16,-14.043701171875,-8.718505859375,21.911376953125
0.1605,-10.440185546875,-12.041748046875,21.711181640625
0.161,-6.075927734375,-15.525146484375,21.070556640625
0.1615,-1.031005859375,-18.568115234375,19.228759765625
0.162,3.733642578125,-20.329833984375,16.546142578125
0.1625,6.896728515625,-21.170654296875,14.424072265625
0.163,10.300048828125,-21.651123046875,11.741455078125
0.1635,13.743408203125,-21.130615234375,8.057861328125
0.164,16.986572265625,-20.049560546875,3.893798828125
0.1645,19.509033203125,-17.967529296875,-0.670654296875
0.165,21.310791015625,-15.565185546875,-4.834716796875
0.1655,21.751220703125,-12.922607421875,-7.877685546875
0.166,21.911376953125,-9.719482421875,-11.361083984375
0.1665,21.350830078125,-5.635498046875,-14.924560546875
0.167,20.229736328125,-1.551513671875,-17.967529296875
0.1675,17.867431640625,2.852783203125,-19.889404296875
0.168,15.665283203125,6.176025390625,-21.130615234375
0.1685,12.902587890625,9.459228515625,-21.731201171875
0.169,8.938720703125,12.902587890625,-21.330810546875
0.1695,4.494384765625,16.265869140625,-20.289794921875
0.17,-0.550537109375,18.908447265625,-18.247802734375
0.1705,-4.874755859375,20.630126953125,-15.845458984375
0.171,-7.837646484375,21.030517578125,-13.603271484375
0.1715,-11.120849609375,21.350830078125,-10.880615234375
0.172,-14.764404296875,20.630126953125,-6.716552734375
0.1725,-17.727294921875,19.268798828125,-2.512451171875
0.173,-19.889404296875,16.986572265625,1.931884765625
0.1735,-21.410888671875,14.744384765625,5.655517578125
0.174,-21.731201171875,11.901611328125,8.818603515625
0.1745,-21.771240234375,8.418212890625,12.422119140625
0.175,-21.010498046875,4.334228515625,15.745361328125
0.1755,-19.569091796875,0.090087890625,18.628173828125
0.176,-17.166748046875,-4.194091796875,20.469970703125
0.1765,-14.804443359375,-7.277099609375,21.270751953125
0.177,-12.121826171875,-10.520263671875,21.791259765625
0.1775,-7.517333984375,-14.283935546875,21.150634765625
0.178,-3.072998046875,-17.206787109375,19.749267578125
0.1785,1.771728515625,-19.368896484375,17.427001953125
0.179,5.735595703125,-20.970458984375,15.344970703125
0.1795,8.778564453125,-21.170654296875,12.742431640625
0.18,12.021728515625,-21.330810546875,9.899658203125
0.1805,15.745361328125,-20.530029296875,5.575439453125
0.181,18.588134765625,-18.728271484375,1.051025390625
