wavelength,x,y,z
0.0,-13.167846679688,-8.2430419921875,20.585083007812
0.0005,-10.405151367188,-10.725463867188,20.424926757812
0.001,-5.5203857421875,-14.409057617188,19.383911132812
0.0015,-1.2362060546875,-17.251831054688,17.982543945312
0.002,3.6085205078125,-19.534057617188,15.860473632812
0.0025,6.2510986328125,-20.014526367188,13.898559570312
0.003,9.5743408203125,-20.134643554688,10.935668945312
0.0035,11.736450195312,-20.054565429688,8.8936767578125
0.004,15.820434570312,-18.813354492188,3.6885986328125
0.0045,18.302856445312,-17.011596679688,-0.5155029296875
0.005,19.744262695312,-15.089721679688,-3.8787841796875
0.0055,20.264770507812,-12.407104492188,-6.9217529296875
0.006,20.104614257812,-9.6444091796875,-9.5643310546875
0.0065,19.664184570312,-5.9608154296875,-12.887573242188
0.007,18.703247070312,-1.9569091796875,-15.970581054688
0.0075,16.781372070312,2.5675048828125,-18.573120117188
0.008,14.579223632812,5.4102783203125,-19.253784179688
0.0085,11.776489257812,8.5733642578125,-19.694213867188
0.009,9.5343017578125,10.855590820312,-19.854370117188
0.0095,3.8087158203125,14.899536132812,-18.412963867188
0.01,-0.2752685546875,17.301879882812,-16.931518554688
0.0105,-4.1190185546875,19.103637695312,-15.089721679688
0.011,-7.0018310546875,19.584106445312,-12.927612304688
0.0115,-9.7244873046875,19.584106445312,-10.365112304688
0.012,-12.687377929688,19.223754882812,-7.2420654296875
0.0125,-16.090698242188,18.062622070312,-2.7576904296875
0.013,-18.653198242188,15.980590820312,1.8468017578125
0.0135,-19.494018554688,14.058715820312,4.5294189453125
0.014,-19.934448242188,11.215942382812,7.8126220703125
0.0145,-19.894409179688,8.8536376953125,10.134887695312
0.015,-19.013549804688,4.2091064453125,14.018676757812
0.0155,-18.052612304688,0.6456298828125,16.541137695312
0.016,-16.130737304688,-3.5584716796875,18.823364257812
0.0165,-13.808471679688,-6.4012451171875,19.423950195312
0.017,-10.965698242188,-9.2840576171875,19.504028320312
0.0175,-8.0828857421875,-12.126831054688,19.504028320312
0.018,-2.5574951171875,-15.730346679688,17.902465820312
0.0185,1.8468017578125,-18.052612304688,16.060668945312
0.019,4.7696533203125,-19.133666992188,14.459106445312
0.0195,7.9327392578125,-19.654174804688,12.016723632812
0.02,10.295043945312,-19.534057617188,9.6544189453125
0.0205,14.018676757812,-18.733276367188,5.3702392578125
0.021,16.701293945312,-17.572143554688,1.6065673828125
0.0215,19.063598632812,-15.450073242188,-2.8377685546875
0.022,19.423950195312,-13.167846679688,-5.4403076171875
0.0225,19.664184570312,-10.365112304688,-8.4832763671875
0.023,19.544067382812,-7.7225341796875,-11.045776367188
0.0235,18.623168945312,-3.0780029296875,-14.769409179688
0.024,17.141723632812,0.8858642578125,-17.171752929688
0.0245,15.339965820312,4.1290283203125,-18.733276367188
0.025,12.657348632812,7.1719970703125,-19.213745117188
0.0255,10.094848632812,9.6143798828125,-19.213745117188
0.026,5.8907470703125,13.177856445312,-18.653198242188
0.0265,1.5264892578125,16.140747070312,-17.331909179688
0.027,-3.0780029296875,18.382934570312,-15.249877929688
0.0275,-5.5203857421875,18.903442382812,-13.608276367188
0.028,-8.6834716796875,19.343872070312,-11.085815429688
0.0285,-11.085815429688,19.143676757812,-8.6834716796875
0.029,-14.889526367188,18.062622070312,-3.9188232421875
0.0295,-17.331909179688,16.581176757812,-0.1551513671875
0.03,-19.093627929688,14.699340820312,3.5684814453125
0.0305,-19.413940429688,12.136840820312,6.4112548828125
0.031,-19.534057617188,9.5743408203125,9.0538330078125
0.0315,-19.213745117188,6.0909423828125,12.256958007812
0.032,-18.332885742188,2.0469970703125,15.460083007812
0.0325,-16.411010742188,-2.3572998046875,17.902465820312
0.033,-14.569213867188,-5.0799560546875,18.783325195312
0.0335,-11.966674804688,-8.2030029296875,19.343872070312
0.034,-9.3240966796875,-10.565307617188,19.223754882812
0.0345,-4.1990966796875,-14.369018554688,18.022583007812
0.035,-0.3153076171875,-16.771362304688,16.781372070312
0.0355,3.8487548828125,-18.733276367188,14.859497070312
0.036,6.4512939453125,-19.013549804688,12.737426757812
0.0365,9.0938720703125,-19.293823242188,10.575317382812
0.037,12.296997070312,-18.933471679688,7.1719970703125
0.0375,15.580200195312,-17.772338867188,2.8477783203125
0.038,17.942504882812,-15.890502929688,-1.3563232421875
0.0385,19.063598632812,-14.088745117188,-4.2391357421875
0.039,19.383911132812,-11.245971679688,-7.3221435546875
0.0395,19.303833007812,-8.6834716796875,-9.8446044921875
0.04,18.623168945312,-4.5194091796875,-13.328002929688
0.0405,17.662231445312,-0.9559326171875,-16.050659179688
0.041,15.700317382812,3.2481689453125,-18.212768554688
0.0415,13.338012695312,5.8907470703125,-18.573120117188
0.042,11.055786132812,8.6534423828125,-19.093627929688
0.0425,7.6524658203125,11.696411132812,-18.853393554688
0.043,2.6475830078125,15.059692382812,-17.371948242188
0.0435,-1.4364013671875,17.301879882812,-15.770385742188
0.044,-4.6395263671875,18.703247070312,-14.248901367188
0.0445,-7.5623779296875,18.903442382812,-11.686401367188
0.045,-9.8045654296875,18.903442382812,-9.6444091796875
0.0455,-13.488159179688,18.302856445312,-5.5203857421875
0.046,-16.290893554688,17.021606445312,-1.5965576171875
0.0465,-18.453002929688,15.019653320312,2.5675048828125
0.047,-18.973510742188,12.857543945312,5.2501220703125
0.0475,-19.373901367188,10.255004882812,8.1729736328125
0.048,-19.213745117188,7.3721923828125,10.895629882812
0.0485,-18.212768554688,3.0479736328125,14.298950195312
0.049,-16.931518554688,-0.7156982421875,16.701293945312
0.0495,-15.209838867188,-4.2791748046875,18.543090820312
0.05,-12.487182617188,-7.0418701171875,18.703247070312
0.0505,-10.405151367188,-9.3240966796875,19.023559570312
0.051,-6.0408935546875,-13.007690429688,18.463012695312
0.0515,-1.5164794921875,-15.850463867188,16.981567382812
0.052,2.6876220703125,-17.772338867188,15.019653320312
0.0525,5.1700439453125,-18.493041992188,13.418090820312
0.053,8.1329345703125,-18.653198242188,10.855590820312
0.0535,10.495239257812,-18.292846679688,8.2930908203125
0.054,13.938598632812,-17.331909179688,4.0889892578125
0.0545,16.260864257812,-15.810424804688,0.2852783203125
0.055,17.942504882812,-13.968627929688,-3.1981201171875
0.0555,18.062622070312,-11.406127929688,-5.8807373046875
0.056,18.262817382812,-9.2840576171875,-8.2030029296875
0.0565,17.942504882812,-5.5203857421875,-11.526245117188
0.057,17.021606445312,-1.9569091796875,-14.409057617188
0.0575,15.259887695312,1.8868408203125,-16.491088867188
0.058,13.698364257812,4.7296142578125,-17.732299804688
0.0585,11.015747070312,7.5723876953125,-17.972534179688
0.059,8.6534423828125,9.9346923828125,-18.052612304688
0.0595,4.1290283203125,13.458129882812,-17.251831054688
0.06,0.1651611328125,15.980590820312,-15.930541992188
0.0605,-3.5584716796875,17.622192382812,-14.208862304688
0.061,-6.1610107421875,18.062622070312,-12.206909179688
0.0615,-8.6033935546875,18.503051757812,-10.365112304688
0.062,-11.886596679688,17.982543945312,-6.7615966796875
0.0625,-14.929565429688,16.941528320312,-2.7576904296875
0.063,-17.291870117188,15.299926757812,1.2462158203125
0.0635,-18.573120117188,13.458129882812,4.2091064453125
0.064,-18.573120117188,10.575317382812,7.1719970703125
0.0645,-18.733276367188,8.3731689453125,9.4542236328125
0.065,-18.292846679688,4.1690673828125,13.097778320312
0.0655,-17.211791992188,0.4854736328125,15.860473632812
0.066,-15.089721679688,-3.4783935546875,17.742309570312
0.0665,-13.247924804688,-6.3211669921875,18.463012695312
0.067,-10.765502929688,-8.8436279296875,18.903442382812
0.0675,-7.0819091796875,-11.926635742188,18.463012695312
0.068,-2.3973388671875,-15.129760742188,17.141723632812
0.0685,1.8067626953125,-17.532104492188,15.580200195312
0.069,5.0499267578125,-18.933471679688,13.938598632812
0.0695,7.9727783203125,-18.933471679688,11.215942382812
0.07,10.054809570312,-19.173706054688,9.6143798828125
0.0705,14.018676757812,-18.453002929688,5.0499267578125
0.071,16.661254882812,-17.051635742188,1.1260986328125
0.0715,18.583129882812,-15.089721679688,-2.7576904296875
0.072,19.343872070312,-12.967651367188,-5.6405029296875
0.0725,19.463989257812,-10.244995117188,-8.4432373046875
0.073,19.263793945312,-7.2420654296875,-11.286010742188
0.0735,18.342895507812,-3.1580810546875,-14.569213867188
0.074,17.141723632812,0.9259033203125,-17.211791992188
0.0745,15.099731445312,4.4093017578125,-18.733276367188
0.075,12.457153320312,7.2921142578125,-18.973510742188
0.0755,10.495239257812,9.5343017578125,-19.413940429688
0.076,5.4503173828125,13.498168945312,-18.573120117188
0.0765,1.2061767578125,16.140747070312,-17.171752929688
0.077,-2.9178466796875,18.182739257812,-15.249877929688
0.0775,-5.8406982421875,19.223754882812,-13.648315429688
0.078,-8.9237060546875,19.223754882812,-10.725463867188
0.0785,-11.205932617188,19.063598632812,-8.4832763671875
0.079,-15.049682617188,18.182739257812,-3.8787841796875
0.0795,-17.692260742188,16.501098632812,0.4053955078125
0.08,-19.133666992188,14.539184570312,3.7686767578125
0.0805,-19.534057617188,11.816528320312,6.8516845703125
0.081,-19.734252929688,9.6544189453125,9.1339111328125
0.0815,-19.293823242188,5.4102783203125,12.857543945312
0.082,-18.212768554688,1.6065673828125,15.700317382812
0.0825,-16.491088867188,-2.5174560546875,18.062622070312
0.083,-14.609252929688,-5.6405029296875,19.423950195312
0.0835,-11.245971679688,-8.7235107421875,19.223754882812
0.084,-9.2840576171875,-10.845581054688,19.504028320312
0.0845,-3.7586669921875,-14.929565429688,18.262817382812
0.085,0.6856689453125,-17.411987304688,16.581176757812
0.0855,4.2891845703125,-18.933471679688,14.659301757812
0.086,7.2120361328125,-19.534057617188,12.577270507812
0.0865,9.8546142578125,-19.614135742188,10.214965820312
0.087,13.017700195312,-18.933471679688,6.4913330078125
0.0875,16.180786132812,-17.812377929688,2.4073486328125
0.088,18.623168945312,-15.890502929688,-1.9969482421875
0.0885,19.664184570312,-13.968627929688,-4.9598388671875
0.089,19.704223632812,-10.765502929688,-8.1629638671875
0.0895,19.784301757812,-8.8436279296875,-10.164916992188
0.09,18.983520507812,-3.9989013671875,-14.248901367188
0.0905,17.742309570312,-0.1951904296875,-16.811401367188
0.091,15.660278320312,3.6885986328125,-18.533081054688
0.0915,13.578247070312,6.6915283203125,-19.574096679688
0.092,10.575317382812,9.5343017578125,-19.534057617188
0.0925,7.2921142578125,12.377075195312,-19.173706054688
0.093,2.4073486328125,15.820434570312,-17.932495117188
0.0935,-2.2772216796875,18.302856445312,-16.010620117188
0.094,-5.2801513671875,19.303833007812,-14.248901367188
0.0945,-8.4832763671875,19.584106445312,-11.486206054688
0.095,-10.565307617188,19.784301757812,-9.8045654296875
0.0955,-14.649291992188,18.703247070312,-4.8397216796875
0.096,-17.291870117188,17.301879882812,-0.9158935546875
0.0965,-19.293823242188,15.219848632812,3.2081298828125
0.097,-20.174682617188,13.017700195312,6.2110595703125
0.0975,-20.014526367188,9.7745361328125,9.2540283203125
0.098,-19.894409179688,7.3321533203125,11.656372070312
0.0985,-19.013549804688,2.6876220703125,15.420043945312
0.099,-17.452026367188,-1.5965576171875,18.142700195312
0.0995,-15.249877929688,-4.9598388671875,19.343872070312
0.1,-12.687377929688,-8.1229248046875,19.984497070312
0.1005,-10.365112304688,-10.485229492188,20.144653320312
0.101,-5.2000732421875,-14.409057617188,19.063598632812
0.1015,-0.9559326171875,-17.051635742188,17.662231445312
0.102,3.6885986328125,-19.333862304688,15.620239257812
0.1025,6.5313720703125,-20.054565429688,13.738403320312
0.103,9.9346923828125,-20.054565429688,10.535278320312
0.1035,12.016723632812,-19.974487304688,8.5733642578125
0.104,15.980590820312,-18.813354492188,3.4884033203125
0.1045,18.703247070312,-16.971557617188,-1.0360107421875
0.105,19.984497070312,-14.889526367188,-4.3192138671875
0.1055,20.545043945312,-12.166870117188,-7.6024169921875
0.106,20.424926757812,-9.4041748046875,-10.164916992188
0.1065,19.824340820312,-5.6405029296875,-13.808471679688
0.107,18.823364257812,-1.4764404296875,-16.571166992188
0.1075,16.901489257812,3.1280517578125,-19.213745117188
0.108,14.579223632812,6.1309814453125,-19.974487304688
0.1085,11.336059570312,9.4542236328125,-20.134643554688
0.109,9.2139892578125,11.656372070312,-20.334838867188
0.1095,3.2481689453125,15.900512695312,-18.773315429688
0.11,-1.0360107421875,18.222778320312,-17.051635742188
0.1105,-4.8397216796875,19.824340820312,-15.089721679688
0.111,-7.8426513671875,20.384887695312,-12.887573242188
0.1115,-10.765502929688,20.184692382812,-9.9647216796875
0.112,-13.648315429688,19.504028320312,-6.7615966796875
0.1125,-17.171752929688,18.382934570312,-2.0770263671875
0.113,-19.734252929688,16.100708007812,2.6876220703125
0.1135,-20.494995117188,13.978637695312,5.5704345703125
0.114,-20.815307617188,10.855590820312,8.9337158203125
0.1145,-20.655151367188,8.5333251953125,11.175903320312
0.115,-19.734252929688,3.5684814453125,15.099731445312
0.1155,-18.412963867188,-0.2752685546875,17.662231445312
0.116,-16.330932617188,-4.3992919921875,19.824340820312
0.1165,-13.968627929688,-7.3221435546875,20.505004882812
0.117,-10.605346679688,-10.405151367188,20.304809570312
0.1175,-7.6824951171875,-13.047729492188,20.104614257812
0.118,-1.9969482421875,-16.771362304688,18.422973632812
0.1185,2.7276611328125,-19.133666992188,16.300903320312
0.119,5.6905517578125,-20.054565429688,14.459106445312
0.1195,8.9737548828125,-20.494995117188,11.856567382812
0.12,11.496215820312,-20.254760742188,9.3741455078125
0.1205,15.139770507812,-19.253784179688,4.7696533203125
0.121,17.782348632812,-17.932495117188,0.8858642578125
0.1215,20.104614257812,-15.650268554688,-3.6785888671875
0.122,20.464965820312,-13.167846679688,-6.4412841796875
0.1225,20.464965820312,-9.9647216796875,-9.6844482421875
0.123,20.344848632812,-7.4022216796875,-12.086791992188
0.1235,19.223754882812,-2.5174560546875,-15.930541992188
0.124,17.462036132812,1.6866455078125,-18.332885742188
0.1245,15.380004882812,5.0499267578125,-19.694213867188
0.125,12.777465820312,8.2130126953125,-20.014526367188
0.1255,9.8546142578125,10.815551757812,-20.054565429688
0.126,5.4102783203125,14.298950195312,-19.253784179688
0.1265,0.9259033203125,17.181762695312,-17.852416992188
0.127,-3.9188232421875,19.504028320312,-15.570190429688
0.1275,-6.4813232421875,19.904418945312,-13.608276367188
0.128,-9.8045654296875,20.264770507812,-10.765502929688
0.1285,-12.126831054688,19.904418945312,-8.4832763671875
0.129,-16.170776367188,18.623168945312,-3.3182373046875
0.1295,-18.573120117188,16.941528320312,0.7657470703125
0.13,-20.214721679688,14.859497070312,4.4893798828125
0.1305,-20.655151367188,12.136840820312,7.5723876953125
0.131,-20.575073242188,9.2139892578125,10.415161132812
0.1315,-20.134643554688,5.6905517578125,13.578247070312
0.132,-19.093627929688,1.3262939453125,16.821411132812
0.1325,-16.971557617188,-3.2781982421875,19.343872070312
0.133,-14.769409179688,-6.1209716796875,20.104614257812
0.1335,-11.926635742188,-9.4442138671875,20.625122070312
0.134,-9.1239013671875,-11.926635742188,20.464965820312
0.1345,-3.5584716796875,-15.890502929688,18.943481445312
0.135,0.6856689453125,-18.252807617188,17.421997070312
0.1355,4.9698486328125,-20.254760742188,15.339965820312
0.136,7.7325439453125,-20.494995117188,13.017700195312
0.1365,10.735473632812,-20.615112304688,10.295043945312
0.137,13.898559570312,-20.174682617188,6.8917236328125
0.1375,17.421997070312,-18.653198242188,2.0469970703125
0.138,19.904418945312,-16.531127929688,-2.5574951171875
0.1385,20.865356445312,-14.409057617188,-5.6405029296875
0.139,21.225708007812,-11.326049804688,-9.0438232421875
0.1395,20.985473632812,-8.3231201171875,-11.806518554688
0.14,20.104614257812,-3.8387451171875,-15.450073242188
0.1405,18.903442382812,0.1651611328125,-18.252807617188
0.141,16.661254882812,4.7296142578125,-20.535034179688
0.1415,13.818481445312,7.6524658203125,-20.775268554688
0.142,11.015747070312,10.695434570312,-21.135620117188
0.1425,7.2921142578125,13.898559570312,-20.695190429688
0.143,1.7266845703125,17.462036132812,-18.933471679688
0.1435,-2.8778076171875,19.784301757812,-16.931518554688
0.144,-6.4012451171875,21.105590820312,-15.009643554688
0.1445,-9.6844482421875,21.185668945312,-12.046752929688
0.145,-12.367065429688,21.025512695312,-9.3641357421875
0.1455,-16.210815429688,20.144653320312,-4.8397216796875
0.146,-19.213745117188,18.543090820312,-0.3153076171875
0.1465,-21.495971679688,16.060668945312,4.4493408203125
0.147,-21.936401367188,13.418090820312,7.4923095703125
0.1475,-22.176635742188,10.255004882812,10.895629882812
0.148,-21.776245117188,6.8116455078125,14.018676757812
0.1485,-20.454956054688,1.9268798828125,17.622192382812
0.149,-18.733276367188,-2.3572998046875,20.144653320312
0.1495,-16.491088867188,-6.4012451171875,21.946411132812
0.15,-13.087768554688,-9.6444091796875,21.906372070312
0.1505,-10.244995117188,-12.367065429688,21.906372070312
0.151,-5.2401123046875,-16.290893554688,20.985473632812
0.1515,0.0450439453125,-19.293823242188,19.023559570312
0.152,4.8497314453125,-21.415893554688,16.501098632812
0.1525,7.9327392578125,-22.096557617188,14.379028320312
0.153,11.496215820312,-22.176635742188,11.175903320312
0.1535,14.218872070312,-21.495971679688,7.8927001953125
0.154,18.222778320312,-20.174682617188,2.8477783203125
0.1545,20.785278320312,-18.212768554688,-1.7567138671875
0.155,22.466918945312,-15.730346679688,-5.8406982421875
0.1555,22.426879882812,-12.407104492188,-9.1239013671875
0.156,22.466918945312,-9.5643310546875,-12.046752929688
0.1565,21.706176757812,-5.0799560546875,-15.730346679688
0.157,20.264770507812,-0.5155029296875,-18.933471679688
0.1575,17.822387695312,4.0889892578125,-21.015502929688
0.158,15.540161132812,7.5323486328125,-22.256713867188
0.1585,11.816528320312,10.935668945312,-22.096557617188
0.159,8.6534423828125,13.618286132812,-21.736206054688
0.1595,3.2081298828125,17.502075195312,-20.334838867188
0.16,-1.7567138671875,20.144653320312,-18.372924804688
0.1605,-6.1209716796875,21.746215820312,-15.890502929688
0.161,-9.1639404296875,21.906372070312,-13.127807617188
0.1615,-12.126831054688,22.066528320312,-10.645385742188
0.162,-15.650268554688,21.025512695312,-6.2811279296875
0.1625,-18.973510742188,19.423950195312,-1.4364013671875
0.163,-21.415893554688,17.141723632812,3.2481689453125
0.1635,-22.617065429688,14.779418945312,6.7716064453125
0.164,-22.456909179688,11.175903320312,10.214965820312
0.1645,-22.296752929688,8.4132080078125,12.857543945312
0.165,-21.295776367188,3.5284423828125,16.781372070312
0.1655,-19.814331054688,-0.9158935546875,19.704223632812
0.166,-17.131713867188,-5.3602294921875,21.505981445312
0.1665,-14.489135742188,-8.5233154296875,22.146606445312
0.167,-11.406127929688,-11.646362304688,22.306762695312
0.1675,-7.0819091796875,-14.929565429688,21.465942382812
0.168,-1.7567138671875,-18.292846679688,19.704223632812
0.1685,3.1280517578125,-20.815307617188,17.622192382812
0.169,6.8917236328125,-22.096557617188,15.380004882812
0.1695,10.295043945312,-21.896362304688,11.976684570312
0.17,12.657348632812,-21.936401367188,9.8946533203125
0.1705,16.941528320312,-20.775268554688,4.6094970703125
0.171,19.824340820312,-18.933471679688,0.0050048828125
0.1715,21.786254882812,-16.491088867188,-4.4393310546875
0.172,22.546997070312,-13.888549804688,-7.7225341796875
0.1725,22.386840820312,-10.405151367188,-11.045776367188
0.173,21.946411132812,-7.0018310546875,-14.008666992188
0.1735,20.705200195312,-2.2772216796875,-17.572143554688
0.174,18.983520507812,2.3272705078125,-20.414916992188
0.1745,16.380981445312,6.3311767578125,-21.816284179688
0.175,12.977661132812,9.6544189453125,-21.896362304688
0.1755,10.695434570312,12.176879882812,-22.256713867188
0.176,4.9698486328125,16.461059570312,-20.975463867188
0.1765,0.0450439453125,19.183715820312,-19.093627929688
0.177,-4.6395263671875,21.305786132812,-16.731323242188
0.1775,-7.9627685546875,22.266723632812,-14.689331054688
0.178,-11.646362304688,22.026489257812,-10.965698242188
