wavelength,x,y,z
0.0,7.056884765625,19.869384765625,-26.736083984375
0.0005,1.131103515625,22.912353515625,-23.933349609375
0.001,-3.593505859375,24.674072265625,-21.170654296875
0.0015,-8.398193359375,25.915283203125,-17.767333984375
0.002,-14.123779296875,26.756103515625,-12.962646484375
0.0025,-17.967529296875,25.314697265625,-7.837646484375
0.003,-21.130615234375,25.114501953125,-4.634521484375
0.0035,-23.773193359375,22.151611328125,0.930908203125
0.004,-25.895263671875,19.709228515625,5.495361328125
0.0045,-25.935302734375,15.104736328125,10.179931640625
0.005,-26.656005859375,10.620361328125,15.385009765625
0.0055,-25.614990234375,6.616455078125,18.387939453125
0.006,-24.213623046875,1.891845703125,21.631103515625
0.0065,-21.611083984375,-2.912841796875,23.753173828125
0.007,-19.208740234375,-7.757568359375,26.195556640625
0.0075,-14.283935546875,-13.122802734375,26.555908203125
0.008,-9.479248046875,-17.567138671875,26.075439453125
0.0085,-6.396240234375,-20.249755859375,25.675048828125
0.009,-0.190185546875,-23.212646484375,22.471923828125
0.0095,4.254150390625,-25.134521484375,20.029541015625
0.01,9.699462890625,-25.855224609375,15.625244140625
0.0105,14.904541015625,-26.615966796875,11.381103515625
0.011,18.628173828125,-25.374755859375,6.536376953125
0.0115,21.671142578125,-24.533935546875,2.812744140625
0.012,24.113525390625,-21.731201171875,-2.512451171875
0.0125,26.115478515625,-18.808349609375,-7.397216796875
0.013,25.795166015625,-13.803466796875,-12.121826171875
0.0135,26.355712890625,-9.559326171875,-16.926513671875
0.014,25.314697265625,-5.715576171875,-19.729248046875
0.0145,23.352783203125,-0.390380859375,-23.052490234375
0.015,20.710205078125,4.494384765625,-25.134521484375
0.0155,17.226806640625,9.899658203125,-26.976318359375
0.016,12.582275390625,14.744384765625,-27.136474609375
0.0165,7.657470703125,18.868408203125,-26.335693359375
0.017,4.134033203125,21.270751953125,-25.294677734375
0.0175,-2.192138671875,24.153564453125,-22.051513671875
0.018,-6.876708984375,25.915283203125,-19.208740234375
0.0185,-12.522216796875,26.035400390625,-13.843505859375
0.019,-16.886474609375,26.395751953125,-9.999755859375
0.0195,-20.489990234375,25.154541015625,-5.235107421875
0.02,-23.372802734375,23.472900390625,-0.790771484375
0.0205,-25.534912109375,20.309814453125,4.494384765625
0.021,-27.216552734375,16.786376953125,9.779541015625
0.0215,-26.415771484375,11.461181640625,14.263916015625
0.022,-26.575927734375,7.457275390625,18.427978515625
0.0225,-25.134521484375,3.533447265625,20.990478515625
0.023,-22.892333984375,-2.112060546875,24.193603515625
0.0235,-19.889404296875,-6.956787109375,25.995361328125
0.024,-15.244873046875,-12.802490234375,27.116455078125
0.0245,-11.000732421875,-17.006591796875,27.036376953125
0.025,-6.115966796875,-20.810302734375,25.915283203125
0.0255,-2.072021484375,-22.852294921875,23.913330078125
0.026,3.773681640625,-25.334716796875,20.870361328125
0.0265,8.898681640625,-26.816162109375,17.346923828125
0.027,14.223876953125,-26.335693359375,11.701416015625
0.0275,18.067626953125,-26.415771484375,8.137939453125
0.028,21.310791015625,-24.894287109375,3.493408203125
0.0285,23.993408203125,-22.932373046875,-1.191162109375
0.029,25.594970703125,-19.529052734375,-6.115966796875
0.0295,26.876220703125,-15.405029296875,-11.561279296875
0.03,25.955322265625,-10.320068359375,-15.685302734375
0.0305,25.755126953125,-6.476318359375,-19.328857421875
0.031,23.993408203125,-2.472412109375,-21.611083984375
0.0315,21.791259765625,2.932861328125,-24.654052734375
0.032,18.548095703125,7.817626953125,-26.255615234375
0.0325,13.583251953125,13.343017578125,-26.776123046875
0.033,9.779541015625,17.146728515625,-26.776123046875
0.0335,4.974853515625,20.510009765625,-25.374755859375
0.034,0.370361328125,22.672119140625,-22.932373046875
0.0345,-4.594482421875,24.714111328125,-20.209716796875
0.035,-10.320068359375,26.115478515625,-16.005615234375
0.0355,-14.844482421875,25.314697265625,-10.880615234375
0.036,-18.528076171875,25.474853515625,-7.517333984375
0.0365,-21.450927734375,23.633056640625,-2.832763671875
0.037,-24.133544921875,21.510986328125,1.931884765625
0.0375,-25.294677734375,17.987548828125,6.576416015625
0.038,-26.335693359375,13.543212890625,12.141845703125
0.0385,-25.695068359375,9.018798828125,15.985595703125
0.039,-25.214599609375,5.054931640625,19.509033203125
0.0395,-23.092529296875,0.650634765625,21.791259765625
0.04,-21.130615234375,-4.274169921875,24.634033203125
0.0405,-17.166748046875,-9.719482421875,25.955322265625
0.041,-12.322021484375,-14.804443359375,26.115478515625
0.0415,-8.838623046875,-18.287841796875,26.115478515625
0.042,-3.833740234375,-21.410888671875,24.353759765625
0.0425,1.211181640625,-23.693115234375,21.751220703125
0.043,5.695556640625,-25.254638671875,18.908447265625
0.0435,12.021728515625,-26.575927734375,14.103759765625
0.044,16.145751953125,-25.494873046875,9.058837890625
0.0445,19.789306640625,-25.655029296875,5.735595703125
0.045,22.552001953125,-23.332763671875,0.690673828125
0.0455,25.034423828125,-21.090576171875,-4.114013671875
0.046,25.675048828125,-16.926513671875,-8.838623046875
0.0465,26.515869140625,-12.241943359375,-14.364013671875
0.047,25.835205078125,-8.037841796875,-17.887451171875
0.0475,24.954345703125,-3.633544921875,-21.370849609375
0.048,22.351806640625,1.331298828125,-23.693115234375
0.0485,20.309814453125,6.015869140625,-26.255615234375
0.049,15.385009765625,11.781494140625,-27.056396484375
0.0495,10.380126953125,16.546142578125,-26.856201171875
0.05,7.096923828125,19.789306640625,-26.656005859375
0.0505,1.211181640625,22.912353515625,-23.973388671875
0.051,-3.833740234375,25.034423828125,-21.250732421875
0.0515,-8.598388671875,25.995361328125,-17.647216796875
0.052,-14.484130859375,26.956298828125,-12.842529296875
0.0525,-18.367919921875,25.554931640625,-7.717529296875
0.053,-21.931396484375,25.274658203125,-3.953857421875
0.0535,-24.533935546875,22.351806640625,1.531494140625
0.054,-26.615966796875,19.629150390625,6.336181640625
0.0545,-26.535888671875,14.784423828125,11.020751953125
0.055,-27.056396484375,10.179931640625,16.185791015625
0.0555,-26.095458984375,6.135986328125,19.268798828125
0.056,-24.493896484375,1.010986328125,22.752197265625
0.0565,-21.731201171875,-3.993896484375,24.834228515625
0.057,-18.968505859375,-8.878662109375,26.916259765625
0.0575,-13.883544921875,-14.323974609375,27.196533203125
0.058,-8.758544921875,-18.688232421875,26.395751953125
0.0585,-5.435302734375,-21.490966796875,25.915283203125
0.059,0.890869140625,-24.333740234375,22.632080078125
0.0595,5.495361328125,-26.135498046875,19.989501953125
0.06,10.660400390625,-26.415771484375,15.224853515625
0.0605,15.825439453125,-27.056396484375,10.900634765625
0.061,19.388916015625,-25.655029296875,6.095947265625
0.0615,22.552001953125,-24.614013671875,1.971923828125
0.062,24.794189453125,-21.651123046875,-3.193115234375
0.0625,26.435791015625,-18.568115234375,-7.957763671875
0.063,25.955322265625,-13.483154296875,-12.562255859375
0.0635,26.195556640625,-9.038818359375,-17.206787109375
0.064,25.314697265625,-5.475341796875,-19.889404296875
0.0645,23.112548828125,-0.070068359375,-23.092529296875
0.065,20.670166015625,4.454345703125,-25.134521484375
0.0655,16.986572265625,9.539306640625,-26.535888671875
0.066,12.622314453125,14.424072265625,-26.896240234375
0.0665,7.577392578125,18.508056640625,-25.855224609375
0.067,4.053955078125,21.070556640625,-24.934326171875
0.0675,-1.951904296875,23.673095703125,-21.731201171875
0.068,-6.396240234375,25.514892578125,-19.208740234375
0.0685,-11.561279296875,25.274658203125,-13.963623046875
0.069,-16.005615234375,25.755126953125,-10.199951171875
0.0695,-19.448974609375,24.714111328125,-5.875732421875
0.07,-22.491943359375,23.152587890625,-1.311279296875
0.0705,-24.493896484375,20.229736328125,3.573486328125
0.071,-26.015380859375,16.826416015625,8.498291015625
0.0715,-25.614990234375,11.901611328125,13.022705078125
0.072,-25.614990234375,7.617431640625,17.306884765625
0.0725,-24.734130859375,4.093994140625,19.949462890625
0.073,-22.451904296875,-1.551513671875,23.192626953125
0.0735,-20.169677734375,-6.035888671875,25.314697265625
0.074,-15.405029296875,-11.401123046875,25.915283203125
0.0745,-11.681396484375,-15.805419921875,26.555908203125
0.075,-6.756591796875,-19.569091796875,25.394775390625
0.0755,-2.632568359375,-22.011474609375,23.753173828125
0.076,3.012939453125,-24.493896484375,20.790283203125
0.0765,8.177978515625,-26.295654296875,17.547119140625
0.077,13.423095703125,-25.775146484375,11.941650390625
0.0775,17.547119140625,-26.055419921875,8.298095703125
0.078,20.830322265625,-24.854248046875,3.893798828125
0.0785,23.833251953125,-22.932373046875,-1.031005859375
0.079,25.394775390625,-19.609130859375,-5.835693359375
0.0795,26.595947265625,-15.405029296875,-11.240966796875
0.08,26.035400390625,-10.600341796875,-15.485107421875
0.0805,25.675048828125,-6.396240234375,-19.489013671875
0.081,24.153564453125,-2.312255859375,-21.931396484375
0.0815,21.791259765625,3.333251953125,-25.174560546875
0.082,18.628173828125,8.458251953125,-26.976318359375
0.0825,13.302978515625,13.903564453125,-27.016357421875
0.083,9.699462890625,17.747314453125,-27.216552734375
0.0835,4.614501953125,21.310791015625,-25.695068359375
0.084,-0.350341796875,23.673095703125,-23.252685546875
0.0845,-5.355224609375,25.554931640625,-20.249755859375
0.085,-11.321044921875,26.996337890625,-15.965576171875
0.0855,-15.885498046875,25.835205078125,-10.440185546875
0.086,-19.729248046875,25.955322265625,-6.796630859375
0.0865,-22.852294921875,23.993408203125,-1.831787109375
0.087,-25.655029296875,21.751220703125,3.253173828125
0.0875,-26.455810546875,17.907470703125,7.897705078125
0.088,-27.256591796875,13.182861328125,13.383056640625
0.0885,-26.415771484375,8.618408203125,17.146728515625
0.089,-25.695068359375,4.214111328125,20.790283203125
0.0895,-23.452880859375,-0.430419921875,23.032470703125
0.09,-21.290771484375,-5.395263671875,25.835205078125
0.0905,-17.006591796875,-10.880615234375,26.996337890625
0.091,-11.721435546875,-15.885498046875,26.635986328125
0.0915,-8.238037109375,-19.328857421875,26.595947265625
0.092,-2.952880859375,-22.451904296875,24.473876953125
0.0925,2.092041015625,-24.694091796875,21.871337890625
0.093,6.536376953125,-25.935302734375,18.748291015625
0.0935,12.742431640625,-27.136474609375,13.943603515625
0.094,16.666259765625,-25.695068359375,8.778564453125
0.0945,20.469970703125,-25.695068359375,5.135009765625
0.095,23.032470703125,-23.372802734375,0.330322265625
0.0955,25.554931640625,-21.090576171875,-4.514404296875
0.096,25.915283203125,-16.806396484375,-9.158935546875
0.0965,26.395751953125,-12.161865234375,-14.404052734375
0.097,25.835205078125,-8.197998046875,-17.807373046875
0.0975,24.634033203125,-3.553466796875,-21.290771484375
0.098,22.391845703125,1.131103515625,-23.532958984375
0.0985,20.309814453125,5.655517578125,-25.895263671875
0.099,15.585205078125,11.461181640625,-26.896240234375
0.0995,10.460205078125,15.945556640625,-26.215576171875
0.1,7.257080078125,19.308837890625,-26.335693359375
0.1005,1.571533203125,22.271728515625,-23.653076171875
0.101,-3.273193359375,24.634033203125,-21.410888671875
0.1015,-7.757568359375,25.434814453125,-17.807373046875
0.102,-13.683349609375,26.395751953125,-13.122802734375
0.1025,-17.366943359375,25.114501953125,-8.318115234375
0.103,-21.170654296875,24.874267578125,-4.314208984375
0.1035,-23.693115234375,22.351806640625,0.690673828125
0.104,-25.935302734375,19.869384765625,5.455322265625
0.1045,-26.135498046875,15.144775390625,10.300048828125
0.105,-26.335693359375,10.300048828125,15.344970703125
0.1055,-25.935302734375,6.696533203125,18.468017578125
0.106,-24.213623046875,1.371337890625,22.151611328125
0.1065,-21.931396484375,-3.273193359375,24.473876953125
0.107,-19.168701171875,-8.117919921875,26.435791015625
0.1075,-14.364013671875,-13.723388671875,27.116455078125
0.108,-9.038818359375,-18.007568359375,26.115478515625
0.1085,-5.715576171875,-21.170654296875,25.915283203125
0.109,0.570556640625,-24.093505859375,22.752197265625
0.1095,5.255126953125,-26.255615234375,20.349853515625
0.11,10.420166015625,-26.455810546875,15.505126953125
0.1105,15.785400390625,-27.096435546875,10.980712890625
0.111,19.388916015625,-25.775146484375,6.216064453125
0.1115,23.072509765625,-24.814208984375,1.651611328125
0.112,25.314697265625,-21.931396484375,-3.473388671875
0.1125,27.196533203125,-18.888427734375,-8.358154296875
0.113,26.756103515625,-13.683349609375,-13.202880859375
0.1135,26.595947265625,-8.878662109375,-17.927490234375
0.114,25.915283203125,-5.275146484375,-20.810302734375
0.1145,23.633056640625,0.650634765625,-24.293701171875
0.115,21.110595703125,5.415283203125,-26.415771484375
0.1155,17.106689453125,10.620361328125,-27.576904296875
0.116,12.502197265625,15.625244140625,-27.937255859375
0.1165,7.056884765625,19.709228515625,-26.495849609375
0.117,3.213134765625,22.552001953125,-25.574951171875
0.1175,-3.072998046875,25.234619140625,-22.131591796875
0.118,-7.837646484375,27.156494140625,-19.489013671875
0.1185,-13.162841796875,26.595947265625,-13.763427734375
0.119,-17.647216796875,26.756103515625,-9.599365234375
0.1195,-21.050537109375,25.474853515625,-5.114990234375
0.12,-24.373779296875,23.713134765625,0.010009765625
0.1205,-26.135498046875,20.469970703125,5.014892578125
0.121,-27.576904296875,16.786376953125,10.059814453125
0.1215,-26.856201171875,11.541259765625,14.544189453125
0.122,-26.295654296875,6.896728515625,18.748291015625
0.1225,-25.334716796875,3.333251953125,21.350830078125
0.123,-22.772216796875,-2.672607421875,24.634033203125
0.1235,-20.169677734375,-7.237060546875,26.595947265625
0.124,-15.204833984375,-12.602294921875,26.876220703125
0.1245,-11.200927734375,-16.926513671875,27.196533203125
0.125,-6.115966796875,-20.489990234375,25.594970703125
0.1255,-1.911865234375,-22.972412109375,23.993408203125
0.126,3.773681640625,-25.254638671875,20.750244140625
0.1265,8.858642578125,-26.976318359375,17.547119140625
0.127,13.823486328125,-26.095458984375,11.861572265625
0.1275,17.947509765625,-26.095458984375,7.857666015625
0.128,20.910400390625,-24.894287109375,3.853759765625
0.1285,24.033447265625,-23.012451171875,-1.191162109375
0.129,25.474853515625,-19.689208984375,-5.915771484375
0.1295,26.395751953125,-15.565185546875,-10.960693359375
0.13,25.915283203125,-10.840576171875,-15.204833984375
0.1305,25.234619140625,-6.396240234375,-18.928466796875
0.131,24.073486328125,-2.872802734375,-21.330810546875
0.1315,21.671142578125,2.852783203125,-24.493896484375
0.132,18.948486328125,7.697509765625,-26.535888671875
0.1325,13.663330078125,12.822509765625,-26.295654296875
0.133,10.059814453125,16.906494140625,-26.736083984375
0.1335,5.255126953125,20.149658203125,-25.174560546875
0.134,0.450439453125,22.792236328125,-23.132568359375
0.1345,-4.514404296875,24.714111328125,-20.249755859375
0.135,-10.280029296875,26.395751953125,-16.325927734375
0.1355,-14.644287109375,25.434814453125,-11.200927734375
0.136,-18.728271484375,25.434814453125,-7.237060546875
0.1365,-21.490966796875,23.833251953125,-3.032958984375
0.137,-24.654052734375,21.791259765625,2.212158203125
0.1375,-25.895263671875,18.107666015625,7.016845703125
0.138,-26.535888671875,13.623291015625,12.221923828125
0.1385,-26.255615234375,9.299072265625,16.265869140625
0.139,-25.254638671875,4.734619140625,19.869384765625
0.1395,-23.532958984375,0.410400390625,22.431884765625
0.14,-21.410888671875,-4.794677734375,25.394775390625
0.1405,-17.567138671875,-10.440185546875,27.116455078125
0.141,-12.201904296875,-15.324951171875,26.595947265625
0.1415,-8.598388671875,-19.048583984375,26.676025390625
0.142,-3.313232421875,-22.131591796875,24.593994140625
0.1425,1.971923828125,-24.934326171875,22.151611328125
0.143,6.656494140625,-26.255615234375,18.988525390625
0.1435,13.022705078125,-27.616943359375,14.143798828125
0.144,17.026611328125,-26.255615234375,8.978759765625
0.1445,21.070556640625,-26.135498046875,4.934814453125
0.145,23.673095703125,-23.773193359375,0.010009765625
0.1455,26.475830078125,-21.490966796875,-5.155029296875
0.146,26.996337890625,-16.966552734375,-10.119873046875
0.1465,27.276611328125,-11.921630859375,-15.405029296875
0.147,26.635986328125,-7.837646484375,-18.928466796875
0.1475,25.194580078125,-2.632568359375,-22.612060546875
0.148,22.752197265625,2.252197265625,-25.014404296875
0.1485,20.469970703125,7.096923828125,-27.496826171875
0.149,15.545166015625,13.102783203125,-28.497802734375
0.1495,10.099853515625,17.587158203125,-27.496826171875
0.15,6.536376953125,20.950439453125,-27.256591796875
0.1505,0.370361328125,23.953369140625,-24.173583984375
0.151,-4.674560546875,26.315673828125,-21.731201171875
0.1515,-9.479248046875,26.916259765625,-17.607177734375
0.152,-15.445068359375,27.797119140625,-12.762451171875
0.1525,-19.088623046875,25.995361328125,-7.557373046875
0.153,-22.932373046875,25.354736328125,-3.193115234375
0.1535,-25.254638671875,22.431884765625,1.971923828125
0.154,-27.416748046875,19.869384765625,6.856689453125
0.1545,-27.416748046875,14.904541015625,11.781494140625
0.155,-27.216552734375,9.779541015625,16.746337890625
0.1555,-26.455810546875,6.095947265625,19.709228515625
0.156,-24.293701171875,0.370361328125,23.232666015625
0.1565,-21.971435546875,-4.194091796875,25.394775390625
0.157,-19.088623046875,-8.998779296875,27.196533203125
0.1575,-14.123779296875,-14.684326171875,27.877197265625
0.158,-8.678466796875,-18.688232421875,26.435791015625
0.1585,-5.275146484375,-21.651123046875,25.995361328125
0.159,0.810791015625,-24.213623046875,22.552001953125
0.1595,5.295166015625,-26.415771484375,20.429931640625
0.16,10.380126953125,-26.415771484375,15.505126953125
0.1605,15.785400390625,-27.056396484375,10.900634765625
0.161,19.108642578125,-25.735107421875,6.456298828125
0.1615,22.592041015625,-24.493896484375,1.731689453125
0.162,24.593994140625,-21.811279296875,-2.872802734375
0.1625,26.395751953125,-18.888427734375,-7.597412109375
0.163,26.355712890625,-14.003662109375,-12.442138671875
0.1635,25.955322265625,-9.038818359375,-17.006591796875
0.164,25.514892578125,-5.835693359375,-19.729248046875
0.1645,23.032470703125,0.010009765625,-23.012451171875
0.165,21.190673828125,4.294189453125,-25.374755859375
0.1655,17.306884765625,9.259033203125,-26.455810546875
0.166,12.982666015625,14.544189453125,-27.376708984375
0.1665,7.817626953125,18.347900390625,-25.935302734375
0.167,3.973876953125,21.310791015625,-25.094482421875
0.1675,-1.911865234375,23.713134765625,-21.811279296875
0.168,-6.356201171875,25.915283203125,-19.729248046875
0.1685,-11.601318359375,25.594970703125,-14.323974609375
0.169,-16.365966796875,25.915283203125,-9.999755859375
0.1695,-19.649169921875,25.034423828125,-6.115966796875
0.17,-23.132568359375,23.232666015625,-0.710693359375
0.1705,-25.054443359375,20.429931640625,3.973876953125
0.171,-26.615966796875,16.986572265625,8.898681640625
0.1715,-26.455810546875,12.221923828125,13.583251953125
0.172,-25.855224609375,7.377197265625,17.827392578125
0.1725,-25.134521484375,3.973876953125,20.469970703125
0.173,-22.451904296875,-2.072021484375,23.793212890625
0.1735,-20.449951171875,-6.596435546875,26.235595703125
0.174,-15.405029296875,-12.001708984375,26.435791015625
0.1745,-11.521240234375,-16.646240234375,27.196533203125
0.175,-6.396240234375,-20.209716796875,25.635009765625
0.1755,-1.831787109375,-22.972412109375,23.913330078125
0.176,3.893798828125,-25.254638671875,20.670166015625
0.1765,8.978759765625,-27.296630859375,17.747314453125
0.177,14.143798828125,-26.495849609375,11.981689453125
0.1775,18.387939453125,-26.455810546875,7.737548828125
0.178,21.270751953125,-25.134521484375,3.773681640625
0.1785,24.634033203125,-22.972412109375,-1.711669921875
0.179,26.115478515625,-19.569091796875,-6.596435546875
0.1795,27.036376953125,-15.324951171875,-11.801513671875
0.18,26.716064453125,-10.640380859375,-16.165771484375
0.1805,25.675048828125,-5.835693359375,-19.929443359375
