wavelength,x,y,z
0.0,-2.512451171875,-2.031982421875,3.973876953125
0.0005,-1.951904296875,-2.752685546875,4.013916015625
0.001,-1.151123046875,-3.553466796875,4.093994140625
0.0015,-0.430419921875,-3.793701171875,3.533447265625
0.002,0.130126953125,-4.194091796875,3.533447265625
0.0025,1.331298828125,-4.394287109375,2.452392578125
0.003,2.092041015625,-4.634521484375,1.931884765625
0.0035,2.972900390625,-4.714599609375,1.131103515625
0.004,3.493408203125,-4.554443359375,0.490478515625
0.0045,3.693603515625,-4.114013671875,-0.110107421875
0.005,3.933837890625,-3.833740234375,-0.670654296875
0.0055,4.134033203125,-2.912841796875,-1.751708984375
0.006,4.134033203125,-2.352294921875,-2.312255859375
0.0065,4.334228515625,-1.551513671875,-3.233154296875
0.007,3.693603515625,-0.590576171875,-3.553466796875
0.0075,3.413330078125,0.170166015625,-3.993896484375
0.008,2.572509765625,1.251220703125,-4.154052734375
0.0085,1.931884765625,2.132080078125,-4.474365234375
0.009,1.171142578125,2.852783203125,-4.434326171875
0.0095,0.370361328125,3.653564453125,-4.394287109375
0.01,-0.510498046875,3.853759765625,-3.713623046875
0.0105,-1.151123046875,4.334228515625,-3.513427734375
0.011,-2.592529296875,4.494384765625,-2.232177734375
0.0115,-3.353271484375,4.574462890625,-1.631591796875
0.012,-4.194091796875,4.494384765625,-0.710693359375
0.0125,-4.554443359375,4.134033203125,0.050048828125
0.013,-4.674560546875,3.573486328125,0.730712890625
0.0135,-4.874755859375,2.972900390625,1.491455078125
0.014,-5.074951171875,1.971923828125,2.612548828125
0.0145,-4.834716796875,1.251220703125,3.133056640625
0.015,-4.874755859375,0.330322265625,4.013916015625
0.0155,-3.993896484375,-0.670654296875,4.134033203125
0.016,-3.713623046875,-1.391357421875,4.494384765625
0.0165,-2.592529296875,-2.632568359375,4.534423828125
0.017,-1.831787109375,-3.553466796875,4.694580078125
0.0175,-0.950927734375,-4.154052734375,4.334228515625
0.018,-0.150146484375,-4.754638671875,4.254150390625
0.0185,0.690673828125,-4.794677734375,3.453369140625
0.019,1.451416015625,-5.155029296875,3.052978515625
0.0195,2.932861328125,-5.315185546875,1.771728515625
0.02,3.573486328125,-5.195068359375,1.051025390625
0.0205,4.294189453125,-4.994873046875,0.170166015625
0.021,4.534423828125,-4.554443359375,-0.550537109375
0.0215,4.614501953125,-3.993896484375,-1.191162109375
0.022,4.734619140625,-3.153076171875,-2.112060546875
0.0225,4.934814453125,-2.232177734375,-3.193115234375
0.023,4.494384765625,-1.311279296875,-3.673583984375
0.0235,4.494384765625,-0.430419921875,-4.514404296875
0.024,3.453369140625,0.650634765625,-4.514404296875
0.0245,3.133056640625,1.291259765625,-4.834716796875
0.025,1.931884765625,2.692626953125,-4.954833984375
0.0255,1.171142578125,3.493408203125,-4.994873046875
0.026,0.130126953125,4.093994140625,-4.514404296875
0.0265,-0.630615234375,4.694580078125,-4.354248046875
0.027,-1.591552734375,4.654541015625,-3.433349609375
0.0275,-2.512451171875,4.974853515625,-2.872802734375
0.028,-4.033935546875,5.175048828125,-1.511474609375
0.0285,-4.554443359375,4.854736328125,-0.670654296875
0.029,-5.195068359375,4.574462890625,0.250244140625
0.0295,-5.355224609375,3.973876953125,0.970947265625
0.03,-5.395263671875,3.293212890625,1.651611328125
0.0305,-5.435302734375,2.292236328125,2.692626953125
0.031,-5.595458984375,1.331298828125,3.813720703125
0.0315,-4.954833984375,0.290283203125,4.134033203125
0.032,-4.834716796875,-0.590576171875,4.854736328125
0.0325,-3.753662109375,-1.671630859375,4.774658203125
0.033,-3.273193359375,-2.392333984375,5.014892578125
0.0335,-1.991943359375,-3.793701171875,5.054931640625
0.034,-1.151123046875,-4.474365234375,4.974853515625
0.0345,-0.110107421875,-4.954833984375,4.414306640625
0.035,0.610595703125,-5.395263671875,4.134033203125
0.0355,1.571533203125,-5.315185546875,3.173095703125
0.036,2.532470703125,-5.595458984375,2.452392578125
0.0365,3.973876953125,-5.795654296875,1.211181640625
0.037,4.374267578125,-5.275146484375,0.330322265625
0.0375,4.934814453125,-5.074951171875,-0.470458984375
0.038,4.974853515625,-4.314208984375,-1.191162109375
0.0385,5.054931640625,-3.673583984375,-1.951904296875
0.039,5.054931640625,-2.552490234375,-2.992919921875
0.0395,5.175048828125,-1.711669921875,-3.953857421875
0.04,4.414306640625,-0.510498046875,-4.314208984375
0.0405,4.294189453125,0.250244140625,-4.914794921875
0.041,3.133056640625,1.331298828125,-4.834716796875
0.0415,2.612548828125,2.052001953125,-5.114990234375
0.042,1.371337890625,3.493408203125,-5.155029296875
0.0425,0.530517578125,4.134033203125,-4.914794921875
0.043,-0.510498046875,4.614501953125,-4.434326171875
0.0435,-1.231201171875,4.934814453125,-3.993896484375
0.044,-2.272216796875,4.974853515625,-3.032958984375
0.0445,-3.233154296875,5.135009765625,-2.232177734375
0.045,-4.634521484375,5.335205078125,-1.111083984375
0.0455,-4.874755859375,4.614501953125,-0.150146484375
0.046,-5.435302734375,4.494384765625,0.570556640625
0.0465,-5.355224609375,3.533447265625,1.411376953125
0.047,-5.435302734375,2.852783203125,2.132080078125
0.0475,-5.435302734375,1.771728515625,3.173095703125
0.048,-5.435302734375,0.930908203125,4.053955078125
0.0485,-4.634521484375,-0.310302734375,4.374267578125
0.049,-4.474365234375,-0.990966796875,4.854736328125
0.0495,-3.273193359375,-2.112060546875,4.734619140625
0.05,-2.792724609375,-2.792724609375,4.974853515625
0.0505,-1.591552734375,-4.114013671875,5.054931640625
0.051,-0.670654296875,-4.554443359375,4.574462890625
0.0515,0.130126953125,-4.994873046875,4.214111328125
0.052,0.930908203125,-5.235107421875,3.693603515625
0.0525,1.971923828125,-5.355224609375,2.732666015625
0.053,2.932861328125,-5.475341796875,1.931884765625
0.0535,4.093994140625,-5.635498046875,0.970947265625
0.054,4.334228515625,-4.874755859375,0.010009765625
0.0545,4.774658203125,-4.834716796875,-0.470458984375
0.055,4.694580078125,-3.833740234375,-1.391357421875
0.0555,4.854736328125,-3.273193359375,-2.072021484375
0.056,4.894775390625,-2.232177734375,-3.193115234375
0.0565,4.774658203125,-1.431396484375,-3.873779296875
0.057,4.093994140625,-0.310302734375,-4.314208984375
0.0575,3.773681640625,0.410400390625,-4.634521484375
0.058,2.692626953125,1.571533203125,-4.674560546875
0.0585,2.172119140625,2.292236328125,-4.874755859375
0.059,1.131103515625,3.533447265625,-4.994873046875
0.0595,0.170166015625,3.893798828125,-4.394287109375
0.06,-0.510498046875,4.414306640625,-4.234130859375
0.0605,-1.471435546875,4.534423828125,-3.393310546875
0.061,-2.472412109375,4.774658203125,-2.632568359375
0.0615,-3.473388671875,4.814697265625,-1.711669921875
0.062,-4.394287109375,4.894775390625,-0.910888671875
0.0625,-4.554443359375,4.093994140625,0.050048828125
0.063,-4.954833984375,4.053955078125,0.490478515625
0.0635,-4.874755859375,2.932861328125,1.531494140625
0.064,-4.994873046875,2.492431640625,2.092041015625
0.0645,-5.114990234375,1.411376953125,3.133056640625
0.065,-4.754638671875,0.610595703125,3.613525390625
0.0655,-4.234130859375,-0.310302734375,4.053955078125
0.066,-3.793701171875,-0.990966796875,4.214111328125
0.0665,-2.912841796875,-2.031982421875,4.334228515625
0.067,-2.312255859375,-2.752685546875,4.494384765625
0.0675,-1.431396484375,-3.713623046875,4.534423828125
0.068,-0.590576171875,-3.993896484375,3.893798828125
0.0685,-0.110107421875,-4.514404296875,3.973876953125
0.069,0.970947265625,-4.554443359375,2.972900390625
0.0695,1.771728515625,-4.914794921875,2.532470703125
0.07,2.812744140625,-4.994873046875,1.571533203125
0.0705,3.413330078125,-4.954833984375,0.970947265625
0.071,3.693603515625,-4.474365234375,0.210205078125
0.0715,3.973876953125,-4.314208984375,-0.230224609375
0.072,4.093994140625,-3.473388671875,-1.231201171875
0.0725,4.214111328125,-3.032958984375,-1.831787109375
0.073,4.494384765625,-2.232177734375,-2.872802734375
0.0735,4.013916015625,-1.271240234375,-3.193115234375
0.074,3.813720703125,-0.510498046875,-3.793701171875
0.0745,3.133056640625,0.410400390625,-3.913818359375
0.075,2.572509765625,1.291259765625,-4.234130859375
0.0755,1.891845703125,2.172119140625,-4.394287109375
0.076,1.171142578125,2.972900390625,-4.474365234375
0.0765,0.290283203125,3.253173828125,-3.873779296875
0.077,-0.270263671875,3.813720703125,-3.873779296875
0.0775,-1.431396484375,3.893798828125,-2.832763671875
0.078,-2.192138671875,4.294189453125,-2.472412109375
0.0785,-3.193115234375,4.334228515625,-1.551513671875
0.079,-3.633544921875,4.093994140625,-0.870849609375
0.0795,-3.953857421875,3.773681640625,-0.230224609375
0.08,-4.114013671875,3.413330078125,0.290283203125
0.0805,-4.314208984375,2.612548828125,1.211181640625
0.081,-4.434326171875,2.092041015625,1.851806640625
0.0815,-4.554443359375,1.451416015625,2.692626953125
0.082,-3.993896484375,0.570556640625,2.972900390625
0.0825,-3.993896484375,0.010009765625,3.533447265625
0.083,-3.153076171875,-0.990966796875,3.533447265625
0.0835,-2.872802734375,-1.671630859375,3.973876953125
0.084,-2.031982421875,-2.552490234375,3.973876953125
0.0845,-1.471435546875,-3.072998046875,3.893798828125
0.085,-0.790771484375,-3.393310546875,3.573486328125
0.0855,-0.270263671875,-3.833740234375,3.493408203125
0.086,0.810791015625,-3.993896484375,2.612548828125
0.0865,1.531494140625,-4.354248046875,2.292236328125
0.087,2.372314453125,-4.554443359375,1.571533203125
0.0875,2.692626953125,-4.234130859375,1.010986328125
0.088,3.173095703125,-4.274169921875,0.610595703125
0.0885,3.213134765625,-3.753662109375,-0.110107421875
0.089,3.653564453125,-3.433349609375,-0.790771484375
0.0895,3.773681640625,-2.712646484375,-1.591552734375
0.09,3.973876953125,-2.232177734375,-2.272216796875
0.0905,3.453369140625,-1.271240234375,-2.632568359375
0.091,3.533447265625,-0.750732421875,-3.193115234375
0.0915,2.692626953125,0.290283203125,-3.433349609375
0.092,2.572509765625,0.970947265625,-3.913818359375
0.0925,1.771728515625,1.891845703125,-4.033935546875
0.093,1.211181640625,2.372314453125,-3.873779296875
0.0935,0.570556640625,2.852783203125,-3.793701171875
0.094,-0.270263671875,3.213134765625,-3.353271484375
0.0945,-1.231201171875,3.613525390625,-2.712646484375
0.095,-2.031982421875,3.853759765625,-2.192138671875
0.0955,-2.792724609375,4.013916015625,-1.591552734375
0.096,-3.153076171875,3.693603515625,-0.790771484375
0.0965,-3.553466796875,3.653564453125,-0.590576171875
0.097,-3.673583984375,2.852783203125,0.330322265625
0.0975,-4.033935546875,2.652587890625,0.970947265625
0.098,-4.114013671875,1.931884765625,1.771728515625
0.0985,-4.154052734375,1.331298828125,2.292236328125
0.099,-3.713623046875,0.490478515625,2.732666015625
0.0995,-3.593505859375,0.010009765625,3.133056640625
0.1,-2.872802734375,-1.031005859375,3.333251953125
0.1005,-2.592529296875,-1.631591796875,3.693603515625
0.101,-1.951904296875,-2.432373046875,3.773681640625
0.1015,-1.311279296875,-2.752685546875,3.493408203125
0.102,-0.830810546875,-3.273193359375,3.533447265625
0.1025,0.130126953125,-3.553466796875,2.852783203125
0.103,0.890869140625,-3.993896484375,2.532470703125
0.1035,1.651611328125,-4.154052734375,1.891845703125
0.104,2.252197265625,-4.194091796875,1.491455078125
0.1045,2.492431640625,-3.993896484375,0.930908203125
0.105,2.892822265625,-4.073974609375,0.410400390625
0.1055,3.133056640625,-3.273193359375,-0.350341796875
0.106,3.413330078125,-3.072998046875,-0.950927734375
0.1065,3.653564453125,-2.432373046875,-1.791748046875
0.107,3.453369140625,-1.791748046875,-2.152099609375
0.1075,3.293212890625,-1.071044921875,-2.712646484375
0.108,2.892822265625,-0.350341796875,-3.032958984375
0.1085,2.572509765625,0.490478515625,-3.513427734375
0.109,2.092041015625,1.251220703125,-3.753662109375
0.1095,1.571533203125,1.931884765625,-3.873779296875
0.11,0.890869140625,2.292236328125,-3.553466796875
0.1105,0.330322265625,2.932861328125,-3.593505859375
0.111,-0.790771484375,3.173095703125,-2.752685546875
0.1115,-1.551513671875,3.693603515625,-2.512451171875
0.112,-2.352294921875,3.773681640625,-1.831787109375
0.1125,-2.832763671875,3.693603515625,-1.311279296875
0.113,-3.273193359375,3.413330078125,-0.670654296875
0.1135,-3.473388671875,3.253173828125,-0.190185546875
0.114,-3.833740234375,2.652587890625,0.730712890625
0.1145,-3.993896484375,2.212158203125,1.331298828125
0.115,-4.194091796875,1.571533203125,2.172119140625
0.1155,-3.753662109375,0.770751953125,2.492431640625
0.116,-3.713623046875,0.210205078125,3.052978515625
0.1165,-2.992919921875,-0.790771484375,3.173095703125
0.117,-2.712646484375,-1.511474609375,3.653564453125
0.1175,-2.031982421875,-2.232177734375,3.693603515625
0.118,-1.471435546875,-2.832763671875,3.693603515625
0.1185,-0.830810546875,-3.113037109375,3.333251953125
0.119,-0.190185546875,-3.593505859375,3.173095703125
0.1195,0.930908203125,-3.833740234375,2.372314453125
0.12,1.571533203125,-4.234130859375,1.971923828125
0.1205,2.332275390625,-4.314208984375,1.331298828125
0.121,2.612548828125,-4.073974609375,0.890869140625
0.1215,3.012939453125,-3.913818359375,0.410400390625
0.122,3.173095703125,-3.353271484375,-0.350341796875
0.1225,3.533447265625,-2.952880859375,-1.151123046875
0.123,3.573486328125,-2.312255859375,-1.791748046875
0.1235,3.773681640625,-1.791748046875,-2.512451171875
0.124,3.133056640625,-0.830810546875,-2.752685546875
0.1245,3.173095703125,-0.310302734375,-3.313232421875
0.125,2.332275390625,0.770751953125,-3.513427734375
0.1255,2.092041015625,1.411376953125,-3.913818359375
0.126,1.331298828125,2.212158203125,-3.873779296875
0.1265,0.730712890625,2.692626953125,-3.793701171875
0.127,0.010009765625,3.052978515625,-3.433349609375
0.1275,-0.870849609375,3.493408203125,-2.992919921875
0.128,-1.991943359375,3.813720703125,-2.232177734375
0.1285,-2.672607421875,3.893798828125,-1.671630859375
0.129,-3.353271484375,3.973876953125,-1.031005859375
0.1295,-3.553466796875,3.533447265625,-0.350341796875
0.13,-3.953857421875,3.373291015625,0.170166015625
0.1305,-4.114013671875,2.532470703125,1.131103515625
0.131,-4.434326171875,2.052001953125,1.891845703125
0.1315,-4.234130859375,1.251220703125,2.532470703125
0.132,-4.234130859375,0.610595703125,3.173095703125
0.1325,-3.553466796875,-0.350341796875,3.333251953125
0.133,-3.353271484375,-0.990966796875,3.813720703125
0.1335,-2.352294921875,-2.192138671875,3.933837890625
0.134,-1.911865234375,-2.752685546875,4.053955078125
0.1345,-1.071044921875,-3.473388671875,3.893798828125
0.135,-0.390380859375,-3.793701171875,3.613525390625
0.1355,0.290283203125,-4.114013671875,3.173095703125
0.136,1.331298828125,-4.474365234375,2.452392578125
0.1365,2.452392578125,-4.754638671875,1.651611328125
0.137,2.932861328125,-4.514404296875,0.930908203125
0.1375,3.533447265625,-4.514404296875,0.410400390625
0.138,3.573486328125,-3.873779296875,-0.270263671875
0.1385,3.853759765625,-3.593505859375,-0.790771484375
0.139,4.013916015625,-2.632568359375,-1.911865234375
0.1395,4.134033203125,-2.112060546875,-2.512451171875
0.14,3.853759765625,-1.231201171875,-3.193115234375
0.1405,3.653564453125,-0.510498046875,-3.593505859375
0.141,2.892822265625,0.410400390625,-3.753662109375
0.1415,2.532470703125,1.171142578125,-4.073974609375
0.142,1.611572265625,2.372314453125,-4.354248046875
0.1425,0.970947265625,2.852783203125,-4.154052734375
0.143,0.250244140625,3.533447265625,-4.114013671875
0.1435,-0.550537109375,3.693603515625,-3.553466796875
0.144,-1.271240234375,4.013916015625,-3.193115234375
0.1445,-2.552490234375,4.294189453125,-2.192138671875
0.145,-3.553466796875,4.494384765625,-1.431396484375
0.1455,-3.993896484375,4.134033203125,-0.510498046875
0.146,-4.514404296875,4.134033203125,0.010009765625
0.1465,-4.514404296875,3.293212890625,0.810791015625
0.147,-4.754638671875,2.852783203125,1.411376953125
0.1475,-4.914794921875,1.851806640625,2.652587890625
0.148,-4.834716796875,1.131103515625,3.213134765625
0.1485,-4.514404296875,0.170166015625,3.853759765625
0.149,-4.073974609375,-0.630615234375,4.134033203125
0.1495,-3.313232421875,-1.511474609375,4.294189453125
0.15,-2.632568359375,-2.432373046875,4.494384765625
0.1505,-1.671630859375,-3.633544921875,4.694580078125
0.151,-0.790771484375,-4.033935546875,4.214111328125
0.1515,-0.150146484375,-4.674560546875,4.134033203125
0.152,0.810791015625,-4.834716796875,3.333251953125
0.1525,1.611572265625,-5.114990234375,2.812744140625
0.153,2.932861328125,-5.315185546875,1.691650390625
0.1535,3.853759765625,-5.315185546875,0.930908203125
0.154,4.134033203125,-4.754638671875,0.010009765625
0.1545,4.614501953125,-4.634521484375,-0.550537109375
0.155,4.534423828125,-3.673583984375,-1.431396484375
0.1555,4.654541015625,-3.072998046875,-2.112060546875
0.156,4.894775390625,-2.031982421875,-3.393310546875
0.1565,4.494384765625,-1.111083984375,-3.833740234375
0.157,4.093994140625,-0.150146484375,-4.394287109375
0.1575,3.453369140625,0.730712890625,-4.554443359375
0.158,2.612548828125,1.651611328125,-4.674560546875
0.1585,1.851806640625,2.652587890625,-4.834716796875
0.159,0.890869140625,3.813720703125,-4.994873046875
0.1595,-0.150146484375,4.093994140625,-4.234130859375
0.16,-0.750732421875,4.614501953125,-4.234130859375
0.1605,-1.911865234375,4.654541015625,-3.193115234375
0.161,-2.712646484375,4.854736328125,-2.552490234375
0.1615,-4.033935546875,5.054931640625,-1.351318359375
0.162,-4.794677734375,4.934814453125,-0.550537109375
0.1625,-5.034912109375,4.254150390625,0.370361328125
0.163,-5.395263671875,3.973876953125,0.970947265625
0.1635,-5.315185546875,2.852783203125,2.011962890625
0.164,-5.315185546875,2.252197265625,2.652587890625
0.1645,-5.555419921875,1.131103515625,3.933837890625
0.165,-4.914794921875,0.130126953125,4.334228515625
0.1655,-4.514404296875,-0.790771484375,4.774658203125
0.166,-3.713623046875,-1.751708984375,4.894775390625
0.1665,-2.832763671875,-2.712646484375,4.974853515625
0.167,-1.951904296875,-3.713623046875,4.974853515625
0.1675,-0.950927734375,-4.754638671875,5.054931640625
0.168,0.130126953125,-4.994873046875,4.174072265625
0.1685,0.690673828125,-5.475341796875,4.093994140625
0.169,2.052001953125,-5.555419921875,2.812744140625
0.1695,2.852783203125,-5.595458984375,2.172119140625
0.17,4.093994140625,-5.715576171875,1.010986328125
0.1705,4.654541015625,-5.395263671875,0.170166015625
0.171,4.814697265625,-4.754638671875,-0.630615234375
0.1715,5.094970703125,-4.354248046875,-1.311279296875
0.172,5.094970703125,-3.193115234375,-2.472412109375
0.1725,4.974853515625,-2.432373046875,-3.072998046875
0.173,5.175048828125,-1.431396484375,-4.234130859375
0.1735,4.334228515625,-0.310302734375,-4.514404296875
0.174,3.973876953125,0.530517578125,-4.914794921875
0.1745,2.972900390625,1.651611328125,-4.994873046875
0.175,2.132080078125,2.652587890625,-5.114990234375
0.1755,1.211181640625,3.533447265625,-5.034912109375
0.176,0.250244140625,4.414306640625,-4.994873046875
0.1765,-0.790771484375,4.574462890625,-4.114013671875
0.177,-1.431396484375,5.014892578125,-3.953857421875
0.1775,-2.912841796875,5.094970703125,-2.512451171875
0.178,-3.633544921875,5.135009765625,-1.911865234375
0.1785,-4.754638671875,5.175048828125,-0.790771484375
0.179,-5.155029296875,4.694580078125,0.130126953125
0.1795,-5.355224609375,4.093994140625,0.850830078125
0.18,-5.515380859375,3.533447265625,1.571533203125
0.1805,-5.555419921875,2.332275390625,2.772705078125
0.181,-5.395263671875,1.571533203125,3.293212890625
0.1815,-5.475341796875,0.610595703125,4.414306640625
0.182,-4.514404296875,-0.550537109375,4.534423828125
0.1825,-4.314208984375,-1.271240234375,4.974853515625
0.183,-3.113037109375,-2.512451171875,4.974853515625
0.1835,-2.352294921875,-3.353271484375,5.094970703125
0.184,-1.311279296875,-4.274169921875,4.854736328125
0.1845,-0.390380859375,-5.034912109375,4.734619140625
0.185,0.570556640625,-5.114990234375,3.853759765625
0.1855,1.251220703125,-5.475341796875,3.653564453125
0.186,2.732666015625,-5.595458984375,2.212158203125
0.1865,3.333251953125,-5.555419921875,1.611572265625
0.187,4.334228515625,-5.515380859375,0.610595703125
0.1875,4.614501953125,-4.954833984375,-0.270263671875
0.188,4.814697265625,-4.514404296875,-0.910888671875
