wavelength,x,y,z
0.0,-2.4423828125,4.00390625,-1.9619140625
0.0005,-2.8828125,3.7236328125,-1.3212890625
0.001,-3.5634765625,3.763671875,-0.720703125
0.0015,-3.7236328125,3.123046875,0.0400390625
0.002,-4.083984375,3.0029296875,0.640625
0.0025,-4.2841796875,2.162109375,1.6416015625
0.003,-4.4443359375,1.76171875,2.2021484375
0.0035,-4.1240234375,0.80078125,2.8427734375
0.004,-3.923828125,0.0400390625,3.36328125
0.0045,-3.2431640625,-1.0009765625,3.6435546875
0.005,-2.8828125,-1.76171875,4.00390625
0.0055,-2.162109375,-2.7626953125,4.2841796875
0.006,-1.5615234375,-3.1630859375,4.00390625
0.0065,-0.7607421875,-3.8037109375,3.923828125
0.007,0.0400390625,-4.00390625,3.3232421875
0.0075,0.80078125,-4.3642578125,2.9228515625
0.008,1.921875,-4.6044921875,2.08203125
0.0085,2.6826171875,-4.8447265625,1.44140625
0.009,3.0830078125,-4.32421875,0.6005859375
0.0095,3.603515625,-4.32421875,0.0400390625
0.01,3.6435546875,-3.4833984375,-0.720703125
0.0105,3.8837890625,-3.123046875,-1.3212890625
0.011,4.083984375,-2.2822265625,-2.3623046875
0.0115,3.923828125,-1.681640625,-2.8427734375
0.012,3.6435546875,-0.720703125,-3.443359375
0.0125,3.203125,0.1201171875,-3.8037109375
0.013,2.5625,0.9609375,-3.9638671875
0.0135,2.0419921875,1.841796875,-4.244140625
0.014,1.4013671875,2.72265625,-4.5244140625
0.0145,0.560546875,3.04296875,-3.9638671875
0.015,-0.1201171875,3.68359375,-3.923828125
0.0155,-1.0009765625,3.8037109375,-3.123046875
0.016,-1.8017578125,4.1240234375,-2.72265625
0.0165,-2.9228515625,4.2841796875,-1.8017578125
0.017,-3.5634765625,4.2841796875,-1.1611328125
0.0175,-3.923828125,3.7236328125,-0.3203125
0.018,-4.3642578125,3.6435546875,0.2802734375
0.0185,-4.4443359375,2.8427734375,1.12109375
0.019,-4.64453125,2.3623046875,1.841796875
0.0195,-4.9248046875,1.521484375,2.8828125
0.02,-4.5244140625,0.6806640625,3.2431640625
0.0205,-4.2041015625,-0.2802734375,3.9638671875
0.021,-3.5634765625,-1.2412109375,4.2041015625
0.0215,-2.962890625,-2.08203125,4.4443359375
0.022,-2.2421875,-3.0830078125,4.6044921875
0.0225,-1.44140625,-3.923828125,4.724609375
0.023,-0.48046875,-4.2041015625,3.9638671875
0.0235,0.16015625,-4.8046875,3.9638671875
0.024,1.3212890625,-4.8447265625,2.8828125
0.0245,2.0419921875,-5.1650390625,2.3623046875
0.025,3.2431640625,-5.28515625,1.361328125
0.0255,3.763671875,-5.0048828125,0.560546875
0.026,4.083984375,-4.3642578125,-0.3203125
0.0265,4.404296875,-4.00390625,-1.0009765625
0.027,4.404296875,-3.0830078125,-1.921875
0.0275,4.484375,-2.482421875,-2.5625
0.028,4.64453125,-1.6015625,-3.603515625
0.0285,3.9638671875,-0.560546875,-3.8837890625
0.029,3.68359375,0.2802734375,-4.4443359375
0.0295,2.802734375,1.3212890625,-4.5244140625
0.03,2.162109375,2.162109375,-4.724609375
0.0305,1.4013671875,3.04296875,-4.7646484375
0.031,0.560546875,3.84375,-4.724609375
0.0315,-0.5205078125,4.00390625,-3.8837890625
0.032,-1.12109375,4.5244140625,-3.8037109375
0.0325,-2.3623046875,4.5244140625,-2.5625
0.033,-3.0029296875,4.64453125,-2.1220703125
0.0335,-4.1240234375,4.724609375,-1.1611328125
0.034,-4.5244140625,4.2841796875,-0.2802734375
0.0345,-4.8447265625,3.84375,0.560546875
0.035,-5.044921875,3.283203125,1.28125
0.0355,-5.125,2.3623046875,2.2822265625
0.036,-5.125,1.76171875,2.8828125
0.0365,-5.2451171875,0.8408203125,3.8837890625
0.037,-4.3642578125,-0.3603515625,4.1240234375
0.0375,-4.1640625,-1.1611328125,4.7646484375
0.038,-3.04296875,-2.4423828125,4.8046875
0.0385,-2.4423828125,-3.203125,4.96484375
0.039,-1.6015625,-4.0439453125,4.9248046875
0.0395,-0.640625,-4.8046875,4.724609375
0.04,0.3603515625,-4.96484375,3.8837890625
0.0405,1.12109375,-5.4853515625,3.603515625
0.041,2.5625,-5.525390625,2.2421875
0.0415,3.123046875,-5.60546875,1.76171875
0.042,4.1640625,-5.4853515625,0.720703125
0.0425,4.484375,-4.8447265625,-0.240234375
0.043,4.724609375,-4.32421875,-1.0009765625
0.0435,4.884765625,-3.5634765625,-1.9619140625
0.044,4.96484375,-2.5625,-2.9228515625
0.0445,4.7646484375,-1.8818359375,-3.443359375
0.045,4.7646484375,-0.9208984375,-4.3642578125
0.0455,3.7236328125,0.3203125,-4.5244140625
0.046,3.4833984375,1.0810546875,-4.96484375
0.0465,2.2021484375,2.4423828125,-5.0048828125
0.047,1.6416015625,3.0830078125,-5.0849609375
0.0475,0.720703125,3.84375,-4.884765625
0.048,-0.2802734375,4.484375,-4.5244140625
0.0485,-1.2412109375,4.5244140625,-3.7236328125
0.049,-2.08203125,4.96484375,-3.283203125
0.0495,-3.443359375,4.96484375,-2.001953125
0.05,-3.84375,4.8447265625,-1.4814453125
0.0505,-4.7646484375,4.8046875,-0.48046875
0.051,-4.9248046875,4.00390625,0.48046875
0.0515,-5.205078125,3.6435546875,1.12109375
0.052,-5.3251953125,2.642578125,2.2021484375
0.0525,-5.4052734375,1.921875,3.04296875
0.053,-5.125,1.041015625,3.5634765625
0.0535,-5.0849609375,0.16015625,4.404296875
0.054,-4.00390625,-1.1611328125,4.484375
0.0545,-3.763671875,-1.8818359375,4.96484375
0.055,-2.40234375,-3.283203125,5.044921875
0.0555,-2.001953125,-3.7236328125,5.0849609375
0.056,-0.9609375,-4.5244140625,4.8046875
0.0565,0.0400390625,-5.0849609375,4.2841796875
0.057,0.9609375,-5.2451171875,3.5634765625
0.0575,1.921875,-5.60546875,2.9228515625
0.058,3.1630859375,-5.6455078125,1.8017578125
0.0585,3.5234375,-5.4052734375,1.2412109375
0.059,4.404296875,-5.205078125,0.240234375
0.0595,4.484375,-4.3642578125,-0.720703125
0.06,4.8046875,-4.00390625,-1.361328125
0.0605,4.8447265625,-2.8828125,-2.5224609375
0.061,4.9248046875,-2.2822265625,-3.203125
0.0615,4.5244140625,-1.28125,-3.763671875
0.062,4.404296875,-0.3603515625,-4.484375
0.0625,3.283203125,0.8408203125,-4.5244140625
0.063,3.04296875,1.521484375,-4.9248046875
0.0635,1.7216796875,2.8828125,-5.0048828125
0.064,1.361328125,3.2431640625,-4.96484375
0.0645,0.240234375,4.00390625,-4.6044921875
0.065,-0.6806640625,4.3642578125,-4.0439453125
0.0655,-1.521484375,4.5244140625,-3.4833984375
0.066,-2.5625,4.8046875,-2.6025390625
0.0665,-3.603515625,4.9248046875,-1.681640625
0.067,-3.9638671875,4.5244140625,-1.0009765625
0.0675,-4.6845703125,4.404296875,-0.1201171875
0.068,-4.724609375,3.5234375,0.7607421875
0.0685,-5.0048828125,3.203125,1.3212890625
0.069,-5.0849609375,2.0419921875,2.5224609375
0.0695,-5.125,1.6015625,3.0029296875
0.07,-4.6845703125,0.6005859375,3.603515625
0.0705,-4.4443359375,-0.3203125,4.1240234375
0.071,-3.5634765625,-1.44140625,4.32421875
0.0715,-3.203125,-2.1220703125,4.64453125
0.072,-2.1220703125,-3.3232421875,4.8046875
0.0725,-1.6416015625,-3.68359375,4.564453125
0.073,-0.640625,-4.4443359375,4.32421875
0.0735,0.2802734375,-4.6845703125,3.68359375
0.074,0.9609375,-4.96484375,3.3232421875
0.0745,2.162109375,-5.0849609375,2.2822265625
0.075,2.9228515625,-5.28515625,1.7216796875
0.0755,3.3232421875,-4.8447265625,0.880859375
0.076,3.9638671875,-4.724609375,0.16015625
0.0765,4.00390625,-3.84375,-0.720703125
0.077,4.32421875,-3.603515625,-1.28125
0.0775,4.4443359375,-2.5625,-2.40234375
0.078,4.404296875,-2.162109375,-2.7626953125
0.0785,4.1240234375,-1.0810546875,-3.5634765625
0.079,3.68359375,-0.2001953125,-3.923828125
0.0795,3.0029296875,0.7607421875,-4.2041015625
0.08,2.482421875,1.5615234375,-4.4443359375
0.0805,1.76171875,2.5224609375,-4.6845703125
0.081,1.12109375,2.8427734375,-4.3642578125
0.0815,0.2802734375,3.603515625,-4.2841796875
0.082,-0.6806640625,3.8037109375,-3.4833984375
0.0825,-1.361328125,4.1640625,-3.203125
0.083,-2.5625,4.32421875,-2.1220703125
0.0835,-3.123046875,4.4443359375,-1.7216796875
0.084,-3.603515625,3.9638671875,-0.80078125
0.0845,-4.083984375,3.84375,-0.2001953125
0.085,-4.2041015625,3.123046875,0.640625
0.0855,-4.4443359375,2.72265625,1.2412109375
0.086,-4.64453125,1.921875,2.2421875
0.0865,-4.484375,1.4013671875,2.5625
0.087,-4.3642578125,0.48046875,3.3232421875
0.0875,-3.7236328125,-0.5205078125,3.5634765625
0.088,-3.3232421875,-1.28125,4.00390625
0.0885,-2.6025390625,-2.2421875,4.1240234375
0.089,-2.2021484375,-2.962890625,4.4443359375
0.0895,-1.361328125,-3.3232421875,3.9638671875
0.09,-0.6806640625,-3.923828125,3.9638671875
0.0905,0.240234375,-4.083984375,3.203125
0.091,0.9208984375,-4.5244140625,2.9228515625
0.0915,2.0419921875,-4.64453125,2.0419921875
0.092,2.4423828125,-4.6845703125,1.6015625
0.0925,3.04296875,-4.3642578125,0.7607421875
0.093,3.3232421875,-4.083984375,0.16015625
0.0935,3.603515625,-3.5634765625,-0.640625
0.094,3.763671875,-3.0830078125,-1.28125
0.0945,4.083984375,-2.5224609375,-2.1220703125
0.095,3.763671875,-1.8017578125,-2.4423828125
0.0955,3.763671875,-1.0009765625,-3.2431640625
0.096,2.9228515625,0.0,-3.4033203125
0.0965,2.8427734375,0.6005859375,-3.923828125
0.097,2.0419921875,1.6015625,-4.1240234375
0.0975,1.76171875,2.0419921875,-4.3642578125
0.098,0.8408203125,2.642578125,-3.84375
0.0985,0.240234375,3.1630859375,-3.8037109375
0.099,-0.640625,3.36328125,-3.0830078125
0.0995,-1.4013671875,3.763671875,-2.7626953125
0.1,-2.40234375,4.00390625,-2.0419921875
0.1005,-2.72265625,3.84375,-1.5615234375
0.101,-3.36328125,3.763671875,-0.80078125
0.1015,-3.5634765625,3.2431640625,-0.16015625
0.102,-3.923828125,3.0029296875,0.5205078125
0.1025,-4.083984375,2.322265625,1.28125
0.103,-4.3642578125,1.9619140625,1.921875
0.1035,-3.9638671875,1.0810546875,2.40234375
0.104,-4.0439453125,0.4404296875,3.04296875
0.1045,-3.203125,-0.640625,3.283203125
0.105,-3.1630859375,-1.28125,3.763671875
0.1055,-2.4423828125,-2.2822265625,3.9638671875
0.106,-2.0419921875,-2.6025390625,3.9638671875
0.1065,-1.2412109375,-3.203125,3.763671875
0.107,-0.560546875,-3.5634765625,3.4833984375
0.1075,0.2802734375,-3.923828125,3.04296875
0.108,1.12109375,-4.2041015625,2.482421875
0.1085,1.9619140625,-4.5244140625,1.921875
0.109,2.2822265625,-4.1640625,1.28125
0.1095,2.8828125,-4.2041015625,0.720703125
0.11,3.04296875,-3.5634765625,-0.080078125
0.1105,3.443359375,-3.36328125,-0.640625
0.111,3.603515625,-2.6826171875,-1.4814453125
0.1115,3.763671875,-2.3623046875,-1.9619140625
0.112,3.4033203125,-1.4013671875,-2.5625
0.1125,3.3232421875,-0.80078125,-3.0830078125
0.113,2.642578125,0.16015625,-3.36328125
0.1135,2.482421875,0.80078125,-3.8037109375
0.114,1.921875,1.76171875,-4.00390625
0.1145,1.361328125,2.0419921875,-3.8037109375
0.115,0.640625,2.72265625,-3.8037109375
0.1155,-0.1201171875,3.0029296875,-3.203125
0.116,-0.880859375,3.4033203125,-2.9228515625
0.1165,-1.8017578125,3.6435546875,-2.2822265625
0.117,-2.4423828125,3.84375,-1.8818359375
0.1175,-2.802734375,3.4833984375,-1.12109375
0.118,-3.3232421875,3.5634765625,-0.640625
0.1185,-3.5634765625,2.9228515625,0.2001953125
0.119,-3.8837890625,2.6826171875,0.7607421875
0.1195,-4.1640625,2.0419921875,1.6416015625
0.12,-4.083984375,1.5615234375,2.0419921875
0.1205,-3.8837890625,0.6005859375,2.72265625
0.121,-3.5634765625,-0.2001953125,3.1630859375
0.1215,-3.1630859375,-1.041015625,3.5234375
0.122,-2.6826171875,-1.76171875,3.84375
0.1225,-2.2021484375,-2.5625,4.083984375
0.123,-1.44140625,-2.9228515625,3.68359375
0.1235,-0.8408203125,-3.5634765625,3.763671875
0.124,0.080078125,-3.7236328125,3.0029296875
0.1245,0.80078125,-4.2041015625,2.72265625
0.125,1.841796875,-4.404296875,1.921875
0.1255,2.3623046875,-4.404296875,1.4013671875
0.126,2.802734375,-4.00390625,0.640625
0.1265,3.1630859375,-3.8837890625,0.16015625
0.127,3.3232421875,-3.203125,-0.640625
0.1275,3.5634765625,-2.8828125,-1.28125
0.128,3.84375,-2.2822265625,-2.1220703125
0.1285,3.443359375,-1.5615234375,-2.4423828125
0.129,3.36328125,-0.80078125,-3.203125
0.1295,2.72265625,0.080078125,-3.36328125
0.13,2.482421875,0.8408203125,-3.7236328125
0.1305,1.8818359375,1.6416015625,-3.923828125
0.131,1.361328125,2.2822265625,-4.0439453125
0.1315,0.560546875,2.6025390625,-3.5634765625
0.132,0.0,3.1630859375,-3.5634765625
0.1325,-0.9609375,3.3232421875,-2.7626953125
0.133,-1.6015625,3.7236328125,-2.482421875
0.1335,-2.6025390625,3.8837890625,-1.7216796875
0.134,-2.9228515625,3.68359375,-1.1611328125
0.1345,-3.4833984375,3.4833984375,-0.48046875
0.135,-3.7236328125,3.123046875,0.1201171875
0.1355,-3.9638671875,2.6025390625,0.880859375
0.136,-4.1640625,2.1220703125,1.5615234375
0.1365,-4.4443359375,1.521484375,2.322265625
0.137,-3.84375,0.6005859375,2.6826171875
0.1375,-3.8837890625,-0.080078125,3.36328125
0.138,-3.0830078125,-1.041015625,3.5234375
0.1385,-2.8427734375,-1.76171875,3.9638671875
0.139,-2.1220703125,-2.642578125,4.1240234375
0.1395,-1.4814453125,-3.203125,4.00390625
0.14,-0.6806640625,-3.603515625,3.6435546875
0.1405,0.0,-4.083984375,3.443359375
0.141,1.041015625,-4.2841796875,2.6025390625
0.1415,1.7216796875,-4.564453125,2.2421875
0.142,2.6826171875,-4.724609375,1.4013671875
0.1425,3.04296875,-4.2041015625,0.640625
0.143,3.4833984375,-4.1240234375,0.0400390625
0.1435,3.603515625,-3.443359375,-0.7607421875
0.144,3.84375,-2.962890625,-1.4814453125
0.1445,3.9638671875,-2.322265625,-2.2822265625
0.145,4.0439453125,-1.6416015625,-3.0029296875
0.1455,3.36328125,-0.560546875,-3.283203125
0.146,3.283203125,0.1201171875,-3.84375
0.1465,2.322265625,1.201171875,-3.923828125
0.147,2.0419921875,1.841796875,-4.2841796875
0.1475,1.2412109375,2.72265625,-4.3642578125
0.148,0.4404296875,3.1630859375,-3.9638671875
0.1485,-0.3203125,3.5634765625,-3.603515625
0.149,-1.1611328125,3.8837890625,-3.123046875
0.1495,-2.2421875,4.083984375,-2.2421875
0.15,-2.8427734375,4.1640625,-1.8017578125
0.1505,-3.68359375,4.244140625,-1.0009765625
0.151,-3.8837890625,3.603515625,-0.16015625
0.1515,-4.32421875,3.5234375,0.3603515625
0.152,-4.3642578125,2.5625,1.361328125
0.1525,-4.64453125,2.08203125,1.9619140625
0.153,-4.6044921875,1.28125,2.72265625
0.1535,-4.484375,0.6005859375,3.36328125
0.154,-3.8037109375,-0.5205078125,3.68359375
0.1545,-3.5634765625,-1.2412109375,4.1640625
0.155,-2.5224609375,-2.4423828125,4.32421875
0.1555,-2.2021484375,-2.9228515625,4.484375
0.156,-1.28125,-3.84375,4.4443359375
0.1565,-0.3603515625,-4.2041015625,3.8837890625
0.157,0.3203125,-4.6044921875,3.5634765625
0.1575,1.44140625,-4.884765625,2.7626953125
0.158,2.40234375,-5.044921875,1.9619140625
0.1585,3.04296875,-4.96484375,1.3212890625
0.159,3.8037109375,-4.9248046875,0.5205078125
0.1595,3.923828125,-4.1240234375,-0.400390625
0.16,4.32421875,-3.923828125,-0.9609375
0.1605,4.404296875,-2.8427734375,-2.162109375
0.161,4.484375,-2.4423828125,-2.642578125
0.1615,4.32421875,-1.44140625,-3.4833984375
0.162,4.0439453125,-0.5205078125,-4.00390625
0.1625,3.203125,0.560546875,-4.2041015625
0.163,2.8427734375,1.4013671875,-4.6044921875
0.1635,1.7216796875,2.6025390625,-4.6845703125
0.164,1.3212890625,3.0029296875,-4.64453125
0.1645,0.3203125,3.84375,-4.5244140625
0.165,-0.640625,4.1240234375,-3.8037109375
0.1655,-1.361328125,4.4443359375,-3.443359375
0.166,-2.642578125,4.64453125,-2.40234375
0.1665,-3.5234375,4.7646484375,-1.6015625
0.167,-4.00390625,4.404296875,-0.8408203125
0.1675,-4.6845703125,4.2841796875,0.0
0.168,-4.724609375,3.4033203125,0.880859375
0.1685,-5.0048828125,3.123046875,1.4013671875
0.169,-5.125,1.921875,2.6826171875
0.1695,-5.0048828125,1.44140625,3.0830078125
0.17,-4.8447265625,0.4404296875,3.84375
0.1705,-4.32421875,-0.6005859375,4.32421875
0.171,-3.5634765625,-1.5615234375,4.5244140625
0.1715,-2.8828125,-2.5224609375,4.8046875
0.172,-1.9619140625,-3.68359375,4.96484375
0.1725,-1.3212890625,-4.00390625,4.6044921875
0.173,-0.3603515625,-4.8447265625,4.484375
0.1735,0.640625,-4.96484375,3.6435546875
0.174,1.361328125,-5.28515625,3.2431640625
0.1745,2.72265625,-5.4453125,2.0419921875
0.175,3.4833984375,-5.4853515625,1.361328125
0.1755,3.9638671875,-5.044921875,0.4404296875
0.176,4.6044921875,-4.8447265625,-0.3603515625
0.1765,4.564453125,-3.8837890625,-1.3212890625
0.177,4.8046875,-3.5634765625,-1.9619140625
0.1775,4.96484375,-2.2822265625,-3.203125
0.178,4.6845703125,-1.681640625,-3.5634765625
0.1785,4.404296875,-0.5205078125,-4.3642578125
0.179,3.763671875,0.5205078125,-4.724609375
0.1795,3.0029296875,1.4814453125,-4.8447265625
0.18,2.2021484375,2.5224609375,-5.0849609375
0.1805,1.28125,3.6435546875,-5.205078125
0.181,0.4404296875,3.84375,-4.64453125
0.1815,-0.5205078125,4.64453125,-4.484375
0.182,-1.521484375,4.6845703125,-3.5234375
0.1825,-2.2822265625,4.96484375,-3.04296875
0.183,-3.7236328125,5.0849609375,-1.76171875
0.1835,-4.3642578125,4.96484375,-1.041015625
0.184,-4.8046875,4.32421875,0.0
0.1845,-5.28515625,4.083984375,0.720703125
0.185,-5.1650390625,3.0830078125,1.5615234375
0.1855,-5.3251953125,2.5224609375,2.2822265625
0.186,-5.4853515625,1.44140625,3.5234375
0.1865,-5.0048828125,0.640625,3.84375
0.187,-4.6845703125,-0.400390625,4.5244140625
0.1875,-3.8837890625,-1.4814453125,4.7646484375
0.188,-3.203125,-2.3623046875,4.9248046875
0.1885,-2.2822265625,-3.4033203125,5.044921875
0.189,-1.4814453125,-4.3642578125,5.125
0.1895,-0.5205078125,-4.6044921875,4.404296875
0.19,0.3203125,-5.3251953125,4.32421875
0.1905,1.3212890625,-5.2451171875,3.2431640625
0.191,2.08203125,-5.525390625,2.802734375
0.1915,3.4833984375,-5.6455078125,1.5615234375
0.192,3.9638671875,-5.4052734375,0.80078125
0.1925,4.484375,-4.8447265625,-0.2802734375
0.193,4.8046875,-4.484375,-1.0009765625
0.1935,4.8046875,-3.5234375,-1.841796875
0.194,4.8447265625,-2.8427734375,-2.5625
0.1945,5.044921875,-1.8818359375,-3.7236328125
0.195,4.404296875,-1.0009765625,-3.923828125
0.1955,4.1640625,0.080078125,-4.724609375
0.196,3.1630859375,1.12109375,-4.7646484375
0.1965,2.6826171875,1.921875,-5.0048828125
0.197,1.7216796875,3.0029296875,-5.0849609375
0.1975,0.9609375,3.84375,-5.125
0.198,-0.16015625,4.1240234375,-4.244140625
0.1985,-0.9208984375,4.7646484375,-4.2041015625
0.199,-1.9619140625,4.6845703125,-3.0830078125
0.1995,-2.72265625,4.96484375,-2.5625
0.2,-4.083984375,5.0849609375,-1.4013671875
0.2005,-4.4443359375,4.6044921875,-0.640625
0.201,-4.9248046875,4.1240234375,0.3203125
0.2015,-5.125,3.6435546875,1.0810546875
0.202,-5.1650390625,2.802734375,1.921875
0.2025,-5.205078125,2.0419921875,2.642578125
0.203,-5.4453125,1.201171875,3.7236328125
0.2035,-4.564453125,0.1201171875,3.8837890625
0.204,-4.484375,-0.80078125,4.6044921875
0.2045,-3.36328125,-1.8818359375,4.6044921875
0.205,-2.9228515625,-2.6025390625,4.8447265625
0.2055,-1.921875,-3.68359375,4.884765625
0.206,-1.12109375,-4.2841796875,4.724609375
0.2065,-0.1201171875,-4.6044921875,4.00390625
0.207,0.560546875,-5.0849609375,3.84375
0.2075,1.6015625,-5.0849609375,2.7626953125
0.208,2.3623046875,-5.205078125,2.322265625
0.2085,3.5234375,-5.4453125,1.2412109375
0.209,3.763671875,-4.8447265625,0.4404296875
0.2095,4.2841796875,-4.5244140625,-0.3603515625
0.21,4.32421875,-3.8037109375,-1.12109375
0.2105,4.484375,-3.203125,-1.841796875
0.211,4.5244140625,-2.40234375,-2.642578125
0.2115,4.6044921875,-1.7216796875,-3.443359375
0.212,3.84375,-0.6005859375,-3.763671875
0.2125,3.763671875,0.16015625,-4.3642578125
0.213,2.6826171875,1.2412109375,-4.32421875
0.2135,2.40234375,1.8818359375,-4.64453125
0.214,1.4814453125,2.9228515625,-4.7646484375
0.2145,0.7607421875,3.3232421875,-4.4443359375
0.215,-0.240234375,3.84375,-4.00390625
0.2155,-0.9609375,4.1640625,-3.5634765625
0.216,-1.8818359375,4.2041015625,-2.8828125
0.2165,-2.6826171875,4.484375,-2.2421875
0.217,-3.68359375,4.6044921875,-1.361328125
0.2175,-3.8837890625,3.9638671875,-0.48046875
0.218,-4.5244140625,3.8837890625,0.16015625
0.2185,-4.5244140625,3.04296875,1.0009765625
0.219,-4.7646484375,2.6025390625,1.6416015625
0.2195,-4.8046875,1.76171875,2.5224609375
0.22,-4.8046875,1.12109375,3.1630859375
0.2205,-4.0439453125,0.0,3.5634765625
0.221,-3.923828125,-0.720703125,4.083984375
0.2215,-2.962890625,-1.8017578125,4.1240234375
0.222,-2.642578125,-2.4423828125,4.4443359375
0.2225,-1.8017578125,-3.36328125,4.484375
0.223,-1.0009765625,-3.7236328125,3.9638671875
0.2235,-0.2802734375,-4.2041015625,3.84375
0.224,0.48046875,-4.5244140625,3.1630859375
0.2245,1.4814453125,-4.6845703125,2.5224609375
0.225,2.2421875,-4.8447265625,1.76171875
0.2255,3.0029296875,-4.8447265625,1.2412109375
0.226,3.2431640625,-4.1640625,0.3203125
0.2265,3.7236328125,-4.2041015625,-0.16015625
0.227,3.7236328125,-3.283203125,-1.041015625
0.2275,4.00390625,-3.04296875,-1.6015625
0.228,4.1240234375,-2.2021484375,-2.482421875
0.2285,3.8837890625,-1.5615234375,-2.8828125
