wavelength,x,y,z
0.0,21.12060546875,-14.23388671875,-6.82666015625
0.0005,22.16162109375,-11.87158203125,-10.35009765625
0.001,21.12060546875,-8.10791015625,-13.15283203125
0.0015,19.03857421875,-3.98388671875,-15.23486328125
0.002,17.39697265625,0.06005859375,-17.47705078125
0.0025,16.07568359375,4.22412109375,-20.31982421875
0.003,13.31298828125,8.66845703125,-22.00146484375
0.0035,9.98974609375,11.67138671875,-21.72119140625
0.004,6.10595703125,14.11376953125,-20.27978515625
0.0045,1.66162109375,15.99560546875,-17.83740234375
0.005,-2.62255859375,19.23876953125,-16.95654296875
0.0055,-6.74658203125,20.56005859375,-14.15380859375
0.006,-10.43017578125,22.36181640625,-12.35205078125
0.0065,-13.31298828125,20.84033203125,-7.98779296875
0.007,-15.55517578125,19.59912109375,-4.54443359375
0.0075,-17.79736328125,17.67724609375,-0.34033203125
0.008,-20.80029296875,16.51611328125,3.86376953125
0.0085,-21.40087890625,13.19287109375,7.82763671875
0.009,-21.96142578125,10.43017578125,11.19091796875
0.0095,-20.68017578125,6.74658203125,13.51318359375
0.01,-18.39794921875,2.30224609375,15.83544921875
0.0105,-17.23681640625,-1.82177734375,18.75830078125
0.011,-15.03466796875,-6.22607421875,20.88037109375
0.0115,-13.03271484375,-9.94970703125,22.64208984375
0.012,-8.38818359375,-13.07275390625,21.16064453125
0.0125,-4.66455078125,-15.19482421875,19.55908203125
0.013,0.38037109375,-17.47705078125,17.03662109375
0.0135,4.70458984375,-20.96044921875,16.27587890625
0.014,8.94873046875,-21.40087890625,12.51220703125
0.0145,12.07177734375,-22.76220703125,10.79052734375
0.015,14.71435546875,-20.60009765625,6.06591796875
0.0155,17.19677734375,-19.07861328125,1.98193359375
0.016,19.71923828125,-17.31689453125,-2.38232421875
0.0165,22.08154296875,-15.43505859375,-6.70654296875
0.017,22.56201171875,-12.59228515625,-10.10986328125
0.0175,22.04150390625,-8.58837890625,-13.59326171875
0.018,20.35986328125,-5.18505859375,-15.19482421875
0.0185,17.79736328125,0.02001953125,-17.79736328125
0.019,16.79638671875,4.38427734375,-21.20068359375
0.0195,13.27294921875,8.82861328125,-22.12158203125
0.02,11.71142578125,11.91162109375,-23.72314453125
0.0205,6.10595703125,14.87451171875,-21.04052734375
0.021,2.38232421875,16.79638671875,-19.35888671875
0.0215,-2.66259765625,19.23876953125,-16.91650390625
0.022,-7.30712890625,22.44189453125,-15.55517578125
0.0225,-11.03076171875,22.44189453125,-11.87158203125
0.023,-14.27392578125,22.64208984375,-8.82861328125
0.0235,-16.07568359375,20.56005859375,-5.02490234375
0.024,-18.87841796875,18.55810546875,-0.18017578125
0.0245,-21.32080078125,16.91650390625,4.06396484375
0.025,-22.64208984375,13.71337890625,8.50830078125
0.0255,-23.28271484375,11.59130859375,11.27099609375
0.026,-21.48095703125,6.34619140625,14.79443359375
0.0265,-19.83935546875,3.38330078125,16.15576171875
0.027,-17.51708984375,-1.86181640625,18.99853515625
0.0275,-16.19580078125,-6.46630859375,22.36181640625
0.028,-12.19189453125,-10.55029296875,22.44189453125
0.0285,-10.39013671875,-13.43310546875,23.56298828125
0.029,-4.82470703125,-15.75537109375,20.35986328125
0.0295,-0.50048828125,-17.99755859375,18.31787109375
0.03,4.06396484375,-20.39990234375,16.35595703125
0.0305,9.02880859375,-22.84228515625,13.91357421875
0.031,11.83154296875,-22.92236328125,11.23095703125
0.0315,15.51513671875,-21.88134765625,6.50634765625
0.032,16.79638671875,-20.15966796875,3.50341796875
0.0325,19.91943359375,-18.11767578125,-1.82177734375
0.033,22.28173828125,-16.39599609375,-5.94580078125
0.0335,22.84228515625,-12.71240234375,-10.22998046875
0.034,23.60302734375,-10.87060546875,-12.79248046875
0.0345,20.88037109375,-5.38525390625,-15.55517578125
0.035,19.07861328125,-1.86181640625,-17.31689453125
0.0355,17.15673828125,2.94287109375,-20.15966796875
0.036,15.07470703125,7.98779296875,-23.12255859375
0.0365,11.55126953125,11.35107421875,-23.00244140625
0.037,8.14794921875,14.67431640625,-22.84228515625
0.0375,3.70361328125,16.15576171875,-19.99951171875
0.038,-1.38134765625,19.03857421875,-17.95751953125
0.0385,-5.42529296875,21.44091796875,-16.39599609375
0.039,-10.55029296875,23.16259765625,-13.07275390625
0.0395,-12.87255859375,23.24267578125,-10.91064453125
0.04,-16.31591796875,21.32080078125,-5.50537109375
0.0405,-17.79736328125,19.51904296875,-2.26220703125
0.041,-20.84033203125,17.79736328125,2.66259765625
0.0415,-22.92236328125,15.39501953125,7.06689453125
0.042,-23.12255859375,11.71142578125,10.99072265625
0.0425,-23.28271484375,8.94873046875,14.03369140625
0.043,-20.47998046875,4.14404296875,16.03564453125
0.0435,-18.59814453125,-0.30029296875,18.55810546875
0.044,-17.07666015625,-4.54443359375,21.28076171875
0.0445,-14.27392578125,-9.74951171875,23.68310546875
0.045,-11.19091796875,-12.43212890625,23.36279296875
0.0455,-6.34619140625,-15.87548828125,21.96142578125
0.046,-2.14208984375,-17.31689453125,19.23876953125
0.0465,3.34326171875,-20.64013671875,17.31689453125
0.047,7.50732421875,-22.56201171875,15.11474609375
0.0475,12.19189453125,-23.96337890625,11.83154296875
0.048,14.75439453125,-23.40283203125,8.82861328125
0.0485,17.63720703125,-21.20068359375,3.66357421875
0.049,19.75927734375,-19.11865234375,-0.66064453125
0.0495,22.76220703125,-17.67724609375,-5.06494140625
0.05,24.08349609375,-14.47412109375,-9.62939453125
0.0505,23.92333984375,-11.07080078125,-12.87255859375
0.051,23.20263671875,-7.22705078125,-16.03564453125
0.0515,20.15966796875,-2.34228515625,-17.87744140625
0.052,18.31787109375,2.62255859375,-20.96044921875
0.0525,16.15576171875,6.90673828125,-23.04248046875
0.053,13.03271484375,11.91162109375,-25.00439453125
0.0535,9.26904296875,14.67431640625,-24.04345703125
0.054,4.18408203125,17.63720703125,-21.96142578125
0.0545,-0.58056640625,19.23876953125,-18.95849609375
0.055,-5.70556640625,22.72216796875,-17.43701171875
0.0555,-10.18994140625,23.76318359375,-14.07373046875
0.056,-14.07373046875,24.80419921875,-11.27099609375
0.0565,-16.79638671875,23.24267578125,-7.02685546875
0.057,-19.23876953125,21.00048828125,-2.22216796875
0.0575,-21.64111328125,18.55810546875,2.62255859375
0.058,-24.00341796875,16.67626953125,6.90673828125
0.0585,-24.96435546875,13.07275390625,11.55126953125
0.059,-24.20361328125,9.14892578125,14.67431640625
0.0595,-22.72216796875,5.18505859375,17.19677734375
0.06,-19.51904296875,0.02001953125,19.15869140625
0.0605,-18.07763671875,-4.82470703125,22.56201171875
0.061,-14.91455078125,-9.18896484375,23.72314453125
0.0615,-12.31201171875,-13.35302734375,25.32470703125
0.062,-7.46728515625,-16.15576171875,23.36279296875
0.0625,-2.54248046875,-18.59814453125,20.96044921875
0.063,2.62255859375,-20.47998046875,17.83740234375
0.0635,7.38720703125,-23.84326171875,16.51611328125
0.064,11.87158203125,-24.20361328125,12.47216796875
0.0645,15.15478515625,-24.64404296875,9.54931640625
0.065,17.67724609375,-22.72216796875,5.22509765625
0.0655,20.15966796875,-20.19970703125,0.10009765625
0.066,22.80224609375,-18.15771484375,-4.62451171875
0.0665,24.20361328125,-15.47509765625,-8.66845703125
0.067,25.28466796875,-12.63232421875,-12.67236328125
0.0675,23.64306640625,-7.82763671875,-15.83544921875
0.068,21.92138671875,-4.14404296875,-17.83740234375
0.0685,18.75830078125,1.26123046875,-19.99951171875
0.069,17.63720703125,6.06591796875,-23.68310546875
0.0695,13.47314453125,10.51025390625,-23.96337890625
0.07,11.23095703125,14.07373046875,-25.32470703125
0.0705,5.98583984375,16.63623046875,-22.76220703125
0.071,1.18115234375,19.03857421875,-20.39990234375
0.0715,-3.86376953125,21.28076171875,-17.75732421875
0.072,-8.66845703125,24.08349609375,-15.83544921875
0.0725,-12.63232421875,24.56396484375,-12.47216796875
0.073,-16.03564453125,23.80322265625,-8.30810546875
0.0735,-17.87744140625,22.24169921875,-4.94482421875
0.074,-20.60009765625,19.51904296875,0.70068359375
0.0745,-23.60302734375,17.83740234375,5.38525390625
0.075,-24.04345703125,14.03369140625,9.62939453125
0.0755,-25.32470703125,11.87158203125,13.11279296875
0.076,-22.92236328125,6.34619140625,16.23583984375
0.0765,-21.12060546875,2.62255859375,18.23779296875
0.077,-18.39794921875,-2.62255859375,20.68017578125
0.0775,-16.99658203125,-7.70751953125,24.36376953125
0.078,-12.83251953125,-11.79150390625,24.24365234375
0.0785,-9.82958984375,-15.31494140625,24.84423828125
0.079,-4.98486328125,-17.23681640625,21.96142578125
0.0795,0.62060546875,-19.91943359375,19.23876953125
0.08,5.38525390625,-22.44189453125,17.07666015625
0.0805,10.55029296875,-24.52392578125,14.03369140625
0.081,13.59326171875,-25.16455078125,11.71142578125
0.0815,17.35693359375,-23.20263671875,5.86572265625
0.082,18.87841796875,-21.60107421875,2.86279296875
0.0825,21.96142578125,-18.99853515625,-2.98291015625
0.083,25.00439453125,-17.15673828125,-7.82763671875
0.0835,24.76416015625,-12.79248046875,-11.99169921875
0.084,25.76513671875,-10.71044921875,-15.11474609375
0.0845,22.52197265625,-5.02490234375,-17.51708984375
0.085,20.43994140625,-0.58056640625,-19.91943359375
0.0855,18.03759765625,4.50439453125,-22.52197265625
0.086,15.63525390625,10.02978515625,-25.64501953125
0.0865,11.83154296875,13.43310546875,-25.32470703125
0.087,7.30712890625,17.27685546875,-24.64404296875
0.0875,3.14306640625,18.59814453125,-21.88134765625
0.088,-3.06298828125,21.80126953125,-19.07861328125
0.0885,-7.62744140625,24.16357421875,-16.99658203125
0.089,-13.03271484375,25.36474609375,-12.79248046875
0.0895,-15.55517578125,25.68505859375,-10.79052734375
0.09,-19.03857421875,22.96240234375,-4.46435546875
0.0905,-20.72021484375,21.04052734375,-0.82080078125
0.091,-23.56298828125,18.63818359375,4.50439453125
0.0915,-25.88525390625,15.91552734375,9.62939453125
0.092,-25.32470703125,11.51123046875,13.43310546875
0.0925,-25.40478515625,8.18798828125,16.83642578125
0.093,-22.12158203125,3.18310546875,18.55810546875
0.0935,-19.83935546875,-2.02197265625,21.48095703125
0.094,-17.67724609375,-6.58642578125,23.88330078125
0.0945,-14.31396484375,-12.19189453125,26.16552734375
0.095,-11.07080078125,-14.83447265625,25.60498046875
0.0955,-5.30517578125,-18.51806640625,23.56298828125
0.096,-1.18115234375,-19.63916015625,20.68017578125
0.0965,4.82470703125,-23.04248046875,18.11767578125
0.097,9.54931640625,-25.00439453125,15.43505859375
0.0975,14.27392578125,-25.64501953125,11.43115234375
0.098,16.95654296875,-25.24462890625,8.46826171875
0.0985,19.71923828125,-22.36181640625,2.82275390625
0.099,21.92138671875,-20.03955078125,-1.78173828125
0.0995,24.44384765625,-18.11767578125,-6.26611328125
0.1,26.20556640625,-14.71435546875,-11.51123046875
0.1005,25.28466796875,-10.87060546875,-14.43408203125
0.101,24.48388671875,-6.66650390625,-17.79736328125
0.1015,21.16064453125,-2.06201171875,-19.15869140625
0.102,19.07861328125,3.38330078125,-22.48193359375
0.1025,16.47607421875,7.98779296875,-24.36376953125
0.103,12.83251953125,13.15283203125,-26.04541015625
0.1035,9.58935546875,15.67529296875,-25.32470703125
0.104,3.70361328125,18.71826171875,-22.52197265625
0.1045,-0.58056640625,20.03955078125,-19.79931640625
0.105,-5.86572265625,23.36279296875,-17.95751953125
0.1055,-10.87060546875,24.96435546875,-14.63427734375
0.106,-14.51416015625,25.24462890625,-11.23095703125
0.1065,-17.35693359375,24.12353515625,-7.30712890625
0.107,-19.59912109375,21.44091796875,-2.34228515625
0.1075,-22.36181640625,19.35888671875,2.58251953125
0.108,-24.24365234375,17.11669921875,6.70654296875
0.1085,-25.88525390625,13.47314453125,12.03173828125
0.109,-24.84423828125,9.62939453125,14.79443359375
0.1095,-23.32275390625,5.26513671875,17.67724609375
0.11,-20.23974609375,0.66064453125,19.23876953125
0.1105,-18.83837890625,-4.58447265625,23.04248046875
0.111,-15.59521484375,-9.14892578125,24.36376953125
0.1115,-12.47216796875,-13.59326171875,25.76513671875
0.112,-8.26806640625,-16.35595703125,24.32373046875
0.1125,-2.70263671875,-18.95849609375,21.36083984375
0.113,2.22216796875,-20.96044921875,18.63818359375
0.1135,7.06689453125,-24.08349609375,17.03662109375
0.114,12.15185546875,-25.24462890625,13.27294921875
0.1145,15.39501953125,-24.96435546875,9.66943359375
0.115,18.11767578125,-23.48291015625,5.50537109375
0.1155,20.56005859375,-20.64013671875,0.26025390625
0.116,23.72314453125,-18.91845703125,-4.74462890625
0.1165,24.80419921875,-15.87548828125,-8.82861328125
0.117,26.36572265625,-12.91259765625,-13.43310546875
0.1175,24.48388671875,-8.10791015625,-16.47607421875
0.118,22.64208984375,-3.82373046875,-18.91845703125
0.1185,19.51904296875,1.34130859375,-20.84033203125
0.119,18.27783203125,6.46630859375,-24.80419921875
0.1195,14.03369140625,11.15087890625,-25.24462890625
0.12,11.11083984375,15.07470703125,-26.20556640625
0.1205,6.10595703125,17.59716796875,-23.84326171875
0.121,0.58056640625,20.15966796875,-20.96044921875
0.1215,-4.62451171875,22.52197265625,-18.39794921875
0.122,-9.58935546875,25.12451171875,-15.99560546875
0.1225,-14.03369140625,26.20556640625,-12.75244140625
0.123,-17.39697265625,24.72412109375,-7.86767578125
0.1235,-19.35888671875,23.12255859375,-4.26416015625
0.124,-22.04150390625,20.03955078125,1.54150390625
0.1245,-25.32470703125,18.35791015625,6.54638671875
0.125,-25.32470703125,14.11376953125,10.87060546875
0.1255,-26.76611328125,11.63134765625,14.75439453125
0.126,-24.00341796875,6.02587890625,17.63720703125
0.1265,-21.92138671875,1.58154296875,19.91943359375
0.127,-18.95849609375,-3.66357421875,22.24169921875
0.1275,-17.31689453125,-8.90869140625,25.88525390625
0.128,-12.95263671875,-13.15283203125,25.84521484375
0.1285,-9.26904296875,-16.87646484375,25.80517578125
0.129,-4.50439453125,-18.63818359375,22.88232421875
0.1295,1.58154296875,-21.48095703125,19.71923828125
0.13,6.58642578125,-24.04345703125,17.51708984375
0.1305,11.75146484375,-25.60498046875,13.95361328125
0.131,15.07470703125,-26.60595703125,11.71142578125
0.1315,18.63818359375,-23.96337890625,5.46533203125
0.132,20.35986328125,-22.28173828125,2.06201171875
0.1325,23.20263671875,-19.39892578125,-3.78369140625
0.133,26.32568359375,-17.51708984375,-8.78857421875
0.1335,25.68505859375,-12.83251953125,-12.83251953125
0.134,26.60595703125,-10.22998046875,-16.35595703125
0.1345,23.24267578125,-4.98486328125,-18.31787109375
0.135,20.80029296875,0.14013671875,-20.96044921875
0.1355,18.27783203125,5.10498046875,-23.36279296875
0.136,15.55517578125,10.59033203125,-26.20556640625
0.1365,12.15185546875,14.03369140625,-26.24560546875
0.137,6.98681640625,17.75732421875,-24.84423828125
0.1375,3.18310546875,18.87841796875,-22.32177734375
0.138,-3.18310546875,22.04150390625,-19.19873046875
0.1385,-7.94775390625,24.84423828125,-17.31689453125
0.139,-13.11279296875,25.48486328125,-12.79248046875
0.1395,-15.87548828125,26.32568359375,-11.03076171875
0.14,-18.87841796875,23.08251953125,-4.74462890625
0.1405,-20.88037109375,21.28076171875,-0.98095703125
0.141,-23.48291015625,18.83837890625,4.26416015625
0.1415,-26.12548828125,16.19580078125,9.54931640625
0.142,-25.44482421875,11.99169921875,13.11279296875
0.1425,-25.40478515625,8.26806640625,16.83642578125
0.143,-22.36181640625,3.94384765625,18.03759765625
0.1435,-19.99951171875,-1.66162109375,21.28076171875
0.144,-17.95751953125,-6.38623046875,23.96337890625
0.1445,-14.39404296875,-11.87158203125,25.88525390625
0.145,-11.83154296875,-14.63427734375,26.16552734375
0.1455,-5.50537109375,-18.23779296875,23.40283203125
0.146,-1.78173828125,-19.35888671875,21.00048828125
0.1465,4.38427734375,-22.72216796875,18.31787109375
0.147,9.50927734375,-25.40478515625,15.99560546875
0.1475,14.03369140625,-25.60498046875,11.71142578125
0.148,16.99658203125,-25.76513671875,8.94873046875
0.1485,19.35888671875,-22.60205078125,3.38330078125
0.149,22.08154296875,-20.47998046875,-1.58154296875
0.1495,24.60400390625,-18.43798828125,-6.10595703125
0.15,26.68603515625,-15.07470703125,-11.59130859375
0.1505,25.92529296875,-11.39111328125,-14.47412109375
0.151,24.72412109375,-6.58642578125,-18.11767578125
0.1515,21.64111328125,-2.38232421875,-19.27880859375
0.152,19.43896484375,3.54345703125,-23.04248046875
0.1525,16.91650390625,8.38818359375,-25.28466796875
0.153,12.91259765625,13.67333984375,-26.64599609375
0.1535,9.86962890625,16.39599609375,-26.40576171875
0.154,3.50341796875,19.35888671875,-23.04248046875
0.1545,-1.02099609375,21.04052734375,-20.23974609375
0.155,-6.42626953125,24.32373046875,-18.23779296875
0.1555,-11.87158203125,26.32568359375,-14.87451171875
0.156,-15.51513671875,26.12548828125,-11.15087890625
0.1565,-18.55810546875,25.04443359375,-6.98681640625
0.157,-20.64013671875,21.96142578125,-1.86181640625
0.1575,-23.72314453125,19.79931640625,3.58349609375
0.158,-25.60498046875,17.23681640625,7.98779296875
0.1585,-27.20654296875,13.43310546875,13.43310546875
0.159,-26.08544921875,9.46923828125,16.23583984375
0.1595,-24.16357421875,4.50439453125,19.31884765625
0.16,-20.84033203125,-0.30029296875,20.76025390625
0.1605,-19.11865234375,-5.78564453125,24.52392578125
0.161,-15.63525390625,-10.71044921875,25.92529296875
0.1615,-12.03173828125,-15.15478515625,26.84619140625
0.162,-7.94775390625,-17.79736328125,25.44482421875
0.1625,-1.78173828125,-20.35986328125,22.08154296875
0.163,3.42333984375,-22.44189453125,18.99853515625
0.1635,8.34814453125,-25.36474609375,17.11669921875
0.164,13.75341796875,-26.76611328125,13.15283203125
0.1645,16.83642578125,-25.92529296875,9.26904296875
0.165,19.59912109375,-24.28369140625,4.82470703125
0.1655,21.84130859375,-21.12060546875,-0.66064453125
0.166,25.12451171875,-19.27880859375,-5.82568359375
0.1665,25.96533203125,-15.95556640625,-10.02978515625
0.167,27.40673828125,-12.67236328125,-14.75439453125
0.1675,25.40478515625,-7.94775390625,-17.47705078125
0.168,23.12255859375,-3.18310546875,-19.91943359375
0.1685,19.79931640625,1.86181640625,-21.72119140625
0.169,18.39794921875,7.18701171875,-25.56494140625
0.1695,14.07373046875,12.03173828125,-26.24560546875
0.17,10.71044921875,15.91552734375,-26.64599609375
0.1705,6.02587890625,18.31787109375,-24.44384765625
0.171,0.30029296875,20.68017578125,-21.20068359375
0.1715,-4.82470703125,23.12255859375,-18.63818359375
0.172,-9.70947265625,25.32470703125,-16.07568359375
0.1725,-14.35400390625,26.68603515625,-12.87255859375
0.173,-17.47705078125,24.84423828125,-7.98779296875
0.1735,-19.51904296875,23.24267578125,-4.26416015625
0.174,-21.80126953125,20.07958984375,1.30126953125
0.1745,-25.16455078125,18.55810546875,6.22607421875
0.175,-25.16455078125,14.31396484375,10.51025390625
0.1755,-26.44580078125,11.59130859375,14.47412109375
0.176,-24.00341796875,6.54638671875,17.11669921875
0.1765,-21.64111328125,1.86181640625,19.35888671875
0.177,-18.95849609375,-3.02294921875,21.56103515625
0.1775,-17.19677734375,-8.14794921875,24.92431640625
0.178,-13.43310546875,-12.51220703125,25.60498046875
0.1785,-9.42919921875,-15.91552734375,25.00439453125
0.179,-5.14501953125,-17.75732421875,22.64208984375
0.1795,0.78076171875,-20.27978515625,19.43896484375
0.18,5.62548828125,-23.32275390625,17.79736328125
0.1805,10.39013671875,-24.48388671875,14.11376953125
0.181,14.07373046875,-26.04541015625,12.19189453125
0.1815,17.23681640625,-23.44287109375,6.38623046875
0.182,19.27880859375,-22.04150390625,2.86279296875
0.1825,21.84130859375,-19.23876953125,-2.54248046875
0.183,25.08447265625,-17.63720703125,-7.38720703125
0.1835,24.84423828125,-13.39306640625,-11.39111328125
0.184,25.56494140625,-10.47021484375,-15.11474609375
0.1845,23.00244140625,-6.10595703125,-17.07666015625
0.185,20.47998046875,-0.78076171875,-19.75927734375
0.1855,18.39794921875,3.94384765625,-22.44189453125
0.186,15.55517578125,9.26904296875,-24.84423828125
0.1865,12.87255859375,12.95263671875,-25.88525390625
0.187,7.34716796875,16.51611328125,-23.96337890625
0.1875,3.86376953125,17.95751953125,-21.96142578125
0.188,-2.30224609375,20.92041015625,-18.95849609375
0.1885,-7.14697265625,24.28369140625,-17.55712890625
0.189,-11.99169921875,24.52392578125,-13.03271484375
0.1895,-15.11474609375,25.88525390625,-11.31103515625
0.19,-17.83740234375,22.76220703125,-5.50537109375
0.1905,-20.19970703125,21.12060546875,-1.38134765625
