wavelength,x,y,z
0.0,3.5284423828125,-20.575073242188,16.941528320312
0.0005,6.7716064453125,-21.215698242188,14.579223632812
0.001,10.335083007812,-21.295776367188,11.336059570312
0.0015,13.738403320312,-21.215698242188,7.9727783203125
0.002,17.221801757812,-20.214721679688,3.8087158203125
0.0025,19.584106445312,-18.252807617188,-0.5955810546875
0.003,20.785278320312,-16.050659179688,-3.9188232421875
0.0035,21.425903320312,-13.247924804688,-7.3221435546875
0.004,21.265747070312,-9.6444091796875,-10.805541992188
0.0045,20.785278320312,-5.4403076171875,-14.609252929688
0.005,20.064575195312,-1.6365966796875,-17.652221679688
0.0055,18.062622070312,2.6075439453125,-19.854370117188
0.006,15.420043945312,5.9307861328125,-20.615112304688
0.0065,12.337036132812,9.4141845703125,-21.095581054688
0.007,8.4532470703125,13.137817382812,-21.055541992188
0.0075,3.6485595703125,16.661254882812,-19.974487304688
0.008,-0.8758544921875,19.063598632812,-18.092651367188
0.0085,-4.5194091796875,20.505004882812,-16.210815429688
0.009,-7.8026123046875,21.065551757812,-13.688354492188
0.0095,-11.245971679688,20.945434570312,-10.325073242188
0.01,-14.809448242188,20.585083007812,-6.5614013671875
0.0105,-17.932495117188,19.504028320312,-2.5574951171875
0.011,-20.054565429688,17.341918945312,1.8468017578125
0.0115,-20.815307617188,14.899536132812,4.9298095703125
0.012,-21.295776367188,11.856567382812,8.4532470703125
0.0125,-21.215698242188,8.0928955078125,12.176879882812
0.013,-20.655151367188,3.8887939453125,15.780395507812
0.0135,-19.373901367188,0.0450439453125,18.422973632812
0.014,-17.331909179688,-3.8787841796875,20.304809570312
0.0145,-14.649291992188,-7.1619873046875,20.945434570312
0.015,-11.205932617188,-10.565307617188,21.065551757812
0.0155,-7.0418701171875,-14.369018554688,20.785278320312
0.016,-2.2772216796875,-17.692260742188,19.584106445312
0.0165,2.2872314453125,-19.734252929688,17.301879882812
0.017,5.4503173828125,-20.775268554688,15.339965820312
0.0175,8.8936767578125,-21.295776367188,12.657348632812
0.018,12.457153320312,-21.015502929688,9.0538330078125
0.0185,15.860473632812,-20.374877929688,5.1700439453125
0.019,18.703247070312,-18.973510742188,1.1260986328125
0.0195,20.625122070312,-16.731323242188,-3.0780029296875
0.02,20.985473632812,-14.008666992188,-6.1209716796875
0.0205,21.265747070312,-10.765502929688,-9.6844482421875
0.021,21.065551757812,-6.7615966796875,-13.488159179688
0.0215,20.384887695312,-2.7576904296875,-16.851440429688
0.022,18.503051757812,1.3663330078125,-19.053588867188
0.0225,16.340942382812,4.9698486328125,-20.494995117188
0.023,13.418090820312,8.3331298828125,-21.055541992188
0.0235,9.5343017578125,11.896606445312,-20.855346679688
0.024,5.2901611328125,15.420043945312,-20.294799804688
0.0245,0.6456298828125,18.422973632812,-18.933471679688
0.025,-3.6785888671875,20.184692382812,-16.611206054688
0.0255,-6.6815185546875,20.665161132812,-14.369018554688
0.026,-10.124877929688,21.105590820312,-11.526245117188
0.0265,-13.808471679688,20.665161132812,-7.5623779296875
0.027,-16.931518554688,19.784301757812,-3.7186279296875
0.0275,-19.253784179688,17.982543945312,0.3253173828125
0.028,-20.815307617188,15.740356445312,4.1290283203125
0.0285,-21.055541992188,12.777465820312,7.2921142578125
0.029,-21.135620117188,9.2540283203125,10.935668945312
0.0295,-20.735229492188,5.2501220703125,14.579223632812
0.03,-19.894409179688,1.2462158203125,17.742309570312
0.0305,-17.772338867188,-2.8377685546875,19.584106445312
0.031,-15.450073242188,-5.9207763671875,20.464965820312
0.0315,-12.567260742188,-9.2840576171875,21.065551757812
0.032,-8.1229248046875,-13.127807617188,20.625122070312
0.0325,-3.9188232421875,-16.370971679688,19.704223632812
0.033,0.5655517578125,-18.733276367188,17.942504882812
0.0335,4.4893798828125,-20.414916992188,15.900512695312
0.034,7.3721923828125,-20.494995117188,13.378051757812
0.0345,10.655395507812,-20.775268554688,10.535278320312
0.035,14.459106445312,-20.334838867188,6.4913330078125
0.0355,17.381958007812,-19.213745117188,2.5675048828125
0.036,19.343872070312,-17.251831054688,-1.3162841796875
0.0365,20.384887695312,-14.969604492188,-4.6395263671875
0.037,20.705200195312,-12.006713867188,-7.8826904296875
0.0375,20.625122070312,-8.1229248046875,-11.726440429688
0.038,20.144653320312,-4.5194091796875,-14.889526367188
0.0385,19.023559570312,-0.5155029296875,-17.772338867188
0.039,16.861450195312,3.5284423828125,-19.574096679688
0.0395,14.178833007812,6.4913330078125,-19.974487304688
0.04,11.376098632812,9.8145751953125,-20.494995117188
0.0405,6.6915283203125,13.818481445312,-20.094604492188
0.041,2.5274658203125,16.781372070312,-19.013549804688
0.0415,-1.6365966796875,18.703247070312,-17.131713867188
0.042,-5.1600341796875,20.144653320312,-15.209838867188
0.0425,-8.2830810546875,20.304809570312,-12.487182617188
0.043,-11.686401367188,20.304809570312,-9.2440185546875
0.0435,-15.089721679688,19.864379882812,-5.6004638671875
0.044,-17.892456054688,18.422973632812,-1.4364013671875
0.0445,-19.614135742188,16.300903320312,2.4073486328125
0.045,-20.214721679688,13.778442382812,5.4903564453125
0.0455,-20.655151367188,10.815551757812,8.8936767578125
0.046,-20.374877929688,6.4512939453125,12.977661132812
0.0465,-19.814331054688,2.9278564453125,15.980590820312
0.047,-18.252807617188,-0.9158935546875,18.222778320312
0.0475,-16.170776367188,-4.6395263671875,19.984497070312
0.048,-13.247924804688,-7.7225341796875,20.144653320312
0.0485,-10.044799804688,-11.085815429688,20.424926757812
0.049,-5.5604248046875,-14.889526367188,19.864379882812
0.0495,-0.9559326171875,-17.812377929688,18.342895507812
0.05,2.9278564453125,-19.373901367188,16.380981445312
0.0505,6.0909423828125,-20.294799804688,14.338989257812
0.051,9.4542236328125,-20.575073242188,11.536254882812
0.0515,13.177856445312,-20.214721679688,7.5323486328125
0.052,16.180786132812,-19.614135742188,4.1690673828125
0.0525,18.663208007812,-17.972534179688,0.1251220703125
0.053,20.224731445312,-15.730346679688,-3.6785888671875
0.0535,20.344848632812,-12.847534179688,-6.7215576171875
0.054,20.745239257812,-9.8045654296875,-10.164916992188
0.0545,20.344848632812,-5.4403076171875,-14.128784179688
0.055,19.423950195312,-1.5965576171875,-17.091674804688
0.0555,17.462036132812,2.1671142578125,-18.813354492188
0.056,15.299926757812,5.6505126953125,-20.214721679688
0.0565,12.136840820312,8.8536376953125,-20.374877929688
0.057,7.9727783203125,12.657348632812,-20.094604492188
0.0575,4.1290283203125,15.740356445312,-19.574096679688
0.058,-0.6356201171875,18.422973632812,-17.652221679688
0.0585,-4.2791748046875,19.824340820312,-15.650268554688
0.059,-7.2420654296875,20.144653320312,-13.207885742188
0.0595,-10.445190429688,20.505004882812,-10.645385742188
0.06,-14.409057617188,19.864379882812,-6.1610107421875
0.0605,-17.051635742188,18.783325195312,-2.5975341796875
0.061,-18.973510742188,16.941528320312,1.1260986328125
0.0615,-20.214721679688,14.699340820312,4.6094970703125
0.062,-20.174682617188,11.496215820312,7.6925048828125
0.0625,-20.334838867188,8.0128173828125,11.376098632812
0.063,-19.934448242188,4.2891845703125,14.739379882812
0.0635,-18.733276367188,0.2852783203125,17.542114257812
0.064,-16.531127929688,-3.3582763671875,18.943481445312
0.0645,-14.248901367188,-6.4012451171875,19.784301757812
0.065,-11.406127929688,-9.5242919921875,20.144653320312
0.0655,-6.5614013671875,-13.608276367188,19.463989257812
0.066,-2.8377685546875,-16.210815429688,18.583129882812
0.0665,1.2862548828125,-18.252807617188,16.781372070312
0.067,4.7696533203125,-19.574096679688,14.859497070312
0.0675,7.6925048828125,-19.614135742188,12.176879882812
0.068,10.855590820312,-19.894409179688,9.5343017578125
0.0685,14.499145507812,-19.413940429688,5.5303955078125
0.069,17.101684570312,-17.972534179688,1.6065673828125
0.0695,18.583129882812,-16.170776367188,-1.7166748046875
0.07,19.504028320312,-13.808471679688,-4.8397216796875
0.0705,19.664184570312,-10.925659179688,-7.9627685546875
0.071,19.504028320312,-6.8416748046875,-11.926635742188
0.0715,19.143676757812,-3.5985107421875,-14.769409179688
0.072,17.782348632812,0.2452392578125,-17.251831054688
0.0725,15.660278320312,3.8087158203125,-18.733276367188
0.073,12.937622070312,6.6915283203125,-18.973510742188
0.0735,10.174926757812,9.8946533203125,-19.614135742188
0.074,5.4903564453125,13.898559570312,-18.933471679688
0.0745,1.3663330078125,16.501098632812,-17.652221679688
0.075,-2.1170654296875,18.102661132812,-16.010620117188
0.0755,-5.4002685546875,19.263793945312,-14.128784179688
0.076,-8.4832763671875,19.343872070312,-11.286010742188
0.0765,-11.966674804688,19.223754882812,-7.8826904296875
0.077,-15.049682617188,18.863403320312,-4.5594482421875
0.0775,-17.452026367188,17.221801757812,-0.6356201171875
0.078,-18.733276367188,15.179809570312,2.6876220703125
0.0785,-19.253784179688,12.537231445312,5.7706298828125
0.079,-19.694213867188,9.8145751953125,8.9737548828125
0.0795,-19.373901367188,5.4102783203125,13.057739257812
0.08,-18.613159179688,2.0069580078125,15.780395507812
0.0805,-17.011596679688,-1.5965576171875,17.702270507812
0.081,-15.089721679688,-4.9598388671875,19.183715820312
0.0815,-11.926635742188,-8.0428466796875,19.183715820312
0.082,-8.6033935546875,-11.486206054688,19.383911132812
0.0825,-4.3592529296875,-14.929565429688,18.863403320312
0.083,0.2052001953125,-17.411987304688,17.021606445312
0.0835,3.3682861328125,-18.653198242188,15.339965820312
0.084,6.5313720703125,-19.534057617188,13.177856445312
0.0845,9.6143798828125,-19.774291992188,10.535278320312
0.085,13.498168945312,-19.253784179688,6.3712158203125
0.0855,16.260864257812,-18.533081054688,3.0079345703125
0.086,18.262817382812,-16.771362304688,-0.7557373046875
0.0865,19.343872070312,-14.609252929688,-3.9989013671875
0.087,19.504028320312,-11.526245117188,-7.1619873046875
0.0875,19.864379882812,-8.4832763671875,-10.565307617188
0.088,19.504028320312,-4.4793701171875,-14.288940429688
0.0885,18.222778320312,-0.5955810546875,-16.971557617188
0.089,16.260864257812,2.8878173828125,-18.453002929688
0.0895,14.058715820312,6.2110595703125,-19.614135742188
0.09,10.815551757812,9.4542236328125,-19.694213867188
0.0905,6.4112548828125,13.338012695312,-19.293823242188
0.091,2.6075439453125,16.340942382812,-18.613159179688
0.0915,-1.8768310546875,18.503051757812,-16.651245117188
0.092,-5.0399169921875,19.504028320312,-14.649291992188
0.0925,-8.2830810546875,19.824340820312,-11.966674804688
0.093,-11.406127929688,20.064575195312,-9.2440185546875
0.0935,-15.129760742188,19.303833007812,-4.9598388671875
0.094,-17.732299804688,17.902465820312,-1.0360107421875
0.0945,-19.253784179688,15.980590820312,2.4073486328125
0.095,-20.094604492188,13.538208007812,5.6505126953125
0.0955,-20.094604492188,10.214965820312,8.9737548828125
0.096,-20.014526367188,6.4112548828125,12.697387695312
0.0965,-19.614135742188,2.7276611328125,15.980590820312
0.097,-17.972534179688,-1.3563232421875,18.382934570312
0.0975,-15.690307617188,-4.6795654296875,19.463989257812
0.098,-13.127807617188,-7.8826904296875,20.224731445312
0.0985,-9.7645263671875,-11.245971679688,20.344848632812
0.099,-4.8397216796875,-15.129760742188,19.383911132812
0.0995,-0.7156982421875,-17.732299804688,18.102661132812
0.1,3.1680908203125,-19.494018554688,16.260864257812
0.1005,6.4112548828125,-20.254760742188,14.058715820312
0.101,9.8546142578125,-20.254760742188,10.855590820312
0.1015,13.177856445312,-20.214721679688,7.6124267578125
0.102,16.501098632812,-19.413940429688,3.6885986328125
0.1025,18.863403320312,-17.492065429688,-0.5955810546875
0.103,19.904418945312,-15.410034179688,-3.7186279296875
0.1035,20.464965820312,-12.687377929688,-7.0018310546875
0.104,20.464965820312,-9.3240966796875,-10.325073242188
0.1045,19.984497070312,-5.1199951171875,-14.128784179688
0.105,19.183715820312,-1.5164794921875,-16.971557617188
0.1055,17.381958007812,2.4874267578125,-19.133666992188
0.106,14.819458007812,5.8507080078125,-19.974487304688
0.1065,11.656372070312,9.2139892578125,-20.214721679688
0.107,8.0528564453125,12.777465820312,-20.334838867188
0.1075,3.3682861328125,16.300903320312,-19.373901367188
0.108,-1.1561279296875,18.583129882812,-17.371948242188
0.1085,-4.4393310546875,19.864379882812,-15.610229492188
0.109,-7.6824951171875,20.505004882812,-13.207885742188
0.1095,-11.045776367188,20.384887695312,-9.9246826171875
0.11,-14.569213867188,19.904418945312,-6.1209716796875
0.1105,-17.452026367188,18.903442382812,-2.3172607421875
0.111,-19.534057617188,16.781372070312,1.8468017578125
0.1115,-20.214721679688,14.379028320312,4.8497314453125
0.112,-20.575073242188,11.336059570312,8.2930908203125
0.1125,-20.575073242188,7.7725830078125,11.816528320312
0.113,-20.054565429688,3.6485595703125,15.500122070312
0.1135,-18.653198242188,-0.3153076171875,17.982543945312
0.114,-16.731323242188,-3.8387451171875,19.704223632812
0.1145,-14.208862304688,-7.0819091796875,20.464965820312
0.115,-10.645385742188,-10.445190429688,20.424926757812
0.1155,-6.6014404296875,-14.168823242188,20.184692382812
0.116,-2.0770263671875,-17.411987304688,19.103637695312
0.1165,2.4874267578125,-19.413940429688,16.821411132812
0.117,5.4903564453125,-20.214721679688,14.859497070312
0.1175,8.8536376953125,-20.815307617188,12.256958007812
0.118,12.337036132812,-20.575073242188,8.7735595703125
0.1185,15.780395507812,-19.894409179688,4.8096923828125
0.119,18.463012695312,-18.533081054688,0.8858642578125
0.1195,20.224731445312,-16.370971679688,-3.0780029296875
0.12,20.625122070312,-13.688354492188,-6.1209716796875
0.1205,20.785278320312,-10.405151367188,-9.6444091796875
0.121,20.625122070312,-6.5614013671875,-13.328002929688
0.1215,20.024536132812,-2.5975341796875,-16.731323242188
0.122,18.062622070312,1.6065673828125,-18.933471679688
0.1225,15.900512695312,4.9698486328125,-20.134643554688
0.123,13.137817382812,8.3731689453125,-20.855346679688
0.1235,9.0938720703125,12.056762695312,-20.615112304688
0.124,4.8497314453125,15.500122070312,-19.934448242188
0.1245,0.3653564453125,18.382934570312,-18.573120117188
0.125,-3.8787841796875,20.184692382812,-16.370971679688
0.1255,-6.8817138671875,20.585083007812,-14.048706054688
0.126,-10.325073242188,20.945434570312,-11.165893554688
0.1265,-14.048706054688,20.545043945312,-7.3221435546875
0.127,-17.171752929688,19.584106445312,-3.3582763671875
0.1275,-19.413940429688,17.742309570312,0.7657470703125
0.128,-20.815307617188,15.460083007812,4.4093017578125
0.1285,-21.095581054688,12.497192382812,7.6524658203125
0.129,-21.135620117188,8.8135986328125,11.376098632812
0.1295,-20.655151367188,4.8096923828125,14.859497070312
0.13,-19.774291992188,0.8057861328125,18.022583007812
0.1305,-17.612182617188,-3.2781982421875,19.984497070312
0.131,-15.129760742188,-6.4012451171875,20.665161132812
0.1315,-12.206909179688,-9.8846435546875,21.265747070312
0.132,-7.7225341796875,-13.808471679688,20.825317382812
0.1325,-3.3182373046875,-16.931518554688,19.784301757812
0.133,1.2061767578125,-19.213745117188,17.902465820312
0.1335,5.0499267578125,-20.815307617188,15.860473632812
0.134,8.1729736328125,-21.015502929688,13.137817382812
0.1345,11.576293945312,-21.135620117188,10.054809570312
0.135,15.299926757812,-20.655151367188,6.0509033203125
0.1355,18.262817382812,-19.373901367188,1.8868408203125
0.136,20.264770507812,-17.251831054688,-2.1971435546875
0.1365,21.105590820312,-14.809448242188,-5.4403076171875
0.137,21.465942382812,-11.686401367188,-8.9637451171875
0.1375,21.265747070312,-7.6024169921875,-12.927612304688
0.138,20.665161132812,-3.7586669921875,-16.090698242188
0.1385,19.263793945312,0.4053955078125,-18.853393554688
0.139,16.981567382812,4.4893798828125,-20.695190429688
0.1395,14.018676757812,7.6524658203125,-20.935424804688
0.14,10.895629882812,11.055786132812,-21.375854492188
0.1405,6.0909423828125,15.139770507812,-20.815307617188
0.141,1.5665283203125,18.182739257812,-19.494018554688
0.1415,-2.7576904296875,20.024536132812,-17.291870117188
0.142,-6.2811279296875,21.265747070312,-15.209838867188
0.1425,-9.6444091796875,21.385864257812,-12.246948242188
0.143,-13.207885742188,21.105590820312,-8.6033935546875
0.1435,-16.611206054688,20.505004882812,-4.8397216796875
0.144,-19.453979492188,18.863403320312,-0.3953857421875
0.1445,-21.135620117188,16.501098632812,3.6885986328125
0.145,-21.495971679688,13.658325195312,6.8516845703125
0.1455,-21.856323242188,10.375122070312,10.415161132812
0.146,-21.415893554688,5.7706298828125,14.619262695312
0.1465,-20.575073242188,1.9268798828125,17.742309570312
0.147,-18.773315429688,-2.0369873046875,19.864379882812
0.1475,-16.531127929688,-5.9207763671875,21.505981445312
0.148,-13.207885742188,-9.1239013671875,21.505981445312
0.1485,-9.4842529296875,-12.767456054688,21.505981445312
0.149,-4.9197998046875,-16.411010742188,20.785278320312
0.1495,0.0850830078125,-19.373901367188,19.023559570312
0.15,4.1290283203125,-20.855346679688,16.781372070312
0.1505,7.3321533203125,-21.536010742188,14.459106445312
0.151,10.815551757812,-21.776245117188,11.416137695312
0.1515,14.739379882812,-21.135620117188,6.9718017578125
0.152,17.742309570312,-20.254760742188,3.3282470703125
0.1525,20.104614257812,-18.453002929688,-0.9158935546875
0.153,21.586059570312,-16.010620117188,-4.7596435546875
0.1535,21.626098632812,-12.807495117188,-8.0028076171875
0.154,21.826293945312,-9.3641357421875,-11.606323242188
0.1545,21.305786132812,-4.9598388671875,-15.530151367188
0.155,20.184692382812,-0.7957763671875,-18.573120117188
0.1555,17.942504882812,3.1680908203125,-20.334838867188
0.156,15.620239257812,6.6915283203125,-21.536010742188
0.1565,12.176879882812,10.134887695312,-21.696166992188
0.157,7.5323486328125,14.218872070312,-21.215698242188
0.1575,3.5284423828125,17.301879882812,-20.494995117188
0.158,-1.4364013671875,19.904418945312,-18.412963867188
0.1585,-5.3201904296875,21.265747070312,-16.170776367188
0.159,-8.4832763671875,21.505981445312,-13.448120117188
0.1595,-11.886596679688,21.786254882812,-10.565307617188
0.16,-16.010620117188,20.985473632812,-5.7606201171875
0.1605,-18.813354492188,19.584106445312,-1.7967529296875
0.161,-20.695190429688,17.582153320312,2.1671142578125
0.1615,-21.896362304688,15.019653320312,5.8106689453125
0.162,-21.776245117188,11.536254882812,9.2540283203125
0.1625,-21.816284179688,7.5323486328125,13.297973632812
0.163,-21.295776367188,3.6485595703125,16.701293945312
0.1635,-19.814331054688,-0.7957763671875,19.584106445312
0.164,-17.251831054688,-4.6795654296875,21.065551757812
0.1645,-14.609252929688,-7.9627685546875,21.666137695312
0.165,-11.366088867188,-11.406127929688,21.986450195312
0.1655,-5.9207763671875,-15.730346679688,21.065551757812
0.166,-1.7166748046875,-18.533081054688,19.864379882812
0.1665,2.7276611328125,-20.535034179688,17.742309570312
0.167,6.4913330078125,-21.776245117188,15.420043945312
0.1675,9.8946533203125,-21.656127929688,12.176879882812
0.168,13.338012695312,-21.736206054688,8.9737548828125
0.1685,17.101684570312,-21.015502929688,4.6094970703125
0.169,19.864379882812,-19.173706054688,0.0850830078125
0.1695,21.265747070312,-16.971557617188,-3.5584716796875
0.17,22.026489257812,-14.128784179688,-7.0418701171875
0.1705,22.026489257812,-10.725463867188,-10.445190429688
0.171,21.626098632812,-6.0408935546875,-14.769409179688
0.1715,20.865356445312,-2.3973388671875,-17.692260742188
0.172,19.103637695312,1.9268798828125,-20.214721679688
0.1725,16.501098632812,5.8507080078125,-21.536010742188
0.173,13.097778320312,9.2139892578125,-21.616088867188
0.1735,9.7344970703125,12.777465820312,-21.936401367188
0.174,4.4893798828125,16.861450195312,-20.895385742188
0.1745,-0.3153076171875,19.504028320312,-19.093627929688
0.175,-4.0789794921875,20.985473632812,-17.011596679688
0.1755,-7.7225341796875,21.946411132812,-14.649291992188
0.176,-11.245971679688,21.746215820312,-11.085815429688
0.1765,-14.929565429688,21.265747070312,-7.0819091796875
0.177,-18.052612304688,20.464965820312,-3.2781982421875
0.1775,-20.535034179688,18.262817382812,1.2862548828125
0.178,-21.616088867188,15.820434570312,4.8096923828125
