wavelength,x,y,z
0.0,-14.779418945312,23.057495117188,-7.8526611328125
0.0005,-18.422973632812,20.575073242188,-3.0880126953125
0.001,-21.185668945312,18.212768554688,2.1170654296875
0.0015,-22.346801757812,15.890502929688,5.4002685546875
0.002,-22.747192382812,13.247924804688,8.6434326171875
0.0025,-22.827270507812,9.8446044921875,11.966674804688
0.003,-21.866333007812,4.6395263671875,16.050659179688
0.0035,-20.585083007812,0.5555419921875,19.133666992188
0.004,-18.663208007812,-3.6085205078125,21.255737304688
0.0045,-16.140747070312,-7.0118408203125,22.216674804688
0.005,-12.777465820312,-10.455200195312,22.256713867188
0.0055,-8.8936767578125,-13.978637695312,22.256713867188
0.006,-3.2882080078125,-17.982543945312,20.775268554688
0.0065,2.0369873046875,-19.223754882812,18.412963867188
0.007,5.2801513671875,-21.866333007812,16.451049804688
0.0075,8.6834716796875,-22.506958007812,14.128784179688
0.008,12.166870117188,-22.306762695312,10.725463867188
0.0085,16.130737304688,-21.505981445312,5.7606201171875
0.009,19.293823242188,-20.224731445312,1.5565185546875
0.0095,23.057495117188,-17.622192382812,-3.2081298828125
0.01,22.536987304688,-14.939575195312,-6.2510986328125
0.0105,22.737182617188,-12.176879882812,-9.7745361328125
0.011,22.536987304688,-8.3331298828125,-13.097778320312
0.0115,21.616088867188,-3.5684814453125,-17.181762695312
0.012,19.814331054688,0.9559326171875,-19.904418945312
0.0125,17.652221679688,4.7196044921875,-21.345825195312
0.013,15.089721679688,7.9227294921875,-22.627075195312
0.0135,11.245971679688,12.807495117188,-22.146606445312
0.014,6.5213623046875,15.490112304688,-21.586059570312
0.0145,1.8768310546875,19.013549804688,-20.304809570312
0.015,-3.2882080078125,21.375854492188,-17.702270507812
0.0155,-6.5313720703125,21.896362304688,-15.580200195312
0.016,-9.9346923828125,22.376831054688,-13.017700195312
0.0165,-13.378051757812,22.336791992188,-9.2940673828125
0.017,-17.341918945312,20.815307617188,-4.5694580078125
0.0175,-20.304809570312,19.133666992188,0.3153076171875
0.018,-22.026489257812,16.811401367188,4.4793701171875
0.0185,-22.867309570312,15.369995117188,7.5223388671875
0.019,-22.707153320312,10.565307617188,10.885620117188
0.0195,-22.306762695312,6.5213623046875,14.729370117188
0.02,-21.305786132812,1.9969482421875,18.292846679688
0.0205,-19.103637695312,-2.6075439453125,20.775268554688
0.021,-16.581176757812,-5.8106689453125,21.696166992188
0.0215,-14.218872070312,-9.2540283203125,22.536987304688
0.022,-9.9747314453125,-12.657348632812,22.096557617188
0.0225,-3.8487548828125,-15.380004882812,21.055541992188
0.023,-0.1651611328125,-19.383911132812,19.333862304688
0.0235,4.4393310546875,-21.505981445312,17.011596679688
0.024,7.4022216796875,-21.946411132812,14.729370117188
0.0245,10.725463867188,-22.386840820312,11.806518554688
0.025,14.409057617188,-20.505004882812,7.9227294921875
0.0255,18.132690429688,-20.184692382812,3.1981201171875
0.026,20.655151367188,-18.182739257812,-1.6065673828125
0.0265,21.896362304688,-15.700317382812,-4.9698486328125
0.027,22.256713867188,-13.297973632812,-8.1329345703125
0.0275,22.096557617188,-9.6544189453125,-10.255004882812
0.028,21.415893554688,-5.2501220703125,-15.259887695312
0.0285,20.334838867188,-1.0460205078125,-18.222778320312
0.029,18.292846679688,3.3983154296875,-19.223754882812
0.0295,15.650268554688,6.5213623046875,-20.945434570312
0.03,12.927612304688,9.5242919921875,-20.505004882812
0.0305,8.4832763671875,13.207885742188,-21.626098632812
0.031,3.5184326171875,16.931518554688,-19.824340820312
0.0315,-1.2061767578125,19.333862304688,-18.062622070312
0.032,-4.8897705078125,20.855346679688,-16.140747070312
0.0325,-6.4112548828125,21.455932617188,-13.778442382812
0.033,-11.175903320312,21.295776367188,-10.735473632812
0.0335,-14.619262695312,20.615112304688,-6.6915283203125
0.034,-18.342895507812,20.494995117188,-2.0870361328125
0.0345,-20.344848632812,16.931518554688,2.4373779296875
0.035,-21.145629882812,14.769409179688,5.4002685546875
0.0355,-21.666137695312,12.046752929688,8.6033935546875
0.036,-21.505981445312,8.2830810546875,12.166870117188
0.0365,-20.665161132812,3.9989013671875,15.730346679688
0.037,-19.383911132812,1.2762451171875,18.533081054688
0.0375,-17.462036132812,-4.0089111328125,20.414916992188
0.038,-15.019653320312,-7.0118408203125,20.895385742188
0.0385,-11.736450195312,-10.094848632812,21.215698242188
0.039,-7.3321533203125,-14.058715820312,20.655151367188
0.0395,-2.2872314453125,-17.421997070312,19.253784179688
0.04,2.2371826171875,-19.504028320312,17.091674804688
0.0405,5.4002685546875,-20.384887695312,15.450073242188
0.041,8.4832763671875,-21.025512695312,12.927612304688
0.0415,12.006713867188,-20.945434570312,9.4442138671875
0.042,15.650268554688,-20.024536132812,5.1600341796875
0.0425,18.453002929688,-18.503051757812,0.8758544921875
0.043,20.374877929688,-16.380981445312,-3.2081298828125
0.0435,20.815307617188,-14.018676757812,-5.9708251953125
0.044,21.215698242188,-11.175903320312,-9.2540283203125
0.0445,20.855346679688,-6.9317626953125,-12.897583007812
0.045,20.094604492188,-3.0079345703125,-16.541137695312
0.0455,18.212768554688,1.1961669921875,-18.503051757812
0.046,16.531127929688,4.7596435546875,-20.144653320312
0.0465,13.688354492188,7.6424560546875,-19.223754882812
0.047,10.164916992188,11.005737304688,-20.545043945312
0.0475,5.6805419921875,14.649291992188,-19.904418945312
0.048,0.8758544921875,17.772338867188,-18.463012695312
0.0485,-3.2481689453125,19.574096679688,-16.180786132812
0.049,-6.0108642578125,20.174682617188,-14.459106445312
0.0495,-9.1339111328125,20.815307617188,-11.856567382812
0.05,-12.857543945312,20.214721679688,-8.1729736328125
0.0505,-16.140747070312,20.494995117188,-3.8887939453125
0.051,-18.703247070312,17.411987304688,0.3953857421875
0.0515,-20.344848632812,16.651245117188,3.9588623046875
0.052,-20.665161132812,12.887573242188,6.7615966796875
0.0525,-20.905395507812,9.8446044921875,10.164916992188
0.053,-20.464965820312,5.6004638671875,13.848510742188
0.0535,-19.463989257812,1.5565185546875,16.891479492188
0.054,-17.502075195312,-2.2872314453125,18.933471679688
0.0545,-15.540161132812,-5.2100830078125,19.854370117188
0.055,-12.977661132812,-8.3331298828125,20.454956054688
0.0555,-8.6934814453125,-12.056762695312,19.974487304688
0.056,-4.3692626953125,-15.259887695312,19.053588867188
0.0565,0.2752685546875,-17.662231445312,17.411987304688
0.057,3.8787841796875,-19.383911132812,15.490112304688
0.0575,6.3612060546875,-19.984497070312,13.408081054688
0.058,9.5643310546875,-20.184692382812,10.885620117188
0.0585,13.408081054688,-19.544067382812,6.7215576171875
0.059,16.370971679688,-18.342895507812,2.6776123046875
0.0595,18.412963867188,-16.541137695312,-1.1661376953125
0.06,19.574096679688,-14.619262695312,-4.2091064453125
0.0605,19.894409179688,-12.096801757812,-7.0518798828125
0.061,19.894409179688,-8.4932861328125,-10.415161132812
0.0615,19.333862304688,-4.7696533203125,-13.618286132812
0.062,18.212768554688,-0.8458251953125,-16.901489257812
0.0625,16.330932617188,2.8377685546875,-18.382934570312
0.063,14.128784179688,5.4403076171875,-18.943481445312
0.0635,11.806518554688,8.4432373046875,-19.584106445312
0.064,7.0819091796875,12.407104492188,-19.063598632812
0.0645,2.9578857421875,16.651245117188,-18.102661132812
0.065,-1.0460205078125,17.411987304688,-16.541137695312
0.0655,-4.0889892578125,18.933471679688,-14.659301757812
0.066,-6.8917236328125,19.173706054688,-12.377075195312
0.0665,-9.9747314453125,19.253784179688,-9.8546142578125
0.067,-13.578247070312,18.693237304688,-5.8907470703125
0.0675,-16.461059570312,17.291870117188,-1.6466064453125
0.068,-18.262817382812,15.450073242188,1.8367919921875
0.0685,-19.023559570312,13.528198242188,4.5994873046875
0.069,-19.544067382812,11.165893554688,8.9637451171875
0.0695,-19.383911132812,7.1219482421875,11.486206054688
0.07,-18.743286132812,3.5184326171875,14.328979492188
0.0705,-17.421997070312,-0.2452392578125,16.731323242188
0.071,-15.740356445312,-3.5684814453125,18.412963867188
0.0715,-13.378051757812,-6.2911376953125,18.773315429688
0.072,-10.695434570312,-9.2940673828125,20.494995117188
0.0725,-6.1710205078125,-13.137817382812,18.693237304688
0.073,-1.6866455078125,-16.020629882812,17.371948242188
0.0735,1.9569091796875,-17.622192382812,15.730346679688
0.074,4.7196044921875,-18.743286132812,15.369995117188
0.0745,8.9637451171875,-19.183715820312,11.806518554688
0.075,11.205932617188,-18.983520507812,8.2430419921875
0.0755,14.369018554688,-18.422973632812,4.6795654296875
0.076,16.931518554688,-16.861450195312,0.5555419921875
0.0765,18.533081054688,-15.059692382812,-2.7276611328125
0.077,18.933471679688,-12.737426757812,-5.4102783203125
0.0775,19.453979492188,-10.295043945312,-8.3331298828125
0.078,19.053588867188,-6.0509033203125,-12.337036132812
0.0785,18.292846679688,-2.2872314453125,-15.259887695312
0.079,16.691284179688,1.1961669921875,-17.061645507812
0.0795,15.009643554688,4.1990966796875,-18.543090820312
0.08,12.407104492188,7.0819091796875,-18.943481445312
0.0805,8.7235107421875,10.525268554688,-18.943481445312
0.081,4.7596435546875,14.008666992188,-18.463012695312
0.0815,0.1951904296875,17.932495117188,-16.981567382812
0.082,-3.1680908203125,18.132690429688,-15.099731445312
0.0825,-5.7706298828125,18.773315429688,-13.338012695312
0.083,-8.6934814453125,19.333862304688,-11.175903320312
0.0835,-12.657348632812,18.693237304688,-6.7315673828125
0.084,-15.540161132812,17.772338867188,-3.0880126953125
0.0845,-17.702270507812,16.050659179688,0.7957763671875
0.085,-19.023559570312,14.369018554688,4.1190185546875
0.0855,-19.263793945312,11.766479492188,6.6815185546875
0.086,-19.544067382812,8.6033935546875,10.004760742188
0.0865,-19.103637695312,4.6395263671875,13.568237304688
0.087,-17.982543945312,0.6756591796875,16.451049804688
0.0875,-16.100708007812,-2.7276611328125,19.213745117188
0.088,-14.298950195312,-5.4903564453125,18.933471679688
0.0885,-11.736450195312,-8.4132080078125,19.453979492188
0.089,-7.0919189453125,-12.377075195312,18.853393554688
0.0895,-3.0880126953125,-15.259887695312,19.213745117188
0.09,1.1160888671875,-17.542114257812,16.250854492188
0.0905,4.3192138671875,-18.823364257812,14.569213867188
0.091,7.0018310546875,-19.103637695312,12.286987304688
0.0915,9.9647216796875,-19.504028320312,9.9246826171875
0.092,13.888549804688,-18.743286132812,5.4803466796875
0.0925,17.932495117188,-17.301879882812,1.3162841796875
0.093,18.252807617188,-15.700317382812,-2.1671142578125
0.0935,19.253784179688,-13.658325195312,-4.8497314453125
0.094,19.453979492188,-11.055786132812,-6.4112548828125
0.0945,19.333862304688,-7.0919189453125,-10.255004882812
0.095,18.773315429688,-3.5684814453125,-14.459106445312
0.0955,17.411987304688,0.3553466796875,-16.981567382812
0.096,15.450073242188,3.5584716796875,-18.302856445312
0.0965,13.087768554688,6.3211669921875,-18.663208007812
0.097,10.525268554688,9.4041748046875,-19.383911132812
0.0975,5.4803466796875,13.408081054688,-18.463012695312
0.098,1.3162841796875,16.130737304688,-17.221801757812
0.0985,-2.2071533203125,17.852416992188,-15.660278320312
0.099,-5.2100830078125,18.973510742188,-13.978637695312
0.0995,-8.0528564453125,19.053588867188,-11.416137695312
0.1,-11.336059570312,19.013549804688,-8.3731689453125
0.1005,-14.779418945312,18.332885742188,-4.3692626953125
0.101,-17.341918945312,16.531127929688,0.0350341796875
0.1015,-18.623168945312,14.769409179688,2.9979248046875
0.102,-19.303833007812,12.607299804688,5.7606201171875
0.1025,-19.624145507812,10.084838867188,8.6434326171875
0.103,-19.183715820312,5.6004638671875,12.687377929688
0.1035,-18.302856445312,2.0369873046875,15.450073242188
0.104,-16.821411132812,-1.5665283203125,17.452026367188
0.1045,-15.059692382812,-4.5694580078125,18.813354492188
0.105,-12.216918945312,-7.4122314453125,18.853393554688
0.1055,-9.1339111328125,-10.655395507812,19.133666992188
0.106,-4.4893798828125,-14.338989257812,18.292846679688
0.1065,0.1151123046875,-16.901489257812,16.531127929688
0.107,3.1580810546875,-18.182739257812,15.009643554688
0.1075,6.0008544921875,-19.103637695312,13.287963867188
0.108,8.8836669921875,-19.303833007812,10.925659179688
0.1085,12.687377929688,-18.743286132812,6.4412841796875
0.109,15.610229492188,-17.902465820312,2.9979248046875
0.1095,17.812377929688,-16.100708007812,-1.0059814453125
0.11,18.853393554688,-14.258911132812,-2.5675048828125
0.1105,19.173706054688,-11.696411132812,-6.6915283203125
0.111,19.453979492188,-8.9337158203125,-9.7745361328125
0.1115,18.933471679688,-4.6895751953125,-13.538208007812
0.112,17.652221679688,-0.8057861328125,-16.220825195312
0.1125,15.970581054688,2.3973388671875,-17.702270507812
0.113,14.128784179688,5.4403076171875,-18.943481445312
0.1135,11.205932617188,8.4031982421875,-19.063598632812
0.114,7.0418701171875,12.166870117188,-18.743286132812
0.1145,2.9578857421875,16.651245117188,-17.982543945312
0.115,-1.4864501953125,17.612182617188,-16.100708007812
0.1155,-4.2891845703125,18.613159179688,-14.459106445312
0.116,-7.1719970703125,19.173706054688,-12.497192382812
0.1165,-10.174926757812,19.413940429688,-9.7745361328125
0.117,-12.817504882812,18.533081054688,-5.2501220703125
0.1175,-16.861450195312,17.211791992188,-1.1661376953125
0.118,-18.623168945312,15.450073242188,2.2772216796875
0.1185,-19.544067382812,13.448120117188,6.4012451171875
0.119,-19.624145507812,10.605346679688,8.1229248046875
0.1195,-19.584106445312,7.0418701171875,11.646362304688
0.12,-19.103637695312,3.1580810546875,15.049682617188
0.1205,-17.502075195312,-1.0059814453125,17.492065429688
0.121,-15.540161132812,-3.9288330078125,18.613159179688
0.1215,-13.458129882812,-6.9317626953125,19.534057617188
0.122,-10.335083007812,-10.014770507812,19.654174804688
0.1225,-5.4102783203125,-13.898559570312,18.733276367188
0.123,-1.2061767578125,-16.741333007812,17.572143554688
0.1235,2.8377685546875,-18.623168945312,15.770385742188
0.124,5.6004638671875,-19.383911132812,13.928588867188
0.1245,8.7235107421875,-19.664184570312,11.326049804688
0.125,11.966674804688,-19.624145507812,8.2430419921875
0.1255,15.490112304688,-18.663208007812,5.1199951171875
0.126,18.052612304688,-16.821411132812,-0.5255126953125
0.1265,19.253784179688,-14.979614257812,-3.5284423828125
0.127,19.894409179688,-12.737426757812,-5.1300048828125
0.1275,19.894409179688,-9.7745361328125,-9.4141845703125
0.128,19.413940429688,-5.5303955078125,-13.137817382812
0.1285,18.573120117188,-1.8868408203125,-16.060668945312
0.129,16.891479492188,2.1170654296875,-18.262817382812
0.1295,14.729370117188,5.0799560546875,-19.103637695312
0.13,12.166870117188,8.0828857421875,-19.584106445312
0.1305,8.6434326171875,12.807495117188,-19.624145507812
0.131,3.7987060546875,15.129760742188,-18.583129882812
0.1315,-0.6856689453125,17.612182617188,-16.821411132812
0.132,-3.9288330078125,19.053588867188,-15.019653320312
0.1325,-6.7315673828125,19.694213867188,-13.297973632812
0.133,-9.8946533203125,19.774291992188,-10.415161132812
0.1335,-13.418090820312,20.494995117188,-6.5714111328125
0.134,-16.541137695312,18.132690429688,-2.4473876953125
0.1345,-18.863403320312,16.090698242188,1.9168701171875
0.135,-19.624145507812,15.369995117188,4.5994873046875
0.1355,-20.184692382812,11.566284179688,7.6424560546875
0.136,-20.184692382812,8.2830810546875,10.885620117188
0.1365,-19.504028320312,3.9989013671875,14.529174804688
0.137,-18.222778320312,0.1551513671875,17.131713867188
0.1375,-16.501098632812,-3.3682861328125,18.973510742188
0.138,-14.258911132812,-6.2911376953125,19.694213867188
0.1385,-11.255981445312,-9.3741455078125,19.894409179688
0.139,-7.2520751953125,-13.017700195312,19.654174804688
0.1395,-2.4473876953125,-16.380981445312,18.453002929688
0.14,2.0369873046875,-18.583129882812,16.290893554688
0.1405,4.9197998046875,-19.584106445312,14.729370117188
0.141,7.9627685546875,-20.224731445312,12.527221679688
0.1415,11.245971679688,-20.144653320312,9.3240966796875
0.142,14.849487304688,-19.303833007812,5.0799560546875
0.1425,17.692260742188,-17.902465820312,0.9559326171875
0.143,19.654174804688,-15.900512695312,-3.0479736328125
0.1435,20.134643554688,-13.658325195312,-5.6505126953125
0.144,20.454956054688,-10.815551757812,-8.8936767578125
0.1445,20.174682617188,-7.0518798828125,-12.497192382812
0.145,19.494018554688,-2.8878173828125,-15.860473632812
0.1455,17.652221679688,1.2362060546875,-18.102661132812
0.146,15.810424804688,4.4793701171875,-19.504028320312
0.1465,13.328002929688,7.4822998046875,-20.144653320312
0.147,9.8446044921875,10.845581054688,-20.064575195312
0.1475,5.4002685546875,14.449096679688,-19.423950195312
0.148,0.7557373046875,17.532104492188,-18.102661132812
0.1485,-3.4884033203125,19.413940429688,-16.020629882812
0.149,-6.1710205078125,19.974487304688,-14.138793945312
0.1495,-9.3741455078125,20.454956054688,-11.616333007812
0.15,-12.857543945312,20.134643554688,-7.9727783203125
0.1505,-16.300903320312,19.053588867188,-3.6485595703125
0.151,-18.863403320312,17.251831054688,0.7557373046875
0.1515,-20.464965820312,15.169799804688,4.3592529296875
0.152,-20.785278320312,12.647338867188,7.1619873046875
0.1525,-21.025512695312,9.4442138671875,10.565307617188
0.153,-20.464965820312,5.2801513671875,14.208862304688
0.1535,-19.544067382812,1.1961669921875,17.411987304688
0.154,-17.462036132812,-2.9278564453125,19.453979492188
0.1545,-14.098754882812,-5.8907470703125,20.374877929688
0.155,-12.697387695312,-9.0938720703125,20.975463867188
0.1555,-8.4132080078125,-11.536254882812,20.575073242188
0.156,-2.5675048828125,-16.180786132812,19.494018554688
0.1565,0.9158935546875,-18.863403320312,17.732299804688
0.157,4.7996826171875,-19.223754882812,15.690307617188
0.1575,7.5623779296875,-20.745239257812,13.408081054688
0.158,10.845581054688,-21.105590820312,10.685424804688
0.1585,14.729370117188,-20.384887695312,6.2410888671875
0.159,17.892456054688,-18.983520507812,1.9168701171875
0.1595,20.014526367188,-16.981567382812,-2.3272705078125
0.16,21.095581054688,-14.819458007812,-5.5303955078125
0.1605,21.375854492188,-12.016723632812,-8.6134033203125
0.161,21.255737304688,-8.1329345703125,-12.377075195312
0.1615,20.454956054688,-4.0089111328125,-15.660278320312
0.162,19.173706054688,0.3153076171875,-18.583129882812
0.1625,16.931518554688,4.1990966796875,-20.344848632812
0.163,14.369018554688,7.0819091796875,-20.705200195312
0.1635,11.566284179688,10.325073242188,-21.305786132812
0.164,6.5213623046875,14.449096679688,-19.223754882812
0.1645,1.9569091796875,17.532104492188,-17.942504882812
0.165,-2.4874267578125,19.614135742188,-17.181762695312
0.1655,-5.9708251953125,20.975463867188,-15.259887695312
0.166,-8.9337158203125,20.975463867188,-12.577270507812
0.1665,-12.176879882812,21.015502929688,-9.4942626953125
0.167,-16.020629882812,20.174682617188,-5.0098876953125
0.1675,-18.983520507812,18.412963867188,-0.3253173828125
0.168,-20.785278320312,16.130737304688,3.6785888671875
0.1685,-21.505981445312,13.768432617188,6.6414794921875
0.169,-20.505004882812,10.845581054688,9.8846435546875
0.1695,-21.425903320312,6.4412841796875,13.928588867188
0.17,-20.464965820312,2.4774169921875,16.971557617188
0.1705,-18.743286132812,-1.7266845703125,19.453979492188
0.171,-16.621215820312,-5.4503173828125,21.055541992188
0.1715,-13.658325195312,-8.3331298828125,21.135620117188
0.172,-10.575317382812,-11.616333007812,21.455932617188
0.1725,-5.3702392578125,-15.700317382812,20.454956054688
0.173,-0.4454345703125,-18.663208007812,18.733276367188
0.1735,3.6385498046875,-20.304809570312,16.611206054688
0.174,6.8817138671875,-21.265747070312,14.649291992188
0.1745,10.084838867188,-21.425903320312,11.686401367188
0.175,13.728393554688,-20.945434570312,7.8026123046875
0.1755,17.091674804688,-20.024536132812,3.6785888671875
0.176,19.854370117188,-18.022583007812,-1.0860595703125
0.1765,21.255737304688,-15.780395507812,-4.6895751953125
0.177,21.536010742188,-13.017700195312,-7.6524658203125
0.1775,21.856323242188,-10.094848632812,-10.895629882812
0.178,21.175659179688,-5.2501220703125,-15.099731445312
