wavelength,x,y,z
0.0,1.251220703125,-6.035888671875,2.812744140625
0.0005,0.610595703125,-6.476318359375,3.813720703125
0.001,-0.150146484375,-6.516357421875,4.534423828125
0.0015,-1.271240234375,-5.995849609375,5.014892578125
0.002,-2.552490234375,-4.834716796875,5.575439453125
0.0025,-3.873779296875,-3.713623046875,5.935791015625
0.003,-4.794677734375,-2.832763671875,6.256103515625
0.0035,-5.155029296875,-2.272216796875,6.376220703125
0.004,-5.195068359375,-1.551513671875,6.015869140625
0.0045,-5.155029296875,-0.590576171875,5.215087890625
0.005,-5.114990234375,0.770751953125,4.214111328125
0.0055,-5.195068359375,2.052001953125,3.253173828125
0.006,-5.235107421875,3.052978515625,2.532470703125
0.0065,-5.034912109375,3.733642578125,1.851806640625
0.007,-4.394287109375,4.134033203125,0.970947265625
0.0075,-3.353271484375,4.534423828125,-0.470458984375
0.008,-2.312255859375,4.974853515625,-1.911865234375
0.0085,-1.551513671875,5.455322265625,-3.153076171875
0.009,-0.950927734375,5.815673828125,-4.114013671875
0.0095,0.010009765625,5.615478515625,-4.874755859375
0.01,1.171142578125,4.934814453125,-5.275146484375
0.0105,2.532470703125,3.853759765625,-5.755615234375
0.011,3.773681640625,2.732666015625,-6.156005859375
0.0115,4.574462890625,1.971923828125,-6.476318359375
0.012,4.814697265625,1.411376953125,-6.436279296875
0.0125,4.854736328125,0.610595703125,-5.955810546875
0.013,4.814697265625,-0.630615234375,-5.034912109375
0.0135,4.774658203125,-1.951904296875,-3.953857421875
0.014,4.934814453125,-3.193115234375,-3.072998046875
0.0145,4.894775390625,-4.114013671875,-2.392333984375
0.015,4.494384765625,-4.674560546875,-1.591552734375
0.0155,3.653564453125,-5.034912109375,-0.510498046875
0.016,2.532470703125,-5.435302734375,0.970947265625
0.0165,1.531494140625,-5.915771484375,2.412353515625
0.017,0.810791015625,-6.396240234375,3.613525390625
0.0175,0.210205078125,-6.716552734375,4.334228515625
0.018,-0.870849609375,-6.115966796875,5.014892578125
0.0185,-2.232177734375,-5.155029296875,5.495361328125
0.019,-3.553466796875,-3.953857421875,5.855712890625
0.0195,-4.634521484375,-2.912841796875,6.216064453125
0.02,-5.195068359375,-2.272216796875,6.416259765625
0.0205,-5.315185546875,-1.591552734375,6.135986328125
0.021,-5.235107421875,-0.670654296875,5.415283203125
0.0215,-5.155029296875,0.610595703125,4.414306640625
0.022,-5.155029296875,1.971923828125,3.333251953125
0.0225,-5.275146484375,3.133056640625,2.492431640625
0.023,-5.114990234375,3.893798828125,1.771728515625
0.0235,-4.474365234375,4.294189453125,0.930908203125
0.024,-3.433349609375,4.534423828125,-0.390380859375
0.0245,-2.352294921875,4.934814453125,-1.831787109375
0.025,-1.431396484375,5.415283203125,-3.153076171875
0.0255,-0.790771484375,5.775634765625,-4.354248046875
0.026,0.010009765625,5.815673828125,-4.954833984375
0.0265,1.131103515625,5.135009765625,-5.475341796875
0.027,2.572509765625,3.973876953125,-5.915771484375
0.0275,3.853759765625,2.732666015625,-6.276123046875
0.028,4.774658203125,1.851806640625,-6.556396484375
0.0285,5.094970703125,1.251220703125,-6.556396484375
0.029,5.094970703125,0.490478515625,-6.075927734375
0.0295,4.934814453125,-0.670654296875,-5.155029296875
0.03,4.854736328125,-1.951904296875,-4.033935546875
0.0305,4.894775390625,-3.353271484375,-2.952880859375
0.031,4.894775390625,-4.354248046875,-2.232177734375
0.0315,4.574462890625,-4.954833984375,-1.471435546875
0.032,3.773681640625,-5.235107421875,-0.510498046875
0.0325,2.572509765625,-5.595458984375,0.970947265625
0.033,1.411376953125,-5.915771484375,2.532470703125
0.0335,0.570556640625,-6.476318359375,3.693603515625
0.034,0.010009765625,-6.676513671875,4.654541015625
0.0345,-0.990966796875,-6.316162109375,5.255126953125
0.035,-2.272216796875,-5.275146484375,5.695556640625
0.0355,-3.713623046875,-4.033935546875,6.095947265625
0.036,-4.874755859375,-2.872802734375,6.376220703125
0.0365,-5.515380859375,-2.112060546875,6.576416015625
0.037,-5.635498046875,-1.471435546875,6.376220703125
0.0375,-5.515380859375,-0.630615234375,5.695556640625
0.038,-5.315185546875,0.690673828125,4.534423828125
0.0385,-5.235107421875,2.092041015625,3.333251953125
0.039,-5.315185546875,3.333251953125,2.372314453125
0.0395,-5.155029296875,4.174072265625,1.571533203125
0.04,-4.634521484375,4.614501953125,0.810791015625
0.0405,-3.593505859375,4.734619140625,-0.430419921875
0.041,-2.352294921875,5.094970703125,-1.951904296875
0.0415,-1.271240234375,5.415283203125,-3.473388671875
0.042,-0.590576171875,5.935791015625,-4.514404296875
0.0425,0.210205078125,6.015869140625,-5.275146484375
0.043,1.251220703125,5.375244140625,-5.755615234375
0.0435,2.692626953125,4.134033203125,-6.156005859375
0.044,4.053955078125,2.772705078125,-6.476318359375
0.0445,5.094970703125,1.731689453125,-6.756591796875
0.045,5.495361328125,1.010986328125,-6.796630859375
0.0455,5.495361328125,0.290283203125,-6.396240234375
0.046,5.255126953125,-0.830810546875,-5.435302734375
0.0465,5.094970703125,-2.272216796875,-4.114013671875
0.047,5.054931640625,-3.713623046875,-2.832763671875
0.0475,5.054931640625,-4.834716796875,-1.951904296875
0.048,4.734619140625,-5.475341796875,-1.151123046875
0.0485,3.893798828125,-5.755615234375,-0.270263671875
0.049,2.572509765625,-5.955810546875,1.251220703125
0.0495,1.171142578125,-6.316162109375,2.852783203125
0.05,0.210205078125,-6.596435546875,4.334228515625
0.0505,-0.550537109375,-6.876708984375,5.255126953125
0.051,-1.351318359375,-6.596435546875,5.895751953125
0.0515,-2.632568359375,-5.555419921875,6.296142578125
0.052,-4.194091796875,-4.033935546875,6.616455078125
0.0525,-5.435302734375,-2.632568359375,6.776611328125
0.053,-6.196044921875,-1.671630859375,6.896728515625
0.0535,-6.276123046875,-0.990966796875,6.696533203125
0.054,-6.075927734375,0.010009765625,5.895751953125
0.0545,-5.755615234375,1.251220703125,4.614501953125
0.055,-5.555419921875,2.732666015625,3.173095703125
0.0555,-5.435302734375,4.134033203125,1.931884765625
0.056,-5.275146484375,4.974853515625,1.091064453125
0.0565,-4.634521484375,5.295166015625,0.290283203125
0.057,-3.553466796875,5.375244140625,-0.950927734375
0.0575,-1.991943359375,5.455322265625,-2.632568359375
0.058,-0.630615234375,5.815673828125,-4.154052734375
0.0585,0.210205078125,6.176025390625,-5.315185546875
0.059,0.810791015625,6.256103515625,-6.075927734375
0.0595,1.851806640625,5.575439453125,-6.516357421875
0.06,3.293212890625,4.134033203125,-6.796630859375
0.0605,4.734619140625,2.612548828125,-6.996826171875
0.061,5.775634765625,1.291259765625,-7.116943359375
0.0615,6.216064453125,0.490478515625,-7.076904296875
0.062,6.095947265625,-0.310302734375,-6.636474609375
0.0625,5.735595703125,-1.271240234375,-5.635498046875
0.063,5.415283203125,-2.712646484375,-4.154052734375
0.0635,5.135009765625,-4.154052734375,-2.672607421875
0.064,5.094970703125,-5.395263671875,-1.591552734375
0.0645,4.734619140625,-6.115966796875,-0.790771484375
0.065,3.893798828125,-6.276123046875,0.170166015625
0.0655,2.532470703125,-6.396240234375,1.411376953125
0.066,1.010986328125,-6.436279296875,3.173095703125
0.0665,-0.310302734375,-6.676513671875,4.614501953125
0.067,-0.990966796875,-6.916748046875,5.615478515625
0.0675,-1.591552734375,-6.796630859375,6.256103515625
0.068,-2.712646484375,-5.835693359375,6.576416015625
0.0685,-4.234130859375,-4.354248046875,6.896728515625
0.069,-5.555419921875,-2.832763671875,7.016845703125
0.0695,-6.396240234375,-1.671630859375,7.056884765625
0.07,-6.596435546875,-0.990966796875,6.936767578125
0.0705,-6.396240234375,-0.190185546875,6.256103515625
0.071,-5.995849609375,0.970947265625,5.094970703125
0.0715,-5.715576171875,2.492431640625,3.573486328125
0.072,-5.475341796875,3.853759765625,2.212158203125
0.0725,-5.395263671875,4.894775390625,1.251220703125
0.073,-4.954833984375,5.415283203125,0.490478515625
0.0735,-4.073974609375,5.415283203125,-0.590576171875
0.074,-2.512451171875,5.575439453125,-1.991943359375
0.0745,-1.071044921875,5.815673828125,-3.713623046875
0.075,0.050048828125,6.095947265625,-5.034912109375
0.0755,0.650634765625,6.336181640625,-5.875732421875
0.076,1.411376953125,5.975830078125,-6.396240234375
0.0765,2.692626953125,4.814697265625,-6.716552734375
0.077,4.214111328125,3.253173828125,-6.996826171875
0.0775,5.415283203125,1.851806640625,-7.116943359375
0.078,6.095947265625,0.890869140625,-7.197021484375
0.0785,6.176025390625,0.210205078125,-6.916748046875
0.079,5.895751953125,-0.790771484375,-6.115966796875
0.0795,5.535400390625,-1.991943359375,-4.794677734375
0.08,5.255126953125,-3.513427734375,-3.273193359375
0.0805,5.135009765625,-4.954833984375,-2.031982421875
0.081,4.974853515625,-5.795654296875,-1.231201171875
0.0815,4.334228515625,-6.276123046875,-0.430419921875
0.082,3.293212890625,-6.276123046875,0.770751953125
0.0825,1.731689453125,-6.396240234375,2.412353515625
0.083,0.290283203125,-6.556396484375,4.093994140625
0.0835,-0.630615234375,-6.916748046875,5.255126953125
0.084,-1.231201171875,-6.996826171875,6.015869140625
0.0845,-2.152099609375,-6.356201171875,6.416259765625
0.085,-3.593505859375,-4.954833984375,6.696533203125
0.0855,-5.074951171875,-3.393310546875,6.896728515625
0.086,-6.115966796875,-2.112060546875,7.056884765625
0.0865,-6.556396484375,-1.271240234375,7.056884765625
0.087,-6.476318359375,-0.550537109375,6.576416015625
0.0875,-6.156005859375,0.490478515625,5.655517578125
0.088,-5.835693359375,1.931884765625,4.134033203125
0.0885,-5.635498046875,3.453369140625,2.612548828125
0.089,-5.515380859375,4.654541015625,1.531494140625
0.0895,-5.275146484375,5.295166015625,0.770751953125
0.09,-4.394287109375,5.575439453125,-0.230224609375
0.0905,-3.072998046875,5.695556640625,-1.511474609375
0.091,-1.551513671875,5.815673828125,-3.233154296875
0.0915,-0.270263671875,6.095947265625,-4.794677734375
0.092,0.530517578125,6.336181640625,-5.755615234375
0.0925,1.171142578125,6.216064453125,-6.356201171875
0.093,2.292236328125,5.295166015625,-6.756591796875
0.0935,3.853759765625,3.733642578125,-7.036865234375
0.094,5.215087890625,2.212158203125,-7.156982421875
0.0945,6.095947265625,1.010986328125,-7.237060546875
0.095,6.336181640625,0.290283203125,-7.116943359375
0.0955,6.095947265625,-0.590576171875,-6.436279296875
0.096,5.735595703125,-1.711669921875,-5.275146484375
0.0965,5.415283203125,-3.273193359375,-3.713623046875
0.097,5.175048828125,-4.754638671875,-2.272216796875
0.0975,4.974853515625,-5.755615234375,-1.231201171875
0.098,4.614501953125,-6.196044921875,-0.510498046875
0.0985,3.613525390625,-6.356201171875,0.530517578125
0.099,2.092041015625,-6.396240234375,1.971923828125
0.0995,0.570556640625,-6.516357421875,3.773681640625
0.1,-0.590576171875,-6.796630859375,5.054931640625
0.1005,-1.151123046875,-6.956787109375,5.895751953125
0.101,-1.911865234375,-6.556396484375,6.376220703125
0.1015,-3.153076171875,-5.435302734375,6.656494140625
0.102,-4.634521484375,-3.873779296875,6.896728515625
0.1025,-5.795654296875,-2.432373046875,6.976806640625
0.103,-6.436279296875,-1.471435546875,7.016845703125
0.1035,-6.436279296875,-0.830810546875,6.696533203125
0.104,-6.156005859375,0.090087890625,5.895751953125
0.1045,-5.795654296875,1.291259765625,4.614501953125
0.105,-5.555419921875,2.732666015625,3.173095703125
0.1055,-5.435302734375,4.134033203125,1.971923828125
0.106,-5.235107421875,4.934814453125,1.131103515625
0.1065,-4.674560546875,5.255126953125,0.370361328125
0.107,-3.673583984375,5.415283203125,-0.710693359375
0.1075,-2.232177734375,5.535400390625,-2.272216796875
0.108,-0.790771484375,5.775634765625,-3.873779296875
0.1085,0.090087890625,6.095947265625,-5.034912109375
0.109,0.650634765625,6.256103515625,-5.795654296875
0.1095,1.531494140625,5.695556640625,-6.276123046875
0.11,2.892822265625,4.454345703125,-6.556396484375
0.1105,4.294189453125,3.012939453125,-6.836669921875
0.111,5.375244140625,1.771728515625,-6.996826171875
0.1115,5.895751953125,0.930908203125,-7.076904296875
0.112,5.895751953125,0.290283203125,-6.716552734375
0.1125,5.615478515625,-0.750732421875,-5.875732421875
0.113,5.335205078125,-2.072021484375,-4.514404296875
0.1135,5.175048828125,-3.553466796875,-3.153076171875
0.114,5.094970703125,-4.834716796875,-2.072021484375
0.1145,4.894775390625,-5.555419921875,-1.271240234375
0.115,4.214111328125,-5.915771484375,-0.430419921875
0.1155,3.052978515625,-6.035888671875,0.890869140625
0.116,1.571533203125,-6.276123046875,2.492431640625
0.1165,0.330322265625,-6.516357421875,4.013916015625
0.117,-0.470458984375,-6.836669921875,5.094970703125
0.1175,-1.071044921875,-6.796630859375,5.735595703125
0.118,-2.112060546875,-6.075927734375,6.135986328125
0.1185,-3.593505859375,-4.634521484375,6.456298828125
0.119,-4.954833984375,-3.193115234375,6.696533203125
0.1195,-5.875732421875,-2.112060546875,6.856689453125
0.12,-6.156005859375,-1.391357421875,6.776611328125
0.1205,-6.035888671875,-0.710693359375,6.216064453125
0.121,-5.755615234375,0.450439453125,5.215087890625
0.1215,-5.475341796875,1.771728515625,3.733642578125
0.122,-5.395263671875,3.253173828125,2.532470703125
0.1225,-5.315185546875,4.294189453125,1.651611328125
0.123,-4.994873046875,4.854736328125,0.930908203125
0.1235,-4.154052734375,5.094970703125,0.050048828125
0.124,-2.872802734375,5.175048828125,-1.431396484375
0.1245,-1.551513671875,5.455322265625,-2.912841796875
0.125,-0.590576171875,5.815673828125,-4.314208984375
0.1255,0.130126953125,6.095947265625,-5.155029296875
0.126,0.810791015625,5.855712890625,-5.715576171875
0.1265,1.971923828125,4.934814453125,-6.115966796875
0.127,3.413330078125,3.573486328125,-6.396240234375
0.1275,4.614501953125,2.252197265625,-6.596435546875
0.128,5.335205078125,1.371337890625,-6.756591796875
0.1285,5.535400390625,0.730712890625,-6.676513671875
0.129,5.375244140625,0.010009765625,-6.075927734375
0.1295,5.135009765625,-1.271240234375,-5.074951171875
0.13,4.934814453125,-2.472412109375,-3.753662109375
0.1305,4.934814453125,-3.833740234375,-2.632568359375
0.131,4.854736328125,-4.754638671875,-1.911865234375
0.1315,4.494384765625,-5.235107421875,-1.151123046875
0.132,3.613525390625,-5.475341796875,-0.270263671875
0.1325,2.372314453125,-5.715576171875,1.251220703125
0.133,1.171142578125,-5.995849609375,2.772705078125
0.1335,0.370361328125,-6.436279296875,3.973876953125
0.134,-0.270263671875,-6.716552734375,4.814697265625
0.1345,-1.111083984375,-6.356201171875,5.335205078125
0.135,-2.312255859375,-5.315185546875,5.735595703125
0.1355,-3.673583984375,-4.114013671875,6.095947265625
0.136,-4.834716796875,-2.992919921875,6.376220703125
0.1365,-5.435302734375,-2.312255859375,6.536376953125
0.137,-5.555419921875,-1.631591796875,6.336181640625
0.1375,-5.435302734375,-0.950927734375,5.655517578125
0.138,-5.275146484375,0.410400390625,4.734619140625
0.1385,-5.195068359375,1.771728515625,3.533447265625
0.139,-5.315185546875,3.012939453125,2.692626953125
0.1395,-5.195068359375,3.853759765625,1.931884765625
0.14,-4.714599609375,4.294189453125,1.131103515625
0.1405,-3.793701171875,4.574462890625,0.050048828125
0.141,-2.712646484375,4.974853515625,-1.431396484375
0.1415,-1.631591796875,5.375244140625,-2.872802734375
0.142,-0.990966796875,5.815673828125,-3.993896484375
0.1425,-0.350341796875,5.975830078125,-4.754638671875
0.143,0.730712890625,5.455322265625,-5.275146484375
0.1435,2.052001953125,4.414306640625,-5.755615234375
0.144,3.373291015625,3.213134765625,-6.115966796875
0.1445,4.454345703125,2.212158203125,-6.476318359375
0.145,4.934814453125,1.571533203125,-6.596435546875
0.1455,5.054931640625,0.890869140625,-6.356201171875
0.146,4.934814453125,0.010009765625,-5.555419921875
0.1465,4.814697265625,-1.311279296875,-4.514404296875
0.147,4.814697265625,-2.672607421875,-3.393310546875
0.1475,4.894775390625,-3.793701171875,-2.632568359375
0.148,4.774658203125,-4.514404296875,-1.951904296875
0.1485,4.134033203125,-4.914794921875,-1.111083984375
0.149,3.133056640625,-5.235107421875,0.250244140625
0.1495,2.011962890625,-5.635498046875,1.651611328125
0.15,1.131103515625,-6.115966796875,3.012939453125
0.1505,0.530517578125,-6.476318359375,3.973876953125
0.151,-0.310302734375,-6.436279296875,4.694580078125
0.1515,-1.351318359375,-5.755615234375,5.175048828125
0.152,-2.752685546875,-4.634521484375,5.615478515625
0.1525,-3.993896484375,-3.553466796875,5.975830078125
0.153,-4.874755859375,-2.712646484375,6.296142578125
0.1535,-5.195068359375,-2.192138671875,6.256103515625
0.154,-5.195068359375,-1.351318359375,5.895751953125
0.1545,-5.114990234375,-0.350341796875,5.054931640625
0.155,-5.074951171875,0.970947265625,3.973876953125
0.1555,-5.195068359375,2.292236328125,3.052978515625
0.156,-5.235107421875,3.253173828125,2.372314453125
0.1565,-4.954833984375,3.853759765625,1.651611328125
0.157,-4.234130859375,4.254150390625,0.690673828125
0.1575,-3.193115234375,4.614501953125,-0.710693359375
0.158,-2.112060546875,5.054931640625,-2.112060546875
0.1585,-1.431396484375,5.575439453125,-3.353271484375
0.159,-0.790771484375,5.895751953125,-4.274169921875
0.1595,0.170166015625,5.615478515625,-4.874755859375
0.16,1.411376953125,4.814697265625,-5.395263671875
0.1605,2.732666015625,3.613525390625,-5.795654296875
0.161,3.933837890625,2.572509765625,-6.236083984375
0.1615,4.694580078125,1.851806640625,-6.556396484375
0.162,4.854736328125,1.291259765625,-6.396240234375
0.1625,4.854736328125,0.490478515625,-5.835693359375
0.163,4.774658203125,-0.790771484375,-4.874755859375
0.1635,4.814697265625,-2.112060546875,-3.833740234375
0.164,4.934814453125,-3.393310546875,-2.912841796875
0.1645,4.854736328125,-4.234130859375,-2.272216796875
0.165,4.414306640625,-4.674560546875,-1.471435546875
0.1655,3.533447265625,-5.074951171875,-0.350341796875
0.166,2.412353515625,-5.475341796875,1.131103515625
0.1665,1.411376953125,-5.915771484375,2.572509765625
0.167,0.770751953125,-6.396240234375,3.653564453125
0.1675,0.130126953125,-6.556396484375,4.494384765625
0.168,-0.990966796875,-6.075927734375,5.054931640625
0.1685,-2.312255859375,-5.034912109375,5.495361328125
0.169,-3.673583984375,-3.873779296875,5.895751953125
0.1695,-4.754638671875,-2.832763671875,6.256103515625
0.17,-5.155029296875,-2.232177734375,6.416259765625
0.1705,-5.275146484375,-1.551513671875,6.055908203125
0.171,-5.155029296875,-0.630615234375,5.295166015625
0.1715,-5.114990234375,0.690673828125,4.294189453125
0.172,-5.155029296875,2.052001953125,3.213134765625
0.1725,-5.275146484375,3.173095703125,2.452392578125
0.173,-5.034912109375,3.853759765625,1.771728515625
0.1735,-4.434326171875,4.254150390625,0.930908203125
0.174,-3.353271484375,4.534423828125,-0.470458984375
0.1745,-2.312255859375,4.974853515625,-1.911865234375
0.175,-1.431396484375,5.495361328125,-3.233154296875
0.1755,-0.830810546875,5.895751953125,-4.194091796875
0.176,0.010009765625,5.775634765625,-4.914794921875
0.1765,1.211181640625,5.014892578125,-5.395263671875
0.177,2.612548828125,3.853759765625,-5.835693359375
0.1775,3.893798828125,2.692626953125,-6.196044921875
0.178,4.734619140625,1.851806640625,-6.516357421875
0.1785,5.014892578125,1.251220703125,-6.476318359375
0.179,4.974853515625,0.490478515625,-5.995849609375
0.1795,4.854736328125,-0.710693359375,-5.034912109375
0.18,4.814697265625,-2.031982421875,-3.913818359375
0.1805,4.894775390625,-3.393310546875,-2.912841796875
0.181,4.894775390625,-4.354248046875,-2.192138671875
0.1815,4.534423828125,-4.914794921875,-1.431396484375
0.182,3.693603515625,-5.195068359375,-0.470458984375
0.1825,2.532470703125,-5.515380859375,1.091064453125
0.183,1.331298828125,-5.915771484375,2.612548828125
0.1835,0.610595703125,-6.396240234375,3.853759765625
0.184,0.010009765625,-6.636474609375,4.694580078125
0.1845,-1.031005859375,-6.276123046875,5.255126953125
0.185,-2.392333984375,-5.195068359375,5.695556640625
0.1855,-3.833740234375,-3.873779296875,6.135986328125
0.186,-4.914794921875,-2.752685546875,6.376220703125
0.1865,-5.515380859375,-2.072021484375,6.536376953125
0.187,-5.635498046875,-1.391357421875,6.256103515625
0.1875,-5.435302734375,-0.510498046875,5.535400390625
0.188,-5.275146484375,0.810791015625,4.414306640625
