wavelength,x,y,z
0.0,-16.571166992188,-4.7996826171875,20.424926757812
0.0005,-13.928588867188,-7.6024169921875,20.625122070312
0.001,-10.565307617188,-10.765502929688,20.505004882812
0.0015,-6.0408935546875,-14.409057617188,19.744262695312
0.002,-0.9559326171875,-17.492065429688,18.022583007812
0.0025,3.3282470703125,-19.453979492188,16.060668945312
0.003,6.1309814453125,-20.334838867188,14.379028320312
0.0035,9.0938720703125,-20.695190429688,11.976684570312
0.004,12.777465820312,-20.094604492188,7.9327392578125
0.0045,15.860473632812,-19.213745117188,4.1290283203125
0.005,18.463012695312,-17.452026367188,-0.2752685546875
0.0055,20.344848632812,-15.570190429688,-3.8787841796875
0.006,20.505004882812,-13.087768554688,-6.5614013671875
0.0065,20.705200195312,-10.204956054688,-9.6444091796875
0.007,20.184692382812,-6.1209716796875,-13.287963867188
0.0075,19.183715820312,-1.9569091796875,-16.451049804688
0.008,17.261840820312,2.0870361328125,-18.453002929688
0.0085,15.540161132812,5.0899658203125,-19.854370117188
0.009,12.937622070312,7.9327392578125,-20.334838867188
0.0095,8.7735595703125,11.576293945312,-19.934448242188
0.01,4.6094970703125,14.859497070312,-19.053588867188
0.0105,-0.3953857421875,17.662231445312,-17.131713867188
0.011,-4.1990966796875,19.544067382812,-15.450073242188
0.0115,-6.8416748046875,19.984497070312,-13.408081054688
0.012,-9.7645263671875,20.344848632812,-11.165893554688
0.0125,-13.688354492188,19.664184570312,-6.7215576171875
0.013,-16.731323242188,18.382934570312,-2.5574951171875
0.0135,-18.933471679688,16.581176757812,1.4864501953125
0.014,-20.494995117188,14.739379882812,4.7296142578125
0.0145,-20.655151367188,12.096801757812,7.5323486328125
0.015,-20.575073242188,8.5333251953125,11.055786132812
0.0155,-20.054565429688,4.8096923828125,14.298950195312
0.016,-18.733276367188,0.4454345703125,17.341918945312
0.0165,-16.811401367188,-3.5184326171875,19.303833007812
0.017,-14.769409179688,-6.1610107421875,19.984497070312
0.0175,-12.206909179688,-9.0838623046875,20.464965820312
0.018,-7.1219482421875,-13.167846679688,19.584106445312
0.0185,-2.7176513671875,-16.130737304688,18.342895507812
0.019,1.7266845703125,-18.453002929688,16.541137695312
0.0195,5.2100830078125,-20.094604492188,14.939575195312
0.02,7.9727783203125,-20.134643554688,12.417114257812
0.0205,11.055786132812,-20.174682617188,9.6143798828125
0.021,14.739379882812,-19.534057617188,5.4903564453125
0.0215,17.662231445312,-17.812377929688,0.9659423828125
0.022,19.504028320312,-15.930541992188,-2.7576904296875
0.0225,20.424926757812,-13.848510742188,-5.6405029296875
0.023,20.665161132812,-11.286010742188,-8.4832763671875
0.0235,20.304809570312,-7.0418701171875,-12.367065429688
0.024,19.504028320312,-3.3983154296875,-15.289916992188
0.0245,17.942504882812,0.8057861328125,-17.852416992188
0.025,16.140747070312,4.4493408203125,-19.734252929688
0.0255,13.418090820312,7.0919189453125,-19.854370117188
0.026,10.735473632812,10.094848632812,-20.134643554688
0.0265,5.7305908203125,14.058715820312,-19.253784179688
0.027,0.8858642578125,16.941528320312,-17.492065429688
0.0275,-2.9578857421875,18.743286132812,-15.770385742188
0.028,-6.0809326171875,19.984497070312,-14.128784179688
0.0285,-8.8836669921875,19.984497070312,-11.566284179688
0.029,-12.327026367188,19.584106445312,-7.6424560546875
0.0295,-15.450073242188,18.823364257812,-4.1590576171875
0.03,-18.092651367188,16.901489257812,0.3653564453125
0.0305,-19.774291992188,15.019653320312,3.8087158203125
0.031,-20.094604492188,12.657348632812,6.4112548828125
0.0315,-20.374877929688,10.134887695312,9.2540283203125
0.032,-19.854370117188,5.6905517578125,13.177856445312
0.0325,-18.733276367188,1.7667236328125,16.020629882812
0.033,-17.051635742188,-1.9569091796875,18.022583007812
0.0335,-15.530151367188,-5.1600341796875,19.664184570312
0.034,-12.647338867188,-7.8026123046875,19.584106445312
0.0345,-8.9637451171875,-11.165893554688,19.343872070312
0.035,-4.6795654296875,-14.529174804688,18.623168945312
0.0355,0.2852783203125,-17.251831054688,16.661254882812
0.036,3.6885986328125,-18.853393554688,15.099731445312
0.0365,6.3712158203125,-19.494018554688,13.297973632812
0.037,8.9737548828125,-19.894409179688,11.095825195312
0.0375,12.977661132812,-19.093627929688,6.6514892578125
0.038,15.820434570312,-17.972534179688,2.8878173828125
0.0385,18.022583007812,-16.290893554688,-0.9559326171875
0.039,19.463989257812,-14.609252929688,-3.9989013671875
0.0395,19.504028320312,-12.046752929688,-6.6014404296875
0.04,19.664184570312,-9.0037841796875,-9.8045654296875
0.0405,19.263793945312,-5.1600341796875,-13.247924804688
0.041,17.902465820312,-0.9959716796875,-16.170776367188
0.0415,16.180786132812,2.4473876953125,-17.892456054688
0.042,14.539184570312,5.2501220703125,-19.053588867188
0.0425,11.976684570312,8.0128173828125,-19.253784179688
0.043,7.2921142578125,11.896606445312,-18.573120117188
0.0435,3.3282470703125,14.859497070312,-17.772338867188
0.044,-1.1561279296875,17.301879882812,-16.010620117188
0.0445,-4.2391357421875,18.903442382812,-14.449096679688
0.045,-6.9217529296875,18.983520507812,-12.327026367188
0.0455,-9.7645263671875,19.263793945312,-9.9647216796875
0.046,-13.608276367188,18.583129882812,-5.7205810546875
0.0465,-16.411010742188,16.981567382812,-1.4364013671875
0.047,-18.212768554688,15.420043945312,1.9268798828125
0.0475,-19.373901367188,13.658325195312,4.8096923828125
0.048,-19.494018554688,11.095825195312,7.4122314453125
0.0485,-19.293823242188,7.2921142578125,11.095825195312
0.049,-18.853393554688,3.7686767578125,14.178833007812
0.0495,-17.452026367188,-0.4754638671875,16.861450195312
0.05,-15.730346679688,-3.6785888671875,18.503051757812
0.0505,-13.528198242188,-6.3211669921875,19.023559570312
0.051,-10.965698242188,-9.2440185546875,19.423950195312
0.0515,-5.8006591796875,-13.287963867188,18.463012695312
0.052,-1.3563232421875,-16.090698242188,17.021606445312
0.0525,2.4073486328125,-18.052612304688,15.500122070312
0.053,5.4903564453125,-19.373901367188,14.018676757812
0.0535,8.3331298828125,-19.373901367188,11.376098632812
0.054,11.576293945312,-19.253784179688,8.1729736328125
0.0545,14.979614257812,-18.573120117188,4.2891845703125
0.055,17.702270507812,-16.651245117188,-0.2752685546875
0.0555,19.143676757812,-15.009643554688,-3.2781982421875
0.056,19.784301757812,-12.807495117188,-6.1209716796875
0.0565,19.944458007812,-10.244995117188,-8.9237060546875
0.057,19.463989257812,-5.8406982421875,-12.847534179688
0.0575,18.503051757812,-2.0770263671875,-15.690307617188
0.058,16.941528320312,1.8868408203125,-17.972534179688
0.0585,15.179809570312,5.0899658203125,-19.453979492188
0.059,12.296997070312,7.8526611328125,-19.413940429688
0.0595,8.9737548828125,11.215942382812,-19.534057617188
0.06,4.1290283203125,14.899536132812,-18.573120117188
0.0605,-0.9559326171875,17.582153320312,-16.531127929688
0.061,-4.1190185546875,19.063598632812,-15.049682617188
0.0615,-7.0819091796875,19.944458007812,-13.207885742188
0.062,-9.9647216796875,19.904418945312,-10.445190429688
0.0625,-13.648315429688,19.223754882812,-6.3211669921875
0.063,-16.651245117188,18.102661132812,-2.3172607421875
0.0635,-19.093627929688,16.180786132812,1.9669189453125
0.064,-20.334838867188,14.338989257812,4.9698486328125
0.0645,-20.374877929688,11.536254882812,7.8526611328125
0.065,-20.414916992188,8.5333251953125,10.895629882812
0.0655,-19.814331054688,4.1290283203125,14.579223632812
0.066,-18.212768554688,0.0050048828125,17.301879882812
0.0665,-16.531127929688,-3.5584716796875,19.103637695312
0.067,-14.609252929688,-6.5213623046875,20.224731445312
0.0675,-11.406127929688,-9.4041748046875,19.984497070312
0.068,-7.0819091796875,-13.047729492188,19.463989257812
0.0685,-2.4373779296875,-16.330932617188,18.302856445312
0.069,2.4473876953125,-18.693237304688,16.140747070312
0.0695,5.3302001953125,-19.814331054688,14.539184570312
0.07,8.3331298828125,-20.214721679688,12.216918945312
0.0705,11.336059570312,-20.174682617188,9.3341064453125
0.071,15.019653320312,-19.213745117188,4.9298095703125
0.0715,17.782348632812,-17.572143554688,0.6055908203125
0.072,19.704223632812,-15.730346679688,-3.1180419921875
0.0725,20.464965820312,-13.648315429688,-5.9608154296875
0.073,20.424926757812,-10.685424804688,-8.9237060546875
0.0735,20.144653320312,-7.0819091796875,-12.246948242188
0.074,19.463989257812,-3.0780029296875,-15.570190429688
0.0745,17.582153320312,1.4063720703125,-18.092651367188
0.075,15.740356445312,4.4893798828125,-19.413940429688
0.0755,13.458129882812,7.4122314453125,-20.174682617188
0.076,10.094848632812,10.495239257812,-19.934448242188
0.0765,5.2901611328125,14.178833007812,-18.973510742188
0.077,0.7657470703125,17.101684570312,-17.532104492188
0.0775,-3.5584716796875,19.183715820312,-15.690307617188
0.078,-6.3612060546875,19.984497070312,-13.888549804688
0.0785,-9.3641357421875,20.144653320312,-11.245971679688
0.079,-12.607299804688,19.864379882812,-7.9627685546875
0.0795,-16.050659179688,18.863403320312,-3.6785888671875
0.08,-18.653198242188,16.821411132812,0.9259033203125
0.0805,-20.174682617188,15.099731445312,4.1690673828125
0.081,-20.775268554688,12.737426757812,7.0518798828125
0.0815,-20.655151367188,9.5343017578125,10.094848632812
0.082,-20.054565429688,5.4903564453125,13.578247070312
0.0825,-19.093627929688,1.4864501953125,16.661254882812
0.083,-17.291870117188,-2.7576904296875,19.063598632812
0.0835,-15.329956054688,-5.6405029296875,19.984497070312
0.084,-12.647338867188,-8.5633544921875,20.344848632812
0.0845,-8.7235107421875,-12.046752929688,20.104614257812
0.085,-3.8387451171875,-15.570190429688,18.863403320312
0.0855,0.9659423828125,-18.092651367188,16.901489257812
0.086,4.5294189453125,-19.894409179688,15.380004882812
0.0865,7.4122314453125,-20.494995117188,13.297973632812
0.087,10.535278320312,-20.414916992188,10.335083007812
0.0875,14.058715820312,-19.894409179688,6.4512939453125
0.088,17.261840820312,-18.573120117188,2.1270751953125
0.0885,19.584106445312,-16.571166992188,-2.2772216796875
0.089,20.625122070312,-14.609252929688,-5.1199951171875
0.0895,20.985473632812,-12.006713867188,-8.2030029296875
0.09,20.785278320312,-8.3231201171875,-11.606323242188
0.0905,20.024536132812,-4.1590576171875,-14.969604492188
0.091,18.543090820312,0.0450439453125,-17.652221679688
0.0915,16.781372070312,3.9688720703125,-19.854370117188
0.092,14.379028320312,6.8516845703125,-20.374877929688
0.0925,11.376098632812,9.8546142578125,-20.494995117188
0.093,7.0118408203125,13.538208007812,-19.934448242188
0.0935,2.0469970703125,16.901489257812,-18.573120117188
0.094,-2.6776123046875,19.103637695312,-16.370971679688
0.0945,-5.7606201171875,20.424926757812,-14.769409179688
0.095,-8.8035888671875,20.785278320312,-12.447143554688
0.0955,-12.126831054688,20.464965820312,-9.0037841796875
0.096,-15.530151367188,19.664184570312,-4.9598388671875
0.0965,-18.453002929688,17.902465820312,-0.3953857421875
0.097,-20.655151367188,15.860473632812,3.8087158203125
0.0975,-21.135620117188,13.498168945312,6.5313720703125
0.098,-21.415893554688,10.695434570312,9.6544189453125
0.0985,-20.975463867188,6.6114501953125,13.338012695312
0.099,-20.054565429688,2.4473876953125,16.621215820312
0.0995,-17.972534179688,-1.8367919921875,18.903442382812
0.1,-16.330932617188,-5.4803466796875,20.625122070312
0.1005,-13.608276367188,-8.2430419921875,20.985473632812
0.101,-10.004760742188,-11.526245117188,20.705200195312
0.1015,-5.4403076171875,-15.049682617188,19.864379882812
0.102,-0.2752685546875,-18.172729492188,18.062622070312
0.1025,4.1290283203125,-20.174682617188,15.980590820312
0.103,6.9718017578125,-20.895385742188,14.098754882812
0.1035,10.094848632812,-21.295776367188,11.576293945312
0.104,13.778442382812,-20.575073242188,7.4923095703125
0.1045,16.941528320312,-19.574096679688,3.4083251953125
0.105,19.504028320312,-17.572143554688,-1.1160888671875
0.1055,21.345825195312,-15.690307617188,-4.8397216796875
0.106,21.546020507812,-12.967651367188,-7.6824951171875
0.1065,21.586059570312,-9.6844482421875,-11.005737304688
0.107,20.985473632812,-5.4803466796875,-14.569213867188
0.1075,19.784301757812,-1.1160888671875,-17.612182617188
0.108,17.662231445312,3.2081298828125,-19.894409179688
0.1085,15.580200195312,6.2510986328125,-21.015502929688
0.109,12.777465820312,9.3341064453125,-21.375854492188
0.1095,8.1729736328125,13.137817382812,-20.695190429688
0.11,3.8087158203125,16.300903320312,-19.654174804688
0.1105,-1.3963623046875,19.063598632812,-17.532104492188
0.111,-5.4002685546875,20.905395507812,-15.690307617188
0.1115,-8.1629638671875,21.105590820312,-13.328002929688
0.112,-11.205932617188,21.305786132812,-10.725463867188
0.1125,-15.129760742188,20.464965820312,-6.1209716796875
0.113,-18.252807617188,18.903442382812,-1.5965576171875
0.1135,-20.454956054688,16.781372070312,2.5675048828125
0.114,-21.776245117188,14.779418945312,5.9307861328125
0.1145,-21.816284179688,11.896606445312,8.9337158203125
0.115,-21.616088867188,7.9727783203125,12.617309570312
0.1155,-20.815307617188,4.0089111328125,15.780395507812
0.116,-19.253784179688,-0.5955810546875,18.743286132812
0.1165,-17.131713867188,-4.5594482421875,20.745239257812
0.117,-14.729370117188,-7.3621826171875,21.145629882812
0.1175,-11.966674804688,-10.405151367188,21.546020507812
0.118,-6.6815185546875,-14.529174804688,20.545043945312
0.1185,-1.9569091796875,-17.532104492188,19.023559570312
0.119,2.4874267578125,-19.734252929688,16.981567382812
0.1195,6.2510986328125,-21.295776367188,15.219848632812
0.12,9.1739501953125,-21.295776367188,12.497192382812
0.1205,12.417114257812,-21.135620117188,9.3341064453125
0.121,16.100708007812,-20.374877929688,5.0499267578125
0.1215,19.063598632812,-18.453002929688,0.2052001953125
0.122,20.945434570312,-16.330932617188,-3.7186279296875
0.1225,21.666137695312,-14.048706054688,-6.7215576171875
0.123,21.906372070312,-11.245971679688,-9.7244873046875
0.1235,21.385864257812,-6.6414794921875,-13.808471679688
0.124,20.384887695312,-2.7576904296875,-16.731323242188
0.1245,18.543090820312,1.6466064453125,-19.293823242188
0.125,16.621215820312,5.4903564453125,-21.215698242188
0.1255,13.578247070312,8.3331298828125,-21.135620117188
0.126,10.495239257812,11.536254882812,-21.335815429688
0.1265,5.2901611328125,15.580200195312,-20.334838867188
0.127,0.0450439453125,18.583129882812,-18.453002929688
0.1275,-4.0389404296875,20.384887695312,-16.370971679688
0.128,-7.3221435546875,21.586059570312,-14.569213867188
0.1285,-10.405151367188,21.546020507812,-11.686401367188
0.129,-14.128784179688,20.865356445312,-7.5223388671875
0.1295,-17.411987304688,19.864379882812,-3.4783935546875
0.13,-20.174682617188,17.782348632812,1.4464111328125
0.1305,-21.816284179688,15.660278320312,5.1300048828125
0.131,-22.056518554688,12.857543945312,8.0528564453125
0.1315,-22.176635742188,9.9346923828125,11.215942382812
0.132,-21.415893554688,5.0899658203125,15.299926757812
0.1325,-20.014526367188,0.7657470703125,18.262817382812
0.133,-17.972534179688,-3.3582763671875,20.264770507812
0.1335,-16.090698242188,-6.7615966796875,21.906372070312
0.134,-12.767456054688,-9.7645263671875,21.626098632812
0.1345,-8.5233154296875,-13.408081054688,21.185668945312
0.135,-3.8387451171875,-16.891479492188,20.184692382812
0.1355,1.7266845703125,-19.734252929688,17.822387695312
0.136,5.3702392578125,-21.175659179688,15.900512695312
0.1365,8.4532470703125,-21.776245117188,13.578247070312
0.137,11.536254882812,-21.896362304688,10.855590820312
0.1375,15.620239257812,-20.855346679688,5.8907470703125
0.138,18.623168945312,-19.293823242188,1.5665283203125
0.1385,20.825317382812,-17.251831054688,-2.6776123046875
0.139,22.186645507812,-15.089721679688,-6.0809326171875
0.1395,21.986450195312,-11.926635742188,-9.0838623046875
0.14,21.906372070312,-8.5233154296875,-12.447143554688
0.1405,21.145629882812,-4.1190185546875,-16.090698242188
0.141,19.343872070312,0.6856689453125,-19.093627929688
0.1415,17.141723632812,4.4493408203125,-20.655151367188
0.142,14.939575195312,7.6124267578125,-21.736206054688
0.1425,11.816528320312,10.615356445312,-21.656127929688
0.143,6.5313720703125,14.739379882812,-20.655151367188
0.1435,2.0469970703125,17.742309570312,-19.173706054688
0.144,-2.9578857421875,20.184692382812,-17.171752929688
0.1445,-6.4412841796875,21.465942382812,-15.249877929688
0.145,-9.6043701171875,21.465942382812,-12.327026367188
0.1455,-12.567260742188,21.465942382812,-9.6043701171875
0.146,-16.571166992188,20.384887695312,-4.7196044921875
0.1465,-19.453979492188,18.262817382812,0.2852783203125
0.147,-21.175659179688,16.260864257812,3.9288330078125
0.1475,-22.176635742188,13.978637695312,7.0919189453125
0.148,-21.976440429688,10.775512695312,10.134887695312
0.1485,-21.536010742188,6.5714111328125,13.938598632812
0.149,-20.655151367188,2.6075439453125,17.061645507812
0.1495,-18.733276367188,-2.1170654296875,19.864379882812
0.15,-16.531127929688,-5.6805419921875,21.265747070312
0.1505,-13.808471679688,-8.6434326171875,21.546020507812
0.151,-10.685424804688,-11.806518554688,21.666137695312
0.1515,-4.9998779296875,-16.050659179688,20.304809570312
0.152,0.0050048828125,-18.853393554688,18.382934570312
0.1525,4.0889892578125,-20.695190429688,16.541137695312
0.153,7.4122314453125,-21.816284179688,14.579223632812
0.1535,10.615356445312,-21.536010742188,11.376098632812
0.154,14.058715820312,-21.135620117188,7.7325439453125
0.1545,17.582153320312,-20.054565429688,3.4083251953125
0.155,20.224731445312,-17.772338867188,-1.5965576171875
0.1555,21.505981445312,-15.730346679688,-4.8397216796875
0.156,22.026489257812,-13.127807617188,-7.9627685546875
0.1565,21.906372070312,-10.044799804688,-10.965698242188
0.157,21.145629882812,-5.2801513671875,-15.009643554688
0.1575,19.864379882812,-1.1160888671875,-17.852416992188
0.158,17.982543945312,3.1280517578125,-20.174682617188
0.1585,15.820434570312,6.4913330078125,-21.455932617188
0.159,12.537231445312,9.5343017578125,-21.295776367188
0.1595,8.8936767578125,13.017700195312,-21.135620117188
0.16,3.7286376953125,16.861450195312,-19.974487304688
0.1605,-1.7567138671875,19.423950195312,-17.532104492188
0.161,-5.1199951171875,20.785278320312,-15.770385742188
0.1615,-8.3231201171875,21.626098632812,-13.688354492188
0.162,-11.406127929688,21.385864257812,-10.565307617188
0.1625,-15.169799804688,20.625122070312,-6.0008544921875
0.163,-18.252807617188,19.143676757812,-1.8768310546875
0.1635,-20.655151367188,16.941528320312,2.7677001953125
0.164,-21.656127929688,14.779418945312,5.8507080078125
0.1645,-21.816284179688,11.816528320312,8.9737548828125
0.165,-21.736206054688,8.5733642578125,12.136840820312
0.1655,-20.895385742188,3.9288330078125,15.980590820312
0.166,-19.093627929688,-0.6356201171875,18.703247070312
0.1665,-17.211791992188,-4.2391357421875,20.464965820312
0.167,-15.089721679688,-7.3621826171875,21.546020507812
0.1675,-11.566284179688,-10.445190429688,21.185668945312
0.168,-7.0819091796875,-14.208862304688,20.625122070312
0.1685,-2.1971435546875,-17.572143554688,19.223754882812
0.169,2.9278564453125,-19.934448242188,16.821411132812
0.1695,6.0108642578125,-20.975463867188,15.059692382812
0.17,9.1339111328125,-21.375854492188,12.537231445312
0.1705,12.337036132812,-21.135620117188,9.3741455078125
0.171,16.140747070312,-19.894409179688,4.8497314453125
0.1715,18.903442382812,-18.292846679688,0.2852783203125
0.172,20.905395507812,-16.330932617188,-3.7186279296875
0.1725,21.626098632812,-14.048706054688,-6.6815185546875
0.173,21.586059570312,-10.845581054688,-9.8045654296875
0.1735,21.185668945312,-7.0418701171875,-13.328002929688
0.174,20.424926757812,-2.7576904296875,-16.651245117188
0.1745,18.302856445312,1.9268798828125,-19.333862304688
0.175,16.340942382812,5.1700439453125,-20.615112304688
0.1755,13.898559570312,8.2530517578125,-21.335815429688
0.176,10.214965820312,11.416137695312,-21.135620117188
0.1765,5.1700439453125,15.259887695312,-19.974487304688
0.177,0.3653564453125,18.222778320312,-18.332885742188
0.1775,-4.1590576171875,20.424926757812,-16.290893554688
0.178,-7.0819091796875,21.105590820312,-14.288940429688
