wavelength,x,y,z
0.0,4.64453125,-4.083984375,-1.12109375
0.0005,4.724609375,-2.8828125,-2.40234375
0.001,4.64453125,-2.2421875,-3.0029296875
0.0015,4.3642578125,-1.1611328125,-3.84375
0.002,4.1240234375,-0.2001953125,-4.3642578125
0.0025,3.36328125,0.80078125,-4.564453125
0.003,2.8427734375,1.5615234375,-4.8447265625
0.0035,1.681640625,2.8828125,-4.9248046875
0.004,0.9609375,3.3232421875,-4.64453125
0.0045,0.0,4.1240234375,-4.5244140625
0.005,-0.8408203125,4.404296875,-3.8837890625
0.0055,-1.5615234375,4.724609375,-3.5634765625
0.006,-2.802734375,4.8046875,-2.40234375
0.0065,-3.8037109375,4.8447265625,-1.4814453125
0.007,-4.2841796875,4.404296875,-0.5205078125
0.0075,-4.884765625,4.32421875,0.16015625
0.008,-4.884765625,3.4833984375,0.9609375
0.0085,-5.0849609375,3.123046875,1.44140625
0.009,-5.125,1.921875,2.6826171875
0.0095,-4.9248046875,1.201171875,3.1630859375
0.01,-4.64453125,0.240234375,3.923828125
0.0105,-4.244140625,-0.6806640625,4.32421875
0.011,-3.6435546875,-1.4814453125,4.5244140625
0.0115,-2.9228515625,-2.322265625,4.64453125
0.012,-1.9619140625,-3.4833984375,4.8046875
0.0125,-1.1611328125,-3.8837890625,4.404296875
0.013,-0.3603515625,-4.64453125,4.32421875
0.0135,0.5205078125,-4.8447265625,3.68359375
0.014,1.1611328125,-5.1650390625,3.36328125
0.0145,2.482421875,-5.2451171875,2.162109375
0.015,3.283203125,-5.28515625,1.4013671875
0.0155,3.84375,-4.884765625,0.48046875
0.016,4.404296875,-4.8447265625,-0.16015625
0.0165,4.484375,-4.1240234375,-1.0009765625
0.017,4.6044921875,-3.603515625,-1.5615234375
0.0175,4.7646484375,-2.5625,-2.8427734375
0.018,4.484375,-1.681640625,-3.283203125
0.0185,4.32421875,-0.6806640625,-4.1240234375
0.019,3.763671875,0.2802734375,-4.4443359375
0.0195,3.1630859375,1.12109375,-4.64453125
0.02,2.2822265625,2.08203125,-4.8046875
0.0205,1.4013671875,3.1630859375,-4.96484375
0.021,0.48046875,3.5634765625,-4.3642578125
0.0215,-0.2802734375,4.32421875,-4.3642578125
0.022,-1.1611328125,4.404296875,-3.5634765625
0.0225,-1.8818359375,4.64453125,-3.123046875
0.023,-3.283203125,4.7646484375,-1.8818359375
0.0235,-3.9638671875,4.6044921875,-1.041015625
0.024,-4.4443359375,4.1240234375,-0.16015625
0.0245,-4.8447265625,3.8837890625,0.48046875
0.025,-4.8046875,3.1630859375,1.1611328125
0.0255,-4.8447265625,2.482421875,1.841796875
0.026,-5.0048828125,1.5615234375,2.962890625
0.0265,-4.484375,0.6806640625,3.283203125
0.027,-4.4443359375,-0.1201171875,4.00390625
0.0275,-3.7236328125,-1.0009765625,4.1240234375
0.028,-3.3232421875,-1.6416015625,4.404296875
0.0285,-2.322265625,-2.72265625,4.404296875
0.029,-1.6416015625,-3.4833984375,4.484375
0.0295,-0.720703125,-3.8837890625,3.9638671875
0.03,-0.2001953125,-4.484375,4.00390625
0.0305,0.6806640625,-4.564453125,3.2431640625
0.031,1.3212890625,-4.8447265625,2.8427734375
0.0315,2.6025390625,-5.0048828125,1.76171875
0.032,3.04296875,-4.7646484375,1.12109375
0.0325,3.68359375,-4.64453125,0.3603515625
0.033,3.8837890625,-4.32421875,-0.2802734375
0.0335,4.083984375,-3.84375,-0.9208984375
0.034,4.1240234375,-3.04296875,-1.6416015625
0.0345,4.404296875,-2.322265625,-2.6025390625
0.035,3.8837890625,-1.361328125,-3.0830078125
0.0355,4.00390625,-0.720703125,-3.84375
0.036,3.1630859375,0.3203125,-4.00390625
0.0365,2.9228515625,1.0009765625,-4.3642578125
0.037,1.921875,2.162109375,-4.484375
0.0375,1.3212890625,2.802734375,-4.484375
0.038,0.400390625,3.3232421875,-4.083984375
0.0385,-0.2001953125,3.8837890625,-4.0439453125
0.039,-1.1611328125,4.00390625,-3.283203125
0.0395,-1.9619140625,4.2841796875,-2.72265625
0.04,-3.203125,4.484375,-1.681640625
0.0405,-3.5634765625,4.00390625,-0.9208984375
0.041,-4.1640625,4.00390625,-0.3203125
0.0415,-4.244140625,3.36328125,0.400390625
0.042,-4.4443359375,3.0029296875,1.041015625
0.0425,-4.484375,2.08203125,1.921875
0.043,-4.564453125,1.4013671875,2.6826171875
0.0435,-4.0439453125,0.4404296875,3.123046875
0.044,-4.1240234375,-0.1201171875,3.7236328125
0.0445,-3.2431640625,-1.041015625,3.763671875
0.045,-2.962890625,-1.681640625,4.0439453125
0.0455,-2.001953125,-2.72265625,4.1240234375
0.046,-1.361328125,-3.1630859375,3.8837890625
0.0465,-0.720703125,-3.7236328125,3.8037109375
0.047,-0.080078125,-4.00390625,3.4833984375
0.0475,0.640625,-4.244140625,2.962890625
0.048,1.521484375,-4.404296875,2.2421875
0.0485,2.4423828125,-4.64453125,1.5615234375
0.049,2.72265625,-4.2041015625,0.880859375
0.0495,3.3232421875,-4.4443359375,0.48046875
0.05,3.36328125,-3.7236328125,-0.2802734375
0.0505,3.68359375,-3.4833984375,-0.720703125
0.051,3.84375,-2.6025390625,-1.76171875
0.0515,3.84375,-2.1220703125,-2.2822265625
0.052,3.5634765625,-1.2412109375,-2.9228515625
0.0525,3.5234375,-0.640625,-3.4033203125
0.053,2.8828125,0.2802734375,-3.68359375
0.0535,2.5224609375,1.041015625,-4.00390625
0.054,1.841796875,2.0419921875,-4.2041015625
0.0545,1.12109375,2.40234375,-3.8837890625
0.055,0.6005859375,3.1630859375,-4.083984375
0.0555,-0.3203125,3.4033203125,-3.4833984375
0.056,-1.041015625,3.84375,-3.123046875
0.0565,-2.1220703125,3.923828125,-2.2822265625
0.057,-2.8828125,4.0439453125,-1.6416015625
0.0575,-3.283203125,3.68359375,-0.880859375
0.058,-3.8037109375,3.84375,-0.4404296875
0.0585,-3.8837890625,3.04296875,0.3603515625
0.059,-4.1640625,2.72265625,0.9609375
0.0595,-4.2841796875,1.8818359375,1.9619140625
0.06,-4.1240234375,1.201171875,2.40234375
0.0605,-4.00390625,0.3603515625,3.123046875
0.061,-3.603515625,-0.3203125,3.4033203125
0.0615,-3.1630859375,-1.041015625,3.6435546875
0.062,-2.5224609375,-1.921875,3.84375
0.0625,-1.8818359375,-2.6826171875,3.9638671875
0.063,-1.1611328125,-3.0830078125,3.5634765625
0.0635,-0.720703125,-3.7236328125,3.8037109375
0.064,0.16015625,-3.8037109375,3.0029296875
0.0645,0.8408203125,-4.2041015625,2.6826171875
0.065,1.921875,-4.3642578125,1.76171875
0.0655,2.40234375,-4.2841796875,1.2412109375
0.066,2.8427734375,-4.1240234375,0.640625
0.0665,3.123046875,-3.9638671875,0.2802734375
0.067,3.3232421875,-3.4033203125,-0.48046875
0.0675,3.4833984375,-2.9228515625,-1.12109375
0.068,3.763671875,-2.2822265625,-1.9619140625
0.0685,3.36328125,-1.5615234375,-2.40234375
0.069,3.5634765625,-0.9609375,-3.1630859375
0.0695,2.8828125,-0.080078125,-3.283203125
0.07,2.6826171875,0.6005859375,-3.7236328125
0.0705,1.9619140625,1.521484375,-3.8837890625
0.071,1.4013671875,2.162109375,-3.9638671875
0.0715,0.6806640625,2.6025390625,-3.7236328125
0.072,0.240234375,3.203125,-3.8037109375
0.0725,-0.80078125,3.36328125,-3.04296875
0.073,-1.5615234375,3.7236328125,-2.6025390625
0.0735,-2.5625,3.8837890625,-1.8017578125
0.074,-2.962890625,3.68359375,-1.1611328125
0.0745,-3.5634765625,3.763671875,-0.640625
0.075,-3.68359375,3.2431640625,0.0
0.0755,-3.9638671875,2.8427734375,0.6806640625
0.076,-4.0439453125,2.1220703125,1.521484375
0.0765,-4.244140625,1.5615234375,2.2421875
0.077,-3.84375,0.6005859375,2.6826171875
0.0775,-4.00390625,0.1201171875,3.36328125
0.078,-3.1630859375,-0.8408203125,3.443359375
0.0785,-2.8828125,-1.521484375,3.84375
0.079,-2.001953125,-2.4423828125,3.84375
0.0795,-1.4013671875,-2.962890625,3.763671875
0.08,-0.80078125,-3.4833984375,3.603515625
0.0805,-0.16015625,-3.84375,3.3232421875
0.081,0.7607421875,-4.0439453125,2.6025390625
0.0815,1.5615234375,-4.2841796875,2.0419921875
0.082,2.40234375,-4.3642578125,1.4013671875
0.0825,2.6826171875,-4.00390625,0.7607421875
0.083,3.1630859375,-4.1640625,0.400390625
0.0835,3.203125,-3.4833984375,-0.3603515625
0.084,3.5234375,-3.1630859375,-1.0009765625
0.0845,3.603515625,-2.322265625,-1.8017578125
0.085,3.6435546875,-1.8017578125,-2.4423828125
0.0855,3.3232421875,-0.9208984375,-2.8828125
0.086,3.2431640625,-0.3603515625,-3.4033203125
0.0865,2.5224609375,0.6005859375,-3.5634765625
0.087,2.2021484375,1.28125,-3.8837890625
0.0875,1.44140625,2.2021484375,-4.00390625
0.088,0.7607421875,2.6025390625,-3.7236328125
0.0885,0.240234375,3.1630859375,-3.84375
0.089,-0.640625,3.443359375,-3.203125
0.0895,-1.521484375,3.7236328125,-2.642578125
0.09,-2.40234375,3.84375,-1.8818359375
0.0905,-3.0830078125,3.9638671875,-1.28125
0.091,-3.4033203125,3.5634765625,-0.560546875
0.0915,-3.8837890625,3.6435546875,-0.16015625
0.092,-3.923828125,2.7626953125,0.7607421875
0.0925,-4.2041015625,2.40234375,1.361328125
0.093,-4.244140625,1.521484375,2.2421875
0.0935,-4.1240234375,0.80078125,2.8427734375
0.094,-3.84375,0.0,3.36328125
0.0945,-3.5234375,-0.6806640625,3.6435546875
0.095,-2.7626953125,-1.681640625,3.84375
0.0955,-2.2421875,-2.3623046875,3.9638671875
0.096,-1.4814453125,-3.203125,4.00390625
0.0965,-0.720703125,-3.603515625,3.6435546875
0.097,-0.2001953125,-4.1640625,3.68359375
0.0975,0.9208984375,-4.32421875,2.6826171875
0.098,1.681640625,-4.5244140625,2.2421875
0.0985,2.5224609375,-4.484375,1.361328125
0.099,3.123046875,-4.484375,0.7607421875
0.0995,3.3232421875,-4.0439453125,0.1201171875
0.1,3.68359375,-3.8837890625,-0.3203125
0.1005,3.763671875,-2.962890625,-1.3212890625
0.101,3.84375,-2.5224609375,-1.8818359375
0.1015,3.8837890625,-1.6416015625,-2.7626953125
0.102,3.5234375,-0.80078125,-3.203125
0.1025,3.3232421875,-0.080078125,-3.7236328125
0.103,2.6025390625,0.80078125,-3.84375
0.1035,2.0419921875,1.681640625,-4.1240234375
0.104,1.361328125,2.3623046875,-4.0439453125
0.1045,0.640625,3.04296875,-4.1240234375
0.105,-0.16015625,3.3232421875,-3.603515625
0.1055,-0.6806640625,3.84375,-3.5634765625
0.106,-1.9619140625,3.9638671875,-2.4423828125
0.1065,-2.6025390625,4.1240234375,-1.921875
0.107,-3.4033203125,4.0439453125,-1.041015625
0.1075,-3.84375,3.84375,-0.4404296875
0.108,-4.1240234375,3.4833984375,0.2001953125
0.1085,-4.2841796875,3.04296875,0.80078125
0.109,-4.484375,2.2421875,1.8017578125
0.1095,-4.3642578125,1.5615234375,2.3623046875
0.11,-4.484375,0.7607421875,3.1630859375
0.1105,-3.8837890625,-0.2001953125,3.5234375
0.111,-3.8037109375,-0.80078125,4.00390625
0.1115,-2.8427734375,-1.8818359375,4.083984375
0.112,-2.2822265625,-2.6826171875,4.32421875
0.1125,-1.4013671875,-3.36328125,4.083984375
0.113,-0.6806640625,-4.0439453125,4.0439453125
0.1135,0.0400390625,-4.2841796875,3.5234375
0.114,0.7607421875,-4.64453125,3.2431640625
0.1145,2.0419921875,-4.8046875,2.162109375
0.115,2.6826171875,-4.8046875,1.521484375
0.1155,3.443359375,-4.6845703125,0.640625
0.116,3.8037109375,-4.3642578125,0.0400390625
0.1165,4.00390625,-4.00390625,-0.6005859375
0.117,4.1240234375,-3.283203125,-1.361328125
0.1175,4.32421875,-2.5224609375,-2.3623046875
0.118,4.0439453125,-1.6416015625,-2.8828125
0.1185,4.1240234375,-0.880859375,-3.7236328125
0.119,3.36328125,0.16015625,-3.9638671875
0.1195,3.1630859375,0.7607421875,-4.3642578125
0.12,2.0419921875,2.0419921875,-4.4443359375
0.1205,1.44140625,2.6826171875,-4.564453125
0.121,0.48046875,3.3232421875,-4.2041015625
0.1215,-0.2001953125,3.923828125,-4.1640625
0.122,-1.0009765625,4.1240234375,-3.4833984375
0.1225,-1.841796875,4.484375,-2.962890625
0.123,-3.203125,4.6044921875,-1.8017578125
0.1235,-3.7236328125,4.32421875,-1.0009765625
0.124,-4.4443359375,4.2041015625,-0.240234375
0.1245,-4.6044921875,3.68359375,0.48046875
0.125,-4.8046875,3.283203125,1.0810546875
0.1255,-4.8447265625,2.322265625,2.0419921875
0.126,-4.96484375,1.521484375,2.962890625
0.1265,-4.4443359375,0.560546875,3.4033203125
0.127,-4.484375,-0.2001953125,4.1240234375
0.1275,-3.6435546875,-1.201171875,4.244140625
0.128,-3.3232421875,-1.8017578125,4.5244140625
0.1285,-2.1220703125,-3.1630859375,4.5244140625
0.129,-1.44140625,-3.7236328125,4.484375
0.1295,-0.5205078125,-4.3642578125,4.083984375
0.13,0.16015625,-4.7646484375,3.923828125
0.1305,0.9609375,-4.884765625,3.2431640625
0.131,1.921875,-5.125,2.5625
0.1315,3.1630859375,-5.28515625,1.4814453125
0.132,3.5634765625,-4.8046875,0.640625
0.1325,4.2841796875,-4.8447265625,0.0
0.133,4.3642578125,-4.1640625,-0.80078125
0.1335,4.5244140625,-3.7236328125,-1.3212890625
0.134,4.564453125,-2.6826171875,-2.4423828125
0.1345,4.64453125,-1.921875,-3.2431640625
0.135,4.083984375,-0.80078125,-3.8037109375
0.1355,4.083984375,0.0,-4.484375
0.136,3.123046875,1.0009765625,-4.5244140625
0.1365,2.6826171875,1.6416015625,-4.8447265625
0.137,1.521484375,3.04296875,-4.96484375
0.1375,0.6806640625,3.5634765625,-4.64453125
0.138,-0.2001953125,4.1640625,-4.32421875
0.1385,-1.0009765625,4.6044921875,-3.9638671875
0.139,-1.8818359375,4.6845703125,-3.203125
0.1395,-2.9228515625,4.8447265625,-2.2822265625
0.14,-4.2041015625,4.96484375,-1.201171875
0.1405,-4.5244140625,4.2841796875,-0.240234375
0.141,-5.125,4.32421875,0.400390625
0.1415,-5.044921875,3.4033203125,1.2412109375
0.142,-5.125,2.8427734375,1.841796875
0.1425,-5.1650390625,1.681640625,3.0029296875
0.143,-5.044921875,0.8408203125,3.7236328125
0.1435,-4.404296875,-0.3203125,4.1240234375
0.144,-4.2041015625,-0.9208984375,4.724609375
0.1445,-3.203125,-2.001953125,4.564453125
0.145,-2.6826171875,-2.72265625,4.724609375
0.1455,-1.5615234375,-3.923828125,4.8046875
0.146,-0.640625,-4.2841796875,4.2841796875
0.1465,0.0400390625,-4.8447265625,4.1240234375
0.147,0.880859375,-5.0048828125,3.5234375
0.1475,1.6416015625,-5.1650390625,2.8427734375
0.148,2.72265625,-5.205078125,1.921875
0.1485,3.7236328125,-5.28515625,0.9609375
0.149,3.9638671875,-4.6044921875,0.080078125
0.1495,4.5244140625,-4.6845703125,-0.400390625
0.15,4.4443359375,-3.7236328125,-1.2412109375
0.1505,4.5244140625,-3.2431640625,-1.8017578125
0.151,4.6845703125,-2.2021484375,-3.04296875
0.1515,4.404296875,-1.361328125,-3.5634765625
0.152,4.083984375,-0.400390625,-4.244140625
0.1525,3.68359375,0.4404296875,-4.564453125
0.153,2.8427734375,1.3212890625,-4.64453125
0.1535,2.2021484375,2.2421875,-4.8046875
0.154,1.201171875,3.4033203125,-4.96484375
0.1545,0.2001953125,3.8037109375,-4.32421875
0.155,-0.400390625,4.4443359375,-4.404296875
0.1555,-1.44140625,4.564453125,-3.4833984375
0.156,-2.2822265625,4.7646484375,-2.8828125
0.1565,-3.4833984375,4.8447265625,-1.76171875
0.157,-4.3642578125,4.8046875,-0.8408203125
0.1575,-4.6044921875,4.1240234375,0.080078125
0.158,-5.0849609375,4.083984375,0.6005859375
0.1585,-5.0048828125,2.962890625,1.5615234375
0.159,-5.044921875,2.40234375,2.2021484375
0.1595,-5.125,1.28125,3.36328125
0.16,-4.64453125,0.2802734375,3.763671875
0.1605,-4.32421875,-0.6005859375,4.32421875
0.161,-3.7236328125,-1.4013671875,4.484375
0.1615,-2.8828125,-2.2822265625,4.5244140625
0.162,-2.1220703125,-3.0830078125,4.564453125
0.1625,-1.1611328125,-4.0439453125,4.564453125
0.163,-0.3203125,-4.244140625,3.8837890625
0.1635,0.240234375,-4.8447265625,3.9638671875
0.164,1.28125,-4.8447265625,2.8828125
0.1645,1.921875,-5.0048828125,2.40234375
0.165,3.04296875,-5.0048828125,1.3212890625
0.1655,3.5634765625,-4.7646484375,0.6005859375
0.166,3.84375,-4.3642578125,0.0
0.1665,4.1240234375,-4.1640625,-0.560546875
0.167,4.1240234375,-3.3232421875,-1.361328125
0.1675,4.1640625,-2.72265625,-2.001953125
0.168,4.32421875,-1.9619140625,-3.0029296875
0.1685,3.8037109375,-1.0009765625,-3.36328125
0.169,3.84375,-0.3203125,-4.0439453125
0.1695,3.0029296875,0.640625,-4.083984375
0.17,2.5625,1.4013671875,-4.404296875
0.1705,1.7216796875,2.3623046875,-4.4443359375
0.171,1.0009765625,3.123046875,-4.4443359375
0.1715,0.16015625,3.4833984375,-3.9638671875
0.172,-0.400390625,4.083984375,-4.00390625
0.1725,-1.5615234375,4.1240234375,-2.962890625
0.173,-2.2421875,4.404296875,-2.5224609375
0.1735,-3.4033203125,4.484375,-1.4814453125
0.174,-3.84375,4.1240234375,-0.720703125
0.1745,-4.32421875,4.00390625,-0.080078125
0.175,-4.4443359375,3.4833984375,0.560546875
0.1755,-4.64453125,2.7626953125,1.4013671875
0.176,-4.6044921875,1.9619140625,2.1220703125
0.1765,-4.7646484375,1.201171875,3.04296875
0.177,-4.1240234375,0.1201171875,3.4033203125
0.1775,-4.2041015625,-0.4404296875,4.083984375
0.178,-3.1630859375,-1.44140625,4.00390625
0.1785,-2.7626953125,-2.2021484375,4.32421875
0.179,-1.8017578125,-3.0830078125,4.2041015625
0.1795,-1.041015625,-3.7236328125,4.083984375
0.18,-0.3603515625,-4.0439453125,3.7236328125
0.1805,0.3203125,-4.4443359375,3.443359375
0.181,1.361328125,-4.5244140625,2.5224609375
0.1815,2.0419921875,-4.64453125,1.9619140625
0.182,2.9228515625,-4.64453125,1.1611328125
0.1825,3.1630859375,-4.2041015625,0.48046875
0.183,3.603515625,-4.2041015625,0.0400390625
0.1835,3.603515625,-3.4833984375,-0.6806640625
0.184,3.84375,-3.0830078125,-1.3212890625
0.1845,3.8037109375,-2.2822265625,-2.08203125
0.185,3.84375,-1.6416015625,-2.72265625
0.1855,3.36328125,-0.720703125,-3.1630859375
0.186,3.36328125,-0.2001953125,-3.6435546875
0.1865,2.5224609375,0.7607421875,-3.7236328125
0.187,2.2421875,1.4013671875,-4.083984375
0.1875,1.4013671875,2.2822265625,-4.1240234375
0.188,0.7607421875,2.72265625,-3.8837890625
0.1885,0.2001953125,3.3232421875,-3.84375
0.189,-0.640625,3.5634765625,-3.3232421875
0.1895,-1.521484375,3.84375,-2.72265625
0.19,-2.3623046875,3.9638671875,-2.001953125
0.1905,-3.0830078125,4.1240234375,-1.4013671875
0.191,-3.4033203125,3.68359375,-0.640625
0.1915,-3.923828125,3.8037109375,-0.3203125
0.192,-3.9638671875,2.8427734375,0.6005859375
0.1925,-4.32421875,2.5625,1.2412109375
0.193,-4.2041015625,1.76171875,2.1220703125
0.1935,-4.244140625,1.041015625,2.72265625
0.194,-3.923828125,0.1201171875,3.283203125
0.1945,-3.7236328125,-0.5205078125,3.6435546875
0.195,-2.9228515625,-1.4814453125,3.84375
0.1955,-2.4423828125,-2.162109375,3.9638671875
0.196,-1.6416015625,-2.962890625,4.00390625
0.1965,-0.9609375,-3.36328125,3.68359375
0.197,-0.400390625,-3.923828125,3.68359375
0.1975,0.6005859375,-4.0439453125,2.8427734375
0.198,1.361328125,-4.3642578125,2.40234375
0.1985,2.162109375,-4.32421875,1.5615234375
0.199,2.72265625,-4.3642578125,1.041015625
0.1995,3.0029296875,-4.00390625,0.4404296875
0.2,3.3232421875,-3.923828125,0.0
0.2005,3.443359375,-3.1630859375,-0.880859375
0.201,3.6435546875,-2.7626953125,-1.521484375
0.2015,3.68359375,-1.9619140625,-2.2822265625
0.202,3.443359375,-1.2412109375,-2.72265625
0.2025,3.3232421875,-0.5205078125,-3.283203125
0.203,2.802734375,0.2802734375,-3.4833984375
0.2035,2.2822265625,1.0810546875,-3.8037109375
0.204,1.7216796875,1.76171875,-3.84375
0.2045,1.12109375,2.40234375,-3.923828125
0.205,0.4404296875,2.7626953125,-3.5634765625
0.2055,-0.080078125,3.3232421875,-3.603515625
0.206,-1.1611328125,3.443359375,-2.642578125
0.2065,-1.8818359375,3.8037109375,-2.2822265625
0.207,-2.6826171875,3.8037109375,-1.4814453125
0.2075,-3.123046875,3.68359375,-1.0009765625
0.208,-3.5234375,3.4833984375,-0.400390625
0.2085,-3.7236328125,3.1630859375,0.1201171875
0.209,-4.00390625,2.5224609375,0.9609375
0.2095,-4.1240234375,1.9619140625,1.6015625
0.21,-4.2041015625,1.28125,2.482421875
0.2105,-3.84375,0.48046875,2.8427734375
0.211,-3.84375,-0.16015625,3.4833984375
0.2115,-3.04296875,-1.0810546875,3.5634765625
0.212,-2.6826171875,-1.841796875,3.923828125
0.2125,-1.921875,-2.5625,3.84375
0.213,-1.28125,-3.203125,3.84375
0.2135,-0.640625,-3.5634765625,3.5234375
0.214,0.0400390625,-4.00390625,3.3232421875
0.2145,1.12109375,-4.1640625,2.40234375
0.215,1.76171875,-4.3642578125,1.921875
0.2155,2.5224609375,-4.3642578125,1.201171875
0.216,2.8427734375,-4.1640625,0.640625
0.2165,3.203125,-4.00390625,0.16015625
0.217,3.3232421875,-3.4033203125,-0.6005859375
0.2175,3.6435546875,-2.8828125,-1.3212890625
0.218,3.5234375,-2.1220703125,-1.9619140625
0.2185,3.68359375,-1.521484375,-2.642578125
0.219,3.1630859375,-0.640625,-3.04296875
0.2195,3.123046875,-0.1201171875,-3.5234375
0.22,2.2421875,0.9609375,-3.603515625
0.2205,1.921875,1.5615234375,-3.923828125
0.221,1.1611328125,2.2421875,-3.8037109375
0.2215,0.6005859375,2.802734375,-3.763671875
0.222,-0.080078125,3.1630859375,-3.4833984375
0.2225,-0.9208984375,3.5234375,-3.0029296875
0.223,-1.921875,3.763671875,-2.2822265625
0.2235,-2.482421875,3.763671875,-1.6416015625
0.224,-3.203125,3.8037109375,-1.041015625
0.2245,-3.4833984375,3.443359375,-0.48046875
0.225,-3.8837890625,3.3232421875,0.0
0.2255,-3.923828125,2.5625,0.9609375
0.226,-4.2041015625,2.1220703125,1.6015625
0.2265,-4.0439453125,1.28125,2.2822265625
0.227,-4.1240234375,0.6806640625,2.9228515625
0.2275,-3.603515625,-0.240234375,3.3232421875
0.228,-3.443359375,-0.80078125,3.68359375
