wavelength,x,y,z
0.0,21.68115234375,-8.82861328125,-13.31298828125
0.0005,21.32080078125,-6.38623046875,-15.39501953125
0.001,19.15869140625,-1.94189453125,-17.47705078125
0.0015,17.79736328125,2.26220703125,-20.15966796875
0.002,13.47314453125,7.26708984375,-20.76025390625
0.0025,10.55029296875,11.47119140625,-21.84130859375
0.003,7.38720703125,14.11376953125,-21.28076171875
0.0035,3.42333984375,16.43603515625,-19.55908203125
0.004,-0.82080078125,18.31787109375,-17.35693359375
0.0045,-5.50537109375,20.56005859375,-14.95458984375
0.005,-9.94970703125,21.04052734375,-11.15087890625
0.0055,-13.51318359375,21.20068359375,-7.82763671875
0.006,-15.75537109375,20.96044921875,-5.42529296875
0.0065,-18.11767578125,19.11865234375,-1.26123046875
0.007,-20.35986328125,17.23681640625,2.90283203125
0.0075,-21.12060546875,13.59326171875,7.18701171875
0.008,-22.12158203125,10.63037109375,11.03076171875
0.0085,-21.68115234375,7.38720703125,13.83349609375
0.009,-20.80029296875,4.34423828125,15.95556640625
0.0095,-18.75830078125,0.14013671875,18.03759765625
0.01,-16.91650390625,-4.58447265625,20.68017578125
0.0105,-12.59228515625,-9.22900390625,20.88037109375
0.011,-9.62939453125,-13.07275390625,21.72119140625
0.0115,-6.62646484375,-15.31494140625,20.84033203125
0.012,-2.10205078125,-17.79736328125,18.83837890625
0.0125,1.98193359375,-19.83935546875,16.87646484375
0.013,7.18701171875,-21.44091796875,13.31298828125
0.0135,10.95068359375,-22.08154296875,10.31005859375
0.014,14.39404296875,-21.92138671875,6.78662109375
0.0145,16.43603515625,-21.12060546875,4.10400390625
0.015,18.71826171875,-19.19873046875,-0.14013671875
0.0155,20.96044921875,-16.95654296875,-4.62451171875
0.016,21.12060546875,-12.79248046875,-8.90869140625
0.0165,22.08154296875,-10.27001953125,-12.35205078125
0.017,21.44091796875,-6.98681640625,-14.75439453125
0.0175,20.03955078125,-3.38330078125,-16.99658203125
0.018,18.11767578125,0.82080078125,-19.03857421875
0.0185,15.11474609375,6.10595703125,-21.20068359375
0.019,11.27099609375,10.22998046875,-21.48095703125
0.0195,8.14794921875,13.79345703125,-21.76123046875
0.02,4.94482421875,15.63525390625,-20.31982421875
0.0205,0.38037109375,18.11767578125,-18.23779296875
0.021,-3.98388671875,20.19970703125,-16.07568359375
0.0215,-9.26904296875,21.04052734375,-11.79150390625
0.022,-12.51220703125,21.64111328125,-9.22900390625
0.0225,-15.67529296875,21.20068359375,-5.74560546875
0.023,-17.79736328125,19.87939453125,-2.38232421875
0.0235,-19.87939453125,17.91748046875,1.66162109375
0.024,-21.84130859375,15.15478515625,6.38623046875
0.0245,-21.68115234375,10.91064453125,10.35009765625
0.025,-22.40185546875,8.34814453125,13.39306640625
0.0255,-21.20068359375,5.10498046875,15.63525390625
0.026,-19.71923828125,1.14111328125,17.99755859375
0.0265,-17.63720703125,-3.22314453125,19.99951171875
0.027,-13.79345703125,-8.50830078125,21.44091796875
0.0275,-10.59033203125,-12.15185546875,21.76123046875
0.028,-7.06689453125,-15.39501953125,21.44091796875
0.0285,-3.50341796875,-17.15673828125,19.51904296875
0.029,0.98095703125,-19.51904296875,17.59716796875
0.0295,5.74560546875,-21.52099609375,14.87451171875
0.03,10.47021484375,-21.84130859375,10.55029296875
0.0305,13.59326171875,-22.44189453125,8.14794921875
0.031,16.31591796875,-21.48095703125,4.54443359375
0.0315,18.43798828125,-19.95947265625,1.02099609375
0.032,20.23974609375,-17.91748046875,-3.02294921875
0.0325,21.72119140625,-14.39404296875,-7.94775390625
0.033,21.60107421875,-10.59033203125,-11.43115234375
0.0335,22.04150390625,-7.90771484375,-14.55419921875
0.034,20.47998046875,-4.54443359375,-16.27587890625
0.0345,18.95849609375,-0.46044921875,-18.75830078125
0.035,16.35595703125,4.18408203125,-20.60009765625
0.0355,12.23193359375,9.38916015625,-21.56103515625
0.036,9.46923828125,12.67236328125,-21.96142578125
0.0365,5.74560546875,15.55517578125,-21.00048828125
0.037,1.82177734375,17.35693359375,-18.91845703125
0.0375,-2.22216796875,19.51904296875,-17.15673828125
0.038,-7.54736328125,21.16064453125,-13.59326171875
0.0385,-11.59130859375,21.20068359375,-9.66943359375
0.039,-14.79443359375,21.80126953125,-7.14697265625
0.0395,-17.11669921875,20.31982421875,-3.46337890625
0.04,-19.43896484375,18.67822265625,0.50048828125
0.0405,-20.92041015625,16.31591796875,4.34423828125
0.041,-22.08154296875,12.47216796875,9.18896484375
0.0415,-22.08154296875,9.26904296875,12.43212890625
0.042,-21.96142578125,6.18603515625,15.39501953125
0.0425,-20.15966796875,2.54248046875,17.07666015625
0.043,-18.71826171875,-1.58154296875,19.51904296875
0.0435,-15.35498046875,-6.54638671875,21.04052734375
0.044,-11.39111328125,-11.27099609375,21.72119140625
0.0445,-8.82861328125,-14.31396484375,22.04150390625
0.045,-4.50439453125,-16.91650390625,20.31982421875
0.0455,-0.30029296875,-18.99853515625,18.23779296875
0.046,3.66357421875,-20.88037109375,16.27587890625
0.0465,9.14892578125,-22.32177734375,12.31201171875
0.047,12.67236328125,-22.04150390625,8.62841796875
0.0475,15.83544921875,-22.36181640625,5.90576171875
0.048,17.91748046875,-20.60009765625,2.06201171875
0.0485,20.23974609375,-18.83837890625,-2.10205078125
0.049,21.16064453125,-15.79541015625,-6.06591796875
0.0495,22.16162109375,-11.83154296875,-10.83056640625
0.05,22.20166015625,-8.98876953125,-13.67333984375
0.0505,21.40087890625,-5.42529296875,-16.35595703125
0.051,19.47900390625,-1.50146484375,-18.23779296875
0.0515,17.83740234375,2.74267578125,-20.64013671875
0.052,13.91357421875,7.94775390625,-21.80126953125
0.0525,9.90966796875,12.19189453125,-21.92138671875
0.053,7.34716796875,14.99462890625,-22.08154296875
0.0535,2.70263671875,17.31689453125,-19.75927734375
0.054,-1.58154296875,19.55908203125,-17.83740234375
0.0545,-5.94580078125,20.88037109375,-14.87451171875
0.055,-10.91064453125,22.16162109375,-11.27099609375
0.0555,-14.31396484375,21.68115234375,-7.54736328125
0.056,-17.15673828125,21.44091796875,-4.50439453125
0.0565,-19.23876953125,19.43896484375,-0.50048828125
0.057,-21.64111328125,17.55712890625,3.78369140625
0.0575,-21.96142578125,13.71337890625,7.94775390625
0.058,-22.76220703125,10.10986328125,12.31201171875
0.0585,-22.72216796875,7.38720703125,14.87451171875
0.059,-21.16064453125,3.26318359375,17.43701171875
0.0595,-19.27880859375,-0.90087890625,19.39892578125
0.06,-16.79638671875,-5.38525390625,21.32080078125
0.0605,-12.99267578125,-10.27001953125,22.36181640625
0.061,-8.98876953125,-14.11376953125,22.00146484375
0.0615,-6.10595703125,-16.63623046875,21.64111328125
0.062,-1.22119140625,-18.91845703125,19.03857421875
0.0625,3.18310546875,-21.36083984375,17.27685546875
0.063,7.98779296875,-21.92138671875,13.07275390625
0.0635,12.31201171875,-23.08251953125,10.02978515625
0.064,15.47509765625,-22.64208984375,6.42626953125
0.0645,18.03759765625,-21.64111328125,2.94287109375
0.065,19.95947265625,-19.51904296875,-1.14111328125
0.0655,22.08154296875,-17.15673828125,-5.46533203125
0.066,22.16162109375,-12.99267578125,-9.70947265625
0.0665,22.56201171875,-9.50927734375,-13.47314453125
0.067,22.36181640625,-6.90673828125,-15.83544921875
0.0675,20.35986328125,-2.42236328125,-18.19775390625
0.068,18.55810546875,1.74169921875,-20.35986328125
0.0685,14.91455078125,6.70654296875,-21.60107421875
0.069,11.63134765625,11.27099609375,-22.76220703125
0.0695,7.66748046875,14.67431640625,-22.08154296875
0.07,4.30419921875,16.95654296875,-21.00048828125
0.0705,-0.46044921875,19.03857421875,-18.39794921875
0.071,-4.94482421875,21.56103515625,-16.51611328125
0.0715,-9.86962890625,21.56103515625,-11.71142578125
0.072,-13.59326171875,22.36181640625,-8.82861328125
0.0725,-16.51611328125,21.92138671875,-5.70556640625
0.073,-19.07861328125,20.35986328125,-1.62158203125
0.0735,-20.96044921875,18.19775390625,2.54248046875
0.074,-22.60205078125,15.35498046875,6.98681640625
0.0745,-22.84228515625,11.43115234375,11.03076171875
0.075,-22.76220703125,7.86767578125,14.47412109375
0.0755,-22.12158203125,5.10498046875,16.55615234375
0.076,-20.03955078125,0.46044921875,18.95849609375
0.0765,-18.23779296875,-4.10400390625,21.48095703125
0.077,-13.71337890625,-8.98876953125,21.76123046875
0.0775,-10.87060546875,-13.07275390625,22.92236328125
0.078,-6.90673828125,-16.15576171875,21.96142578125
0.0785,-2.94287109375,-18.47802734375,20.27978515625
0.079,1.66162109375,-20.47998046875,17.87744140625
0.0795,6.66650390625,-22.88232421875,15.31494140625
0.08,11.15087890625,-22.76220703125,10.75048828125
0.0805,14.75439453125,-23.12255859375,7.62744140625
0.081,17.31689453125,-22.48193359375,4.50439453125
0.0815,19.83935546875,-20.60009765625,0.26025390625
0.082,21.80126953125,-18.23779296875,-4.14404296875
0.0825,22.56201171875,-14.35400390625,-8.82861328125
0.083,23.12255859375,-11.07080078125,-12.51220703125
0.0835,22.60205078125,-7.38720703125,-15.67529296875
0.084,21.52099609375,-4.26416015625,-17.59716796875
0.0845,19.39892578125,0.46044921875,-19.95947265625
0.085,17.03662109375,5.42529296875,-22.44189453125
0.0855,12.15185546875,10.27001953125,-22.32177734375
0.086,9.38916015625,14.03369140625,-23.20263671875
0.0865,5.42529296875,16.67626953125,-21.84130859375
0.087,0.94091796875,19.15869140625,-19.75927734375
0.0875,-3.38330078125,20.96044921875,-17.39697265625
0.088,-8.94873046875,22.72216796875,-13.71337890625
0.0885,-12.79248046875,22.56201171875,-9.90966796875
0.089,-16.51611328125,22.64208984375,-6.34619140625
0.0895,-18.71826171875,21.44091796875,-2.94287109375
0.09,-21.20068359375,19.43896484375,1.54150390625
0.0905,-23.04248046875,16.75634765625,5.98583984375
0.091,-23.24267578125,12.23193359375,10.63037109375
0.0915,-23.88330078125,9.50927734375,13.99365234375
0.092,-22.88232421875,5.42529296875,16.95654296875
0.0925,-21.28076171875,1.74169921875,18.95849609375
0.093,-19.15869140625,-2.74267578125,21.12060546875
0.0935,-15.87548828125,-8.22802734375,23.12255859375
0.094,-11.23095703125,-12.55224609375,22.80224609375
0.0945,-8.26806640625,-16.11572265625,23.24267578125
0.095,-4.02392578125,-18.39794921875,21.28076171875
0.0955,0.98095703125,-21.00048828125,19.03857421875
0.096,5.10498046875,-22.64208984375,16.51611328125
0.0965,10.83056640625,-23.84326171875,12.07177734375
0.097,14.15380859375,-23.68310546875,8.70849609375
0.0975,17.79736328125,-23.24267578125,4.86474609375
0.098,19.71923828125,-21.52099609375,1.30126953125
0.0985,22.00146484375,-19.47900390625,-3.14306640625
0.099,23.36279296875,-16.15576171875,-7.78759765625
0.0995,23.24267578125,-11.47119140625,-12.23193359375
0.1,23.76318359375,-8.90869140625,-15.31494140625
0.1005,22.24169921875,-4.66455078125,-17.91748046875
0.101,20.47998046875,-0.62060546875,-20.11962890625
0.1015,18.23779296875,3.78369140625,-21.96142578125
0.102,14.15380859375,9.50927734375,-23.56298828125
0.1025,9.86962890625,13.35302734375,-23.00244140625
0.103,6.62646484375,16.71630859375,-23.04248046875
0.1035,2.22216796875,18.63818359375,-20.56005859375
0.104,-2.42236328125,21.16064453125,-18.59814453125
0.1045,-7.06689453125,22.44189453125,-15.23486328125
0.105,-12.31201171875,23.12255859375,-10.87060546875
0.1055,-15.47509765625,23.04248046875,-7.70751953125
0.106,-18.71826171875,22.12158203125,-3.66357421875
0.1065,-20.76025390625,20.23974609375,0.30029296875
0.107,-22.76220703125,18.11767578125,4.34423828125
0.1075,-23.80322265625,14.27392578125,9.22900390625
0.108,-23.36279296875,9.82958984375,13.19287109375
0.1085,-23.84326171875,7.30712890625,16.11572265625
0.109,-21.80126953125,2.82275390625,18.43798828125
0.1095,-20.15966796875,-1.42138671875,20.84033203125
0.11,-17.31689453125,-5.90576171875,22.32177734375
0.1105,-13.11279296875,-11.35107421875,23.48291015625
0.111,-9.22900390625,-14.79443359375,22.92236328125
0.1115,-5.46533203125,-17.95751953125,22.28173828125
0.112,-0.90087890625,-19.91943359375,19.67919921875
0.1125,3.42333984375,-22.44189453125,17.95751953125
0.113,8.58837890625,-23.28271484375,13.71337890625
0.1135,13.11279296875,-23.56298828125,9.66943359375
0.114,16.15576171875,-23.68310546875,6.86669921875
0.1145,18.99853515625,-22.08154296875,2.54248046875
0.115,21.08056640625,-20.15966796875,-1.54150390625
0.1155,22.68212890625,-17.63720703125,-5.62548828125
0.116,23.44287109375,-13.47314453125,-10.47021484375
0.1165,23.00244140625,-9.38916015625,-14.03369140625
0.117,23.12255859375,-6.66650390625,-16.79638671875
0.1175,20.88037109375,-2.22216796875,-18.91845703125
0.118,19.39892578125,2.02197265625,-21.48095703125
0.1185,15.55517578125,6.90673828125,-22.40185546875
0.119,11.59130859375,11.95166015625,-23.36279296875
0.1195,8.14794921875,15.07470703125,-22.96240234375
0.12,3.82373046875,17.91748046875,-21.48095703125
0.1205,-0.66064453125,19.75927734375,-18.91845703125
0.121,-4.98486328125,22.08154296875,-17.03662109375
0.1215,-10.22998046875,22.72216796875,-12.47216796875
0.122,-14.23388671875,22.56201171875,-8.42822265625
0.1225,-17.11669921875,22.80224609375,-5.90576171875
0.123,-19.79931640625,20.80029296875,-1.30126953125
0.1235,-22.00146484375,18.75830078125,2.98291015625
0.124,-23.00244140625,15.63525390625,7.06689453125
0.1245,-23.84326171875,11.75146484375,11.75146484375
0.125,-23.20263671875,7.90771484375,14.87451171875
0.1255,-22.76220703125,4.66455078125,17.59716796875
0.126,-20.43994140625,0.18017578125,19.63916015625
0.1265,-18.91845703125,-4.38427734375,22.44189453125
0.127,-14.23388671875,-9.26904296875,22.56201171875
0.1275,-10.55029296875,-13.79345703125,23.24267578125
0.128,-7.34716796875,-16.59619140625,22.76220703125
0.1285,-2.42236328125,-19.35888671875,20.64013671875
0.129,2.10205078125,-21.40087890625,18.23779296875
0.1295,6.86669921875,-23.20263671875,15.43505859375
0.13,11.67138671875,-23.76318359375,11.27099609375
0.1305,15.31494140625,-23.16259765625,7.14697265625
0.131,17.87744140625,-23.04248046875,4.50439453125
0.1315,20.35986328125,-20.84033203125,-0.18017578125
0.132,22.76220703125,-18.63818359375,-4.66455078125
0.1325,22.80224609375,-14.47412109375,-8.86865234375
0.133,23.72314453125,-11.03076171875,-13.15283203125
0.1335,22.92236328125,-7.42724609375,-15.87548828125
0.134,21.84130859375,-3.70361328125,-18.47802734375
0.1345,19.55908203125,0.82080078125,-20.47998046875
0.135,17.31689453125,5.70556640625,-22.96240234375
0.1355,12.63232421875,10.43017578125,-22.96240234375
0.136,8.82861328125,14.47412109375,-23.12255859375
0.1365,5.86572265625,16.75634765625,-22.36181640625
0.137,0.62060546875,19.47900390625,-19.87939453125
0.1375,-3.78369140625,21.56103515625,-17.63720703125
0.138,-8.94873046875,22.56201171875,-13.51318359375
0.1385,-12.99267578125,23.24267578125,-10.27001953125
0.139,-16.51611328125,22.44189453125,-6.10595703125
0.1395,-18.83837890625,21.68115234375,-3.14306640625
0.14,-21.12060546875,19.35888671875,1.54150390625
0.1405,-23.48291015625,17.03662109375,6.14599609375
0.141,-23.04248046875,12.39208984375,10.31005859375
0.1415,-23.84326171875,9.30908203125,14.15380859375
0.142,-22.92236328125,5.90576171875,16.51611328125
0.1425,-21.32080078125,1.62158203125,19.11865234375
0.143,-19.15869140625,-2.70263671875,21.08056640625
0.1435,-15.91552734375,-7.94775390625,22.92236328125
0.144,-11.91162109375,-12.19189453125,23.08251953125
0.1445,-7.94775390625,-15.95556640625,22.68212890625
0.145,-4.78466796875,-17.91748046875,21.44091796875
0.1455,0.62060546875,-20.47998046875,18.91845703125
0.146,5.06494140625,-22.76220703125,16.75634765625
0.1465,10.22998046875,-23.04248046875,11.95166015625
0.147,13.75341796875,-23.72314453125,9.26904296875
0.1475,16.95654296875,-22.76220703125,5.18505859375
0.148,19.23876953125,-21.60107421875,1.78173828125
0.1485,21.32080078125,-19.27880859375,-2.62255859375
0.149,23.24267578125,-16.35595703125,-7.46728515625
0.1495,22.76220703125,-11.83154296875,-11.39111328125
0.15,23.20263671875,-8.78857421875,-14.87451171875
0.1505,22.12158203125,-5.70556640625,-16.79638671875
0.151,20.35986328125,-1.02099609375,-19.55908203125
0.1515,18.23779296875,3.42333984375,-21.68115234375
0.152,13.99365234375,8.74853515625,-22.68212890625
0.1525,10.71044921875,12.51220703125,-23.08251953125
0.153,6.66650390625,15.79541015625,-22.28173828125
0.1535,3.18310546875,17.75732421875,-20.60009765625
0.154,-1.62158203125,20.15966796875,-18.35791015625
0.1545,-6.74658203125,22.44189453125,-15.55517578125
0.155,-11.39111328125,22.20166015625,-10.87060546875
0.1555,-14.75439453125,22.80224609375,-8.14794921875
0.156,-17.47705078125,21.64111328125,-4.42431640625
0.1565,-19.99951171875,20.15966796875,-0.42041015625
0.157,-21.92138671875,17.95751953125,3.70361328125
0.1575,-23.32275390625,14.27392578125,8.70849609375
0.158,-23.04248046875,10.39013671875,12.19189453125
0.1585,-23.04248046875,7.10693359375,15.47509765625
0.159,-21.68115234375,3.90380859375,17.27685546875
0.1595,-19.91943359375,-0.78076171875,19.99951171875
0.16,-17.35693359375,-5.62548828125,22.08154296875
0.1605,-12.87255859375,-10.63037109375,22.48193359375
0.161,-9.98974609375,-14.07373046875,22.92236328125
0.1615,-5.74560546875,-16.95654296875,21.52099609375
0.162,-1.66162109375,-19.15869140625,19.67919921875
0.1625,2.66259765625,-21.28076171875,17.67724609375
0.163,8.30810546875,-23.16259765625,13.99365234375
0.1635,12.19189453125,-22.76220703125,9.78955078125
0.164,15.63525390625,-23.24267578125,6.90673828125
0.1645,17.91748046875,-21.64111328125,3.18310546875
0.165,20.43994140625,-20.07958984375,-0.98095703125
0.1655,22.04150390625,-17.47705078125,-5.10498046875
0.166,22.96240234375,-13.35302734375,-10.10986328125
0.1665,22.84228515625,-10.10986328125,-13.27294921875
0.167,22.36181640625,-6.46630859375,-16.27587890625
0.1675,20.72021484375,-3.02294921875,-17.99755859375
0.168,19.07861328125,1.42138671875,-20.56005859375
0.1685,15.67529296875,6.70654296875,-22.40185546875
0.169,11.23095703125,11.31103515625,-22.52197265625
0.1695,8.62841796875,14.47412109375,-22.88232421875
0.17,4.10400390625,16.95654296875,-20.76025390625
0.1705,-0.18017578125,19.27880859375,-18.91845703125
0.171,-4.26416015625,21.12060546875,-16.71630859375
0.1715,-9.94970703125,22.56201171875,-12.59228515625
0.172,-13.39306640625,22.00146484375,-8.70849609375
0.1725,-16.67626953125,22.16162109375,-5.70556640625
0.173,-18.75830078125,20.31982421875,-1.82177734375
0.1735,-21.28076171875,18.63818359375,2.42236328125
0.174,-22.44189453125,15.59521484375,6.54638671875
0.1745,-23.04248046875,11.39111328125,11.27099609375
0.175,-23.08251953125,8.58837890625,14.11376953125
0.1755,-21.84130859375,4.50439453125,16.79638671875
0.176,-20.23974609375,0.90087890625,18.75830078125
0.1765,-18.47802734375,-3.54345703125,21.16064453125
0.177,-14.55419921875,-8.94873046875,22.44189453125
0.1775,-10.35009765625,-12.91259765625,22.28173828125
0.178,-7.58740234375,-15.91552734375,22.40185546875
0.1785,-2.90283203125,-18.11767578125,19.91943359375
0.179,1.42138671875,-20.68017578125,18.27783203125
0.1795,5.74560546875,-22.00146484375,15.35498046875
0.18,11.07080078125,-23.20263671875,11.39111328125
0.1805,14.19384765625,-22.64208984375,7.74755859375
0.181,17.19677734375,-22.24169921875,4.42431640625
0.1815,19.15869140625,-20.35986328125,0.66064453125
0.182,21.60107421875,-18.55810546875,-3.62353515625
0.1825,22.24169921875,-14.79443359375,-7.98779296875
0.183,22.60205078125,-10.83056640625,-12.23193359375
0.1835,22.68212890625,-8.22802734375,-14.83447265625
0.184,20.88037109375,-3.98388671875,-17.27685546875
0.1845,19.39892578125,-0.18017578125,-19.51904296875
0.185,16.99658203125,4.34423828125,-21.44091796875
0.1855,12.99267578125,9.74951171875,-22.60205078125
0.186,8.98876953125,13.31298828125,-22.12158203125
0.1865,5.98583984375,15.99560546875,-21.72119140625
0.187,1.34130859375,18.07763671875,-19.11865234375
0.1875,-2.82275390625,20.64013671875,-17.71728515625
0.188,-7.58740234375,21.32080078125,-13.71337890625
0.1885,-12.11181640625,22.32177734375,-10.27001953125
0.189,-15.11474609375,21.92138671875,-6.98681640625
0.1895,-17.83740234375,20.80029296875,-3.18310546875
0.19,-19.87939453125,18.91845703125,0.78076171875
0.1905,-22.00146484375,16.91650390625,4.82470703125
0.191,-22.48193359375,12.87255859375,9.26904296875
