wavelength,x,y,z
0.0,-4.884765625,2.9228515625,1.521484375
0.0005,-5.044921875,1.841796875,2.6826171875
0.001,-4.9248046875,1.28125,3.123046875
0.0015,-4.5244140625,0.240234375,3.68359375
0.002,-4.0439453125,-0.640625,4.1240234375
0.0025,-3.2431640625,-1.6015625,4.2841796875
0.003,-2.6826171875,-2.4423828125,4.484375
0.0035,-1.8017578125,-3.5234375,4.6044921875
0.004,-1.041015625,-3.8037109375,4.1640625
0.0045,-0.2001953125,-4.4443359375,4.00390625
0.005,0.6806640625,-4.564453125,3.203125
0.0055,1.4013671875,-4.884765625,2.8427734375
0.006,2.6025390625,-5.0048828125,1.76171875
0.0065,3.36328125,-5.0849609375,1.12109375
0.007,3.763671875,-4.564453125,0.2802734375
0.0075,4.2041015625,-4.404296875,-0.400390625
0.008,4.2041015625,-3.5634765625,-1.28125
0.0085,4.484375,-3.203125,-1.841796875
0.009,4.6044921875,-2.2421875,-3.0029296875
0.0095,4.404296875,-1.6416015625,-3.283203125
0.01,4.083984375,-0.6005859375,-4.00390625
0.0105,3.36328125,0.3603515625,-4.2041015625
0.011,2.8427734375,1.2412109375,-4.484375
0.0115,2.08203125,2.162109375,-4.6044921875
0.012,1.3212890625,3.123046875,-4.8447265625
0.0125,0.4404296875,3.4033203125,-4.2041015625
0.013,-0.400390625,4.1240234375,-4.1240234375
0.0135,-1.4013671875,4.2041015625,-3.203125
0.014,-2.1220703125,4.564453125,-2.8427734375
0.0145,-3.4033203125,4.724609375,-1.681640625
0.015,-4.083984375,4.64453125,-1.0009765625
0.0155,-4.5244140625,4.083984375,0.0
0.016,-4.9248046875,3.84375,0.640625
0.0165,-4.96484375,2.962890625,1.4814453125
0.017,-5.125,2.3623046875,2.2021484375
0.0175,-5.3251953125,1.44140625,3.3232421875
0.018,-4.7646484375,0.6005859375,3.6435546875
0.0185,-4.484375,-0.3603515625,4.2841796875
0.019,-3.6435546875,-1.4013671875,4.4443359375
0.0195,-3.04296875,-2.2421875,4.6044921875
0.02,-2.1220703125,-3.203125,4.724609375
0.0205,-1.3212890625,-4.083984375,4.7646484375
0.021,-0.3203125,-4.2841796875,3.923828125
0.0215,0.3603515625,-4.884765625,3.84375
0.022,1.44140625,-4.9248046875,2.8427734375
0.0225,2.162109375,-5.125,2.3623046875
0.023,3.4033203125,-5.28515625,1.28125
0.0235,3.84375,-4.96484375,0.5205078125
0.024,4.2041015625,-4.484375,-0.3603515625
0.0245,4.484375,-4.1240234375,-1.0810546875
0.025,4.5244140625,-3.283203125,-1.841796875
0.0255,4.5244140625,-2.642578125,-2.5625
0.026,4.8046875,-1.8017578125,-3.5634765625
0.0265,4.00390625,-0.80078125,-3.7236328125
0.027,3.84375,0.0400390625,-4.3642578125
0.0275,2.8828125,1.0810546875,-4.3642578125
0.028,2.482421875,1.76171875,-4.64453125
0.0285,1.5615234375,2.802734375,-4.724609375
0.029,0.7607421875,3.5234375,-4.64453125
0.0295,-0.2802734375,3.84375,-3.923828125
0.03,-0.9609375,4.32421875,-3.8037109375
0.0305,-2.0419921875,4.4443359375,-2.802734375
0.031,-2.72265625,4.64453125,-2.2822265625
0.0315,-4.00390625,4.8046875,-1.28125
0.032,-4.3642578125,4.32421875,-0.4404296875
0.0325,-4.8447265625,3.9638671875,0.3603515625
0.033,-5.0048828125,3.36328125,1.12109375
0.0335,-5.125,2.642578125,1.921875
0.034,-5.1650390625,1.921875,2.7626953125
0.0345,-5.3251953125,1.12109375,3.7236328125
0.035,-4.4443359375,0.0,3.923828125
0.0355,-4.32421875,-0.8408203125,4.5244140625
0.036,-3.1630859375,-2.001953125,4.5244140625
0.0365,-2.6826171875,-2.6826171875,4.7646484375
0.037,-1.681640625,-3.7236328125,4.7646484375
0.0375,-0.80078125,-4.32421875,4.4443359375
0.038,0.16015625,-4.564453125,3.763671875
0.0385,0.9208984375,-5.0048828125,3.443359375
0.039,2.08203125,-5.0849609375,2.3623046875
0.0395,2.6826171875,-5.125,1.841796875
0.04,3.763671875,-5.205078125,0.880859375
0.0405,3.923828125,-4.564453125,0.0
0.041,4.32421875,-4.32421875,-0.640625
0.0415,4.4443359375,-3.5234375,-1.5615234375
0.042,4.484375,-2.8828125,-2.2021484375
0.0425,4.484375,-2.08203125,-2.9228515625
0.043,4.484375,-1.361328125,-3.6435546875
0.0435,3.603515625,-0.2001953125,-3.84375
0.044,3.4833984375,0.4404296875,-4.3642578125
0.0445,2.40234375,1.521484375,-4.32421875
0.045,2.0419921875,2.08203125,-4.564453125
0.0455,1.12109375,3.0830078125,-4.564453125
0.046,0.2802734375,3.443359375,-4.083984375
0.0465,-0.560546875,3.8837890625,-3.7236328125
0.047,-1.4013671875,4.1640625,-3.203125
0.0475,-2.40234375,4.32421875,-2.3623046875
0.048,-3.0830078125,4.4443359375,-1.8017578125
0.0485,-4.00390625,4.484375,-1.0009765625
0.049,-4.1640625,3.763671875,-0.1201171875
0.0495,-4.64453125,3.68359375,0.4404296875
0.05,-4.724609375,2.8427734375,1.44140625
0.0505,-4.96484375,2.40234375,2.0419921875
0.051,-4.96484375,1.5615234375,2.8828125
0.0515,-4.8046875,0.80078125,3.4833984375
0.052,-4.00390625,-0.3603515625,3.8037109375
0.0525,-3.8037109375,-1.12109375,4.2841796875
0.053,-2.7626953125,-2.2021484375,4.32421875
0.0535,-2.40234375,-2.7626953125,4.484375
0.054,-1.44140625,-3.7236328125,4.484375
0.0545,-0.5205078125,-4.00390625,3.84375
0.055,0.240234375,-4.484375,3.603515625
0.0555,1.28125,-4.7646484375,2.802734375
0.056,2.1220703125,-4.884765625,2.1220703125
0.0565,2.802734375,-4.884765625,1.44140625
0.057,3.5234375,-4.884765625,0.6806640625
0.0575,3.68359375,-4.1240234375,-0.2001953125
0.058,4.083984375,-4.00390625,-0.640625
0.0585,4.1240234375,-2.962890625,-1.7216796875
0.059,4.2041015625,-2.642578125,-2.1220703125
0.0595,4.244140625,-1.8017578125,-2.962890625
0.06,3.84375,-1.0009765625,-3.36328125
0.0605,3.283203125,0.0,-3.7236328125
0.061,2.8828125,0.720703125,-4.00390625
0.0615,2.08203125,1.6416015625,-4.1640625
0.062,1.7216796875,2.162109375,-4.2841796875
0.0625,0.880859375,2.962890625,-4.2041015625
0.063,0.0,3.203125,-3.5634765625
0.0635,-0.640625,3.763671875,-3.4833984375
0.064,-1.76171875,3.8837890625,-2.5224609375
0.0645,-2.40234375,4.083984375,-2.2021484375
0.065,-3.1630859375,4.0439453125,-1.44140625
0.0655,-3.603515625,3.8837890625,-0.80078125
0.066,-3.8837890625,3.443359375,0.0400390625
0.0665,-4.2841796875,3.2431640625,0.560546875
0.067,-4.4443359375,2.40234375,1.521484375
0.0675,-4.5244140625,2.08203125,1.9619140625
0.068,-4.6044921875,1.28125,2.8427734375
0.0685,-4.00390625,0.3603515625,3.123046875
0.069,-3.8037109375,-0.4404296875,3.68359375
0.0695,-3.123046875,-1.3212890625,3.84375
0.07,-2.642578125,-2.1220703125,4.1240234375
0.0705,-2.001953125,-2.72265625,4.1240234375
0.071,-1.28125,-3.4033203125,4.00390625
0.0715,-0.3603515625,-3.68359375,3.443359375
0.072,0.2802734375,-4.244140625,3.36328125
0.0725,1.4013671875,-4.4443359375,2.2822265625
0.073,1.9619140625,-4.6845703125,2.0419921875
0.0735,2.72265625,-4.6044921875,1.201171875
0.074,3.123046875,-4.2041015625,0.560546875
0.0745,3.4033203125,-3.84375,-0.16015625
0.075,3.68359375,-3.4833984375,-0.7607421875
0.0755,3.8837890625,-2.8427734375,-1.6015625
0.076,3.8837890625,-2.3623046875,-2.08203125
0.0765,3.9638671875,-1.6416015625,-2.8427734375
0.077,3.203125,-0.6806640625,-3.04296875
0.0775,3.1630859375,0.0,-3.603515625
0.078,2.322265625,0.9609375,-3.7236328125
0.0785,2.1220703125,1.5615234375,-4.083984375
0.079,1.3212890625,2.2021484375,-3.923828125
0.0795,0.640625,2.7626953125,-3.8037109375
0.08,-0.2001953125,3.0830078125,-3.2431640625
0.0805,-0.9208984375,3.5234375,-3.0830078125
0.081,-1.9619140625,3.68359375,-2.2421875
0.0815,-2.4423828125,3.84375,-1.921875
0.082,-3.203125,3.8837890625,-1.1611328125
0.0825,-3.4833984375,3.4833984375,-0.48046875
0.083,-3.8837890625,3.283203125,0.16015625
0.0835,-4.0439453125,2.642578125,0.9609375
0.084,-4.3642578125,2.2822265625,1.6015625
0.0845,-4.244140625,1.6015625,2.162109375
0.085,-4.244140625,0.9609375,2.802734375
0.0855,-3.5634765625,-0.1201171875,3.0830078125
0.086,-3.4833984375,-0.720703125,3.6435546875
0.0865,-2.5625,-1.8017578125,3.763671875
0.087,-2.40234375,-2.2421875,4.00390625
0.0875,-1.521484375,-2.9228515625,3.84375
0.088,-0.80078125,-3.36328125,3.5634765625
0.0885,0.0,-3.8037109375,3.1630859375
0.089,0.80078125,-4.1640625,2.642578125
0.0895,1.7216796875,-4.3642578125,2.0419921875
0.09,2.2021484375,-4.3642578125,1.5615234375
0.0905,2.8427734375,-4.3642578125,0.9208984375
0.091,3.04296875,-3.8037109375,0.16015625
0.0915,3.5234375,-3.7236328125,-0.3603515625
0.092,3.6435546875,-2.9228515625,-1.28125
0.0925,3.9638671875,-2.6826171875,-1.8017578125
0.093,3.763671875,-1.841796875,-2.4423828125
0.0935,3.6435546875,-1.201171875,-2.962890625
0.094,2.962890625,-0.2001953125,-3.2431640625
0.0945,2.8427734375,0.48046875,-3.7236328125
0.095,2.001953125,1.4814453125,-3.923828125
0.0955,1.76171875,1.921875,-4.0439453125
0.096,0.8408203125,2.642578125,-3.84375
0.0965,0.0400390625,2.9228515625,-3.443359375
0.097,-0.6806640625,3.4033203125,-3.203125
0.0975,-1.681640625,3.68359375,-2.4423828125
0.098,-2.5224609375,3.9638671875,-1.921875
0.0985,-2.962890625,3.8037109375,-1.28125
0.099,-3.5634765625,3.763671875,-0.640625
0.0995,-3.763671875,3.1630859375,0.2001953125
0.1,-4.1640625,3.0029296875,0.6806640625
0.1005,-4.3642578125,2.1220703125,1.7216796875
0.101,-4.4443359375,1.76171875,2.162109375
0.1015,-4.2041015625,0.9208984375,2.802734375
0.102,-3.84375,0.080078125,3.2431640625
0.1025,-3.283203125,-0.8408203125,3.5634765625
0.103,-2.8427734375,-1.6015625,3.84375
0.1035,-2.2021484375,-2.5224609375,4.083984375
0.104,-1.6015625,-2.8828125,3.84375
0.1045,-0.880859375,-3.5634765625,3.7236328125
0.105,0.0,-3.763671875,3.123046875
0.1055,0.640625,-4.1640625,2.8828125
0.106,1.76171875,-4.3642578125,1.9619140625
0.1065,2.40234375,-4.5244140625,1.5615234375
0.107,2.8427734375,-4.2041015625,0.80078125
0.1075,3.2431640625,-4.083984375,0.240234375
0.108,3.443359375,-3.4833984375,-0.5205078125
0.1085,3.7236328125,-3.203125,-1.0810546875
0.109,3.9638671875,-2.5224609375,-2.001953125
0.1095,3.8837890625,-2.001953125,-2.40234375
0.11,3.8037109375,-1.1611328125,-3.123046875
0.1105,3.1630859375,-0.3203125,-3.36328125
0.111,2.8427734375,0.48046875,-3.8037109375
0.1115,2.2021484375,1.361328125,-3.9638671875
0.112,1.7216796875,2.2021484375,-4.2841796875
0.1125,0.9609375,2.5224609375,-3.8837890625
0.113,0.2001953125,3.203125,-3.8837890625
0.1135,-0.720703125,3.4833984375,-3.123046875
0.114,-1.44140625,3.8837890625,-2.8828125
0.1145,-2.6025390625,4.1240234375,-1.921875
0.115,-3.203125,4.1240234375,-1.3212890625
0.1155,-3.7236328125,3.84375,-0.5205078125
0.116,-4.1240234375,3.5634765625,0.1201171875
0.1165,-4.32421875,2.962890625,0.880859375
0.117,-4.5244140625,2.4423828125,1.6015625
0.1175,-4.8046875,1.76171875,2.5625
0.118,-4.3642578125,0.9208984375,2.8828125
0.1185,-4.244140625,0.1201171875,3.6435546875
0.119,-3.443359375,-0.9609375,3.8037109375
0.1195,-3.0830078125,-1.6416015625,4.1240234375
0.12,-2.2021484375,-2.642578125,4.2041015625
0.1205,-1.6015625,-3.4033203125,4.32421875
0.121,-0.6806640625,-3.7236328125,3.68359375
0.1215,0.0,-4.2041015625,3.603515625
0.122,0.9208984375,-4.32421875,2.7626953125
0.1225,1.6015625,-4.6044921875,2.3623046875
0.123,2.802734375,-4.8046875,1.4013671875
0.1235,3.203125,-4.5244140625,0.720703125
0.124,3.68359375,-4.2041015625,0.0
0.1245,3.84375,-3.7236328125,-0.640625
0.125,3.9638671875,-3.2431640625,-1.3212890625
0.1255,4.083984375,-2.5625,-2.08203125
0.126,4.3642578125,-1.9619140625,-2.9228515625
0.1265,3.7236328125,-1.041015625,-3.203125
0.127,3.6435546875,-0.3203125,-3.84375
0.1275,2.72265625,0.6806640625,-3.8837890625
0.128,2.5224609375,1.3212890625,-4.244140625
0.1285,1.6015625,2.3623046875,-4.404296875
0.129,0.9609375,2.9228515625,-4.32421875
0.1295,0.0400390625,3.36328125,-3.8037109375
0.13,-0.640625,3.84375,-3.5634765625
0.1305,-1.6416015625,4.0439453125,-2.802734375
0.131,-2.4423828125,4.32421875,-2.2822265625
0.1315,-3.603515625,4.5244140625,-1.361328125
0.132,-3.923828125,4.083984375,-0.6005859375
0.1325,-4.5244140625,3.923828125,0.1201171875
0.133,-4.64453125,3.2431640625,0.9609375
0.1335,-4.8447265625,2.72265625,1.6416015625
0.134,-4.96484375,1.921875,2.5625
0.1345,-5.125,1.201171875,3.4033203125
0.135,-4.2841796875,0.0400390625,3.7236328125
0.1355,-4.1640625,-0.720703125,4.32421875
0.136,-3.0830078125,-1.921875,4.32421875
0.1365,-2.642578125,-2.6025390625,4.5244140625
0.137,-1.6416015625,-3.7236328125,4.64453125
0.1375,-0.7607421875,-4.1640625,4.244140625
0.138,0.080078125,-4.484375,3.7236328125
0.1385,0.9208984375,-4.8447265625,3.2431640625
0.139,2.001953125,-4.9248046875,2.2822265625
0.1395,2.72265625,-5.044921875,1.681640625
0.14,3.763671875,-5.1650390625,0.80078125
0.1405,3.8837890625,-4.3642578125,-0.080078125
0.141,4.32421875,-4.2041015625,-0.640625
0.1415,4.3642578125,-3.283203125,-1.6416015625
0.142,4.4443359375,-2.7626953125,-2.2421875
0.1425,4.484375,-1.9619140625,-3.0830078125
0.143,4.3642578125,-1.1611328125,-3.68359375
0.1435,3.5634765625,-0.080078125,-3.923828125
0.144,3.443359375,0.640625,-4.4443359375
0.1445,2.2822265625,1.6416015625,-4.3642578125
0.145,1.921875,2.2421875,-4.564453125
0.1455,1.0009765625,3.3232421875,-4.64453125
0.146,0.0400390625,3.603515625,-4.00390625
0.1465,-0.6806640625,4.083984375,-3.7236328125
0.147,-1.681640625,4.32421875,-3.0830078125
0.1475,-2.6025390625,4.484375,-2.2822265625
0.148,-3.36328125,4.564453125,-1.6015625
0.1485,-4.2841796875,4.6044921875,-0.80078125
0.149,-4.484375,3.84375,0.16015625
0.1495,-4.96484375,3.763671875,0.720703125
0.15,-5.0048828125,2.72265625,1.841796875
0.1505,-5.125,2.2421875,2.40234375
0.151,-5.1650390625,1.28125,3.3232421875
0.1515,-4.884765625,0.48046875,3.8837890625
0.152,-4.1640625,-0.880859375,4.1640625
0.1525,-3.7236328125,-1.6015625,4.64453125
0.153,-2.6025390625,-2.802734375,4.6845703125
0.1535,-2.1220703125,-3.283203125,4.7646484375
0.154,-1.0810546875,-4.2841796875,4.6845703125
0.1545,0.0,-4.5244140625,3.923828125
0.155,0.640625,-4.96484375,3.6435546875
0.1555,1.921875,-5.205078125,2.642578125
0.156,2.7626953125,-5.2451171875,1.841796875
0.1565,3.4833984375,-5.125,1.0810546875
0.157,4.1640625,-5.044921875,0.2802734375
0.1575,4.2041015625,-4.1640625,-0.640625
0.158,4.6044921875,-3.923828125,-1.2412109375
0.1585,4.6044921875,-2.7626953125,-2.4423828125
0.159,4.6044921875,-2.322265625,-2.802734375
0.1595,4.5244140625,-1.361328125,-3.7236328125
0.16,4.1240234375,-0.48046875,-4.083984375
0.1605,3.3232421875,0.48046875,-4.32421875
0.161,2.8828125,1.3212890625,-4.6845703125
0.1615,1.841796875,2.482421875,-4.64453125
0.162,1.361328125,2.8828125,-4.6044921875
0.1625,0.3603515625,3.763671875,-4.484375
0.163,-0.640625,3.8837890625,-3.7236328125
0.1635,-1.28125,4.404296875,-3.4833984375
0.164,-2.6025390625,4.5244140625,-2.322265625
0.1645,-3.203125,4.6044921875,-1.8017578125
0.165,-3.9638671875,4.484375,-0.9609375
0.1655,-4.5244140625,4.2841796875,-0.2001953125
0.166,-4.6845703125,3.5234375,0.6806640625
0.1665,-5.0849609375,3.283203125,1.28125
0.167,-5.1650390625,2.162109375,2.482421875
0.1675,-5.125,1.76171875,2.8427734375
0.168,-5.0849609375,0.6806640625,3.68359375
0.1685,-4.3642578125,-0.3203125,4.083984375
0.169,-3.9638671875,-1.3212890625,4.6044921875
0.1695,-3.0830078125,-2.2822265625,4.724609375
0.17,-2.2822265625,-3.2431640625,4.8447265625
0.1705,-1.5615234375,-3.7236328125,4.6044921875
0.171,-0.6005859375,-4.564453125,4.4443359375
0.1715,0.48046875,-4.724609375,3.5634765625
0.172,1.201171875,-5.1650390625,3.3232421875
0.1725,2.6025390625,-5.28515625,2.0419921875
0.173,3.203125,-5.28515625,1.4814453125
0.1735,3.84375,-5.0048828125,0.560546875
0.174,4.32421875,-4.64453125,-0.2802734375
0.1745,4.404296875,-3.84375,-1.12109375
0.175,4.6044921875,-3.36328125,-1.8017578125
0.1755,4.6845703125,-2.3623046875,-2.8828125
0.176,4.4443359375,-1.8017578125,-3.1630859375
0.1765,4.32421875,-0.9208984375,-3.9638671875
0.177,3.5234375,0.2001953125,-4.1640625
0.1775,3.04296875,0.9609375,-4.4443359375
0.178,2.08203125,2.0419921875,-4.5244140625
0.1785,1.521484375,2.7626953125,-4.6845703125
0.179,0.6806640625,3.203125,-4.2841796875
0.1795,-0.16015625,3.84375,-4.1240234375
0.18,-1.12109375,3.9638671875,-3.203125
0.1805,-1.76171875,4.3642578125,-3.0029296875
0.181,-3.04296875,4.484375,-1.841796875
0.1815,-3.4833984375,4.484375,-1.4013671875
0.182,-4.1640625,4.2041015625,-0.5205078125
0.1825,-4.484375,3.763671875,0.2802734375
0.183,-4.6845703125,3.2431640625,0.9609375
0.1835,-4.8447265625,2.6025390625,1.76171875
0.184,-5.044921875,1.921875,2.5625
0.1845,-4.7646484375,1.201171875,2.962890625
0.185,-4.6845703125,0.3203125,3.763671875
0.1855,-3.763671875,-0.80078125,3.9638671875
0.186,-3.5634765625,-1.4814453125,4.4443359375
0.1865,-2.4423828125,-2.642578125,4.484375
0.187,-2.0419921875,-3.2431640625,4.6044921875
0.1875,-1.041015625,-3.8037109375,4.1640625
0.188,-0.2802734375,-4.3642578125,3.9638671875
0.1885,0.6806640625,-4.5244140625,3.1630859375
0.189,1.4814453125,-4.884765625,2.7626953125
0.1895,2.72265625,-5.0849609375,1.7216796875
0.19,3.0830078125,-4.884765625,1.2412109375
0.1905,3.763671875,-4.6845703125,0.3203125
0.191,3.9638671875,-4.0439453125,-0.48046875
0.1915,4.2041015625,-3.6435546875,-1.12109375
0.192,4.2841796875,-2.8828125,-2.001953125
0.1925,4.484375,-2.3623046875,-2.7626953125
0.193,4.0439453125,-1.4814453125,-3.203125
0.1935,3.9638671875,-0.640625,-3.8037109375
0.194,2.962890625,0.48046875,-3.84375
0.1945,2.802734375,1.041015625,-4.2841796875
0.195,1.76171875,2.2021484375,-4.32421875
0.1955,1.4013671875,2.6025390625,-4.3642578125
0.196,0.3603515625,3.1630859375,-3.923828125
0.1965,-0.400390625,3.5634765625,-3.5634765625
0.197,-1.201171875,3.84375,-3.0029296875
0.1975,-2.0419921875,4.083984375,-2.4423828125
0.198,-3.0830078125,4.32421875,-1.6416015625
0.1985,-3.36328125,3.9638671875,-1.041015625
0.199,-4.00390625,3.923828125,-0.3603515625
0.1995,-4.1240234375,3.203125,0.4404296875
0.2,-4.484375,3.0029296875,0.9609375
0.2005,-4.564453125,2.1220703125,1.921875
0.201,-4.7646484375,1.7216796875,2.482421875
0.2015,-4.32421875,0.80078125,3.0029296875
0.202,-4.1240234375,0.0400390625,3.5234375
0.2025,-3.283203125,-1.041015625,3.763671875
0.203,-3.0830078125,-1.6416015625,4.1240234375
0.2035,-2.2021484375,-2.72265625,4.2841796875
0.204,-1.7216796875,-3.04296875,4.083984375
0.2045,-0.80078125,-3.7236328125,3.84375
0.205,0.0,-3.9638671875,3.3232421875
0.2055,0.7607421875,-4.3642578125,2.962890625
0.206,1.7216796875,-4.5244140625,2.2021484375
0.2065,2.5625,-4.8046875,1.6015625
0.207,2.8828125,-4.3642578125,0.880859375
0.2075,3.4833984375,-4.32421875,0.2802734375
0.208,3.5634765625,-3.603515625,-0.6005859375
0.2085,3.8837890625,-3.4033203125,-1.12109375
0.209,4.0439453125,-2.5625,-2.08203125
0.2095,4.0439453125,-2.1220703125,-2.4423828125
0.21,3.7236328125,-1.1611328125,-3.0830078125
0.2105,3.3232421875,-0.400390625,-3.4033203125
0.211,2.72265625,0.5205078125,-3.7236328125
0.2115,2.322265625,1.201171875,-3.923828125
0.212,1.7216796875,2.08203125,-4.2041015625
0.2125,1.0810546875,2.3623046875,-3.84375
0.213,0.3203125,3.04296875,-3.763671875
0.2135,-0.560546875,3.2431640625,-3.0830078125
0.214,-1.2412109375,3.68359375,-2.8427734375
0.2145,-2.2421875,3.84375,-2.001953125
0.215,-2.8427734375,3.9638671875,-1.6015625
0.2155,-3.2431640625,3.6435546875,-0.80078125
0.216,-3.7236328125,3.5234375,-0.3203125
0.2165,-3.923828125,2.8828125,0.48046875
0.217,-4.2041015625,2.6025390625,1.0810546875
0.2175,-4.5244140625,1.9619140625,2.0419921875
0.218,-4.2841796875,1.4013671875,2.3623046875
0.2185,-4.1640625,0.5205078125,3.0830078125
0.219,-3.5634765625,-0.3603515625,3.36328125
0.2195,-3.203125,-1.1611328125,3.8037109375
0.22,-2.5625,-1.9619140625,3.923828125
0.2205,-2.08203125,-2.72265625,4.1240234375
0.221,-1.2412109375,-3.04296875,3.6435546875
0.2215,-0.640625,-3.68359375,3.68359375
0.222,0.3203125,-3.8837890625,2.9228515625
0.2225,1.0009765625,-4.244140625,2.6025390625
0.223,2.08203125,-4.484375,1.76171875
0.2235,2.5224609375,-4.404296875,1.28125
0.224,3.0029296875,-4.1640625,0.48046875
0.2245,3.2431640625,-3.84375,-0.1201171875
0.225,3.5234375,-3.36328125,-0.80078125
0.2255,3.68359375,-2.8427734375,-1.361328125
0.226,4.00390625,-2.322265625,-2.2421875
0.2265,3.5634765625,-1.6015625,-2.5224609375
0.227,3.5234375,-0.8408203125,-3.203125
0.2275,2.7626953125,0.1201171875,-3.3232421875
0.228,2.6025390625,0.720703125,-3.8037109375
0.2285,1.921875,1.6015625,-3.923828125
0.229,1.44140625,2.162109375,-4.0439453125
0.2295,0.560546875,2.6025390625,-3.5634765625
0.23,0.0,3.1630859375,-3.5234375
