wavelength,x,y,z
0.0,-19.298828125,15.455078125,3.0029296875
0.0005,-19.7392578125,13.2529296875,5.60546875
0.001,-20.1796875,10.5302734375,8.6484375
0.0015,-19.859375,6.40625,12.4521484375
0.002,-19.0986328125,2.5224609375,15.6953125
0.0025,-17.376953125,-1.361328125,17.8173828125
0.003,-15.615234375,-4.5244140625,19.21875
0.0035,-13.1328125,-7.447265625,19.69921875
0.004,-9.4892578125,-10.8505859375,19.5791015625
0.0045,-5.125,-14.2939453125,18.8984375
0.005,-0.48046875,-17.3369140625,17.4169921875
0.0055,3.3232421875,-18.978515625,15.615234375
0.006,5.92578125,-19.4990234375,13.7333984375
0.0065,9.0087890625,-20.099609375,11.451171875
0.007,12.7724609375,-19.5791015625,7.3671875
0.0075,15.8955078125,-18.6181640625,3.443359375
0.008,18.2177734375,-16.81640625,-0.640625
0.0085,19.5791015625,-15.0146484375,-3.8837890625
0.009,19.8994140625,-12.7724609375,-6.7265625
0.0095,20.01953125,-9.3291015625,-9.9697265625
0.01,19.4990234375,-5.28515625,-13.453125
0.0105,18.498046875,-1.2412109375,-16.5361328125
0.011,16.49609375,2.482421875,-18.2578125
0.0115,14.4541015625,5.3251953125,-19.0185546875
0.012,11.9716796875,8.328125,-19.6591796875
0.0125,7.4873046875,12.2119140625,-19.1787109375
0.013,3.3232421875,15.21484375,-18.2578125
0.0135,-1.0009765625,17.6171875,-16.576171875
0.014,-4.3642578125,19.05859375,-14.89453125
0.0145,-6.806640625,19.298828125,-12.8125
0.015,-9.689453125,19.6591796875,-10.4501953125
0.0155,-13.5732421875,19.0185546875,-6.1259765625
0.016,-16.5361328125,17.6171875,-1.9619140625
0.0165,-18.4580078125,15.775390625,1.76171875
0.017,-19.2587890625,13.8134765625,4.5244140625
0.0175,-19.779296875,11.3310546875,7.4072265625
0.018,-19.5791015625,7.607421875,11.05078125
0.0185,-18.978515625,4.00390625,14.09375
0.019,-17.8173828125,0.1201171875,16.81640625
0.0195,-15.8955078125,-3.36328125,18.3779296875
0.02,-13.6533203125,-5.92578125,18.73828125
0.0205,-11.2509765625,-8.9287109375,19.3388671875
0.021,-6.3662109375,-12.8125,18.6982421875
0.0215,-2.162109375,-15.775390625,17.537109375
0.022,1.6015625,-17.6171875,15.85546875
0.0225,4.6044921875,-18.8583984375,14.3740234375
0.023,7.2470703125,-19.1787109375,12.171875
0.0235,10.5302734375,-19.1787109375,9.0888671875
0.024,13.9736328125,-18.658203125,5.2451171875
0.0245,16.736328125,-17.13671875,1.041015625
0.025,18.3779296875,-15.2548828125,-2.1220703125
0.0255,18.8984375,-13.3330078125,-4.8447265625
0.026,19.37890625,-10.890625,-7.7275390625
0.0265,19.0986328125,-6.646484375,-11.69140625
0.027,18.3779296875,-3.1630859375,-14.5341796875
0.0275,16.9365234375,0.560546875,-16.65625
0.028,15.21484375,3.8037109375,-18.2578125
0.0285,12.732421875,6.6064453125,-18.337890625
0.029,9.609375,9.76953125,-18.8583984375
0.0295,5.2451171875,13.4931640625,-18.2978515625
0.03,0.6806640625,16.3759765625,-16.8564453125
0.0305,-2.642578125,17.8974609375,-15.2548828125
0.031,-5.2451171875,18.7783203125,-13.7734375
0.0315,-8.16796875,19.2587890625,-11.53125
0.032,-11.8916015625,18.7783203125,-7.52734375
0.0325,-14.974609375,18.0576171875,-3.8837890625
0.033,-17.45703125,16.3759765625,0.2802734375
0.0335,-18.9384765625,14.57421875,3.443359375
0.034,-19.21875,12.171875,6.0458984375
0.0345,-19.6591796875,9.609375,9.1689453125
0.035,-19.1787109375,5.205078125,13.0126953125
0.0355,-18.2177734375,1.3212890625,15.9755859375
0.036,-16.49609375,-2.0419921875,17.6171875
0.0365,-14.7744140625,-5.125,19.0185546875
0.037,-11.9716796875,-8.0078125,19.2587890625
0.0375,-7.767578125,-11.8515625,18.978515625
0.038,-3.8037109375,-15.0947265625,18.2978515625
0.0385,0.880859375,-17.6171875,16.576171875
0.039,4.00390625,-18.978515625,14.89453125
0.0395,6.7265625,-19.4189453125,12.9326171875
0.04,9.7294921875,-19.8994140625,10.6103515625
0.0405,13.8134765625,-19.2587890625,5.92578125
0.041,16.6962890625,-17.8974609375,1.921875
0.0415,18.5380859375,-16.255859375,-1.681640625
0.042,19.69921875,-14.25390625,-4.6845703125
0.0425,19.779296875,-11.4912109375,-7.5673828125
0.043,19.859375,-7.8876953125,-11.2509765625
0.0435,19.3388671875,-4.0439453125,-14.57421875
0.044,17.9775390625,0.240234375,-17.3369140625
0.0445,15.85546875,3.36328125,-18.818359375
0.045,13.7734375,6.40625,-19.4189453125
0.0455,10.9306640625,9.44921875,-19.859375
0.046,5.7255859375,13.6533203125,-18.978515625
0.0465,1.76171875,16.576171875,-17.9775390625
0.047,-2.3623046875,18.5380859375,-16.2158203125
0.0475,-5.4052734375,19.619140625,-14.494140625
0.048,-8.16796875,19.69921875,-11.8916015625
0.0485,-11.3310546875,19.8994140625,-9.12890625
0.049,-15.0947265625,18.978515625,-4.6845703125
0.0495,-17.9375,17.13671875,0.0
0.05,-19.2587890625,15.294921875,3.0830078125
0.0505,-20.01953125,13.212890625,5.9658203125
0.051,-20.1796875,10.330078125,8.80859375
0.0515,-19.6591796875,6.005859375,12.7724609375
0.052,-18.9384765625,2.4423828125,15.6953125
0.0525,-17.376953125,-1.5615234375,18.017578125
0.053,-15.294921875,-4.6845703125,19.1787109375
0.0535,-12.732421875,-7.4873046875,19.4189453125
0.054,-9.8095703125,-10.6904296875,19.779296875
0.0545,-4.6044921875,-14.6142578125,18.73828125
0.055,-0.16015625,-17.3369140625,17.13671875
0.0555,3.203125,-18.7783203125,15.4951171875
0.056,6.1259765625,-19.7392578125,13.8134765625
0.0565,9.2490234375,-19.8193359375,11.0107421875
0.057,12.732421875,-19.4990234375,7.3271484375
0.0575,15.935546875,-18.658203125,3.4033203125
0.058,18.4580078125,-16.736328125,-1.041015625
0.0585,19.458984375,-14.814453125,-3.8837890625
0.059,19.859375,-12.33203125,-6.6865234375
0.0595,20.099609375,-9.609375,-9.6494140625
0.06,19.4990234375,-5.0048828125,-13.6533203125
0.0605,18.3779296875,-1.1611328125,-16.3759765625
0.061,16.6962890625,2.2822265625,-18.177734375
0.0615,14.6142578125,5.4853515625,-19.37890625
0.062,11.53125,8.408203125,-19.37890625
0.0625,7.8076171875,12.171875,-19.37890625
0.063,3.2431640625,15.6552734375,-18.578125
0.0635,-1.5615234375,18.0576171875,-16.5361328125
0.064,-4.2841796875,19.138671875,-14.89453125
0.0645,-7.20703125,19.859375,-13.052734375
0.065,-10.169921875,19.9794921875,-10.330078125
0.0655,-14.173828125,19.1787109375,-5.765625
0.066,-17.0966796875,17.9375,-1.76171875
0.0665,-19.1787109375,16.015625,2.2421875
0.067,-19.8994140625,13.9736328125,5.044921875
0.0675,-20.2197265625,11.130859375,8.0478515625
0.068,-20.1396484375,7.8076171875,11.37109375
0.0685,-19.5390625,3.5634765625,15.0947265625
0.069,-17.9775390625,-0.640625,17.7373046875
0.0695,-16.095703125,-3.84375,19.05859375
0.07,-14.013671875,-6.88671875,20.0595703125
0.0705,-10.7705078125,-10.0498046875,19.9794921875
0.071,-6.1259765625,-13.853515625,19.3388671875
0.0715,-1.681640625,-17.056640625,18.2177734375
0.072,2.642578125,-19.21875,16.2958984375
0.0725,5.4853515625,-19.859375,14.3740234375
0.073,8.568359375,-20.259765625,12.01171875
0.0735,11.7314453125,-20.2998046875,8.96875
0.074,15.5751953125,-19.21875,4.32421875
0.0745,18.2578125,-17.4970703125,0.0
0.075,19.859375,-15.5751953125,-3.4833984375
0.0755,20.4599609375,-13.4130859375,-6.3662109375
0.076,20.4599609375,-9.9697265625,-9.3291015625
0.0765,20.01953125,-6.24609375,-13.052734375
0.077,19.37890625,-2.3623046875,-16.3359375
0.0775,17.4970703125,1.921875,-18.578125
0.078,15.21484375,4.9248046875,-19.4990234375
0.0785,12.8525390625,8.0478515625,-20.2197265625
0.079,9.0888671875,11.53125,-20.1396484375
0.0795,4.1240234375,15.294921875,-19.0986328125
0.08,-0.560546875,18.0576171875,-17.45703125
0.0805,-4.00390625,19.6591796875,-15.7353515625
0.081,-6.7265625,20.1796875,-13.8134765625
0.0815,-9.9296875,20.33984375,-10.970703125
0.082,-13.3330078125,19.9794921875,-7.4072265625
0.0825,-16.81640625,18.818359375,-2.9228515625
0.083,-19.298828125,16.7763671875,1.6416015625
0.0835,-20.1796875,14.734375,4.6044921875
0.084,-20.66015625,12.33203125,7.5673828125
0.0845,-20.8203125,8.7685546875,11.0107421875
0.085,-20.099609375,4.484375,14.654296875
0.0855,-18.978515625,0.6005859375,17.5771484375
0.086,-17.1767578125,-3.4033203125,19.5791015625
0.0865,-14.7744140625,-6.2060546875,20.1796875
0.087,-12.01171875,-9.2890625,20.5
0.0875,-7.927734375,-13.0927734375,20.2998046875
0.088,-2.8828125,-16.736328125,18.9384765625
0.0885,1.7216796875,-18.9384765625,16.9765625
0.089,4.884765625,-20.259765625,15.3349609375
0.0895,7.7275390625,-20.740234375,13.1728515625
0.09,11.0908203125,-20.580078125,9.9296875
0.0905,14.734375,-19.939453125,5.765625
0.091,17.8974609375,-18.5380859375,1.4013671875
0.0915,19.939453125,-16.3359375,-2.6826171875
0.092,20.5400390625,-14.2939453125,-5.525390625
0.0925,20.9404296875,-11.53125,-8.6484375
0.093,20.740234375,-7.5673828125,-12.2919921875
0.0935,19.859375,-3.4833984375,-15.6552734375
0.094,18.2978515625,0.6005859375,-18.017578125
0.0945,16.3759765625,4.1240234375,-19.7392578125
0.095,13.7734375,7.0869140625,-20.1796875
0.0955,10.330078125,10.2900390625,-20.2197265625
0.096,6.005859375,14.173828125,-19.69921875
0.0965,1.28125,17.4169921875,-18.4580078125
0.097,-3.0029296875,19.3388671875,-16.3359375
0.0975,-5.8056640625,20.099609375,-14.654296875
0.098,-8.8486328125,20.6201171875,-12.251953125
0.0985,-12.2919921875,20.2998046875,-8.6484375
0.099,-15.6953125,19.37890625,-4.484375
0.0995,-18.498046875,17.6572265625,0.0400390625
0.1,-20.5,15.615234375,3.8037109375
0.1005,-20.66015625,13.212890625,6.4462890625
0.101,-21.0205078125,10.25,9.7294921875
0.1015,-20.5400390625,6.0458984375,13.4931640625
0.102,-19.7392578125,1.921875,16.7763671875
0.1025,-17.7373046875,-2.08203125,18.8984375
0.103,-15.775390625,-5.3251953125,20.1796875
0.1035,-13.1328125,-8.16796875,20.740234375
0.104,-9.2490234375,-11.8916015625,20.419921875
0.1045,-4.724609375,-15.455078125,19.5791015625
0.105,0.2001953125,-18.498046875,17.9775390625
0.1055,4.1240234375,-20.1796875,15.9755859375
0.106,6.88671875,-20.580078125,13.853515625
0.1065,10.169921875,-20.98046875,11.37109375
0.107,14.013671875,-20.3798828125,7.046875
0.1075,17.13671875,-19.298828125,2.9228515625
0.108,19.4990234375,-17.45703125,-1.4814453125
0.1085,20.98046875,-15.2548828125,-4.884765625
0.109,21.1806640625,-12.65234375,-7.84765625
0.1095,21.2607421875,-9.0087890625,-11.4111328125
0.11,20.580078125,-4.9248046875,-14.9345703125
0.1105,19.4189453125,-0.6005859375,-18.09765625
0.111,17.296875,3.443359375,-19.8994140625
0.1115,14.734375,6.24609375,-20.7001953125
0.112,12.091796875,9.609375,-21.1806640625
0.1125,7.126953125,13.7734375,-20.5
0.113,2.802734375,17.0166015625,-19.4189453125
0.1135,-1.9619140625,19.4990234375,-17.45703125
0.114,-5.525390625,20.98046875,-15.5751953125
0.1145,-8.328125,21.1005859375,-13.1728515625
0.115,-11.69140625,21.3408203125,-10.3701171875
0.1155,-15.7353515625,20.419921875,-5.765625
0.116,-18.73828125,18.8583984375,-1.041015625
0.1165,-20.7802734375,16.6962890625,3.0830078125
0.117,-21.6611328125,14.494140625,6.2060546875
0.1175,-21.861328125,11.53125,9.3291015625
0.118,-21.701171875,7.287109375,13.4130859375
0.1185,-20.740234375,3.2431640625,16.576171875
0.119,-19.05859375,-1.1611328125,19.458984375
0.1195,-16.6962890625,-4.884765625,21.060546875
0.12,-14.25390625,-7.9677734375,21.30078125
0.1205,-11.2109375,-11.3310546875,21.7412109375
0.121,-5.765625,-15.5751953125,20.7802734375
0.1215,-1.0009765625,-18.6982421875,19.1787109375
0.122,3.3232421875,-20.5,17.13671875
0.1225,6.7265625,-21.701171875,15.1748046875
0.123,9.9296875,-21.8212890625,12.171875
0.1235,13.373046875,-21.5009765625,8.80859375
0.124,17.0966796875,-20.580078125,4.2841796875
0.1245,20.1796875,-18.578125,-0.7607421875
0.125,21.701171875,-16.3759765625,-4.484375
0.1255,22.0615234375,-13.8134765625,-7.4873046875
0.126,22.3818359375,-10.7705078125,-10.73046875
0.1265,21.7412109375,-5.8056640625,-15.21484375
0.127,20.7802734375,-1.6015625,-17.9775390625
0.1275,18.498046875,2.482421875,-20.259765625
0.128,16.2958984375,6.24609375,-21.78125
0.1285,12.97265625,9.4091796875,-21.62109375
0.129,9.4091796875,12.97265625,-21.861328125
0.1295,4.1240234375,16.9765625,-20.8203125
0.13,-1.1611328125,20.01953125,-18.73828125
0.1305,-4.884765625,21.380859375,-16.65625
0.131,-7.8076171875,22.2216796875,-14.6142578125
0.1315,-11.53125,22.181640625,-11.4111328125
0.132,-15.4150390625,21.380859375,-6.8466796875
0.1325,-18.578125,20.1796875,-2.5625
0.133,-21.30078125,17.9375,2.40234375
0.1335,-22.4619140625,15.4951171875,5.8857421875
0.134,-22.58203125,12.572265625,9.048828125
0.1345,-22.4619140625,9.2490234375,12.2919921875
0.135,-21.78125,4.1240234375,16.576171875
0.1355,-20.5,-0.3603515625,19.6591796875
0.136,-18.1376953125,-4.1640625,21.2607421875
0.1365,-15.8154296875,-7.7275390625,22.4619140625
0.137,-12.1318359375,-10.890625,22.181640625
0.1375,-7.4873046875,-14.9345703125,21.62109375
0.138,-2.72265625,-18.2978515625,20.5400390625
0.1385,2.482421875,-20.98046875,18.2578125
0.139,6.0458984375,-21.9814453125,15.935546875
0.1395,9.2490234375,-22.3818359375,13.453125
0.14,12.4521484375,-22.4619140625,10.5703125
0.1405,16.81640625,-21.220703125,5.125
0.141,19.859375,-19.619140625,0.6005859375
0.1415,21.78125,-17.45703125,-3.4833984375
0.142,22.7421875,-14.9345703125,-6.806640625
0.1425,22.421875,-11.5712890625,-9.8896484375
0.143,22.3818359375,-7.8076171875,-13.8134765625
0.1435,21.62109375,-3.203125,-17.3369140625
0.144,19.6591796875,1.5615234375,-20.2197265625
0.1445,17.0966796875,5.044921875,-21.30078125
0.145,14.494140625,8.3681640625,-22.1015625
0.1455,11.0107421875,11.7314453125,-22.1416015625
0.146,5.3251953125,16.1357421875,-21.0205078125
0.1465,0.640625,19.05859375,-19.7392578125
0.147,-3.8037109375,21.220703125,-17.77734375
0.1475,-7.126953125,22.0615234375,-15.3349609375
0.148,-10.2900390625,22.1015625,-12.2119140625
0.1485,-13.5732421875,22.0615234375,-9.2890625
0.149,-17.6572265625,20.8203125,-4.0439453125
0.1495,-20.6201171875,18.578125,1.12109375
0.15,-22.0615234375,16.416015625,4.6044921875
0.1505,-22.7822265625,13.853515625,7.8076171875
0.151,-22.58203125,10.41015625,11.2109375
0.1515,-22.1416015625,5.8056640625,15.21484375
0.152,-21.0205078125,1.6416015625,18.2978515625
0.1525,-19.05859375,-2.9228515625,20.9404296875
0.153,-16.3759765625,-6.40625,21.8212890625
0.1535,-13.453125,-9.609375,22.1416015625
0.154,-9.8896484375,-13.1728515625,22.26171875
0.1545,-3.9638671875,-17.1767578125,20.9404296875
0.155,1.0009765625,-19.939453125,18.8583984375
0.1555,4.884765625,-21.6611328125,16.8564453125
0.156,7.9677734375,-22.4619140625,14.6943359375
0.1565,11.53125,-22.26171875,11.2109375
0.157,15.1748046875,-21.78125,7.287109375
0.1575,18.6982421875,-20.5400390625,2.6826171875
0.158,21.5009765625,-18.1376953125,-2.4423828125
0.1585,22.341796875,-15.7353515625,-5.765625
0.159,22.7421875,-13.1328125,-9.0087890625
0.1595,22.7822265625,-9.369140625,-12.251953125
0.16,21.701171875,-4.4443359375,-16.3759765625
0.1605,20.33984375,-0.2802734375,-19.298828125
0.161,18.2177734375,3.84375,-21.30078125
0.1615,15.5751953125,7.287109375,-22.181640625
0.162,12.01171875,10.810546875,-21.9814453125
0.1625,7.8076171875,14.654296875,-21.8212890625
0.163,2.3623046875,18.2978515625,-20.5400390625
0.1635,-2.6826171875,20.900390625,-18.09765625
0.164,-5.92578125,21.861328125,-16.2158203125
0.1645,-9.12890625,22.421875,-13.8134765625
0.165,-12.572265625,22.1416015625,-10.2900390625
0.1655,-16.49609375,21.140625,-5.525390625
0.166,-19.6591796875,19.5791015625,-1.0810546875
0.1665,-21.861328125,17.296875,3.68359375
0.167,-22.5419921875,14.6943359375,6.6865234375
0.1675,-22.58203125,11.5712890625,10.169921875
0.168,-22.4619140625,7.7275390625,13.6533203125
0.1685,-21.4609375,2.8427734375,17.5771484375
0.169,-19.4990234375,-1.6416015625,20.1796875
0.1695,-17.45703125,-5.2451171875,21.541015625
0.17,-14.9345703125,-8.568359375,22.341796875
0.1705,-10.890625,-11.8515625,22.021484375
0.171,-5.8857421875,-15.6953125,21.140625
0.1715,-1.0810546875,-19.0986328125,19.8193359375
0.172,3.8037109375,-21.220703125,17.3369140625
0.1725,6.7265625,-21.78125,15.21484375
0.173,10.08984375,-22.26171875,12.5322265625
0.1735,13.693359375,-21.78125,8.9287109375
0.174,17.6171875,-20.3798828125,3.9638671875
0.1745,20.1796875,-18.7783203125,-0.80078125
0.175,21.94140625,-16.3759765625,-4.4443359375
0.1755,22.2216796875,-13.8935546875,-7.447265625
0.176,22.181640625,-10.41015625,-10.890625
0.1765,21.701171875,-6.2861328125,-14.5341796875
0.177,20.66015625,-2.001953125,-17.9775390625
0.1775,18.337890625,2.5224609375,-20.2197265625
0.178,16.095703125,5.685546875,-21.30078125
0.1785,13.4130859375,9.048828125,-21.9814453125
0.179,9.4091796875,12.7724609375,-21.62109375
0.1795,4.32421875,16.49609375,-20.2197265625
0.18,-0.5205078125,19.2587890625,-18.658203125
0.1805,-4.5244140625,21.060546875,-16.6162109375
0.181,-7.3671875,21.380859375,-14.333984375
0.1815,-10.6103515625,21.6611328125,-11.4111328125
0.182,-14.25390625,21.0205078125,-7.7275390625
0.1825,-17.77734375,19.7392578125,-2.7626953125
0.183,-20.33984375,17.4970703125,1.841796875
0.1835,-21.3408203125,15.3349609375,4.96484375
0.184,-21.861328125,12.6923828125,8.1279296875
0.1845,-21.6611328125,9.0888671875,11.53125
0.185,-20.900390625,4.724609375,15.1748046875
0.1855,-19.5390625,0.640625,18.177734375
0.186,-17.697265625,-3.603515625,20.2197265625
0.1865,-15.2548828125,-6.3662109375,20.8603515625
0.187,-12.65234375,-9.609375,21.2607421875
0.1875,-8.087890625,-13.4931640625,20.8603515625
0.188,-3.0830078125,-16.896484375,19.5390625
0.1885,1.521484375,-19.2587890625,17.5771484375
0.189,4.9248046875,-20.7001953125,15.8154296875
0.1895,7.6474609375,-21.30078125,13.5732421875
0.19,11.1708984375,-21.0205078125,10.5302734375
0.1905,14.7744140625,-20.66015625,6.166015625
0.191,17.9775390625,-18.9384765625,1.76171875
0.1915,20.2197265625,-16.7763671875,-2.6025390625
0.192,20.8603515625,-14.6142578125,-5.4052734375
0.1925,21.2607421875,-11.931640625,-8.48828125
0.193,20.98046875,-8.0478515625,-12.1318359375
0.1935,20.2197265625,-4.083984375,-15.8154296875
0.194,18.73828125,0.3203125,-18.2578125
0.1945,16.8564453125,4.0439453125,-20.01953125
0.195,14.333984375,6.88671875,-20.5
0.1955,11.05078125,10.2099609375,-20.66015625
0.196,6.486328125,14.173828125,-20.1396484375
0.1965,1.5615234375,17.45703125,-18.7783203125
0.197,-2.72265625,19.4189453125,-16.6962890625
0.1975,-5.525390625,20.5,-14.8544921875
0.198,-8.6884765625,20.8603515625,-12.6123046875
0.1985,-12.091796875,20.5,-9.2490234375
0.199,-15.775390625,19.6591796875,-4.9248046875
0.1995,-18.498046875,17.9775390625,-0.3603515625
0.2,-20.4599609375,15.9755859375,3.7236328125
0.2005,-20.8203125,13.4130859375,6.326171875
0.201,-21.140625,10.5302734375,9.4892578125
0.2015,-20.7802734375,6.3662109375,13.453125
0.202,-19.8994140625,2.2021484375,16.6962890625
0.2025,-17.9775390625,-1.6416015625,18.9384765625
0.203,-16.015625,-5.1650390625,20.2197265625
0.2035,-13.4130859375,-8.087890625,20.6201171875
0.204,-9.6494140625,-11.6513671875,20.4599609375
0.2045,-5.0849609375,-15.0947265625,19.69921875
0.205,-0.3203125,-18.2177734375,18.09765625
0.2055,3.84375,-19.8994140625,15.9755859375
0.206,6.4462890625,-20.4599609375,14.09375
0.2065,9.76953125,-20.66015625,11.7314453125
0.207,13.453125,-20.4599609375,7.3271484375
0.2075,16.65625,-19.298828125,3.2431640625
0.208,18.8984375,-17.537109375,-1.0009765625
0.2085,20.5,-15.294921875,-4.3642578125
0.209,20.5,-12.892578125,-7.126953125
0.2095,20.7802734375,-9.4892578125,-10.5703125
0.21,20.1796875,-5.2451171875,-14.09375
0.2105,19.21875,-0.9609375,-17.296875
0.211,17.13671875,2.7626953125,-18.9384765625
0.2115,14.89453125,5.6455078125,-19.7392578125
0.212,12.2119140625,8.80859375,-20.259765625
0.2125,7.7275390625,12.7724609375,-19.7392578125
0.213,3.3232421875,15.6552734375,-18.9384765625
0.2135,-1.1611328125,18.2578125,-16.9765625
0.214,-4.6845703125,19.69921875,-15.2548828125
0.2145,-7.4072265625,19.859375,-13.1728515625
0.215,-10.25,20.2998046875,-10.6904296875
0.2155,-14.2138671875,19.619140625,-6.166015625
0.216,-16.9765625,18.09765625,-2.001953125
0.2165,-19.21875,16.2958984375,1.921875
0.217,-19.939453125,14.2138671875,4.724609375
0.2175,-20.33984375,11.5712890625,7.6875
0.218,-20.2197265625,7.84765625,11.451171875
0.2185,-19.5390625,4.2041015625,14.6142578125
