wavelength,x,y,z
0.0,-1.82177734375,-6.42626953125,6.26611328125
0.0005,-3.02294921875,-5.38525390625,6.46630859375
0.001,-4.46435546875,-3.94384765625,6.74658203125
0.0015,-5.62548828125,-2.50244140625,6.90673828125
0.002,-6.26611328125,-1.38134765625,6.74658203125
0.0025,-6.42626953125,-0.62060546875,6.50634765625
0.003,-6.22607421875,0.30029296875,5.78564453125
0.0035,-5.86572265625,1.54150390625,4.50439453125
0.004,-5.70556640625,2.94287109375,3.14306640625
0.0045,-5.46533203125,4.22412109375,1.86181640625
0.005,-5.14501953125,5.10498046875,0.90087890625
0.0055,-4.62451171875,5.50537109375,0.06005859375
0.006,-3.46337890625,5.58544921875,-1.14111328125
0.0065,-2.02197265625,5.74560546875,-2.66259765625
0.007,-0.62060546875,5.94580078125,-4.34423828125
0.0075,0.38037109375,6.06591796875,-5.30517578125
0.008,1.06103515625,6.10595703125,-6.10595703125
0.0085,1.94189453125,5.46533203125,-6.62646484375
0.009,3.34326171875,4.06396484375,-6.82666015625
0.0095,4.66455078125,2.70263671875,-7.06689453125
0.01,5.70556640625,1.30126953125,-7.06689453125
0.0105,6.14599609375,0.30029296875,-6.86669921875
0.011,6.14599609375,-0.54052734375,-6.42626953125
0.0115,5.78564453125,-1.54150390625,-5.38525390625
0.012,5.42529296875,-2.82275390625,-3.98388671875
0.0125,5.26513671875,-4.30419921875,-2.54248046875
0.013,4.98486328125,-5.38525390625,-1.42138671875
0.0135,4.62451171875,-6.06591796875,-0.58056640625
0.014,3.86376953125,-6.30615234375,0.38037109375
0.0145,2.50244140625,-6.26611328125,1.62158203125
0.015,1.02099609375,-6.42626953125,3.26318359375
0.0155,-0.34033203125,-6.54638671875,4.66455078125
0.016,-1.06103515625,-6.62646484375,5.58544921875
0.0165,-1.70166015625,-6.58642578125,6.18603515625
0.017,-2.74267578125,-5.70556640625,6.50634765625
0.0175,-4.14404296875,-4.22412109375,6.70654296875
0.018,-5.38525390625,-2.82275390625,6.90673828125
0.0185,-6.14599609375,-1.58154296875,6.74658203125
0.019,-6.42626953125,-0.78076171875,6.54638671875
0.0195,-6.34619140625,0.14013671875,6.02587890625
0.02,-5.90576171875,1.14111328125,4.86474609375
0.0205,-5.62548828125,2.46240234375,3.50341796875
0.021,-5.42529296875,3.86376953125,2.18212890625
0.0215,-5.14501953125,4.78466796875,1.14111328125
0.022,-4.74462890625,5.30517578125,0.34033203125
0.0225,-3.86376953125,5.46533203125,-0.62060546875
0.023,-2.50244140625,5.46533203125,-1.94189453125
0.0235,-1.14111328125,5.74560546875,-3.54345703125
0.024,0.06005859375,5.82568359375,-4.78466796875
0.0245,0.70068359375,5.90576171875,-5.62548828125
0.025,1.42138671875,5.74560546875,-6.22607421875
0.0255,2.50244140625,4.70458984375,-6.42626953125
0.026,3.86376953125,3.34326171875,-6.70654296875
0.0265,5.06494140625,1.98193359375,-6.82666015625
0.027,5.66552734375,0.90087890625,-6.70654296875
0.0275,5.90576171875,0.22021484375,-6.54638671875
0.028,5.70556640625,-0.74072265625,-5.78564453125
0.0285,5.30517578125,-1.86181640625,-4.62451171875
0.029,5.18505859375,-3.18310546875,-3.38330078125
0.0295,5.02490234375,-4.50439453125,-2.18212890625
0.03,4.78466796875,-5.30517578125,-1.26123046875
0.0305,4.34423828125,-5.78564453125,-0.50048828125
0.031,3.30322265625,-5.90576171875,0.58056640625
0.0315,1.98193359375,-6.02587890625,1.94189453125
0.032,0.70068359375,-6.30615234375,3.54345703125
0.0325,-0.34033203125,-6.42626953125,4.58447265625
0.033,-0.94091796875,-6.62646484375,5.42529296875
0.0335,-1.78173828125,-6.14599609375,5.90576171875
0.034,-2.98291015625,-4.98486328125,6.18603515625
0.0345,-4.34423828125,-3.70361328125,6.46630859375
0.035,-5.38525390625,-2.42236328125,6.54638671875
0.0355,-5.90576171875,-1.54150390625,6.50634765625
0.036,-6.02587890625,-0.78076171875,6.22607421875
0.0365,-5.74560546875,0.14013671875,5.42529296875
0.037,-5.50537109375,1.30126953125,4.22412109375
0.0375,-5.42529296875,2.70263671875,3.02294921875
0.038,-5.22509765625,3.82373046875,1.94189453125
0.0385,-4.98486328125,4.54443359375,1.14111328125
0.039,-4.38427734375,4.94482421875,0.30029296875
0.0395,-3.26318359375,5.02490234375,-0.90087890625
0.04,-2.10205078125,5.30517578125,-2.30224609375
0.0405,-0.86083984375,5.46533203125,-3.74365234375
0.041,-0.18017578125,5.70556640625,-4.70458984375
0.0415,0.58056640625,5.82568359375,-5.42529296875
0.042,1.50146484375,5.14501953125,-5.82568359375
0.0425,2.78271484375,3.98388671875,-6.10595703125
0.043,4.02392578125,2.74267578125,-6.42626953125
0.0435,4.86474609375,1.62158203125,-6.42626953125
0.044,5.34521484375,0.86083984375,-6.42626953125
0.0445,5.38525390625,0.14013671875,-6.06591796875
0.045,5.10498046875,-0.86083984375,-5.14501953125
0.0455,4.94482421875,-1.98193359375,-4.10400390625
0.046,4.86474609375,-3.34326171875,-2.90283203125
0.0465,4.74462890625,-4.34423828125,-1.98193359375
0.047,4.50439453125,-5.06494140625,-1.26123046875
0.0475,3.82373046875,-5.30517578125,-0.38037109375
0.048,2.74267578125,-5.46533203125,0.86083984375
0.0485,1.58154296875,-5.90576171875,2.26220703125
0.049,0.62060546875,-6.10595703125,3.50341796875
0.0495,-0.18017578125,-6.34619140625,4.46435546875
0.05,-0.86083984375,-6.34619140625,5.18505859375
0.0505,-1.86181640625,-5.54541015625,5.54541015625
0.051,-3.14306640625,-4.46435546875,5.90576171875
0.0515,-4.34423828125,-3.22314453125,6.14599609375
0.052,-5.10498046875,-2.26220703125,6.26611328125
0.0525,-5.50537109375,-1.58154296875,6.22607421875
0.053,-5.46533203125,-0.82080078125,5.74560546875
0.0535,-5.26513671875,0.26025390625,4.82470703125
0.054,-5.26513671875,1.46142578125,3.86376953125
0.0545,-5.18505859375,2.74267578125,2.74267578125
0.055,-5.06494140625,3.66357421875,1.90185546875
0.0555,-4.78466796875,4.30419921875,1.14111328125
0.056,-3.90380859375,4.54443359375,0.18017578125
0.0565,-2.86279296875,4.78466796875,-1.14111328125
0.057,-1.78173828125,5.14501953125,-2.58251953125
0.0575,-0.98095703125,5.46533203125,-3.70361328125
0.058,-0.30029296875,5.70556640625,-4.62451171875
0.0585,0.62060546875,5.46533203125,-5.22509765625
0.059,1.74169921875,4.54443359375,-5.58544921875
0.0595,2.98291015625,3.50341796875,-5.94580078125
0.06,4.10400390625,2.38232421875,-6.18603515625
0.0605,4.74462890625,1.50146484375,-6.22607421875
0.061,5.02490234375,0.82080078125,-6.14599609375
0.0615,4.90478515625,0.06005859375,-5.46533203125
0.062,4.78466796875,-1.10107421875,-4.62451171875
0.0625,4.78466796875,-2.38232421875,-3.58349609375
0.063,4.74462890625,-3.50341796875,-2.62255859375
0.0635,4.62451171875,-4.34423828125,-1.90185546875
0.064,4.18408203125,-4.82470703125,-1.14111328125
0.0645,3.30322265625,-5.10498046875,0.02001953125
0.065,2.34228515625,-5.42529296875,1.26123046875
0.0655,1.30126953125,-5.74560546875,2.58251953125
0.066,0.58056640625,-6.10595703125,3.66357421875
0.0665,-0.18017578125,-6.34619140625,4.50439453125
0.067,-1.06103515625,-5.86572265625,4.98486328125
0.0675,-2.26220703125,-4.94482421875,5.42529296875
0.068,-3.54345703125,-3.86376953125,5.82568359375
0.0685,-4.50439453125,-2.82275390625,6.02587890625
0.069,-5.06494140625,-2.10205078125,6.10595703125
0.0695,-5.26513671875,-1.42138671875,5.90576171875
0.07,-5.10498046875,-0.58056640625,5.18505859375
0.0705,-5.06494140625,0.62060546875,4.34423828125
0.071,-5.10498046875,1.94189453125,3.30322265625
0.0715,-5.06494140625,2.94287109375,2.46240234375
0.072,-4.94482421875,3.74365234375,1.74169921875
0.0725,-4.34423828125,4.10400390625,0.90087890625
0.073,-3.42333984375,4.38427734375,-0.34033203125
0.0735,-2.50244140625,4.94482421875,-1.70166015625
0.074,-1.50146484375,5.22509765625,-2.94287109375
0.0745,-0.82080078125,5.58544921875,-3.90380859375
0.075,0.02001953125,5.70556640625,-4.74462890625
0.0755,0.98095703125,4.98486328125,-5.18505859375
0.076,2.26220703125,3.98388671875,-5.62548828125
0.0765,3.54345703125,2.86279296875,-6.02587890625
0.077,4.34423828125,1.94189453125,-6.14599609375
0.0775,4.78466796875,1.26123046875,-6.22607421875
0.078,4.82470703125,0.50048828125,-5.74560546875
0.0785,4.74462890625,-0.58056640625,-4.94482421875
0.079,4.78466796875,-1.74169921875,-4.02392578125
0.0795,4.78466796875,-3.02294921875,-3.06298828125
0.08,4.70458984375,-3.94384765625,-2.22216796875
0.0805,4.50439453125,-4.66455078125,-1.46142578125
0.081,3.70361328125,-4.98486328125,-0.58056640625
0.0815,2.70263671875,-5.26513671875,0.78076171875
0.082,1.66162109375,-5.70556640625,2.22216796875
0.0825,0.82080078125,-6.02587890625,3.34326171875
0.083,0.22021484375,-6.34619140625,4.26416015625
0.0835,-0.78076171875,-6.10595703125,4.94482421875
0.084,-1.94189453125,-5.18505859375,5.30517578125
0.0845,-3.22314453125,-4.14404296875,5.74560546875
0.085,-4.34423828125,-2.98291015625,6.02587890625
0.0855,-5.06494140625,-2.14208984375,6.14599609375
0.086,-5.30517578125,-1.46142578125,6.02587890625
0.0865,-5.22509765625,-0.66064453125,5.38525390625
0.087,-5.10498046875,0.50048828125,4.46435546875
0.0875,-5.14501953125,1.86181640625,3.42333984375
0.088,-5.10498046875,2.98291015625,2.46240234375
0.0885,-4.94482421875,3.82373046875,1.62158203125
0.089,-4.50439453125,4.30419921875,0.82080078125
0.0895,-3.50341796875,4.50439453125,-0.34033203125
0.09,-2.50244140625,4.94482421875,-1.66162109375
0.0905,-1.42138671875,5.26513671875,-3.06298828125
0.091,-0.70068359375,5.58544921875,-4.06396484375
0.0915,0.06005859375,5.70556640625,-4.86474609375
0.092,1.02099609375,5.14501953125,-5.38525390625
0.0925,2.26220703125,4.06396484375,-5.74560546875
0.093,3.58349609375,2.90283203125,-6.10595703125
0.0935,4.50439453125,1.86181640625,-6.22607421875
0.094,4.98486328125,1.06103515625,-6.22607421875
0.0945,5.10498046875,0.38037109375,-5.90576171875
0.095,4.86474609375,-0.66064453125,-5.02490234375
0.0955,4.78466796875,-1.82177734375,-4.06396484375
0.096,4.82470703125,-3.18310546875,-2.94287109375
0.0965,4.74462890625,-4.18408203125,-2.06201171875
0.097,4.50439453125,-4.90478515625,-1.30126953125
0.0975,3.78369140625,-5.14501953125,-0.50048828125
0.098,2.70263671875,-5.38525390625,0.78076171875
0.0985,1.62158203125,-5.74560546875,2.26220703125
0.099,0.66064453125,-6.02587890625,3.46337890625
0.0995,0.02001953125,-6.30615234375,4.42431640625
0.1,-0.82080078125,-6.26611328125,5.10498046875
0.1005,-1.94189453125,-5.42529296875,5.46533203125
0.101,-3.26318359375,-4.26416015625,5.90576171875
0.1015,-4.50439453125,-3.02294921875,6.18603515625
0.102,-5.22509765625,-2.06201171875,6.26611328125
0.1025,-5.54541015625,-1.38134765625,6.14599609375
0.103,-5.46533203125,-0.62060546875,5.62548828125
0.1035,-5.26513671875,0.54052734375,4.58447265625
0.104,-5.26513671875,1.86181640625,3.54345703125
0.1045,-5.18505859375,3.06298828125,2.42236328125
0.105,-5.02490234375,3.94384765625,1.58154296875
0.1055,-4.66455078125,4.54443359375,0.82080078125
0.106,-3.70361328125,4.70458984375,-0.26025390625
0.1065,-2.58251953125,4.98486328125,-1.58154296875
0.107,-1.42138671875,5.34521484375,-3.10302734375
0.1075,-0.62060546875,5.58544921875,-4.14404296875
0.108,0.14013671875,5.78564453125,-4.98486328125
0.1085,0.98095703125,5.42529296875,-5.62548828125
0.109,2.26220703125,4.30419921875,-5.90576171875
0.1095,3.62353515625,3.10302734375,-6.30615234375
0.11,4.66455078125,1.90185546875,-6.42626953125
0.1105,5.26513671875,0.98095703125,-6.42626953125
0.111,5.42529296875,0.30029296875,-6.18603515625
0.1115,5.18505859375,-0.70068359375,-5.34521484375
0.112,4.98486328125,-1.90185546875,-4.22412109375
0.1125,4.98486328125,-3.34326171875,-3.06298828125
0.113,4.86474609375,-4.50439453125,-1.98193359375
0.1135,4.62451171875,-5.14501953125,-1.22119140625
0.114,3.98388671875,-5.54541015625,-0.34033203125
0.1145,2.86279296875,-5.66552734375,0.90087890625
0.115,1.58154296875,-6.02587890625,2.42236328125
0.1155,0.46044921875,-6.26611328125,3.86376953125
0.116,-0.38037109375,-6.46630859375,4.82470703125
0.1165,-1.06103515625,-6.50634765625,5.58544921875
0.117,-2.10205078125,-5.74560546875,5.98583984375
0.1175,-3.54345703125,-4.38427734375,6.34619140625
0.118,-4.86474609375,-3.06298828125,6.58642578125
0.1185,-5.74560546875,-1.86181640625,6.58642578125
0.119,-6.10595703125,-1.06103515625,6.46630859375
0.1195,-6.06591796875,-0.26025390625,5.90576171875
0.12,-5.74560546875,0.98095703125,4.74462890625
0.1205,-5.50537109375,2.26220703125,3.50341796875
0.121,-5.42529296875,3.70361328125,2.18212890625
0.1215,-5.18505859375,4.66455078125,1.22119140625
0.122,-4.74462890625,5.18505859375,0.42041015625
0.1225,-3.78369140625,5.34521484375,-0.66064453125
0.123,-2.34228515625,5.42529296875,-2.14208984375
0.1235,-1.02099609375,5.74560546875,-3.78369140625
0.124,0.10009765625,5.90576171875,-4.94482421875
0.1245,0.74072265625,5.94580078125,-5.74560546875
0.125,1.54150390625,5.62548828125,-6.34619140625
0.1255,2.82275390625,4.42431640625,-6.54638671875
0.126,4.18408203125,2.94287109375,-6.78662109375
0.1265,5.38525390625,1.58154296875,-6.86669921875
0.127,5.90576171875,0.50048828125,-6.70654296875
0.1275,5.98583984375,-0.34033203125,-6.42626953125
0.128,5.74560546875,-1.22119140625,-5.58544921875
0.1285,5.34521484375,-2.50244140625,-4.14404296875
0.129,5.14501953125,-3.90380859375,-2.86279296875
0.1295,4.94482421875,-5.06494140625,-1.62158203125
0.13,4.62451171875,-5.78564453125,-0.78076171875
0.1305,4.02392578125,-6.14599609375,0.14013671875
0.131,2.86279296875,-6.10595703125,1.22119140625
0.1315,1.34130859375,-6.26611328125,2.74267578125
0.132,0.06005859375,-6.50634765625,4.34423828125
0.1325,-0.90087890625,-6.54638671875,5.26513671875
0.133,-1.42138671875,-6.58642578125,6.02587890625
0.1335,-2.38232421875,-5.94580078125,6.42626953125
0.134,-3.74365234375,-4.54443359375,6.62646484375
0.1345,-5.06494140625,-3.18310546875,6.86669921875
0.135,-6.02587890625,-1.86181640625,6.78662109375
0.1355,-6.42626953125,-0.94091796875,6.66650390625
0.136,-6.42626953125,-0.14013671875,6.22607421875
0.1365,-6.06591796875,0.86083984375,5.14501953125
0.137,-5.70556640625,2.18212890625,3.78369140625
0.1375,-5.58544921875,3.70361328125,2.42236328125
0.138,-5.26513671875,4.74462890625,1.30126953125
0.1385,-4.90478515625,5.38525390625,0.46044921875
0.139,-4.14404296875,5.58544921875,-0.50048828125
0.1395,-2.74267578125,5.58544921875,-1.78173828125
0.14,-1.34130859375,5.78564453125,-3.34326171875
0.1405,0.02001953125,5.90576171875,-4.82470703125
0.141,0.70068359375,6.06591796875,-5.70556640625
0.1415,1.34130859375,5.90576171875,-6.30615234375
0.142,2.46240234375,4.94482421875,-6.62646484375
0.1425,3.86376953125,3.50341796875,-6.82666015625
0.143,5.10498046875,2.10205078125,-7.02685546875
0.1435,5.82568359375,0.90087890625,-6.86669921875
0.144,6.10595703125,0.10009765625,-6.66650390625
0.1445,5.94580078125,-0.90087890625,-6.06591796875
0.145,5.50537109375,-1.98193359375,-4.78466796875
0.1455,5.26513671875,-3.34326171875,-3.46337890625
0.146,5.10498046875,-4.70458984375,-2.06201171875
0.1465,4.82470703125,-5.62548828125,-1.10107421875
0.147,4.42431640625,-6.14599609375,-0.30029296875
0.1475,3.38330078125,-6.22607421875,0.78076171875
0.148,1.94189453125,-6.26611328125,2.18212890625
0.1485,0.62060546875,-6.50634765625,3.78369140625
0.149,-0.58056640625,-6.58642578125,4.98486328125
0.1495,-1.22119140625,-6.70654296875,5.78564453125
0.15,-1.98193359375,-6.38623046875,6.38623046875
0.1505,-3.22314453125,-5.14501953125,6.58642578125
0.151,-4.62451171875,-3.70361328125,6.82666015625
0.1515,-5.78564453125,-2.30224609375,6.90673828125
0.152,-6.38623046875,-1.22119140625,6.78662109375
0.1525,-6.50634765625,-0.50048828125,6.46630859375
0.153,-6.26611328125,0.50048828125,5.62548828125
0.1535,-5.86572265625,1.74169921875,4.22412109375
0.154,-5.66552734375,3.22314453125,2.86279296875
0.1545,-5.42529296875,4.50439453125,1.62158203125
0.155,-5.10498046875,5.26513671875,0.66064453125
0.1555,-4.50439453125,5.66552734375,-0.26025390625
0.156,-3.26318359375,5.62548828125,-1.34130859375
0.1565,-1.78173828125,5.74560546875,-2.90283203125
0.157,-0.42041015625,5.98583984375,-4.54443359375
0.1575,0.58056640625,6.06591796875,-5.50537109375
0.158,1.22119140625,6.06591796875,-6.26611328125
0.1585,2.10205078125,5.42529296875,-6.70654296875
0.159,3.54345703125,3.94384765625,-6.86669921875
0.1595,4.86474609375,2.54248046875,-7.06689453125
0.16,5.82568359375,1.18115234375,-7.02685546875
0.1605,6.18603515625,0.18017578125,-6.82666015625
0.161,6.18603515625,-0.70068359375,-6.34619140625
0.1615,5.74560546875,-1.74169921875,-5.26513671875
0.162,5.42529296875,-3.02294921875,-3.82373046875
0.1625,5.22509765625,-4.50439453125,-2.42236328125
0.163,4.98486328125,-5.50537109375,-1.30126953125
0.1635,4.54443359375,-6.10595703125,-0.50048828125
0.164,3.70361328125,-6.34619140625,0.50048828125
0.1645,2.38232421875,-6.26611328125,1.78173828125
0.165,0.90087890625,-6.46630859375,3.42333984375
0.1655,-0.46044921875,-6.54638671875,4.82470703125
0.166,-1.14111328125,-6.66650390625,5.66552734375
0.1665,-1.78173828125,-6.54638671875,6.26611328125
0.167,-2.86279296875,-5.58544921875,6.54638671875
0.1675,-4.26416015625,-4.10400390625,6.74658203125
0.168,-5.50537109375,-2.70263671875,6.90673828125
0.1685,-6.18603515625,-1.54150390625,6.74658203125
0.169,-6.42626953125,-0.70068359375,6.54638671875
0.1695,-6.34619140625,0.14013671875,5.90576171875
0.17,-5.86572265625,1.30126953125,4.74462890625
0.1705,-5.62548828125,2.58251953125,3.38330078125
0.171,-5.42529296875,3.94384765625,2.06201171875
0.1715,-5.14501953125,4.82470703125,1.06103515625
0.172,-4.70458984375,5.38525390625,0.30029296875
0.1725,-3.78369140625,5.46533203125,-0.70068359375
0.173,-2.42236328125,5.46533203125,-2.06201171875
0.1735,-1.06103515625,5.74560546875,-3.66357421875
0.174,0.10009765625,5.82568359375,-4.82470703125
0.1745,0.78076171875,5.90576171875,-5.66552734375
0.175,1.42138671875,5.70556640625,-6.22607421875
0.1755,2.58251953125,4.54443359375,-6.42626953125
0.176,3.90380859375,3.26318359375,-6.70654296875
0.1765,5.06494140625,1.90185546875,-6.82666015625
0.177,5.70556640625,0.82080078125,-6.70654296875
0.1775,5.82568359375,0.10009765625,-6.50634765625
0.178,5.62548828125,-0.78076171875,-5.74560546875
0.1785,5.26513671875,-1.90185546875,-4.54443359375
0.179,5.14501953125,-3.26318359375,-3.30322265625
0.1795,4.98486328125,-4.50439453125,-2.10205078125
0.18,4.78466796875,-5.34521484375,-1.22119140625
0.1805,4.30419921875,-5.82568359375,-0.50048828125
0.181,3.26318359375,-5.90576171875,0.66064453125
0.1815,1.94189453125,-6.06591796875,2.06201171875
0.182,0.66064453125,-6.34619140625,3.58349609375
0.1825,-0.34033203125,-6.46630859375,4.66455078125
0.183,-0.98095703125,-6.62646484375,5.46533203125
0.1835,-1.78173828125,-6.14599609375,6.02587890625
0.184,-3.14306640625,-4.94482421875,6.26611328125
0.1845,-4.46435546875,-3.66357421875,6.54638671875
0.185,-5.46533203125,-2.38232421875,6.62646484375
0.1855,-6.02587890625,-1.46142578125,6.54638671875
0.186,-6.10595703125,-0.66064453125,6.22607421875
0.1865,-5.78564453125,0.30029296875,5.34521484375
0.187,-5.58544921875,1.50146484375,4.14404296875
0.1875,-5.42529296875,2.94287109375,2.86279296875
0.188,-5.26513671875,4.02392578125,1.78173828125
0.1885,-4.98486328125,4.78466796875,0.94091796875
0.189,-4.30419921875,5.10498046875,0.14013671875
0.1895,-3.10302734375,5.14501953125,-1.14111328125
0.19,-1.90185546875,5.46533203125,-2.62255859375
0.1905,-0.66064453125,5.62548828125,-4.02392578125
0.191,0.14013671875,5.78564453125,-4.98486328125
0.1915,0.78076171875,5.82568359375,-5.70556640625
0.192,1.78173828125,5.06494140625,-6.02587890625
0.1925,3.06298828125,3.78369140625,-6.26611328125
0.193,4.34423828125,2.46240234375,-6.54638671875
0.1935,5.10498046875,1.30126953125,-6.54638671875
0.194,5.50537109375,0.62060546875,-6.38623046875
0.1945,5.46533203125,-0.26025390625,-5.94580078125
0.195,5.10498046875,-1.18115234375,-4.94482421875
0.1955,4.98486328125,-2.38232421875,-3.86376953125
0.196,4.86474609375,-3.70361328125,-2.62255859375
0.1965,4.74462890625,-4.62451171875,-1.74169921875
0.197,4.42431640625,-5.26513671875,-0.98095703125
0.1975,3.62353515625,-5.46533203125,0.02001953125
0.198,2.50244140625,-5.62548828125,1.14111328125
0.1985,1.34130859375,-5.94580078125,2.62255859375
0.199,0.34033203125,-6.14599609375,3.82373046875
