wavelength,x,y,z
0.0,-1.311279296875,-6.396240234375,5.575439453125
0.0005,-2.352294921875,-5.715576171875,6.055908203125
0.001,-3.673583984375,-4.554443359375,6.416259765625
0.0015,-4.794677734375,-3.473388671875,6.656494140625
0.002,-5.435302734375,-2.232177734375,6.496337890625
0.0025,-5.915771484375,-1.271240234375,6.376220703125
0.003,-5.955810546875,-0.470458984375,5.895751953125
0.0035,-5.755615234375,0.730712890625,4.854736328125
0.004,-5.635498046875,1.931884765625,3.853759765625
0.0045,-5.435302734375,3.173095703125,2.692626953125
0.005,-5.114990234375,4.134033203125,1.571533203125
0.0055,-4.794677734375,4.814697265625,0.690673828125
0.006,-3.913818359375,5.094970703125,-0.350341796875
0.0065,-2.832763671875,5.335205078125,-1.591552734375
0.007,-1.711669921875,5.655517578125,-2.992919921875
0.0075,-0.630615234375,5.655517578125,-4.154052734375
0.008,0.290283203125,5.735595703125,-5.034912109375
0.0085,1.010986328125,5.535400390625,-5.715576171875
0.009,2.252197265625,4.534423828125,-6.115966796875
0.0095,3.373291015625,3.533447265625,-6.476318359375
0.01,4.414306640625,2.372314453125,-6.596435546875
0.0105,5.054931640625,1.291259765625,-6.396240234375
0.011,5.375244140625,0.490478515625,-6.236083984375
0.0115,5.335205078125,-0.550537109375,-5.595458984375
0.012,5.135009765625,-1.591552734375,-4.594482421875
0.0125,5.094970703125,-2.832763671875,-3.593505859375
0.013,4.814697265625,-3.913818359375,-2.512451171875
0.0135,4.534423828125,-4.794677734375,-1.551513671875
0.014,4.174072265625,-5.435302734375,-0.670654296875
0.0145,3.253173828125,-5.635498046875,0.450439453125
0.015,2.212158203125,-5.915771484375,1.731689453125
0.0155,1.091064453125,-6.156005859375,3.052978515625
0.016,0.130126953125,-6.236083984375,4.053955078125
0.0165,-0.630615234375,-6.396240234375,4.934814453125
0.017,-1.551513671875,-6.035888671875,5.535400390625
0.0175,-2.832763671875,-4.954833984375,5.895751953125
0.018,-3.913818359375,-3.953857421875,6.256103515625
0.0185,-4.794677734375,-2.832763671875,6.296142578125
0.019,-5.395263671875,-1.791748046875,6.176025390625
0.0195,-5.635498046875,-0.990966796875,5.895751953125
0.02,-5.515380859375,0.010009765625,5.175048828125
0.0205,-5.435302734375,1.091064453125,4.294189453125
0.021,-5.355224609375,2.292236328125,3.293212890625
0.0215,-5.114990234375,3.293212890625,2.212158203125
0.022,-4.874755859375,4.134033203125,1.291259765625
0.0225,-4.274169921875,4.614501953125,0.450439453125
0.023,-3.313232421875,4.814697265625,-0.750732421875
0.0235,-2.392333984375,5.255126953125,-1.951904296875
0.024,-1.271240234375,5.375244140625,-3.233154296875
0.0245,-0.510498046875,5.415283203125,-4.154052734375
0.025,0.290283203125,5.535400390625,-4.954833984375
0.0255,1.211181640625,4.974853515625,-5.475341796875
0.026,2.412353515625,4.093994140625,-5.875732421875
0.0265,3.533447265625,3.133056640625,-6.196044921875
0.027,4.294189453125,1.971923828125,-6.156005859375
0.0275,4.814697265625,1.171142578125,-6.115966796875
0.028,5.014892578125,0.330322265625,-5.795654296875
0.0285,4.894775390625,-0.670654296875,-5.034912109375
0.029,4.894775390625,-1.671630859375,-4.314208984375
0.0295,4.814697265625,-2.872802734375,-3.273193359375
0.03,4.614501953125,-3.833740234375,-2.312255859375
0.0305,4.454345703125,-4.674560546875,-1.471435546875
0.031,3.813720703125,-5.074951171875,-0.590576171875
0.0315,2.892822265625,-5.435302734375,0.610595703125
0.032,2.011962890625,-5.795654296875,1.891845703125
0.0325,0.970947265625,-5.955810546875,2.972900390625
0.033,0.290283203125,-6.236083984375,3.893798828125
0.0335,-0.630615234375,-6.196044921875,4.694580078125
0.034,-1.671630859375,-5.435302734375,5.255126953125
0.0345,-2.832763671875,-4.634521484375,5.735595703125
0.035,-3.873779296875,-3.593505859375,5.975830078125
0.0355,-4.594482421875,-2.592529296875,5.935791015625
0.036,-5.114990234375,-1.791748046875,5.895751953125
0.0365,-5.195068359375,-0.990966796875,5.455322265625
0.037,-5.155029296875,0.130126953125,4.694580078125
0.0375,-5.235107421875,1.211181640625,3.973876953125
0.038,-5.114990234375,2.292236328125,3.012939453125
0.0385,-4.874755859375,3.173095703125,2.092041015625
0.039,-4.634521484375,3.893798828125,1.291259765625
0.0395,-3.913818359375,4.334228515625,0.290283203125
0.04,-3.113037109375,4.734619140625,-0.910888671875
0.0405,-2.152099609375,5.054931640625,-2.192138671875
0.041,-1.271240234375,5.175048828125,-3.193115234375
0.0415,-0.590576171875,5.455322265625,-4.154052734375
0.042,0.370361328125,5.295166015625,-4.834716796875
0.0425,1.451416015625,4.494384765625,-5.275146484375
0.043,2.572509765625,3.733642578125,-5.755615234375
0.0435,3.533447265625,2.692626953125,-5.915771484375
0.044,4.214111328125,1.771728515625,-5.955810546875
0.0445,4.614501953125,1.010986328125,-5.835693359375
0.045,4.654541015625,0.170166015625,-5.315185546875
0.0455,4.734619140625,-0.870849609375,-4.674560546875
0.046,4.774658203125,-2.031982421875,-3.873779296875
0.0465,4.614501953125,-3.072998046875,-2.912841796875
0.047,4.534423828125,-3.993896484375,-2.072021484375
0.0475,4.134033203125,-4.634521484375,-1.231201171875
0.048,3.373291015625,-4.994873046875,-0.190185546875
0.0485,2.612548828125,-5.555419921875,1.051025390625
0.049,1.571533203125,-5.795654296875,2.292236328125
0.0495,0.810791015625,-6.075927734375,3.253173828125
0.05,0.090087890625,-6.196044921875,4.174072265625
0.0505,-0.990966796875,-5.755615234375,4.854736328125
0.051,-2.192138671875,-4.994873046875,5.375244140625
0.0515,-3.353271484375,-4.073974609375,5.815673828125
0.052,-4.194091796875,-2.992919921875,5.815673828125
0.0525,-4.834716796875,-2.192138671875,5.895751953125
0.053,-5.114990234375,-1.311279296875,5.655517578125
0.0535,-5.114990234375,-0.430419921875,4.974853515625
0.054,-5.195068359375,0.730712890625,4.294189453125
0.0545,-5.155029296875,1.891845703125,3.333251953125
0.055,-4.994873046875,2.852783203125,2.412353515625
0.0555,-4.834716796875,3.733642578125,1.571533203125
0.056,-4.194091796875,4.174072265625,0.610595703125
0.0565,-3.353271484375,4.494384765625,-0.590576171875
0.057,-2.512451171875,5.014892578125,-1.831787109375
0.0575,-1.551513671875,5.094970703125,-2.992919921875
0.058,-0.790771484375,5.415283203125,-3.913818359375
0.0585,0.130126953125,5.415283203125,-4.714599609375
0.059,1.211181640625,4.734619140625,-5.195068359375
0.0595,2.372314453125,3.893798828125,-5.715576171875
0.06,3.453369140625,2.852783203125,-5.995849609375
0.0605,4.134033203125,1.851806640625,-5.955810546875
0.061,4.654541015625,1.091064453125,-6.035888671875
0.0615,4.774658203125,0.250244140625,-5.515380859375
0.062,4.734619140625,-0.830810546875,-4.714599609375
0.0625,4.814697265625,-1.951904296875,-3.993896484375
0.063,4.654541015625,-3.072998046875,-2.992919921875
0.0635,4.534423828125,-3.993896484375,-2.112060546875
0.064,4.214111328125,-4.714599609375,-1.271240234375
0.0645,3.533447265625,-5.114990234375,-0.310302734375
0.065,2.612548828125,-5.475341796875,0.970947265625
0.0655,1.651611328125,-5.915771484375,2.172119140625
0.066,0.730712890625,-5.955810546875,3.333251953125
0.0665,0.050048828125,-6.276123046875,4.214111328125
0.067,-0.990966796875,-5.955810546875,4.974853515625
0.0675,-2.192138671875,-5.074951171875,5.415283203125
0.068,-3.313232421875,-4.194091796875,5.895751953125
0.0685,-4.274169921875,-3.072998046875,6.015869140625
0.069,-4.914794921875,-2.112060546875,5.975830078125
0.0695,-5.275146484375,-1.311279296875,5.775634765625
0.07,-5.275146484375,-0.430419921875,5.175048828125
0.0705,-5.195068359375,0.730712890625,4.334228515625
0.071,-5.275146484375,1.931884765625,3.453369140625
0.0715,-5.074951171875,2.932861328125,2.412353515625
0.072,-4.874755859375,3.853759765625,1.571533203125
0.0725,-4.354248046875,4.334228515625,0.650634765625
0.073,-3.393310546875,4.614501953125,-0.550537109375
0.0735,-2.512451171875,5.094970703125,-1.831787109375
0.074,-1.431396484375,5.295166015625,-3.072998046875
0.0745,-0.670654296875,5.415283203125,-3.993896484375
0.075,0.130126953125,5.535400390625,-4.834716796875
0.0755,1.211181640625,4.974853515625,-5.395263671875
0.076,2.412353515625,4.013916015625,-5.795654296875
0.0765,3.533447265625,3.012939453125,-6.196044921875
0.077,4.334228515625,1.891845703125,-6.156005859375
0.0775,4.854736328125,1.051025390625,-6.156005859375
0.078,5.054931640625,0.250244140625,-5.755615234375
0.0785,4.934814453125,-0.910888671875,-4.914794921875
0.079,4.934814453125,-1.951904296875,-4.114013671875
0.0795,4.854736328125,-3.193115234375,-3.072998046875
0.08,4.614501953125,-4.194091796875,-2.031982421875
0.0805,4.414306640625,-4.994873046875,-1.191162109375
0.081,3.693603515625,-5.395263671875,-0.270263671875
0.0815,2.572509765625,-5.635498046875,1.131103515625
0.082,1.651611328125,-6.035888671875,2.412353515625
0.0825,0.610595703125,-6.115966796875,3.573486328125
0.083,-0.230224609375,-6.316162109375,4.494384765625
0.0835,-1.071044921875,-6.156005859375,5.255126953125
0.084,-2.272216796875,-5.275146484375,5.735595703125
0.0845,-3.553466796875,-4.234130859375,6.176025390625
0.085,-4.594482421875,-3.072998046875,6.376220703125
0.0855,-5.275146484375,-1.991943359375,6.216064453125
0.086,-5.635498046875,-1.191162109375,6.095947265625
0.0865,-5.635498046875,-0.270263671875,5.455322265625
0.087,-5.475341796875,1.051025390625,4.414306640625
0.0875,-5.475341796875,2.292236328125,3.413330078125
0.088,-5.275146484375,3.413330078125,2.292236328125
0.0885,-4.994873046875,4.254150390625,1.291259765625
0.089,-4.514404296875,4.854736328125,0.450439453125
0.0895,-3.593505859375,5.014892578125,-0.790771484375
0.09,-2.352294921875,5.415283203125,-2.192138671875
0.0905,-1.231201171875,5.695556640625,-3.593505859375
0.091,-0.270263671875,5.695556640625,-4.554443359375
0.0915,0.570556640625,5.775634765625,-5.435302734375
0.092,1.531494140625,5.255126953125,-5.995849609375
0.0925,2.892822265625,4.013916015625,-6.396240234375
0.093,4.093994140625,2.932861328125,-6.676513671875
0.0935,4.974853515625,1.691650390625,-6.676513671875
0.094,5.455322265625,0.690673828125,-6.436279296875
0.0945,5.615478515625,-0.270263671875,-6.115966796875
0.095,5.415283203125,-1.311279296875,-5.114990234375
0.0955,5.255126953125,-2.552490234375,-3.993896484375
0.096,5.135009765625,-3.873779296875,-2.832763671875
0.0965,4.814697265625,-4.914794921875,-1.711669921875
0.097,4.494384765625,-5.715576171875,-0.830810546875
0.0975,3.773681640625,-6.115966796875,0.130126953125
0.098,2.532470703125,-6.156005859375,1.531494140625
0.0985,1.291259765625,-6.436279296875,3.012939453125
0.099,0.130126953125,-6.476318359375,4.254150390625
0.0995,-0.750732421875,-6.476318359375,5.094970703125
0.1,-1.511474609375,-6.396240234375,5.815673828125
0.1005,-2.712646484375,-5.475341796875,6.336181640625
0.101,-4.114013671875,-4.194091796875,6.656494140625
0.1015,-5.155029296875,-2.952880859375,6.856689453125
0.102,-5.795654296875,-1.751708984375,6.576416015625
0.1025,-6.156005859375,-0.830810546875,6.376220703125
0.103,-6.156005859375,0.170166015625,5.735595703125
0.1035,-5.875732421875,1.371337890625,4.534423828125
0.104,-5.715576171875,2.612548828125,3.413330078125
0.1045,-5.475341796875,3.853759765625,2.172119140625
0.105,-5.074951171875,4.654541015625,1.091064453125
0.1055,-4.554443359375,5.295166015625,0.170166015625
0.106,-3.673583984375,5.535400390625,-0.950927734375
0.1065,-2.312255859375,5.655517578125,-2.312255859375
0.107,-1.151123046875,5.935791015625,-3.793701171875
0.1075,0.090087890625,5.855712890625,-4.874755859375
0.108,0.810791015625,5.855712890625,-5.675537109375
0.1085,1.611572265625,5.535400390625,-6.276123046875
0.109,2.892822265625,4.414306640625,-6.596435546875
0.1095,4.134033203125,3.173095703125,-6.916748046875
0.11,5.094970703125,1.931884765625,-6.916748046875
0.1105,5.695556640625,0.730712890625,-6.596435546875
0.111,5.895751953125,-0.190185546875,-6.396240234375
0.1115,5.735595703125,-1.151123046875,-5.595458984375
0.112,5.455322265625,-2.392333984375,-4.354248046875
0.1125,5.335205078125,-3.713623046875,-3.193115234375
0.113,4.974853515625,-4.834716796875,-1.991943359375
0.1135,4.614501953125,-5.555419921875,-0.910888671875
0.114,4.093994140625,-6.115966796875,0.010009765625
0.1145,2.972900390625,-6.276123046875,1.131103515625
0.115,1.651611328125,-6.436279296875,2.612548828125
0.1155,0.450439453125,-6.636474609375,4.013916015625
0.116,-0.630615234375,-6.556396484375,4.974853515625
0.1165,-1.311279296875,-6.596435546875,5.775634765625
0.117,-2.312255859375,-5.995849609375,6.336181640625
0.1175,-3.713623046875,-4.674560546875,6.656494140625
0.118,-4.834716796875,-3.513427734375,6.896728515625
0.1185,-5.715576171875,-2.232177734375,6.776611328125
0.119,-6.156005859375,-1.151123046875,6.496337890625
0.1195,-6.276123046875,-0.310302734375,6.095947265625
0.12,-6.075927734375,0.890869140625,5.094970703125
0.1205,-5.835693359375,2.092041015625,3.893798828125
0.121,-5.675537109375,3.413330078125,2.692626953125
0.1215,-5.395263671875,4.334228515625,1.531494140625
0.122,-4.874755859375,5.135009765625,0.610595703125
0.1225,-4.114013671875,5.495361328125,-0.470458984375
0.123,-2.872802734375,5.615478515625,-1.751708984375
0.1235,-1.631591796875,5.895751953125,-3.193115234375
0.124,-0.390380859375,5.895751953125,-4.514404296875
0.1245,0.570556640625,5.855712890625,-5.355224609375
0.125,1.251220703125,5.775634765625,-6.075927734375
0.1255,2.332275390625,4.974853515625,-6.476318359375
0.126,3.653564453125,3.653564453125,-6.756591796875
0.1265,4.774658203125,2.452392578125,-6.956787109375
0.127,5.415283203125,1.211181640625,-6.756591796875
0.1275,5.815673828125,0.290283203125,-6.556396484375
0.128,5.815673828125,-0.710693359375,-5.955810546875
0.1285,5.535400390625,-1.951904296875,-4.834716796875
0.129,5.375244140625,-3.193115234375,-3.713623046875
0.1295,5.135009765625,-4.554443359375,-2.552490234375
0.13,4.774658203125,-5.315185546875,-1.311279296875
0.1305,4.414306640625,-5.995849609375,-0.510498046875
0.131,3.493408203125,-6.236083984375,0.650634765625
0.1315,2.212158203125,-6.396240234375,2.052001953125
0.132,0.970947265625,-6.676513671875,3.533447265625
0.1325,-0.310302734375,-6.596435546875,4.694580078125
0.133,-1.031005859375,-6.676513671875,5.495361328125
0.1335,-1.951904296875,-6.356201171875,6.176025390625
0.134,-3.193115234375,-5.195068359375,6.576416015625
0.1345,-4.514404296875,-3.993896484375,6.896728515625
0.135,-5.515380859375,-2.712646484375,6.976806640625
0.1355,-6.115966796875,-1.471435546875,6.656494140625
0.136,-6.396240234375,-0.630615234375,6.376220703125
0.1365,-6.236083984375,0.450439453125,5.535400390625
0.137,-5.915771484375,1.771728515625,4.294189453125
0.1375,-5.755615234375,3.052978515625,3.052978515625
0.138,-5.475341796875,4.214111328125,1.851806640625
0.1385,-4.994873046875,5.014892578125,0.850830078125
0.139,-4.474365234375,5.535400390625,-0.190185546875
0.1395,-3.353271484375,5.655517578125,-1.351318359375
0.14,-1.991943359375,5.855712890625,-2.832763671875
0.1405,-0.710693359375,6.015869140625,-4.234130859375
0.141,0.410400390625,5.895751953125,-5.195068359375
0.1415,1.051025390625,5.895751953125,-5.955810546875
0.142,2.011962890625,5.295166015625,-6.436279296875
0.1425,3.373291015625,3.973876953125,-6.716552734375
0.143,4.494384765625,2.812744140625,-6.996826171875
0.1435,5.335205078125,1.531494140625,-6.876708984375
0.144,5.735595703125,0.490478515625,-6.596435546875
0.1445,5.895751953125,-0.510498046875,-6.156005859375
0.145,5.615478515625,-1.551513671875,-5.235107421875
0.1455,5.415283203125,-2.632568359375,-3.993896484375
0.146,5.215087890625,-3.993896484375,-2.832763671875
0.1465,4.814697265625,-4.994873046875,-1.671630859375
0.147,4.494384765625,-5.755615234375,-0.750732421875
0.1475,3.813720703125,-6.115966796875,0.290283203125
0.148,2.612548828125,-6.196044921875,1.411376953125
0.1485,1.411376953125,-6.476318359375,2.852783203125
0.149,0.170166015625,-6.516357421875,4.134033203125
0.1495,-0.790771484375,-6.476318359375,5.054931640625
0.15,-1.431396484375,-6.436279296875,5.735595703125
0.1505,-2.512451171875,-5.715576171875,6.216064453125
0.151,-3.833740234375,-4.474365234375,6.536376953125
0.1515,-4.874755859375,-3.313232421875,6.736572265625
0.152,-5.635498046875,-2.072021484375,6.576416015625
0.1525,-6.075927734375,-1.151123046875,6.416259765625
0.153,-6.115966796875,-0.310302734375,5.895751953125
0.1535,-5.955810546875,0.810791015625,4.934814453125
0.154,-5.715576171875,2.092041015625,3.813720703125
0.1545,-5.515380859375,3.333251953125,2.612548828125
0.155,-5.155029296875,4.294189453125,1.491455078125
0.1555,-4.794677734375,5.014892578125,0.610595703125
0.156,-3.913818359375,5.255126953125,-0.470458984375
0.1565,-2.752685546875,5.415283203125,-1.711669921875
0.157,-1.631591796875,5.775634765625,-3.153076171875
0.1575,-0.470458984375,5.735595703125,-4.314208984375
0.158,0.410400390625,5.775634765625,-5.155029296875
0.1585,1.171142578125,5.575439453125,-5.795654296875
0.159,2.292236328125,4.654541015625,-6.196044921875
0.1595,3.533447265625,3.573486328125,-6.556396484375
0.16,4.534423828125,2.372314453125,-6.676513671875
0.1605,5.135009765625,1.211181640625,-6.436279296875
0.161,5.495361328125,0.370361328125,-6.316162109375
0.1615,5.295166015625,-0.750732421875,-5.715576171875
0.162,5.215087890625,-1.671630859375,-4.634521484375
0.1625,5.135009765625,-2.872802734375,-3.593505859375
0.163,4.894775390625,-3.993896484375,-2.472412109375
0.1635,4.614501953125,-4.874755859375,-1.471435546875
0.164,4.214111328125,-5.475341796875,-0.630615234375
0.1645,3.333251953125,-5.755615234375,0.490478515625
0.165,2.212158203125,-5.955810546875,1.731689453125
0.1655,1.131103515625,-6.236083984375,3.052978515625
0.166,0.130126953125,-6.236083984375,4.093994140625
0.1665,-0.630615234375,-6.396240234375,4.934814453125
0.167,-1.551513671875,-6.035888671875,5.535400390625
0.1675,-2.752685546875,-4.994873046875,5.895751953125
0.168,-3.873779296875,-3.993896484375,6.296142578125
0.1685,-4.754638671875,-2.912841796875,6.336181640625
0.169,-5.395263671875,-1.871826171875,6.176025390625
0.1695,-5.515380859375,-1.031005859375,5.895751953125
0.17,-5.555419921875,-0.150146484375,5.255126953125
0.1705,-5.395263671875,0.970947265625,4.334228515625
0.171,-5.395263671875,2.172119140625,3.333251953125
0.1715,-5.114990234375,3.213134765625,2.292236328125
0.172,-4.874755859375,4.053955078125,1.411376953125
0.1725,-4.354248046875,4.614501953125,0.570556640625
0.173,-3.473388671875,4.814697265625,-0.630615234375
0.1735,-2.512451171875,5.175048828125,-1.831787109375
0.174,-1.431396484375,5.375244140625,-3.113037109375
0.1745,-0.590576171875,5.455322265625,-4.073974609375
0.175,0.210205078125,5.615478515625,-4.874755859375
0.1755,1.131103515625,5.094970703125,-5.435302734375
0.176,2.292236328125,4.174072265625,-5.835693359375
0.1765,3.413330078125,3.213134765625,-6.156005859375
0.177,4.214111328125,2.052001953125,-6.196044921875
0.1775,4.654541015625,1.211181640625,-6.115966796875
0.178,5.054931640625,0.450439453125,-5.875732421875
0.1785,4.934814453125,-0.590576171875,-5.155029296875
0.179,4.894775390625,-1.591552734375,-4.394287109375
0.1795,4.854736328125,-2.792724609375,-3.393310546875
0.18,4.654541015625,-3.793701171875,-2.392333984375
0.1805,4.494384765625,-4.634521484375,-1.591552734375
0.181,3.853759765625,-5.074951171875,-0.630615234375
0.1815,3.012939453125,-5.395263671875,0.530517578125
0.182,2.092041015625,-5.835693359375,1.771728515625
0.1825,1.091064453125,-5.955810546875,2.932861328125
0.183,0.330322265625,-6.196044921875,3.973876953125
0.1835,-0.590576171875,-6.156005859375,4.734619140625
0.184,-1.631591796875,-5.515380859375,5.255126953125
0.1845,-2.872802734375,-4.754638671875,5.695556640625
0.185,-3.873779296875,-3.713623046875,6.015869140625
0.1855,-4.634521484375,-2.712646484375,5.815673828125
0.186,-5.114990234375,-1.791748046875,5.935791015625
0.1865,-5.275146484375,-0.990966796875,5.575439453125
0.187,-5.155029296875,0.130126953125,4.734619140625
0.1875,-5.195068359375,1.211181640625,3.973876953125
0.188,-5.114990234375,2.292236328125,3.012939453125
