wavelength,x,y,z
0.0,0.930908203125,-3.993896484375,2.492431640625
0.0005,1.771728515625,-4.354248046875,1.891845703125
0.001,2.212158203125,-4.033935546875,1.251220703125
0.0015,2.732666015625,-4.154052734375,0.770751953125
0.002,2.852783203125,-3.553466796875,0.130126953125
0.0025,3.173095703125,-3.393310546875,-0.350341796875
0.003,3.333251953125,-2.632568359375,-1.231201171875
0.0035,3.493408203125,-2.192138671875,-1.791748046875
0.004,3.253173828125,-1.271240234375,-2.472412109375
0.0045,3.093017578125,-0.670654296875,-2.872802734375
0.005,2.612548828125,0.130126953125,-3.153076171875
0.0055,2.292236328125,0.770751953125,-3.513427734375
0.006,1.731689453125,1.691650390625,-3.833740234375
0.0065,1.091064453125,2.172119140625,-3.593505859375
0.007,0.530517578125,2.812744140625,-3.713623046875
0.0075,-0.270263671875,3.052978515625,-3.193115234375
0.008,-0.910888671875,3.493408203125,-2.912841796875
0.0085,-1.911865234375,3.653564453125,-2.192138671875
0.009,-2.672607421875,3.853759765625,-1.631591796875
0.0095,-3.072998046875,3.533447265625,-0.950927734375
0.01,-3.553466796875,3.573486328125,-0.510498046875
0.0105,-3.673583984375,3.012939453125,0.290283203125
0.011,-3.913818359375,2.692626953125,0.850830078125
0.0115,-4.154052734375,1.931884765625,1.811767578125
0.012,-4.033935546875,1.211181640625,2.372314453125
0.0125,-3.873779296875,0.370361328125,3.052978515625
0.013,-3.473388671875,-0.430419921875,3.333251953125
0.0135,-3.032958984375,-1.191162109375,3.693603515625
0.014,-2.432373046875,-2.031982421875,3.893798828125
0.0145,-1.751708984375,-2.952880859375,4.093994140625
0.015,-0.990966796875,-3.353271484375,3.693603515625
0.0155,-0.470458984375,-3.953857421875,3.773681640625
0.016,0.530517578125,-4.114013671875,3.012939453125
0.0165,1.211181640625,-4.514404296875,2.612548828125
0.017,2.292236328125,-4.674560546875,1.691650390625
0.0175,2.932861328125,-4.634521484375,1.010986328125
0.018,3.333251953125,-4.194091796875,0.330322265625
0.0185,3.573486328125,-3.993896484375,-0.190185546875
0.019,3.693603515625,-3.273193359375,-0.990966796875
0.0195,3.853759765625,-2.752685546875,-1.591552734375
0.02,4.093994140625,-1.951904296875,-2.632568359375
0.0205,3.573486328125,-0.990966796875,-3.072998046875
0.021,3.493408203125,-0.270263671875,-3.673583984375
0.0215,2.732666015625,0.610595703125,-3.793701171875
0.022,2.292236328125,1.371337890625,-4.073974609375
0.0225,1.571533203125,2.292236328125,-4.234130859375
0.023,0.770751953125,3.173095703125,-4.274169921875
0.0235,0.010009765625,3.453369140625,-3.713623046875
0.024,-0.630615234375,3.973876953125,-3.713623046875
0.0245,-1.791748046875,4.093994140625,-2.712646484375
0.025,-2.432373046875,4.214111328125,-2.272216796875
0.0255,-3.553466796875,4.414306640625,-1.311279296875
0.026,-3.993896484375,4.093994140625,-0.510498046875
0.0265,-4.354248046875,3.813720703125,0.170166015625
0.027,-4.514404296875,3.333251953125,0.770751953125
0.0275,-4.634521484375,2.532470703125,1.651611328125
0.028,-4.634521484375,1.851806640625,2.292236328125
0.0285,-4.834716796875,0.970947265625,3.373291015625
0.029,-4.073974609375,-0.150146484375,3.693603515625
0.0295,-3.953857421875,-0.830810546875,4.214111328125
0.03,-2.912841796875,-1.951904296875,4.334228515625
0.0305,-2.432373046875,-2.712646484375,4.494384765625
0.031,-1.471435546875,-3.673583984375,4.494384765625
0.0315,-0.630615234375,-4.434326171875,4.374267578125
0.032,0.250244140625,-4.634521484375,3.773681640625
0.0325,0.970947265625,-5.155029296875,3.533447265625
0.033,2.252197265625,-5.235107421875,2.292236328125
0.0335,2.812744140625,-5.275146484375,1.771728515625
0.034,3.893798828125,-5.275146484375,0.770751953125
0.0345,4.214111328125,-4.714599609375,0.010009765625
0.035,4.494384765625,-4.314208984375,-0.670654296875
0.0355,4.614501953125,-3.593505859375,-1.591552734375
0.036,4.614501953125,-2.712646484375,-2.512451171875
0.0365,4.494384765625,-1.871826171875,-3.113037109375
0.037,4.534423828125,-0.910888671875,-4.114013671875
0.0375,3.573486328125,0.290283203125,-4.314208984375
0.038,3.373291015625,0.970947265625,-4.714599609375
0.0385,2.212158203125,2.252197265625,-4.794677734375
0.039,1.571533203125,2.932861328125,-4.834716796875
0.0395,0.530517578125,3.853759765625,-4.674560546875
0.04,-0.390380859375,4.494384765625,-4.434326171875
0.0405,-1.231201171875,4.574462890625,-3.713623046875
0.041,-2.072021484375,4.974853515625,-3.273193359375
0.0415,-3.473388671875,5.014892578125,-1.991943359375
0.042,-3.913818359375,4.854736328125,-1.311279296875
0.0425,-4.954833984375,4.814697265625,-0.310302734375
0.043,-5.114990234375,4.134033203125,0.610595703125
0.0435,-5.275146484375,3.693603515625,1.211181640625
0.044,-5.395263671875,2.732666015625,2.212158203125
0.0445,-5.395263671875,1.851806640625,3.133056640625
0.045,-4.994873046875,0.810791015625,3.693603515625
0.0455,-4.994873046875,-0.150146484375,4.614501953125
0.046,-3.873779296875,-1.351318359375,4.654541015625
0.0465,-3.633544921875,-2.031982421875,5.054931640625
0.047,-2.272216796875,-3.433349609375,5.054931640625
0.0475,-1.631591796875,-4.033935546875,4.974853515625
0.048,-0.510498046875,-4.834716796875,4.654541015625
0.0485,0.410400390625,-5.435302734375,4.334228515625
0.049,1.251220703125,-5.475341796875,3.533447265625
0.0495,2.172119140625,-5.795654296875,2.932861328125
0.05,3.533447265625,-5.795654296875,1.651611328125
0.0505,3.973876953125,-5.435302734375,0.930908203125
0.051,4.814697265625,-5.315185546875,-0.070068359375
0.0515,4.854736328125,-4.514404296875,-0.990966796875
0.052,5.054931640625,-4.033935546875,-1.551513671875
0.0525,5.054931640625,-2.952880859375,-2.632568359375
0.053,5.054931640625,-2.072021484375,-3.473388671875
0.0535,4.534423828125,-0.990966796875,-4.033935546875
0.054,4.494384765625,0.010009765625,-4.874755859375
0.0545,3.293212890625,1.171142578125,-4.834716796875
0.055,3.052978515625,1.771728515625,-5.155029296875
0.0555,1.611572265625,3.213134765625,-5.195068359375
0.056,0.970947265625,3.813720703125,-5.074951171875
0.0565,-0.230224609375,4.534423828125,-4.674560546875
0.057,-1.111083984375,4.974853515625,-4.274169921875
0.0575,-1.951904296875,5.014892578125,-3.513427734375
0.058,-2.952880859375,5.295166015625,-2.712646484375
0.0585,-4.234130859375,5.375244140625,-1.511474609375
0.059,-4.634521484375,4.854736328125,-0.630615234375
0.0595,-5.435302734375,4.734619140625,0.290283203125
0.06,-5.435302734375,3.853759765625,1.171142578125
0.0605,-5.555419921875,3.373291015625,1.771728515625
0.061,-5.515380859375,2.132080078125,2.932861328125
0.0615,-5.475341796875,1.291259765625,3.693603515625
0.062,-4.874755859375,0.130126953125,4.214111328125
0.0625,-4.674560546875,-0.790771484375,4.934814453125
0.063,-3.553466796875,-1.951904296875,4.894775390625
0.0635,-3.193115234375,-2.592529296875,5.135009765625
0.064,-1.791748046875,-3.993896484375,5.175048828125
0.0645,-1.031005859375,-4.514404296875,4.814697265625
0.065,0.010009765625,-5.235107421875,4.494384765625
0.0655,0.890869140625,-5.435302734375,3.973876953125
0.066,1.651611328125,-5.555419921875,3.213134765625
0.0665,2.692626953125,-5.675537109375,2.332275390625
0.067,3.893798828125,-5.755615234375,1.291259765625
0.0675,4.214111328125,-5.114990234375,0.330322265625
0.068,4.854736328125,-5.034912109375,-0.390380859375
0.0685,4.734619140625,-4.033935546875,-1.271240234375
0.069,4.894775390625,-3.673583984375,-1.751708984375
0.0695,4.854736328125,-2.432373046875,-2.952880859375
0.07,4.774658203125,-1.671630859375,-3.593505859375
0.0705,4.214111328125,-0.510498046875,-4.154052734375
0.071,3.893798828125,0.330322265625,-4.674560546875
0.0715,2.932861328125,1.331298828125,-4.674560546875
0.072,2.492431640625,2.052001953125,-4.914794921875
0.0725,1.371337890625,3.333251953125,-5.074951171875
0.073,0.530517578125,3.693603515625,-4.634521484375
0.0735,-0.350341796875,4.494384765625,-4.434326171875
0.074,-1.231201171875,4.614501953125,-3.713623046875
0.0745,-1.991943359375,4.854736328125,-3.193115234375
0.075,-3.072998046875,4.934814453125,-2.192138671875
0.0755,-4.114013671875,5.054931640625,-1.271240234375
0.076,-4.434326171875,4.374267578125,-0.310302734375
0.0765,-5.034912109375,4.334228515625,0.290283203125
0.077,-4.954833984375,3.373291015625,1.171142578125
0.0775,-5.114990234375,2.972900390625,1.731689453125
0.078,-5.155029296875,1.811767578125,2.892822265625
0.0785,-4.954833984375,1.051025390625,3.413330078125
0.079,-4.514404296875,-0.110107421875,4.053955078125
0.0795,-4.033935546875,-0.950927734375,4.414306640625
0.08,-3.233154296875,-1.871826171875,4.494384765625
0.0805,-2.592529296875,-2.632568359375,4.614501953125
0.081,-1.671630859375,-3.793701171875,4.774658203125
0.0815,-0.790771484375,-4.114013671875,4.214111328125
0.082,-0.110107421875,-4.794677734375,4.174072265625
0.0825,0.810791015625,-4.834716796875,3.373291015625
0.083,1.491455078125,-5.074951171875,2.972900390625
0.0835,2.612548828125,-5.155029296875,1.931884765625
0.084,3.373291015625,-5.155029296875,1.171142578125
0.0845,3.773681640625,-4.594482421875,0.290283203125
0.085,4.134033203125,-4.474365234375,-0.230224609375
0.0855,4.134033203125,-3.633544921875,-1.031005859375
0.086,4.214111328125,-3.193115234375,-1.551513671875
0.0865,4.334228515625,-2.232177734375,-2.632568359375
0.087,3.973876953125,-1.471435546875,-3.032958984375
0.0875,3.853759765625,-0.550537109375,-3.753662109375
0.088,3.173095703125,0.330322265625,-3.873779296875
0.0885,2.772705078125,1.010986328125,-4.194091796875
0.089,2.052001953125,1.891845703125,-4.314208984375
0.0895,1.371337890625,2.772705078125,-4.514404296875
0.09,0.490478515625,3.173095703125,-3.993896484375
0.0905,-0.110107421875,3.813720703125,-4.033935546875
0.091,-0.990966796875,3.853759765625,-3.193115234375
0.0915,-1.631591796875,4.214111328125,-2.912841796875
0.092,-2.832763671875,4.374267578125,-1.951904296875
0.0925,-3.353271484375,4.294189453125,-1.311279296875
0.093,-3.873779296875,3.973876953125,-0.510498046875
0.0935,-4.114013671875,3.693603515625,0.010009765625
0.094,-4.314208984375,3.133056640625,0.770751953125
0.0945,-4.394287109375,2.532470703125,1.411376953125
0.095,-4.634521484375,1.811767578125,2.412353515625
0.0955,-4.154052734375,0.930908203125,2.812744140625
0.096,-4.154052734375,0.130126953125,3.533447265625
0.0965,-3.353271484375,-0.830810546875,3.613525390625
0.097,-3.153076171875,-1.511474609375,4.013916015625
0.0975,-2.272216796875,-2.432373046875,4.134033203125
0.098,-1.711669921875,-3.113037109375,4.174072265625
0.0985,-0.870849609375,-3.553466796875,3.813720703125
0.099,-0.310302734375,-4.033935546875,3.773681640625
0.0995,0.570556640625,-4.194091796875,3.052978515625
0.1,1.251220703125,-4.514404296875,2.652587890625
0.1005,2.332275390625,-4.674560546875,1.771728515625
0.101,2.692626953125,-4.394287109375,1.131103515625
0.1015,3.213134765625,-4.314208984375,0.530517578125
0.102,3.333251953125,-3.833740234375,0.010009765625
0.1025,3.573486328125,-3.473388671875,-0.670654296875
0.103,3.613525390625,-2.752685546875,-1.351318359375
0.1035,3.853759765625,-2.232177734375,-2.152099609375
0.104,3.493408203125,-1.271240234375,-2.672607421875
0.1045,3.453369140625,-0.790771484375,-3.193115234375
0.105,2.692626953125,0.130126953125,-3.313232421875
0.1055,2.572509765625,0.730712890625,-3.713623046875
0.106,1.811767578125,1.731689453125,-3.873779296875
0.1065,1.291259765625,2.172119140625,-3.833740234375
0.107,0.610595703125,2.732666015625,-3.713623046875
0.1075,0.010009765625,3.133056640625,-3.513427734375
0.108,-0.790771484375,3.413330078125,-2.992919921875
0.1085,-1.551513671875,3.693603515625,-2.512451171875
0.109,-2.432373046875,3.973876953125,-1.911865234375
0.1095,-2.752685546875,3.653564453125,-1.271240234375
0.11,-3.353271484375,3.813720703125,-0.830810546875
0.1105,-3.473388671875,3.173095703125,-0.150146484375
0.111,-3.833740234375,3.012939453125,0.450439453125
0.1115,-3.953857421875,2.212158203125,1.291259765625
0.112,-4.033935546875,1.851806640625,1.931884765625
0.1125,-3.793701171875,0.770751953125,2.492431640625
0.113,-3.793701171875,0.210205078125,3.012939453125
0.1135,-3.153076171875,-0.670654296875,3.293212890625
0.114,-2.912841796875,-1.311279296875,3.693603515625
0.1145,-2.232177734375,-2.272216796875,3.853759765625
0.115,-1.591552734375,-2.712646484375,3.693603515625
0.1155,-1.031005859375,-3.353271484375,3.733642578125
0.116,-0.310302734375,-3.593505859375,3.213134765625
0.1165,0.450439453125,-3.953857421875,2.932861328125
0.117,1.331298828125,-4.154052734375,2.252197265625
0.1175,2.052001953125,-4.354248046875,1.771728515625
0.118,2.412353515625,-3.993896484375,1.010986328125
0.1185,2.812744140625,-4.114013671875,0.730712890625
0.119,2.932861328125,-3.433349609375,0.010009765625
0.1195,3.253173828125,-3.193115234375,-0.550537109375
0.12,3.453369140625,-2.472412109375,-1.431396484375
0.1205,3.333251953125,-1.991943359375,-1.951904296875
0.121,3.293212890625,-1.151123046875,-2.632568359375
0.1215,2.932861328125,-0.590576171875,-2.832763671875
0.122,2.572509765625,0.210205078125,-3.193115234375
0.1225,2.212158203125,0.930908203125,-3.553466796875
0.123,1.651611328125,1.691650390625,-3.793701171875
0.1235,1.010986328125,2.092041015625,-3.513427734375
0.124,0.610595703125,2.692626953125,-3.673583984375
0.1245,-0.270263671875,2.932861328125,-3.032958984375
0.125,-0.910888671875,3.373291015625,-2.832763671875
0.1255,-1.871826171875,3.573486328125,-2.112060546875
0.126,-2.352294921875,3.653564453125,-1.711669921875
0.1265,-2.832763671875,3.493408203125,-1.071044921875
0.127,-3.153076171875,3.413330078125,-0.710693359375
0.1275,-3.393310546875,2.892822265625,0.090087890625
0.128,-3.673583984375,2.572509765625,0.650634765625
0.1285,-3.953857421875,1.931884765625,1.531494140625
0.129,-3.633544921875,1.251220703125,1.931884765625
0.1295,-3.793701171875,0.570556640625,2.692626953125
0.13,-3.233154296875,-0.270263671875,2.932861328125
0.1305,-3.072998046875,-0.910888671875,3.413330078125
0.131,-2.432373046875,-1.751708984375,3.613525390625
0.1315,-1.951904296875,-2.432373046875,3.773681640625
0.132,-1.231201171875,-2.872802734375,3.533447265625
0.1325,-0.750732421875,-3.393310546875,3.533447265625
0.133,0.210205078125,-3.673583984375,2.892822265625
0.1335,0.890869140625,-4.073974609375,2.572509765625
0.134,1.851806640625,-4.274169921875,1.891845703125
0.1345,2.252197265625,-4.114013671875,1.291259765625
0.135,2.692626953125,-4.033935546875,0.770751953125
0.1355,2.892822265625,-3.673583984375,0.250244140625
0.136,3.173095703125,-3.313232421875,-0.510498046875
0.1365,3.373291015625,-2.712646484375,-1.231201171875
0.137,3.613525390625,-2.192138671875,-2.031982421875
0.1375,3.133056640625,-1.231201171875,-2.432373046875
0.138,3.173095703125,-0.670654296875,-2.992919921875
0.1385,2.532470703125,0.210205078125,-3.153076171875
0.139,2.332275390625,0.850830078125,-3.593505859375
0.1395,1.611572265625,1.771728515625,-3.753662109375
0.14,1.010986328125,2.292236328125,-3.713623046875
0.1405,0.410400390625,2.732666015625,-3.553466796875
0.141,-0.270263671875,3.173095703125,-3.233154296875
0.1415,-1.191162109375,3.373291015625,-2.552490234375
0.142,-1.871826171875,3.653564453125,-2.152099609375
0.1425,-2.712646484375,3.853759765625,-1.511474609375
0.143,-3.032958984375,3.453369140625,-0.790771484375
0.1435,-3.513427734375,3.493408203125,-0.470458984375
0.144,-3.553466796875,2.852783203125,0.290283203125
0.1445,-3.873779296875,2.532470703125,0.890869140625
0.145,-3.913818359375,1.731689453125,1.691650390625
0.1455,-4.033935546875,1.171142578125,2.412353515625
0.146,-3.553466796875,0.250244140625,2.812744140625
0.1465,-3.513427734375,-0.350341796875,3.333251953125
0.147,-2.712646484375,-1.311279296875,3.493408203125
0.1475,-2.432373046875,-1.951904296875,3.853759765625
0.148,-1.631591796875,-2.832763671875,3.893798828125
0.1485,-0.990966796875,-3.273193359375,3.693603515625
0.149,-0.390380859375,-3.753662109375,3.533447265625
0.1495,0.490478515625,-4.073974609375,2.972900390625
0.15,1.331298828125,-4.354248046875,2.412353515625
0.1505,2.092041015625,-4.434326171875,1.771728515625
0.151,2.852783203125,-4.514404296875,1.131103515625
0.1515,3.052978515625,-3.993896484375,0.370361328125
0.152,3.493408203125,-4.033935546875,0.010009765625
0.1525,3.533447265625,-3.193115234375,-0.990966796875
0.153,3.773681640625,-2.832763671875,-1.591552734375
0.1535,3.813720703125,-1.871826171875,-2.472412109375
0.154,3.613525390625,-1.071044921875,-3.072998046875
0.1545,3.133056640625,-0.190185546875,-3.353271484375
0.155,2.852783203125,0.490478515625,-3.753662109375
0.1555,2.011962890625,1.571533203125,-3.913818359375
0.156,1.571533203125,2.132080078125,-4.114013671875
0.1565,0.730712890625,3.052978515625,-4.114013671875
0.157,0.010009765625,3.333251953125,-3.673583984375
0.1575,-0.630615234375,3.813720703125,-3.513427734375
0.158,-1.791748046875,4.013916015625,-2.592529296875
0.1585,-2.592529296875,4.174072265625,-1.951904296875
0.159,-3.353271484375,4.093994140625,-1.151123046875
0.1595,-3.993896484375,4.093994140625,-0.510498046875
0.16,-4.073974609375,3.373291015625,0.210205078125
0.1605,-4.394287109375,3.213134765625,0.690673828125
0.161,-4.474365234375,2.172119140625,1.771728515625
0.1615,-4.474365234375,1.651611328125,2.332275390625
0.162,-4.434326171875,0.690673828125,3.213134765625
0.1625,-3.993896484375,-0.190185546875,3.693603515625
0.163,-3.473388671875,-1.031005859375,3.933837890625
0.1635,-2.872802734375,-1.911865234375,4.174072265625
0.164,-2.072021484375,-2.912841796875,4.374267578125
0.1645,-1.311279296875,-3.473388671875,4.174072265625
0.165,-0.550537109375,-4.314208984375,4.174072265625
0.1655,0.290283203125,-4.474365234375,3.533447265625
0.166,0.930908203125,-4.834716796875,3.293212890625
0.1665,2.252197265625,-4.994873046875,2.172119140625
0.167,2.972900390625,-5.074951171875,1.491455078125
0.1675,3.653564453125,-4.794677734375,0.610595703125
0.168,4.174072265625,-4.674560546875,-0.110107421875
0.1685,4.134033203125,-3.913818359375,-0.830810546875
0.169,4.414306640625,-3.553466796875,-1.431396484375
0.1695,4.494384765625,-2.392333984375,-2.592529296875
0.17,4.294189453125,-1.671630859375,-3.072998046875
0.1705,4.134033203125,-0.670654296875,-3.953857421875
0.171,3.533447265625,0.290283203125,-4.234130859375
0.1715,2.972900390625,1.131103515625,-4.514404296875
0.172,2.212158203125,2.132080078125,-4.634521484375
0.1725,1.291259765625,3.173095703125,-4.834716796875
0.173,0.370361328125,3.693603515625,-4.394287109375
0.1735,-0.390380859375,4.494384765625,-4.354248046875
0.174,-1.311279296875,4.494384765625,-3.513427734375
0.1745,-2.031982421875,4.814697265625,-3.153076171875
0.175,-3.513427734375,4.974853515625,-1.831787109375
0.1755,-4.194091796875,4.814697265625,-1.031005859375
0.176,-4.794677734375,4.334228515625,0.010009765625
0.1765,-5.195068359375,4.134033203125,0.610595703125
0.177,-5.114990234375,3.213134765625,1.411376953125
0.1775,-5.235107421875,2.652587890625,2.172119140625
0.178,-5.355224609375,1.491455078125,3.373291015625
0.1785,-4.834716796875,0.570556640625,3.853759765625
0.179,-4.634521484375,-0.510498046875,4.574462890625
0.1795,-3.833740234375,-1.471435546875,4.734619140625
0.18,-3.193115234375,-2.272216796875,4.894775390625
0.1805,-2.192138671875,-3.393310546875,4.974853515625
0.181,-1.231201171875,-4.474365234375,5.054931640625
0.1815,-0.190185546875,-4.834716796875,4.334228515625
0.182,0.490478515625,-5.475341796875,4.334228515625
0.1825,1.531494140625,-5.395263671875,3.213134765625
0.183,2.252197265625,-5.635498046875,2.772705078125
0.1835,3.693603515625,-5.755615234375,1.451416015625
0.184,4.294189453125,-5.475341796875,0.570556640625
0.1845,4.774658203125,-4.954833984375,-0.430419921875
0.185,5.014892578125,-4.554443359375,-1.111083984375
0.1855,4.934814453125,-3.593505859375,-1.871826171875
0.186,4.934814453125,-2.872802734375,-2.592529296875
0.1865,5.094970703125,-1.751708984375,-3.833740234375
0.187,4.414306640625,-0.630615234375,-4.194091796875
0.1875,4.174072265625,0.290283203125,-4.914794921875
0.188,3.213134765625,1.291259765625,-4.914794921875
