wavelength,x,y,z
0.0,4.053955078125,2.892822265625,-6.596435546875
0.0005,5.014892578125,1.331298828125,-6.356201171875
0.001,5.415283203125,0.490478515625,-6.236083984375
0.0015,5.575439453125,-0.350341796875,-6.035888671875
0.002,5.815673828125,-0.990966796875,-5.435302734375
0.0025,5.535400390625,-2.712646484375,-4.234130859375
0.003,5.094970703125,-3.873779296875,-2.752685546875
0.0035,4.774658203125,-4.874755859375,-1.591552734375
0.004,4.334228515625,-5.475341796875,-0.790771484375
0.0045,3.773681640625,-5.955810546875,0.210205078125
0.005,3.093017578125,-6.436279296875,1.251220703125
0.0055,1.251220703125,-6.276123046875,2.932861328125
0.006,-0.270263671875,-6.115966796875,4.334228515625
0.0065,-0.910888671875,-6.236083984375,4.974853515625
0.007,-1.671630859375,-6.035888671875,5.695556640625
0.0075,-2.632568359375,-5.635498046875,6.416259765625
0.008,-4.114013671875,-4.234130859375,6.776611328125
0.0085,-5.195068359375,-2.752685546875,6.616455078125
0.009,-5.915771484375,-1.431396484375,6.336181640625
0.0095,-6.115966796875,-0.630615234375,6.015869140625
0.01,-6.276123046875,0.330322265625,5.735595703125
0.0105,-6.356201171875,1.291259765625,5.175048828125
0.011,-5.835693359375,2.932861328125,3.253173828125
0.0115,-5.315185546875,4.134033203125,1.771728515625
0.012,-4.914794921875,4.814697265625,0.850830078125
0.0125,-4.434326171875,5.255126953125,0.090087890625
0.013,-3.793701171875,5.735595703125,-0.990966796875
0.0135,-2.432373046875,5.975830078125,-2.472412109375
0.014,-0.870849609375,5.775634765625,-3.793701171875
0.0145,0.370361328125,5.575439453125,-4.914794921875
0.015,1.091064453125,5.535400390625,-5.635498046875
0.0155,1.931884765625,5.255126953125,-6.316162109375
0.016,2.892822265625,4.814697265625,-7.076904296875
0.0165,4.494384765625,2.852783203125,-7.036865234375
0.017,5.455322265625,1.251220703125,-6.716552734375
0.0175,5.855712890625,0.250244140625,-6.516357421875
0.018,6.095947265625,-0.670654296875,-6.356201171875
0.0185,6.095947265625,-1.511474609375,-5.675537109375
0.019,6.015869140625,-2.752685546875,-4.634521484375
0.0195,5.455322265625,-4.154052734375,-2.912841796875
0.02,4.854736328125,-5.315185546875,-1.431396484375
0.0205,4.374267578125,-5.875732421875,-0.550537109375
0.021,3.853759765625,-6.276123046875,0.330322265625
0.0215,3.293212890625,-6.756591796875,1.211181640625
0.022,1.291259765625,-6.676513671875,3.012939453125
0.0225,-0.310302734375,-6.396240234375,4.454345703125
0.023,-1.151123046875,-6.276123046875,5.255126953125
0.0235,-1.791748046875,-6.156005859375,5.895751953125
0.024,-2.712646484375,-5.755615234375,6.536376953125
0.0245,-3.873779296875,-4.954833984375,7.096923828125
0.025,-5.195068359375,-3.193115234375,6.936767578125
0.0255,-6.115966796875,-1.591552734375,6.496337890625
0.026,-6.356201171875,-0.550537109375,6.416259765625
0.0265,-6.356201171875,0.210205078125,5.855712890625
0.027,-6.476318359375,1.051025390625,5.455322265625
0.0275,-6.115966796875,2.692626953125,3.733642578125
0.028,-5.595458984375,3.893798828125,2.252197265625
0.0285,-5.074951171875,4.814697265625,1.091064453125
0.029,-4.594482421875,5.295166015625,0.250244140625
0.0295,-3.993896484375,5.695556640625,-0.710693359375
0.03,-3.193115234375,6.095947265625,-1.751708984375
0.0305,-1.311279296875,5.895751953125,-3.473388671875
0.031,0.210205078125,5.615478515625,-4.754638671875
0.0315,0.930908203125,5.615478515625,-5.475341796875
0.032,1.611572265625,5.455322265625,-6.115966796875
0.0325,2.572509765625,5.014892578125,-6.876708984375
0.033,4.093994140625,3.533447265625,-7.116943359375
0.0335,5.094970703125,1.931884765625,-6.996826171875
0.034,5.975830078125,0.650634765625,-6.676513671875
0.0345,6.055908203125,-0.310302734375,-6.356201171875
0.035,6.055908203125,-1.151123046875,-5.915771484375
0.0355,6.216064453125,-2.031982421875,-5.435302734375
0.036,5.655517578125,-3.713623046875,-3.513427734375
0.0365,5.094970703125,-4.994873046875,-1.911865234375
0.037,4.614501953125,-5.675537109375,-0.950927734375
0.0375,4.134033203125,-6.196044921875,-0.150146484375
0.038,3.533447265625,-6.596435546875,0.850830078125
0.0385,2.092041015625,-6.716552734375,2.412353515625
0.039,0.410400390625,-6.516357421875,3.893798828125
0.0395,-0.950927734375,-6.276123046875,4.974853515625
0.04,-1.591552734375,-6.276123046875,5.695556640625
0.0405,-2.352294921875,-6.035888671875,6.336181640625
0.041,-3.273193359375,-5.635498046875,7.056884765625
0.0415,-4.954833984375,-3.673583984375,7.016845703125
0.042,-6.035888671875,-2.072021484375,6.696533203125
0.0425,-6.316162109375,-0.990966796875,6.416259765625
0.043,-6.396240234375,-0.190185546875,6.095947265625
0.0435,-6.476318359375,0.770751953125,5.655517578125
0.044,-6.396240234375,2.092041015625,4.534423828125
0.0445,-5.915771484375,3.493408203125,2.932861328125
0.045,-5.275146484375,4.654541015625,1.331298828125
0.0455,-4.834716796875,5.215087890625,0.450439453125
0.046,-4.274169921875,5.695556640625,-0.430419921875
0.0465,-3.713623046875,6.176025390625,-1.311279296875
0.047,-1.791748046875,6.055908203125,-3.193115234375
0.0475,-0.270263671875,5.815673828125,-4.514404296875
0.048,0.770751953125,5.695556640625,-5.395263671875
0.0485,1.411376953125,5.575439453125,-6.075927734375
0.049,2.412353515625,5.094970703125,-6.756591796875
0.0495,3.573486328125,4.294189453125,-7.357177734375
0.05,4.974853515625,2.572509765625,-7.197021484375
0.0505,5.815673828125,0.810791015625,-6.756591796875
0.051,6.055908203125,0.010009765625,-6.436279296875
0.0515,6.095947265625,-0.910888671875,-6.115966796875
0.052,6.256103515625,-1.791748046875,-5.715576171875
0.0525,5.815673828125,-3.473388671875,-3.873779296875
0.053,5.255126953125,-4.634521484375,-2.432373046875
0.0535,4.654541015625,-5.515380859375,-1.151123046875
0.054,4.214111328125,-6.035888671875,-0.310302734375
0.0545,3.613525390625,-6.436279296875,0.650634765625
0.055,2.852783203125,-6.836669921875,1.731689453125
0.0555,0.890869140625,-6.556396484375,3.413330078125
0.056,-0.710693359375,-6.276123046875,4.654541015625
0.0565,-1.351318359375,-6.276123046875,5.375244140625
0.057,-1.991943359375,-6.115966796875,5.975830078125
0.0575,-2.952880859375,-5.755615234375,6.696533203125
0.058,-4.314208984375,-4.154052734375,6.936767578125
0.0585,-5.435302734375,-2.672607421875,6.776611328125
0.059,-6.075927734375,-1.311279296875,6.376220703125
0.0595,-6.276123046875,-0.510498046875,6.095947265625
0.06,-6.276123046875,0.330322265625,5.735595703125
0.0605,-6.436279296875,1.211181640625,5.335205078125
0.061,-5.875732421875,2.772705078125,3.453369140625
0.0615,-5.275146484375,3.973876953125,1.931884765625
0.062,-4.874755859375,4.654541015625,0.970947265625
0.0625,-4.474365234375,5.175048828125,0.250244140625
0.063,-3.993896484375,5.695556640625,-0.710693359375
0.0635,-2.712646484375,5.855712890625,-2.072021484375
0.064,-1.151123046875,5.695556640625,-3.473388671875
0.0645,0.170166015625,5.455322265625,-4.554443359375
0.065,0.770751953125,5.535400390625,-5.275146484375
0.0655,1.531494140625,5.375244140625,-6.035888671875
0.066,2.372314453125,5.135009765625,-6.796630859375
0.0665,3.933837890625,3.293212890625,-6.756591796875
0.067,4.974853515625,1.771728515625,-6.556396484375
0.0675,5.495361328125,0.730712890625,-6.396240234375
0.068,5.735595703125,0.010009765625,-6.156005859375
0.0685,5.855712890625,-0.950927734375,-5.835693359375
0.069,5.895751953125,-2.072021484375,-5.034912109375
0.0695,5.415283203125,-3.553466796875,-3.553466796875
0.07,4.814697265625,-4.554443359375,-1.951904296875
0.0705,4.494384765625,-5.235107421875,-1.151123046875
0.071,4.093994140625,-5.755615234375,-0.390380859375
0.0715,3.693603515625,-6.356201171875,0.530517578125
0.072,1.931884765625,-6.276123046875,2.212158203125
0.0725,0.450439453125,-6.156005859375,3.533447265625
0.073,-0.630615234375,-6.115966796875,4.494384765625
0.0735,-1.191162109375,-6.156005859375,5.135009765625
0.074,-1.951904296875,-5.835693359375,5.895751953125
0.0745,-3.032958984375,-5.275146484375,6.496337890625
0.075,-4.354248046875,-3.633544921875,6.456298828125
0.0755,-5.275146484375,-2.112060546875,6.135986328125
0.076,-5.675537109375,-1.271240234375,6.055908203125
0.0765,-5.835693359375,-0.590576171875,5.815673828125
0.077,-6.075927734375,0.290283203125,5.575439453125
0.0775,-5.835693359375,1.571533203125,4.093994140625
0.078,-5.395263671875,2.852783203125,2.852783203125
0.0785,-4.994873046875,3.813720703125,1.691650390625
0.079,-4.674560546875,4.494384765625,0.930908203125
0.0795,-4.234130859375,4.974853515625,0.170166015625
0.08,-3.753662109375,5.455322265625,-0.790771484375
0.0805,-2.072021484375,5.295166015625,-2.312255859375
0.081,-0.710693359375,5.135009765625,-3.553466796875
0.0815,0.090087890625,5.255126953125,-4.434326171875
0.082,0.730712890625,5.335205078125,-5.155029296875
0.0825,1.611572265625,5.175048828125,-5.995849609375
0.083,2.932861328125,3.973876953125,-6.356201171875
0.0835,4.013916015625,2.652587890625,-6.316162109375
0.084,4.774658203125,1.411376953125,-6.115966796875
0.0845,5.135009765625,0.650634765625,-6.035888671875
0.085,5.375244140625,-0.150146484375,-5.835693359375
0.0855,5.535400390625,-0.990966796875,-5.715576171875
0.086,5.175048828125,-2.312255859375,-4.114013671875
0.0865,4.774658203125,-3.553466796875,-2.752685546875
0.087,4.494384765625,-4.354248046875,-1.791748046875
0.0875,4.254150390625,-4.994873046875,-1.111083984375
0.088,3.893798828125,-5.595458984375,-0.350341796875
0.0885,2.892822265625,-5.915771484375,0.970947265625
0.089,1.491455078125,-5.915771484375,2.252197265625
0.0895,0.290283203125,-5.835693359375,3.373291015625
0.09,-0.350341796875,-5.875732421875,4.214111328125
0.0905,-1.111083984375,-5.915771484375,4.974853515625
0.091,-1.911865234375,-5.915771484375,5.855712890625
0.0915,-3.353271484375,-4.354248046875,5.975830078125
0.092,-4.354248046875,-2.992919921875,5.895751953125
0.0925,-5.034912109375,-2.031982421875,5.855712890625
0.093,-5.315185546875,-1.351318359375,5.815673828125
0.0935,-5.595458984375,-0.590576171875,5.735595703125
0.094,-5.755615234375,0.450439453125,5.094970703125
0.0945,-5.395263671875,1.651611328125,3.853759765625
0.095,-4.994873046875,2.852783203125,2.492431640625
0.0955,-4.754638671875,3.613525390625,1.651611328125
0.096,-4.554443359375,4.254150390625,0.970947265625
0.0965,-4.354248046875,4.934814453125,0.250244140625
0.097,-2.912841796875,5.014892578125,-1.311279296875
0.0975,-1.671630859375,5.014892578125,-2.592529296875
0.098,-0.790771484375,5.094970703125,-3.553466796875
0.0985,0.010009765625,5.295166015625,-4.354248046875
0.099,0.770751953125,5.255126953125,-5.195068359375
0.0995,1.811767578125,4.854736328125,-5.915771484375
0.1,3.133056640625,3.453369140625,-6.035888671875
0.1005,4.093994140625,1.971923828125,-5.875732421875
0.101,4.614501953125,1.251220703125,-5.915771484375
0.1015,4.974853515625,0.610595703125,-5.835693359375
0.102,5.295166015625,-0.230224609375,-5.795654296875
0.1025,5.094970703125,-1.511474609375,-4.674560546875
0.103,4.854736328125,-2.672607421875,-3.473388671875
0.1035,4.534423828125,-3.673583984375,-2.432373046875
0.104,4.334228515625,-4.354248046875,-1.631591796875
0.1045,4.053955078125,-5.034912109375,-0.950927734375
0.105,3.613525390625,-5.635498046875,0.050048828125
0.1055,2.172119140625,-5.635498046875,1.411376953125
0.106,0.890869140625,-5.515380859375,2.692626953125
0.1065,0.290283203125,-5.755615234375,3.533447265625
0.107,-0.510498046875,-5.875732421875,4.334228515625
0.1075,-1.271240234375,-5.835693359375,5.175048828125
0.108,-2.512451171875,-4.914794921875,5.615478515625
0.1085,-3.593505859375,-3.673583984375,5.735595703125
0.109,-4.434326171875,-2.512451171875,5.615478515625
0.1095,-4.954833984375,-1.791748046875,5.695556640625
0.11,-5.275146484375,-1.151123046875,5.615478515625
0.1105,-5.635498046875,-0.470458984375,5.615478515625
0.111,-5.315185546875,0.970947265625,4.214111328125
0.1115,-4.994873046875,2.172119140625,3.012939453125
0.112,-4.834716796875,3.012939453125,2.172119140625
0.1125,-4.634521484375,3.653564453125,1.531494140625
0.113,-4.474365234375,4.414306640625,0.770751953125
0.1135,-3.553466796875,4.774658203125,-0.590576171875
0.114,-2.352294921875,4.934814453125,-1.751708984375
0.1145,-1.311279296875,4.974853515625,-2.872802734375
0.115,-0.630615234375,5.135009765625,-3.713623046875
0.1155,0.170166015625,5.295166015625,-4.554443359375
0.116,1.010986328125,5.295166015625,-5.515380859375
0.1165,2.412353515625,3.893798828125,-5.715576171875
0.117,3.493408203125,2.612548828125,-5.755615234375
0.1175,4.174072265625,1.651611328125,-5.795654296875
0.118,4.614501953125,1.051025390625,-5.835693359375
0.1185,5.014892578125,0.290283203125,-5.755615234375
0.119,5.215087890625,-0.750732421875,-5.315185546875
0.1195,4.974853515625,-1.951904296875,-4.114013671875
0.12,4.614501953125,-3.113037109375,-2.832763671875
0.1205,4.454345703125,-3.993896484375,-2.072021484375
0.121,4.414306640625,-4.634521484375,-1.431396484375
0.1215,4.134033203125,-5.435302734375,-0.630615234375
0.122,2.732666015625,-5.515380859375,0.930908203125
0.1225,1.451416015625,-5.595458984375,2.212158203125
0.123,0.610595703125,-5.755615234375,3.173095703125
0.1235,0.010009765625,-5.915771484375,4.053955078125
0.124,-0.990966796875,-5.915771484375,4.934814453125
0.1245,-1.991943359375,-5.475341796875,5.695556640625
0.125,-3.273193359375,-4.114013671875,5.815673828125
0.1255,-4.314208984375,-2.712646484375,5.735595703125
0.126,-4.874755859375,-1.951904296875,5.735595703125
0.1265,-5.195068359375,-1.271240234375,5.655517578125
0.127,-5.595458984375,-0.590576171875,5.655517578125
0.1275,-5.435302734375,0.890869140625,4.454345703125
0.128,-5.155029296875,2.052001953125,3.253173828125
0.1285,-4.914794921875,2.972900390625,2.212158203125
0.129,-4.554443359375,3.813720703125,1.331298828125
0.1295,-4.434326171875,4.334228515625,0.650634765625
0.13,-3.953857421875,5.014892578125,-0.310302734375
0.1305,-2.512451171875,5.014892578125,-1.671630859375
0.131,-1.231201171875,5.014892578125,-2.952880859375
0.1315,-0.590576171875,5.175048828125,-3.833740234375
0.132,0.250244140625,5.295166015625,-4.674560546875
0.1325,1.171142578125,5.215087890625,-5.595458984375
0.133,2.532470703125,4.093994140625,-6.035888671875
0.1335,3.653564453125,2.772705078125,-6.156005859375
0.134,4.494384765625,1.571533203125,-5.955810546875
0.1345,4.894775390625,0.810791015625,-5.955810546875
0.135,5.175048828125,0.090087890625,-5.795654296875
0.1355,5.495361328125,-0.790771484375,-5.635498046875
0.136,5.094970703125,-2.272216796875,-4.114013671875
0.1365,4.734619140625,-3.553466796875,-2.672607421875
0.137,4.494384765625,-4.394287109375,-1.951904296875
0.1375,4.214111328125,-4.994873046875,-1.111083984375
0.138,3.853759765625,-5.555419921875,-0.310302734375
0.1385,2.772705078125,-5.875732421875,1.131103515625
0.139,1.411376953125,-5.835693359375,2.412353515625
0.1395,0.290283203125,-5.795654296875,3.533447265625
0.14,-0.470458984375,-5.955810546875,4.334228515625
0.1405,-1.191162109375,-5.915771484375,5.094970703125
0.141,-2.072021484375,-5.755615234375,6.015869140625
0.1415,-3.593505859375,-4.154052734375,6.095947265625
0.142,-4.634521484375,-2.672607421875,5.975830078125
0.1425,-5.235107421875,-1.751708984375,5.895751953125
0.143,-5.515380859375,-1.031005859375,5.775634765625
0.1435,-5.755615234375,-0.270263671875,5.575439453125
0.144,-5.795654296875,0.970947265625,4.814697265625
0.1445,-5.475341796875,2.172119140625,3.453369140625
0.145,-5.034912109375,3.333251953125,1.971923828125
0.1455,-4.794677734375,4.053955078125,1.251220703125
0.146,-4.434326171875,4.614501953125,0.570556640625
0.1465,-4.033935546875,5.255126953125,-0.350341796875
0.147,-2.472412109375,5.295166015625,-1.951904296875
0.1475,-1.111083984375,5.255126953125,-3.273193359375
0.148,-0.310302734375,5.335205078125,-4.154052734375
0.1485,0.490478515625,5.415283203125,-4.954833984375
0.149,1.331298828125,5.135009765625,-5.715576171875
0.1495,2.532470703125,4.494384765625,-6.516357421875
0.15,3.853759765625,2.972900390625,-6.436279296875
0.1505,4.814697265625,1.451416015625,-6.236083984375
0.151,5.215087890625,0.650634765625,-6.115966796875
0.1515,5.415283203125,-0.150146484375,-5.915771484375
0.152,5.695556640625,-0.990966796875,-5.715576171875
0.1525,5.415283203125,-2.552490234375,-4.194091796875
0.153,5.054931640625,-3.793701171875,-2.872802734375
0.1535,4.654541015625,-4.714599609375,-1.791748046875
0.154,4.334228515625,-5.315185546875,-0.910888671875
0.1545,3.853759765625,-5.795654296875,0.010009765625
0.155,3.173095703125,-6.356201171875,1.091064453125
0.1555,1.371337890625,-6.196044921875,2.732666015625
0.156,0.010009765625,-6.075927734375,4.013916015625
0.1565,-0.790771484375,-6.115966796875,4.814697265625
0.157,-1.511474609375,-6.075927734375,5.575439453125
0.1575,-2.512451171875,-5.635498046875,6.456298828125
0.158,-4.033935546875,-4.234130859375,6.696533203125
0.1585,-5.114990234375,-2.832763671875,6.576416015625
0.159,-5.795654296875,-1.551513671875,6.376220703125
0.1595,-6.075927734375,-0.710693359375,6.095947265625
0.16,-6.156005859375,0.210205078125,5.735595703125
0.1605,-6.356201171875,1.131103515625,5.255126953125
0.161,-5.795654296875,2.852783203125,3.333251953125
0.1615,-5.355224609375,4.093994140625,1.771728515625
0.162,-4.914794921875,4.814697265625,0.890869140625
0.1625,-4.474365234375,5.295166015625,0.090087890625
0.163,-3.833740234375,5.735595703125,-0.950927734375
0.1635,-2.432373046875,5.975830078125,-2.512451171875
0.164,-0.830810546875,5.775634765625,-3.913818359375
0.1645,0.370361328125,5.615478515625,-4.994873046875
0.165,1.091064453125,5.575439453125,-5.715576171875
0.1655,1.931884765625,5.094970703125,-6.436279296875
0.166,3.012939453125,4.814697265625,-7.116943359375
0.1665,4.614501953125,2.772705078125,-7.076904296875
0.167,5.575439453125,1.211181640625,-6.796630859375
0.1675,5.975830078125,0.210205078125,-6.556396484375
0.168,6.055908203125,-0.710693359375,-6.156005859375
0.1685,6.095947265625,-1.671630859375,-5.635498046875
0.169,6.015869140625,-2.992919921875,-4.514404296875
0.1695,5.415283203125,-4.434326171875,-2.872802734375
0.17,4.854736328125,-5.475341796875,-1.271240234375
0.1705,4.334228515625,-5.995849609375,-0.390380859375
0.171,3.773681640625,-6.396240234375,0.490478515625
0.1715,3.133056640625,-6.876708984375,1.411376953125
0.172,1.131103515625,-6.716552734375,3.333251953125
0.1725,-0.510498046875,-6.476318359375,4.614501953125
0.173,-1.311279296875,-6.356201171875,5.455322265625
0.1735,-1.871826171875,-6.115966796875,5.935791015625
0.174,-2.952880859375,-5.675537109375,6.696533203125
0.1745,-4.154052734375,-4.794677734375,7.217041015625
0.175,-5.435302734375,-2.952880859375,7.056884765625
0.1755,-6.276123046875,-1.311279296875,6.576416015625
0.176,-6.436279296875,-0.510498046875,6.296142578125
0.1765,-6.436279296875,0.330322265625,5.855712890625
0.177,-6.516357421875,1.251220703125,5.415283203125
0.1775,-6.115966796875,2.892822265625,3.533447265625
0.178,-5.595458984375,4.134033203125,2.092041015625
0.1785,-5.074951171875,4.974853515625,0.930908203125
0.179,-4.514404296875,5.455322265625,0.090087890625
0.1795,-3.913818359375,5.815673828125,-0.870849609375
0.18,-3.072998046875,6.216064453125,-1.951904296875
0.1805,-1.231201171875,5.895751953125,-3.673583984375
0.181,0.370361328125,5.695556640625,-4.874755859375
0.1815,1.131103515625,5.615478515625,-5.755615234375
0.182,1.731689453125,5.455322265625,-6.236083984375
0.1825,2.692626953125,5.054931640625,-6.916748046875
0.183,4.174072265625,3.453369140625,-7.116943359375
0.1835,5.215087890625,1.931884765625,-6.996826171875
0.184,5.855712890625,0.570556640625,-6.596435546875
0.1845,6.015869140625,-0.350341796875,-6.316162109375
0.185,6.055908203125,-1.231201171875,-5.915771484375
0.1855,6.176025390625,-2.112060546875,-5.435302734375
0.186,5.615478515625,-3.713623046875,-3.473388671875
0.1865,5.054931640625,-4.954833984375,-1.951904296875
0.187,4.574462890625,-5.635498046875,-0.950927734375
0.1875,4.134033203125,-6.115966796875,-0.190185546875
0.188,3.533447265625,-6.556396484375,0.810791015625
