wavelength,x,y,z
0.0,-2.632568359375,-5.955810546875,6.656494140625
0.0005,-4.114013671875,-4.474365234375,6.816650390625
0.001,-5.515380859375,-2.872802734375,6.976806640625
0.0015,-6.396240234375,-1.551513671875,6.896728515625
0.002,-6.756591796875,-0.710693359375,6.856689453125
0.0025,-6.596435546875,0.130126953125,6.256103515625
0.003,-6.276123046875,1.211181640625,5.094970703125
0.0035,-5.835693359375,2.652587890625,3.573486328125
0.004,-5.595458984375,4.174072265625,2.052001953125
0.0045,-5.315185546875,5.135009765625,0.970947265625
0.005,-4.914794921875,5.735595703125,0.170166015625
0.0055,-3.993896484375,5.855712890625,-0.790771484375
0.006,-2.472412109375,5.775634765625,-2.232177734375
0.0065,-0.910888671875,5.935791015625,-3.993896484375
0.007,0.410400390625,6.055908203125,-5.315185546875
0.0075,1.010986328125,6.216064453125,-6.156005859375
0.008,1.771728515625,5.895751953125,-6.716552734375
0.0085,2.932861328125,4.694580078125,-6.996826171875
0.009,4.374267578125,3.052978515625,-7.076904296875
0.0095,5.615478515625,1.451416015625,-7.076904296875
0.01,6.296142578125,0.370361328125,-6.996826171875
0.0105,6.416259765625,-0.390380859375,-6.756591796875
0.011,6.095947265625,-1.231201171875,-5.955810546875
0.0115,5.615478515625,-2.392333984375,-4.634521484375
0.012,5.255126953125,-3.873779296875,-2.992919921875
0.0125,5.054931640625,-5.195068359375,-1.631591796875
0.013,4.734619140625,-6.035888671875,-0.750732421875
0.0135,4.214111328125,-6.396240234375,0.050048828125
0.014,3.173095703125,-6.396240234375,1.010986328125
0.0145,1.611572265625,-6.356201171875,2.492431640625
0.015,0.050048828125,-6.436279296875,4.134033203125
0.0155,-0.910888671875,-6.596435546875,5.255126953125
0.016,-1.431396484375,-6.756591796875,6.015869140625
0.0165,-2.272216796875,-6.276123046875,6.416259765625
0.017,-3.513427734375,-4.994873046875,6.616455078125
0.0175,-4.874755859375,-3.473388671875,6.696533203125
0.018,-5.915771484375,-1.991943359375,6.736572265625
0.0185,-6.436279296875,-1.111083984375,6.696533203125
0.019,-6.476318359375,-0.470458984375,6.416259765625
0.0195,-6.196044921875,0.450439453125,5.615478515625
0.02,-5.755615234375,1.611572265625,4.334228515625
0.0205,-5.475341796875,3.173095703125,2.772705078125
0.021,-5.315185546875,4.334228515625,1.611572265625
0.0215,-5.114990234375,5.094970703125,0.810791015625
0.022,-4.514404296875,5.415283203125,0.050048828125
0.0225,-3.353271484375,5.455322265625,-1.111083984375
0.023,-1.911865234375,5.575439453125,-2.632568359375
0.0235,-0.590576171875,5.735595703125,-4.154052734375
0.024,0.290283203125,6.015869140625,-5.235107421875
0.0245,0.890869140625,6.055908203125,-5.955810546875
0.025,1.771728515625,5.415283203125,-6.396240234375
0.0255,3.133056640625,4.093994140625,-6.596435546875
0.026,4.534423828125,2.572509765625,-6.756591796875
0.0265,5.455322265625,1.331298828125,-6.756591796875
0.027,5.935791015625,0.570556640625,-6.836669921875
0.0275,5.895751953125,-0.270263671875,-6.396240234375
0.028,5.615478515625,-1.151123046875,-5.475341796875
0.0285,5.255126953125,-2.512451171875,-4.073974609375
0.029,5.094970703125,-3.993896484375,-2.712646484375
0.0295,4.934814453125,-5.034912109375,-1.631591796875
0.03,4.734619140625,-5.715576171875,-0.990966796875
0.0305,3.933837890625,-5.955810546875,0.010009765625
0.031,2.692626953125,-5.955810546875,1.211181640625
0.0315,1.211181640625,-6.156005859375,2.852783203125
0.032,0.090087890625,-6.356201171875,4.174072265625
0.0325,-0.630615234375,-6.676513671875,5.175048828125
0.033,-1.311279296875,-6.556396484375,5.775634765625
0.0335,-2.432373046875,-5.715576171875,6.095947265625
0.034,-3.753662109375,-4.274169921875,6.376220703125
0.0345,-5.074951171875,-2.832763671875,6.496337890625
0.035,-5.835693359375,-1.751708984375,6.536376953125
0.0355,-6.115966796875,-1.111083984375,6.496337890625
0.036,-6.035888671875,-0.350341796875,5.935791015625
0.0365,-5.675537109375,0.770751953125,4.854736328125
0.037,-5.435302734375,2.132080078125,3.533447265625
0.0375,-5.275146484375,3.453369140625,2.252197265625
0.038,-5.114990234375,4.374267578125,1.371337890625
0.0385,-4.754638671875,4.894775390625,0.690673828125
0.039,-3.953857421875,5.094970703125,-0.270263671875
0.0395,-2.632568359375,5.135009765625,-1.591552734375
0.04,-1.271240234375,5.375244140625,-3.193115234375
0.0405,-0.390380859375,5.615478515625,-4.354248046875
0.041,0.290283203125,5.855712890625,-5.195068359375
0.0415,0.970947265625,5.575439453125,-5.755615234375
0.042,2.132080078125,4.614501953125,-6.035888671875
0.0425,3.453369140625,3.333251953125,-6.276123046875
0.043,4.574462890625,1.971923828125,-6.396240234375
0.0435,5.255126953125,1.131103515625,-6.516357421875
0.044,5.455322265625,0.530517578125,-6.396240234375
0.0445,5.335205078125,-0.310302734375,-5.835693359375
0.045,5.054931640625,-1.391357421875,-4.714599609375
0.0455,4.854736328125,-2.752685546875,-3.473388671875
0.046,4.774658203125,-3.913818359375,-2.432373046875
0.0465,4.734619140625,-4.834716796875,-1.671630859375
0.047,4.334228515625,-5.275146484375,-0.990966796875
0.0475,3.413330078125,-5.435302734375,0.090087890625
0.048,2.252197265625,-5.635498046875,1.411376953125
0.0485,0.970947265625,-5.915771484375,2.852783203125
0.049,0.330322265625,-6.316162109375,3.973876953125
0.0495,-0.430419921875,-6.556396484375,4.814697265625
0.05,-1.231201171875,-6.156005859375,5.375244140625
0.0505,-2.432373046875,-5.114990234375,5.695556640625
0.051,-3.793701171875,-3.833740234375,5.975830078125
0.0515,-4.834716796875,-2.672607421875,6.135986328125
0.052,-5.435302734375,-1.951904296875,6.376220703125
0.0525,-5.595458984375,-1.311279296875,6.135986328125
0.053,-5.435302734375,-0.510498046875,5.495361328125
0.0535,-5.275146484375,0.690673828125,4.494384765625
0.054,-5.195068359375,2.092041015625,3.213134765625
0.0545,-5.155029296875,3.173095703125,2.332275390625
0.055,-5.114990234375,3.973876953125,1.651611328125
0.0555,-4.594482421875,4.414306640625,0.930908203125
0.056,-3.553466796875,4.614501953125,-0.310302734375
0.0565,-2.432373046875,4.934814453125,-1.711669921875
0.057,-1.391357421875,5.215087890625,-3.072998046875
0.0575,-0.790771484375,5.615478515625,-4.154052734375
0.058,0.010009765625,5.735595703125,-4.874755859375
0.0585,0.970947265625,5.255126953125,-5.395263671875
0.059,2.252197265625,4.134033203125,-5.715576171875
0.0595,3.573486328125,2.852783203125,-6.035888671875
0.06,4.454345703125,1.931884765625,-6.236083984375
0.0605,4.974853515625,1.291259765625,-6.396240234375
0.061,5.054931640625,0.610595703125,-6.075927734375
0.0615,4.854736328125,-0.390380859375,-5.275146484375
0.062,4.774658203125,-1.631591796875,-4.194091796875
0.0625,4.774658203125,-2.912841796875,-3.153076171875
0.063,4.774658203125,-3.953857421875,-2.312255859375
0.0635,4.614501953125,-4.634521484375,-1.671630859375
0.064,4.013916015625,-4.994873046875,-0.910888671875
0.0645,2.932861328125,-5.275146484375,0.410400390625
0.065,1.771728515625,-5.635498046875,1.891845703125
0.0655,0.930908203125,-6.035888671875,3.052978515625
0.066,0.330322265625,-6.396240234375,4.093994140625
0.0665,-0.510498046875,-6.316162109375,4.774658203125
0.067,-1.591552734375,-5.555419921875,5.215087890625
0.0675,-2.872802734375,-4.474365234375,5.575439453125
0.068,-4.114013671875,-3.233154296875,5.855712890625
0.0685,-4.994873046875,-2.392333984375,6.135986328125
0.069,-5.315185546875,-1.791748046875,6.176025390625
0.0695,-5.355224609375,-1.071044921875,5.775634765625
0.07,-5.195068359375,0.010009765625,4.854736328125
0.0705,-5.155029296875,1.371337890625,3.773681640625
0.071,-5.155029296875,2.572509765625,2.772705078125
0.0715,-5.155029296875,3.533447265625,2.052001953125
0.072,-4.834716796875,4.093994140625,1.331298828125
0.0725,-4.033935546875,4.374267578125,0.410400390625
0.073,-2.952880859375,4.694580078125,-1.031005859375
0.0735,-1.831787109375,5.054931640625,-2.512451171875
0.074,-1.071044921875,5.495361328125,-3.633544921875
0.0745,-0.470458984375,5.775634765625,-4.514404296875
0.075,0.570556640625,5.455322265625,-5.155029296875
0.0755,1.731689453125,4.494384765625,-5.515380859375
0.076,3.093017578125,3.253173828125,-5.835693359375
0.0765,4.134033203125,2.172119140625,-6.115966796875
0.077,4.814697265625,1.411376953125,-6.356201171875
0.0775,5.014892578125,0.770751953125,-6.156005859375
0.078,4.974853515625,0.010009765625,-5.555419921875
0.0785,4.814697265625,-1.271240234375,-4.514404296875
0.079,4.774658203125,-2.632568359375,-3.353271484375
0.0795,4.774658203125,-3.713623046875,-2.512451171875
0.08,4.694580078125,-4.554443359375,-1.791748046875
0.0805,4.174072265625,-5.034912109375,-1.031005859375
0.081,3.213134765625,-5.235107421875,0.130126953125
0.0815,2.052001953125,-5.635498046875,1.571533203125
0.082,1.091064453125,-5.915771484375,2.892822265625
0.0825,0.370361328125,-6.316162109375,3.973876953125
0.083,-0.390380859375,-6.396240234375,4.774658203125
0.0835,-1.391357421875,-5.795654296875,5.255126953125
0.084,-2.712646484375,-4.674560546875,5.615478515625
0.0845,-4.033935546875,-3.393310546875,5.895751953125
0.085,-4.994873046875,-2.392333984375,6.095947265625
0.0855,-5.435302734375,-1.751708984375,6.256103515625
0.086,-5.475341796875,-1.071044921875,5.895751953125
0.0865,-5.275146484375,0.010009765625,5.054931640625
0.087,-5.195068359375,1.211181640625,3.973876953125
0.0875,-5.155029296875,2.532470703125,2.812744140625
0.088,-5.155029296875,3.573486328125,1.971923828125
0.0885,-4.874755859375,4.174072265625,1.291259765625
0.089,-4.234130859375,4.494384765625,0.450439453125
0.0895,-3.153076171875,4.694580078125,-0.950927734375
0.09,-1.871826171875,5.094970703125,-2.432373046875
0.0905,-0.990966796875,5.455322265625,-3.673583984375
0.091,-0.390380859375,5.815673828125,-4.634521484375
0.0915,0.490478515625,5.615478515625,-5.275146484375
0.092,1.651611328125,4.774658203125,-5.675537109375
0.0925,3.012939453125,3.493408203125,-5.995849609375
0.093,4.214111328125,2.212158203125,-6.236083984375
0.0935,4.974853515625,1.331298828125,-6.396240234375
0.094,5.255126953125,0.690673828125,-6.356201171875
0.0945,5.175048828125,-0.150146484375,-5.755615234375
0.095,4.934814453125,-1.231201171875,-4.714599609375
0.0955,4.854736328125,-2.632568359375,-3.513427734375
0.096,4.814697265625,-3.833740234375,-2.432373046875
0.0965,4.774658203125,-4.794677734375,-1.671630859375
0.097,4.334228515625,-5.275146484375,-0.990966796875
0.0975,3.373291015625,-5.435302734375,0.090087890625
0.098,2.172119140625,-5.635498046875,1.531494140625
0.0985,0.930908203125,-5.915771484375,3.052978515625
0.099,0.210205078125,-6.316162109375,4.134033203125
0.0995,-0.510498046875,-6.516357421875,4.974853515625
0.1,-1.431396484375,-6.035888671875,5.495361328125
0.1005,-2.712646484375,-4.874755859375,5.855712890625
0.101,-4.114013671875,-3.553466796875,6.095947265625
0.1015,-5.114990234375,-2.352294921875,6.256103515625
0.102,-5.755615234375,-1.591552734375,6.416259765625
0.1025,-5.795654296875,-0.950927734375,6.095947265625
0.103,-5.635498046875,0.050048828125,5.335205078125
0.1035,-5.355224609375,1.291259765625,4.134033203125
0.104,-5.275146484375,2.732666015625,2.812744140625
0.1045,-5.155029296875,3.813720703125,1.851806640625
0.105,-4.994873046875,4.534423828125,1.091064453125
0.1055,-4.354248046875,4.814697265625,0.290283203125
0.106,-3.193115234375,4.974853515625,-0.990966796875
0.1065,-1.871826171875,5.255126953125,-2.552490234375
0.107,-0.750732421875,5.535400390625,-3.913818359375
0.1075,0.010009765625,5.855712890625,-4.954833984375
0.108,0.690673828125,5.775634765625,-5.635498046875
0.1085,1.771728515625,5.054931640625,-6.075927734375
0.109,3.173095703125,3.693603515625,-6.356201171875
0.1095,4.534423828125,2.212158203125,-6.516357421875
0.11,5.335205078125,1.171142578125,-6.596435546875
0.1105,5.735595703125,0.450439453125,-6.596435546875
0.111,5.615478515625,-0.390380859375,-6.075927734375
0.1115,5.335205078125,-1.471435546875,-4.954833984375
0.112,5.094970703125,-2.912841796875,-3.553466796875
0.1125,4.974853515625,-4.314208984375,-2.272216796875
0.113,4.814697265625,-5.275146484375,-1.351318359375
0.1135,4.454345703125,-5.835693359375,-0.670654296875
0.114,3.533447265625,-5.915771484375,0.370361328125
0.1145,2.172119140625,-5.995849609375,1.771728515625
0.115,0.690673828125,-6.236083984375,3.453369140625
0.1155,-0.310302734375,-6.436279296875,4.654541015625
0.116,-0.950927734375,-6.716552734375,5.535400390625
0.1165,-1.791748046875,-6.276123046875,6.095947265625
0.117,-3.072998046875,-5.114990234375,6.416259765625
0.1175,-4.514404296875,-3.553466796875,6.576416015625
0.118,-5.755615234375,-2.112060546875,6.696533203125
0.1185,-6.316162109375,-1.231201171875,6.696533203125
0.119,-6.396240234375,-0.510498046875,6.416259765625
0.1195,-6.115966796875,0.490478515625,5.575439453125
0.12,-5.755615234375,1.731689453125,4.174072265625
0.1205,-5.515380859375,3.213134765625,2.652587890625
0.121,-5.355224609375,4.414306640625,1.531494140625
0.1215,-5.114990234375,5.175048828125,0.650634765625
0.122,-4.434326171875,5.495361328125,-0.190185546875
0.1225,-3.193115234375,5.495361328125,-1.311279296875
0.123,-1.631591796875,5.615478515625,-2.952880859375
0.1235,-0.270263671875,5.775634765625,-4.514404296875
0.124,0.570556640625,6.015869140625,-5.515380859375
0.1245,1.171142578125,6.015869140625,-6.236083984375
0.125,2.172119140625,5.255126953125,-6.596435546875
0.1255,3.533447265625,3.853759765625,-6.796630859375
0.126,4.934814453125,2.252197265625,-6.916748046875
0.1265,5.815673828125,0.930908203125,-6.876708984375
0.127,6.216064453125,0.130126953125,-6.796630859375
0.1275,6.135986328125,-0.710693359375,-6.356201171875
0.128,5.775634765625,-1.711669921875,-5.275146484375
0.1285,5.375244140625,-3.153076171875,-3.713623046875
0.129,5.135009765625,-4.634521484375,-2.232177734375
0.1295,4.854736328125,-5.635498046875,-1.231201171875
0.13,4.534423828125,-6.196044921875,-0.470458984375
0.1305,3.733642578125,-6.356201171875,0.490478515625
0.131,2.292236328125,-6.276123046875,1.771728515625
0.1315,0.690673828125,-6.396240234375,3.493408203125
0.132,-0.510498046875,-6.556396484375,4.814697265625
0.1325,-1.191162109375,-6.756591796875,5.775634765625
0.133,-1.911865234375,-6.556396484375,6.376220703125
0.1335,-3.032958984375,-5.595458984375,6.696533203125
0.134,-4.434326171875,-3.993896484375,6.816650390625
0.1345,-5.755615234375,-2.432373046875,6.896728515625
0.135,-6.476318359375,-1.271240234375,6.776611328125
0.1355,-6.716552734375,-0.550537109375,6.696533203125
0.136,-6.476318359375,0.330322265625,6.015869140625
0.1365,-6.075927734375,1.451416015625,4.734619140625
0.137,-5.715576171875,2.892822265625,3.173095703125
0.1375,-5.435302734375,4.294189453125,1.771728515625
0.138,-5.195068359375,5.215087890625,0.850830078125
0.1385,-4.754638671875,5.655517578125,0.090087890625
0.139,-3.713623046875,5.735595703125,-0.990966796875
0.1395,-2.192138671875,5.695556640625,-2.432373046875
0.14,-0.630615234375,5.855712890625,-4.154052734375
0.1405,0.450439453125,6.015869140625,-5.315185546875
0.141,1.010986328125,6.135986328125,-6.156005859375
0.1415,1.851806640625,5.695556640625,-6.636474609375
0.142,3.133056640625,4.454345703125,-6.876708984375
0.1425,4.534423828125,2.852783203125,-7.036865234375
0.143,5.695556640625,1.291259765625,-6.996826171875
0.1435,6.256103515625,0.330322265625,-6.956787109375
0.144,6.296142578125,-0.470458984375,-6.636474609375
0.1445,5.975830078125,-1.311279296875,-5.795654296875
0.145,5.535400390625,-2.632568359375,-4.354248046875
0.1455,5.215087890625,-4.194091796875,-2.792724609375
0.146,5.014892578125,-5.355224609375,-1.551513671875
0.1465,4.774658203125,-6.115966796875,-0.710693359375
0.147,4.134033203125,-6.396240234375,0.170166015625
0.1475,2.932861328125,-6.396240234375,1.291259765625
0.148,1.331298828125,-6.436279296875,2.892822265625
0.1485,-0.270263671875,-6.556396484375,4.494384765625
0.149,-0.990966796875,-6.756591796875,5.535400390625
0.1495,-1.591552734375,-6.796630859375,6.256103515625
0.15,-2.552490234375,-6.115966796875,6.656494140625
0.1505,-3.993896484375,-4.554443359375,6.816650390625
0.151,-5.395263671875,-2.992919921875,6.976806640625
0.1515,-6.356201171875,-1.591552734375,6.896728515625
0.152,-6.756591796875,-0.790771484375,6.856689453125
0.1525,-6.676513671875,0.010009765625,6.336181640625
0.153,-6.276123046875,1.010986328125,5.295166015625
0.1535,-5.875732421875,2.412353515625,3.773681640625
0.154,-5.595458984375,3.973876953125,2.172119140625
0.1545,-5.355224609375,5.054931640625,1.091064453125
0.155,-4.994873046875,5.695556640625,0.290283203125
0.1555,-4.154052734375,5.855712890625,-0.630615234375
0.156,-2.712646484375,5.775634765625,-1.991943359375
0.1565,-1.151123046875,5.935791015625,-3.713623046875
0.157,0.290283203125,6.015869140625,-5.155029296875
0.1575,0.930908203125,6.216064453125,-6.075927734375
0.158,1.571533203125,6.015869140625,-6.636474609375
0.1585,2.692626953125,5.014892578125,-6.996826171875
0.159,4.174072265625,3.373291015625,-7.076904296875
0.1595,5.495361328125,1.771728515625,-7.116943359375
0.16,6.216064453125,0.570556640625,-6.996826171875
0.1605,6.416259765625,-0.310302734375,-6.876708984375
0.161,6.216064453125,-1.111083984375,-6.156005859375
0.1615,5.735595703125,-2.272216796875,-4.874755859375
0.162,5.375244140625,-3.713623046875,-3.273193359375
0.1625,5.094970703125,-5.074951171875,-1.791748046875
0.163,4.814697265625,-5.915771484375,-0.870849609375
0.1635,4.334228515625,-6.396240234375,0.010009765625
0.164,3.373291015625,-6.436279296875,0.850830078125
0.1645,1.851806640625,-6.396240234375,2.292236328125
0.165,0.250244140625,-6.476318359375,4.013916015625
0.1655,-0.830810546875,-6.556396484375,5.175048828125
0.166,-1.431396484375,-6.756591796875,6.015869140625
0.1665,-2.192138671875,-6.356201171875,6.456298828125
0.167,-3.393310546875,-5.114990234375,6.696533203125
0.1675,-4.754638671875,-3.593505859375,6.776611328125
0.168,-5.915771484375,-2.112060546875,6.776611328125
0.1685,-6.476318359375,-1.151123046875,6.736572265625
0.169,-6.556396484375,-0.510498046875,6.496337890625
0.1695,-6.316162109375,0.370361328125,5.735595703125
0.17,-5.835693359375,1.611572265625,4.454345703125
0.1705,-5.555419921875,3.133056640625,2.892822265625
0.171,-5.315185546875,4.334228515625,1.651611328125
0.1715,-5.074951171875,5.094970703125,0.810791015625
0.172,-4.514404296875,5.455322265625,0.090087890625
0.1725,-3.473388671875,5.495361328125,-1.031005859375
0.173,-1.991943359375,5.575439453125,-2.512451171875
0.1735,-0.590576171875,5.695556640625,-4.114013671875
0.174,0.330322265625,5.895751953125,-5.155029296875
0.1745,0.890869140625,6.095947265625,-5.915771484375
0.175,1.771728515625,5.495361328125,-6.396240234375
0.1755,3.052978515625,4.214111328125,-6.556396484375
0.176,4.414306640625,2.732666015625,-6.716552734375
0.1765,5.415283203125,1.371337890625,-6.756591796875
0.177,5.895751953125,0.570556640625,-6.836669921875
0.1775,5.895751953125,-0.270263671875,-6.476318359375
0.178,5.655517578125,-1.071044921875,-5.635498046875
0.1785,5.295166015625,-2.312255859375,-4.274169921875
0.179,5.094970703125,-3.833740234375,-2.872802734375
0.1795,4.934814453125,-4.954833984375,-1.751708984375
0.18,4.734619140625,-5.635498046875,-1.031005859375
0.1805,4.053955078125,-5.915771484375,-0.270263671875
0.181,2.852783203125,-5.995849609375,1.010986328125
0.1815,1.411376953125,-6.156005859375,2.612548828125
0.182,0.210205078125,-6.356201171875,3.973876953125
0.1825,-0.590576171875,-6.596435546875,5.054931640625
0.183,-1.231201171875,-6.596435546875,5.735595703125
0.1835,-2.192138671875,-5.915771484375,6.095947265625
0.184,-3.553466796875,-4.514404296875,6.336181640625
0.1845,-4.914794921875,-3.072998046875,6.536376953125
0.185,-5.755615234375,-1.911865234375,6.536376953125
0.1855,-6.156005859375,-1.271240234375,6.496337890625
0.186,-6.075927734375,-0.510498046875,6.095947265625
0.1865,-5.755615234375,0.570556640625,5.094970703125
0.187,-5.475341796875,1.931884765625,3.733642578125
0.1875,-5.315185546875,3.293212890625,2.412353515625
0.188,-5.155029296875,4.254150390625,1.531494140625
