wavelength,x,y,z
0.0,5.535400390625,0.210205078125,-6.236083984375
0.0005,5.575439453125,-0.870849609375,-5.555419921875
0.001,5.415283203125,-2.192138671875,-4.474365234375
0.0015,5.255126953125,-3.433349609375,-3.353271484375
0.002,4.974853515625,-4.474365234375,-2.152099609375
0.0025,4.614501953125,-5.275146484375,-1.151123046875
0.003,4.134033203125,-5.795654296875,-0.310302734375
0.0035,3.173095703125,-6.115966796875,0.930908203125
0.004,1.931884765625,-6.356201171875,2.412353515625
0.0045,0.610595703125,-6.436279296875,3.813720703125
0.005,-0.430419921875,-6.436279296875,4.734619140625
0.0055,-1.151123046875,-6.476318359375,5.535400390625
0.006,-2.192138671875,-5.915771484375,6.176025390625
0.0065,-3.633544921875,-4.634521484375,6.576416015625
0.007,-4.834716796875,-3.393310546875,6.776611328125
0.0075,-5.675537109375,-2.072021484375,6.656494140625
0.008,-6.115966796875,-1.031005859375,6.376220703125
0.0085,-6.236083984375,-0.230224609375,5.895751953125
0.009,-6.115966796875,0.970947265625,5.054931640625
0.0095,-5.915771484375,2.292236328125,3.733642578125
0.01,-5.635498046875,3.653564453125,2.492431640625
0.0105,-5.195068359375,4.494384765625,1.331298828125
0.011,-4.834716796875,5.215087890625,0.490478515625
0.0115,-4.033935546875,5.575439453125,-0.630615234375
0.012,-2.752685546875,5.735595703125,-1.991943359375
0.0125,-1.431396484375,5.975830078125,-3.513427734375
0.013,-0.190185546875,5.895751953125,-4.714599609375
0.0135,0.690673828125,5.855712890625,-5.515380859375
0.014,1.411376953125,5.735595703125,-6.236083984375
0.0145,2.612548828125,4.814697265625,-6.716552734375
0.015,4.013916015625,3.453369140625,-7.036865234375
0.0155,5.094970703125,2.052001953125,-7.076904296875
0.016,5.735595703125,0.770751953125,-6.716552734375
0.0165,5.975830078125,-0.270263671875,-6.436279296875
0.017,5.935791015625,-1.191162109375,-5.755615234375
0.0175,5.695556640625,-2.432373046875,-4.634521484375
0.018,5.495361328125,-3.673583984375,-3.353271484375
0.0185,5.135009765625,-4.834716796875,-2.072021484375
0.019,4.654541015625,-5.635498046875,-0.990966796875
0.0195,4.214111328125,-6.196044921875,-0.190185546875
0.02,3.293212890625,-6.396240234375,0.970947265625
0.0205,1.931884765625,-6.556396484375,2.452392578125
0.021,0.610595703125,-6.676513671875,3.893798828125
0.0215,-0.630615234375,-6.516357421875,4.934814453125
0.022,-1.311279296875,-6.556396484375,5.695556640625
0.0225,-2.192138671875,-6.156005859375,6.296142578125
0.023,-3.473388671875,-5.074951171875,6.736572265625
0.0235,-4.794677734375,-3.713623046875,6.976806640625
0.024,-5.715576171875,-2.352294921875,6.856689453125
0.0245,-6.236083984375,-1.191162109375,6.456298828125
0.025,-6.396240234375,-0.390380859375,6.216064453125
0.0255,-6.276123046875,0.690673828125,5.415283203125
0.026,-6.035888671875,2.011962890625,4.134033203125
0.0265,-5.795654296875,3.253173828125,2.972900390625
0.027,-5.395263671875,4.334228515625,1.691650390625
0.0275,-4.954833984375,5.054931640625,0.690673828125
0.028,-4.394287109375,5.535400390625,-0.270263671875
0.0285,-3.353271484375,5.735595703125,-1.391357421875
0.029,-1.951904296875,5.895751953125,-2.872802734375
0.0295,-0.630615234375,5.935791015625,-4.234130859375
0.03,0.410400390625,5.855712890625,-5.195068359375
0.0305,1.010986328125,5.895751953125,-5.915771484375
0.031,2.052001953125,5.255126953125,-6.476318359375
0.0315,3.493408203125,4.013916015625,-6.876708984375
0.032,4.614501953125,2.732666015625,-7.036865234375
0.0325,5.415283203125,1.331298828125,-6.836669921875
0.033,5.855712890625,0.330322265625,-6.556396484375
0.0335,5.935791015625,-0.630615234375,-6.156005859375
0.034,5.815673828125,-1.631591796875,-5.275146484375
0.0345,5.615478515625,-2.952880859375,-4.033935546875
0.035,5.335205078125,-4.234130859375,-2.712646484375
0.0355,4.854736328125,-5.155029296875,-1.551513671875
0.036,4.494384765625,-5.875732421875,-0.670654296875
0.0365,3.813720703125,-6.276123046875,0.410400390625
0.037,2.572509765625,-6.436279296875,1.691650390625
0.0375,1.291259765625,-6.676513671875,3.173095703125
0.038,0.010009765625,-6.556396484375,4.494384765625
0.0385,-0.950927734375,-6.556396484375,5.295166015625
0.039,-1.631591796875,-6.476318359375,6.055908203125
0.0395,-2.832763671875,-5.675537109375,6.536376953125
0.04,-4.234130859375,-4.314208984375,6.896728515625
0.0405,-5.395263671875,-2.952880859375,6.976806640625
0.041,-6.035888671875,-1.631591796875,6.656494140625
0.0415,-6.396240234375,-0.790771484375,6.416259765625
0.042,-6.356201171875,0.330322265625,5.775634765625
0.0425,-6.156005859375,1.571533203125,4.694580078125
0.043,-5.955810546875,2.852783203125,3.493408203125
0.0435,-5.635498046875,4.093994140625,2.092041015625
0.044,-5.155029296875,4.934814453125,1.010986328125
0.0445,-4.714599609375,5.535400390625,0.130126953125
0.045,-3.753662109375,5.775634765625,-1.031005859375
0.0455,-2.352294921875,5.975830078125,-2.592529296875
0.046,-1.031005859375,6.135986328125,-4.073974609375
0.0465,0.250244140625,5.975830078125,-5.114990234375
0.047,0.930908203125,5.975830078125,-5.915771484375
0.0475,1.811767578125,5.615478515625,-6.516357421875
0.048,3.173095703125,4.454345703125,-6.956787109375
0.0485,4.494384765625,3.012939453125,-7.197021484375
0.049,5.495361328125,1.571533203125,-7.076904296875
0.0495,5.935791015625,0.330322265625,-6.716552734375
0.05,6.095947265625,-0.550537109375,-6.356201171875
0.0505,5.975830078125,-1.591552734375,-5.475341796875
0.051,5.735595703125,-2.912841796875,-4.194091796875
0.0515,5.455322265625,-4.194091796875,-2.912841796875
0.052,5.014892578125,-5.195068359375,-1.631591796875
0.0525,4.534423828125,-5.915771484375,-0.630615234375
0.053,3.973876953125,-6.356201171875,0.290283203125
0.0535,2.852783203125,-6.516357421875,1.531494140625
0.054,1.491455078125,-6.676513671875,2.972900390625
0.0545,0.050048828125,-6.596435546875,4.374267578125
0.055,-0.990966796875,-6.476318359375,5.255126953125
0.0555,-1.591552734375,-6.476318359375,5.935791015625
0.056,-2.592529296875,-5.835693359375,6.456298828125
0.0565,-3.993896484375,-4.594482421875,6.816650390625
0.057,-5.114990234375,-3.273193359375,6.936767578125
0.0575,-5.915771484375,-1.951904296875,6.656494140625
0.058,-6.236083984375,-0.950927734375,6.416259765625
0.0585,-6.276123046875,0.010009765625,5.935791015625
0.059,-6.115966796875,1.010986328125,5.094970703125
0.0595,-5.875732421875,2.252197265625,3.893798828125
0.06,-5.595458984375,3.533447265625,2.572509765625
0.0605,-5.155029296875,4.414306640625,1.411376953125
0.061,-4.794677734375,5.094970703125,0.570556640625
0.0615,-4.114013671875,5.455322265625,-0.470458984375
0.062,-2.912841796875,5.655517578125,-1.671630859375
0.0625,-1.751708984375,5.895751953125,-3.072998046875
0.063,-0.470458984375,5.775634765625,-4.354248046875
0.0635,0.490478515625,5.775634765625,-5.195068359375
0.064,1.131103515625,5.735595703125,-5.915771484375
0.0645,2.172119140625,5.014892578125,-6.436279296875
0.065,3.533447265625,3.813720703125,-6.756591796875
0.0655,4.614501953125,2.412353515625,-6.876708984375
0.066,5.335205078125,1.251220703125,-6.596435546875
0.0665,5.695556640625,0.370361328125,-6.436279296875
0.067,5.735595703125,-0.630615234375,-5.915771484375
0.0675,5.575439453125,-1.711669921875,-4.954833984375
0.068,5.415283203125,-2.912841796875,-3.873779296875
0.0685,5.094970703125,-4.114013671875,-2.592529296875
0.069,4.734619140625,-4.994873046875,-1.511474609375
0.0695,4.454345703125,-5.715576171875,-0.710693359375
0.07,3.613525390625,-6.035888671875,0.370361328125
0.0705,2.452392578125,-6.196044921875,1.651611328125
0.071,1.211181640625,-6.396240234375,3.133056640625
0.0715,0.050048828125,-6.356201171875,4.174072265625
0.072,-0.790771484375,-6.436279296875,5.054931640625
0.0725,-1.591552734375,-6.276123046875,5.735595703125
0.073,-2.832763671875,-5.315185546875,6.216064453125
0.0735,-4.073974609375,-4.194091796875,6.496337890625
0.074,-5.034912109375,-2.832763671875,6.536376953125
0.0745,-5.635498046875,-1.671630859375,6.336181640625
0.075,-5.915771484375,-0.910888671875,6.095947265625
0.0755,-5.915771484375,0.090087890625,5.495361328125
0.076,-5.755615234375,1.251220703125,4.494384765625
0.0765,-5.595458984375,2.452392578125,3.373291015625
0.077,-5.235107421875,3.493408203125,2.212158203125
0.0775,-4.914794921875,4.334228515625,1.251220703125
0.078,-4.514404296875,4.854736328125,0.410400390625
0.0785,-3.593505859375,5.175048828125,-0.710693359375
0.079,-2.512451171875,5.415283203125,-2.031982421875
0.0795,-1.271240234375,5.535400390625,-3.353271484375
0.08,-0.350341796875,5.535400390625,-4.354248046875
0.0805,0.410400390625,5.655517578125,-5.155029296875
0.081,1.331298828125,5.255126953125,-5.755615234375
0.0815,2.532470703125,4.214111328125,-6.236083984375
0.082,3.693603515625,3.173095703125,-6.436279296875
0.0825,4.534423828125,1.931884765625,-6.356201171875
0.083,5.094970703125,0.970947265625,-6.236083984375
0.0835,5.295166015625,0.170166015625,-5.955810546875
0.084,5.255126953125,-0.830810546875,-5.315185546875
0.0845,5.135009765625,-1.951904296875,-4.354248046875
0.085,4.974853515625,-3.113037109375,-3.273193359375
0.0855,4.654541015625,-4.073974609375,-2.232177734375
0.086,4.494384765625,-4.874755859375,-1.391357421875
0.0865,3.973876953125,-5.395263671875,-0.510498046875
0.087,3.052978515625,-5.635498046875,0.690673828125
0.0875,2.052001953125,-5.955810546875,1.931884765625
0.088,0.890869140625,-6.035888671875,3.173095703125
0.0885,0.050048828125,-6.236083984375,4.093994140625
0.089,-0.710693359375,-6.276123046875,4.894775390625
0.0895,-1.671630859375,-5.835693359375,5.495361328125
0.09,-2.912841796875,-4.794677734375,5.935791015625
0.0905,-4.033935546875,-3.673583984375,6.135986328125
0.091,-4.834716796875,-2.472412109375,6.055908203125
0.0915,-5.315185546875,-1.671630859375,6.055908203125
0.092,-5.475341796875,-0.910888671875,5.695556640625
0.0925,-5.435302734375,0.210205078125,4.934814453125
0.093,-5.435302734375,1.251220703125,4.134033203125
0.0935,-5.235107421875,2.412353515625,3.052978515625
0.094,-4.994873046875,3.333251953125,2.052001953125
0.0945,-4.794677734375,4.093994140625,1.291259765625
0.095,-4.194091796875,4.534423828125,0.370361328125
0.0955,-3.233154296875,4.854736328125,-0.910888671875
0.096,-2.272216796875,5.215087890625,-2.152099609375
0.0965,-1.231201171875,5.255126953125,-3.233154296875
0.097,-0.550537109375,5.495361328125,-4.194091796875
0.0975,0.370361328125,5.415283203125,-4.994873046875
0.098,1.451416015625,4.814697265625,-5.515380859375
0.0985,2.652587890625,3.893798828125,-5.915771484375
0.099,3.693603515625,2.692626953125,-6.075927734375
0.0995,4.414306640625,1.691650390625,-6.035888671875
0.1,4.854736328125,0.970947265625,-6.035888671875
0.1005,4.974853515625,0.130126953125,-5.635498046875
0.101,4.934814453125,-0.990966796875,-4.834716796875
0.1015,4.934814453125,-2.072021484375,-3.953857421875
0.102,4.734619140625,-3.153076171875,-2.952880859375
0.1025,4.534423828125,-4.033935546875,-2.072021484375
0.103,4.294189453125,-4.754638671875,-1.271240234375
0.1035,3.613525390625,-5.155029296875,-0.310302734375
0.104,2.732666015625,-5.555419921875,0.930908203125
0.1045,1.651611328125,-5.795654296875,2.172119140625
0.105,0.770751953125,-5.955810546875,3.213134765625
0.1055,0.090087890625,-6.236083984375,4.134033203125
0.106,-0.910888671875,-5.955810546875,4.894775390625
0.1065,-2.072021484375,-5.155029296875,5.415283203125
0.107,-3.193115234375,-4.234130859375,5.815673828125
0.1075,-4.154052734375,-3.113037109375,5.855712890625
0.108,-4.834716796875,-2.232177734375,5.895751953125
0.1085,-5.155029296875,-1.431396484375,5.775634765625
0.109,-5.315185546875,-0.590576171875,5.295166015625
0.1095,-5.275146484375,0.570556640625,4.534423828125
0.11,-5.235107421875,1.651611328125,3.573486328125
0.1105,-5.034912109375,2.692626953125,2.572509765625
0.111,-4.914794921875,3.573486328125,1.771728515625
0.1115,-4.514404296875,4.174072265625,0.930908203125
0.112,-3.673583984375,4.534423828125,-0.310302734375
0.1125,-2.832763671875,4.974853515625,-1.511474609375
0.113,-1.751708984375,5.135009765625,-2.712646484375
0.1135,-0.950927734375,5.375244140625,-3.713623046875
0.114,-0.190185546875,5.495361328125,-4.554443359375
0.1145,0.930908203125,5.135009765625,-5.275146484375
0.115,2.132080078125,4.214111328125,-5.755615234375
0.1155,3.293212890625,3.093017578125,-6.035888671875
0.116,4.134033203125,2.011962890625,-5.995849609375
0.1165,4.654541015625,1.251220703125,-6.035888671875
0.117,4.934814453125,0.370361328125,-5.715576171875
0.1175,4.934814453125,-0.670654296875,-4.994873046875
0.118,4.974853515625,-1.791748046875,-4.234130859375
0.1185,4.814697265625,-2.912841796875,-3.193115234375
0.119,4.614501953125,-3.833740234375,-2.272216796875
0.1195,4.454345703125,-4.634521484375,-1.471435546875
0.12,3.853759765625,-5.114990234375,-0.550537109375
0.1205,2.852783203125,-5.475341796875,0.730712890625
0.121,1.931884765625,-5.875732421875,2.011962890625
0.1215,0.890869140625,-5.955810546875,3.093017578125
0.122,0.170166015625,-6.156005859375,4.093994140625
0.1225,-0.750732421875,-6.035888671875,4.854736328125
0.123,-1.911865234375,-5.355224609375,5.415283203125
0.1235,-3.113037109375,-4.354248046875,5.815673828125
0.124,-4.154052734375,-3.193115234375,5.975830078125
0.1245,-4.874755859375,-2.192138671875,5.895751953125
0.125,-5.275146484375,-1.431396484375,5.855712890625
0.1255,-5.395263671875,-0.590576171875,5.415283203125
0.126,-5.315185546875,0.570556640625,4.534423828125
0.1265,-5.315185546875,1.731689453125,3.653564453125
0.127,-5.114990234375,2.812744140625,2.572509765625
0.1275,-4.874755859375,3.653564453125,1.731689453125
0.128,-4.514404296875,4.294189453125,0.890869140625
0.1285,-3.793701171875,4.614501953125,-0.270263671875
0.129,-2.792724609375,4.974853515625,-1.511474609375
0.1295,-1.711669921875,5.175048828125,-2.792724609375
0.13,-0.830810546875,5.375244140625,-3.793701171875
0.1305,-0.150146484375,5.575439453125,-4.634521484375
0.131,0.890869140625,5.215087890625,-5.315185546875
0.1315,2.172119140625,4.294189453125,-5.795654296875
0.132,3.333251953125,3.213134765625,-6.115966796875
0.1325,4.214111328125,2.052001953125,-6.115966796875
0.133,4.774658203125,1.171142578125,-6.115966796875
0.1335,5.054931640625,0.330322265625,-5.835693359375
0.134,5.094970703125,-0.630615234375,-5.235107421875
0.1345,4.974853515625,-1.751708984375,-4.354248046875
0.135,4.934814453125,-2.952880859375,-3.273193359375
0.1355,4.654541015625,-3.913818359375,-2.272216796875
0.136,4.494384765625,-4.754638671875,-1.431396484375
0.1365,3.893798828125,-5.275146484375,-0.590576171875
0.137,3.012939453125,-5.555419921875,0.650634765625
0.1375,1.971923828125,-5.955810546875,1.931884765625
0.138,0.890869140625,-5.995849609375,3.173095703125
0.1385,0.130126953125,-6.156005859375,4.134033203125
0.139,-0.710693359375,-6.196044921875,4.934814453125
0.1395,-1.791748046875,-5.635498046875,5.575439453125
0.14,-3.113037109375,-4.594482421875,5.975830078125
0.1405,-4.194091796875,-3.353271484375,6.176025390625
0.141,-4.994873046875,-2.232177734375,6.055908203125
0.1415,-5.435302734375,-1.431396484375,6.015869140625
0.142,-5.595458984375,-0.590576171875,5.575439453125
0.1425,-5.475341796875,0.610595703125,4.734619140625
0.143,-5.475341796875,1.731689453125,3.813720703125
0.1435,-5.275146484375,2.892822265625,2.652587890625
0.144,-4.994873046875,3.813720703125,1.651611328125
0.1445,-4.674560546875,4.494384765625,0.850830078125
0.145,-3.993896484375,4.814697265625,-0.190185546875
0.1455,-2.872802734375,5.094970703125,-1.551513671875
0.146,-1.751708984375,5.495361328125,-2.872802734375
0.1465,-0.710693359375,5.495361328125,-3.953857421875
0.147,0.090087890625,5.695556640625,-4.834716796875
0.1475,0.970947265625,5.415283203125,-5.555419921875
0.148,2.252197265625,4.494384765625,-6.075927734375
0.1485,3.493408203125,3.333251953125,-6.396240234375
0.149,4.494384765625,2.052001953125,-6.436279296875
0.1495,5.094970703125,1.010986328125,-6.276123046875
0.15,5.415283203125,0.210205078125,-6.115966796875
0.1505,5.415283203125,-0.870849609375,-5.475341796875
0.151,5.255126953125,-2.072021484375,-4.394287109375
0.1515,5.175048828125,-3.353271484375,-3.233154296875
0.152,4.854736328125,-4.394287109375,-2.112060546875
0.1525,4.574462890625,-5.235107421875,-1.231201171875
0.153,4.093994140625,-5.755615234375,-0.350341796875
0.1535,3.052978515625,-6.035888671875,0.930908203125
0.154,1.851806640625,-6.276123046875,2.412353515625
0.1545,0.530517578125,-6.356201171875,3.773681640625
0.155,-0.430419921875,-6.396240234375,4.654541015625
0.1555,-1.111083984375,-6.396240234375,5.455322265625
0.156,-2.192138671875,-5.795654296875,6.095947265625
0.1565,-3.633544921875,-4.514404296875,6.496337890625
0.157,-4.834716796875,-3.233154296875,6.696533203125
0.1575,-5.635498046875,-1.951904296875,6.496337890625
0.158,-6.035888671875,-0.990966796875,6.296142578125
0.1585,-6.115966796875,-0.150146484375,5.815673828125
0.159,-5.995849609375,1.091064453125,4.854736328125
0.1595,-5.795654296875,2.372314453125,3.693603515625
0.16,-5.515380859375,3.653564453125,2.412353515625
0.1605,-5.114990234375,4.494384765625,1.291259765625
0.161,-4.754638671875,5.094970703125,0.450439453125
0.1615,-3.913818359375,5.415283203125,-0.710693359375
0.162,-2.592529296875,5.655517578125,-2.072021484375
0.1625,-1.351318359375,5.895751953125,-3.553466796875
0.163,-0.190185546875,5.775634765625,-4.674560546875
0.1635,0.650634765625,5.815673828125,-5.475341796875
0.164,1.411376953125,5.615478515625,-6.156005859375
0.1645,2.652587890625,4.694580078125,-6.636474609375
0.165,4.053955078125,3.333251953125,-6.956787109375
0.1655,5.094970703125,1.931884765625,-6.916748046875
0.166,5.695556640625,0.690673828125,-6.596435546875
0.1665,5.895751953125,-0.230224609375,-6.356201171875
0.167,5.855712890625,-1.151123046875,-5.675537109375
0.1675,5.655517578125,-2.472412109375,-4.474365234375
0.168,5.415283203125,-3.753662109375,-3.193115234375
0.1685,5.054931640625,-4.874755859375,-1.991943359375
0.169,4.614501953125,-5.715576171875,-0.910888671875
0.1695,4.134033203125,-6.236083984375,0.010009765625
0.17,3.173095703125,-6.356201171875,1.091064453125
0.1705,1.771728515625,-6.516357421875,2.532470703125
0.171,0.450439453125,-6.596435546875,4.013916015625
0.1715,-0.710693359375,-6.476318359375,4.974853515625
0.172,-1.351318359375,-6.516357421875,5.735595703125
0.1725,-2.272216796875,-6.075927734375,6.336181640625
0.173,-3.713623046875,-4.874755859375,6.736572265625
0.1735,-4.874755859375,-3.553466796875,6.976806640625
0.174,-5.795654296875,-2.152099609375,6.816650390625
0.1745,-6.276123046875,-0.990966796875,6.456298828125
0.175,-6.396240234375,-0.190185546875,6.135986328125
0.1755,-6.276123046875,0.930908203125,5.295166015625
0.176,-6.035888671875,2.252197265625,4.013916015625
0.1765,-5.755615234375,3.493408203125,2.692626953125
0.177,-5.315185546875,4.494384765625,1.451416015625
0.1775,-4.914794921875,5.175048828125,0.490478515625
0.178,-4.234130859375,5.615478515625,-0.470458984375
0.1785,-3.072998046875,5.815673828125,-1.711669921875
0.179,-1.751708984375,6.015869140625,-3.193115234375
0.1795,-0.390380859375,5.935791015625,-4.554443359375
0.18,0.610595703125,5.895751953125,-5.435302734375
0.1805,1.291259765625,5.855712890625,-6.156005859375
0.181,2.332275390625,5.094970703125,-6.676513671875
0.1815,3.813720703125,3.773681640625,-6.996826171875
0.182,4.934814453125,2.412353515625,-7.076904296875
0.1825,5.615478515625,1.091064453125,-6.796630859375
0.183,6.015869140625,0.090087890625,-6.556396484375
0.1835,6.055908203125,-0.910888671875,-6.035888671875
0.184,5.815673828125,-1.991943359375,-4.994873046875
0.1845,5.615478515625,-3.353271484375,-3.713623046875
0.185,5.255126953125,-4.634521484375,-2.392333984375
0.1855,4.774658203125,-5.515380859375,-1.271240234375
0.186,4.454345703125,-6.115966796875,-0.390380859375
0.1865,3.573486328125,-6.396240234375,0.690673828125
0.187,2.252197265625,-6.556396484375,2.092041015625
0.1875,0.930908203125,-6.716552734375,3.573486328125
0.188,-0.430419921875,-6.596435546875,4.774658203125
