wavelength,x,y,z
0.0,12.091796875,8.2880859375,-19.7392578125
0.0005,8.2880859375,11.8515625,-19.619140625
0.001,3.04296875,15.615234375,-18.2578125
0.0015,-1.8818359375,18.5380859375,-16.65625
0.002,-5.044921875,20.1796875,-15.2548828125
0.0025,-7.767578125,20.9404296875,-13.453125
0.003,-10.650390625,20.7802734375,-10.890625
0.0035,-14.173828125,20.01953125,-6.56640625
0.004,-17.376953125,18.7783203125,-2.2822265625
0.0045,-20.01953125,16.9765625,2.1220703125
0.005,-20.66015625,14.89453125,4.8046875
0.0055,-20.98046875,12.2919921875,7.7275390625
0.006,-20.66015625,8.6484375,11.0908203125
0.0065,-19.6591796875,3.8837890625,14.7744140625
0.007,-18.2177734375,-0.560546875,17.8173828125
0.0075,-16.6162109375,-4.1240234375,19.8193359375
0.008,-14.3740234375,-7.046875,20.5
0.0085,-10.970703125,-10.08984375,20.259765625
0.009,-6.40625,-13.8935546875,19.5791015625
0.0095,-1.1611328125,-17.45703125,18.1376953125
0.01,3.6435546875,-19.939453125,16.3759765625
0.0105,6.40625,-21.0205078125,14.734375
0.011,9.2490234375,-21.8212890625,12.6123046875
0.0115,12.4521484375,-21.1806640625,9.2490234375
0.012,15.9755859375,-20.0595703125,4.8046875
0.0125,19.05859375,-18.498046875,0.2802734375
0.013,21.1005859375,-16.65625,-3.603515625
0.0135,21.3408203125,-14.25390625,-6.2060546875
0.014,21.30078125,-11.1708984375,-9.3291015625
0.0145,20.66015625,-6.9267578125,-12.9326171875
0.015,19.5390625,-2.3623046875,-16.3759765625
0.0155,17.8173828125,2.08203125,-18.978515625
0.016,15.85546875,5.2451171875,-20.33984375
0.0165,13.4130859375,8.2080078125,-20.8603515625
0.017,9.2490234375,11.6513671875,-20.33984375
0.0175,4.404296875,15.21484375,-19.2587890625
0.018,-0.80078125,18.5380859375,-17.9775390625
0.0185,-5.0048828125,20.8203125,-15.935546875
0.019,-7.5673828125,21.380859375,-14.0537109375
0.0195,-10.6103515625,21.6611328125,-11.5712890625
0.02,-14.0537109375,21.0205078125,-7.7275390625
0.0205,-17.296875,19.619140625,-3.203125
0.021,-20.0595703125,17.857421875,1.3212890625
0.0215,-21.5009765625,15.85546875,4.64453125
0.022,-21.6611328125,13.29296875,7.3671875
0.0225,-21.380859375,9.7294921875,10.6103515625
0.023,-20.4599609375,5.2451171875,14.2138671875
0.0235,-19.138671875,0.720703125,17.4970703125
0.024,-17.3369140625,-3.5234375,19.859375
0.0245,-15.134765625,-6.326171875,20.5400390625
0.025,-12.5322265625,-9.2890625,20.9404296875
0.0255,-7.8076171875,-13.1328125,20.1396484375
0.026,-2.8427734375,-16.3759765625,18.658203125
0.0265,2.001953125,-19.298828125,17.0966796875
0.027,5.7255859375,-21.140625,15.4150390625
0.0275,8.3681640625,-21.5009765625,13.29296875
0.028,11.2509765625,-21.5009765625,10.73046875
0.0285,14.974609375,-20.7001953125,6.40625
0.029,18.09765625,-19.21875,1.921875
0.0295,20.4599609375,-17.4169921875,-2.2021484375
0.03,21.2607421875,-15.375,-5.0849609375
0.0305,21.4208984375,-12.65234375,-7.9677734375
0.031,20.9404296875,-8.5283203125,-11.611328125
0.0315,19.8994140625,-4.1640625,-14.89453125
0.032,18.498046875,0.3203125,-17.9775390625
0.0325,16.65625,4.1640625,-20.0595703125
0.033,14.1337890625,6.88671875,-20.33984375
0.0335,11.3310546875,9.8896484375,-20.6201171875
0.034,6.166015625,14.0537109375,-19.7392578125
0.0345,1.12109375,17.3369140625,-18.1376953125
0.035,-3.203125,19.8193359375,-16.5361328125
0.0355,-6.40625,21.1806640625,-14.9345703125
0.036,-9.208984375,21.4208984375,-12.65234375
0.0365,-12.33203125,21.1005859375,-9.44921875
0.037,-15.775390625,20.1796875,-5.1650390625
0.0375,-18.978515625,18.498046875,-0.400390625
0.038,-20.900390625,16.6162109375,3.4033203125
0.0385,-21.30078125,14.333984375,6.005859375
0.039,-21.5009765625,11.4912109375,9.0087890625
0.0395,-20.66015625,6.6865234375,13.052734375
0.04,-19.4990234375,2.40234375,16.17578125
0.0405,-17.9375,-1.8818359375,18.8583984375
0.041,-16.0556640625,-5.4453125,20.5400390625
0.0415,-13.373046875,-8.2080078125,20.580078125
0.042,-9.7294921875,-11.4111328125,20.419921875
0.0425,-4.6845703125,-15.2548828125,19.3388671875
0.043,0.640625,-18.498046875,17.6171875
0.0435,4.5244140625,-20.5,15.935546875
0.044,7.3671875,-21.3408203125,14.1337890625
0.0445,10.25,-21.62109375,11.7314453125
0.045,13.8134765625,-20.8603515625,7.607421875
0.0455,16.8564453125,-19.7392578125,3.5634765625
0.046,19.8193359375,-18.017578125,-1.0009765625
0.0465,21.2607421875,-16.015625,-4.404296875
0.047,21.1806640625,-13.4130859375,-7.0068359375
0.0475,21.1806640625,-10.330078125,-10.0498046875
0.048,20.2998046875,-5.4853515625,-14.013671875
0.0485,18.8984375,-1.0009765625,-17.1767578125
0.049,17.1767578125,2.8427734375,-19.2587890625
0.0495,15.1748046875,6.0458984375,-20.5
0.05,12.251953125,8.96875,-20.5400390625
0.0505,7.6474609375,12.7724609375,-19.859375
0.051,3.123046875,16.015625,-18.6982421875
0.0515,-1.9619140625,19.1787109375,-17.0166015625
0.052,-5.4853515625,20.740234375,-15.375
0.0525,-8.087890625,21.060546875,-13.3330078125
0.053,-10.7705078125,21.30078125,-11.1708984375
0.0535,-14.8544921875,20.1796875,-6.3662109375
0.054,-17.697265625,18.818359375,-1.9619140625
0.0545,-20.01953125,17.216796875,1.921875
0.055,-21.140625,15.1748046875,4.96484375
0.0555,-20.9404296875,12.33203125,7.6474609375
0.056,-20.7001953125,8.6083984375,11.1708984375
0.0565,-19.7392578125,4.2041015625,14.57421875
0.057,-18.337890625,-0.3603515625,17.77734375
0.0575,-16.4560546875,-4.00390625,19.4990234375
0.058,-14.3740234375,-6.646484375,20.1396484375
0.0585,-11.6513671875,-9.529296875,20.419921875
0.059,-6.166015625,-13.7333984375,19.21875
0.0595,-1.6015625,-16.736328125,17.8974609375
0.06,2.72265625,-19.298828125,16.416015625
0.0605,5.92578125,-20.740234375,14.8544921875
0.061,8.568359375,-20.8203125,12.4921875
0.0615,11.451171875,-20.8603515625,9.9296875
0.062,15.1748046875,-19.8994140625,5.365234375
0.0625,18.177734375,-18.337890625,0.6806640625
0.063,19.9794921875,-16.576171875,-2.6025390625
0.0635,20.740234375,-14.494140625,-5.4052734375
0.064,20.66015625,-11.7314453125,-8.16796875
0.0645,20.099609375,-7.0869140625,-12.251953125
0.065,19.138671875,-3.203125,-15.21484375
0.0655,17.77734375,1.0810546875,-18.09765625
0.066,15.85546875,4.564453125,-19.619140625
0.0665,13.2529296875,7.1669921875,-19.69921875
0.067,10.2099609375,10.3701171875,-19.939453125
0.0675,4.7646484375,14.5341796875,-18.7783203125
0.068,-0.3203125,17.697265625,-17.1767578125
0.0685,-3.8837890625,19.69921875,-15.775390625
0.069,-6.88671875,20.8603515625,-14.173828125
0.0695,-9.7294921875,20.8603515625,-11.611328125
0.07,-13.1328125,20.419921875,-7.9677734375
0.0705,-16.3759765625,19.458984375,-3.8837890625
0.071,-19.37890625,17.6572265625,0.80078125
0.0715,-20.580078125,15.8154296875,3.84375
0.072,-20.8603515625,13.4130859375,6.4462890625
0.0725,-20.9404296875,10.5302734375,9.4091796875
0.073,-20.1796875,5.525390625,13.7734375
0.0735,-18.73828125,1.1611328125,16.6162109375
0.074,-17.2568359375,-2.5625,18.8583984375
0.0745,-15.3349609375,-5.845703125,20.33984375
0.075,-12.2119140625,-8.6884765625,20.01953125
0.0755,-8.2080078125,-12.2919921875,19.779296875
0.076,-3.0830078125,-16.015625,18.578125
0.0765,2.08203125,-19.138671875,16.81640625
0.077,5.2451171875,-20.5,15.294921875
0.0775,8.087890625,-21.30078125,13.4130859375
0.078,10.8505859375,-21.3408203125,10.970703125
0.0785,14.734375,-20.2998046875,6.2060546875
0.079,17.77734375,-19.05859375,2.0419921875
0.0795,20.2197265625,-17.376953125,-2.0419921875
0.08,21.1005859375,-15.294921875,-4.96484375
0.0805,20.900390625,-12.412109375,-7.7275390625
0.081,20.8203125,-9.0888671875,-11.1708984375
0.0815,19.859375,-4.244140625,-14.89453125
0.082,18.4580078125,0.640625,-17.9775390625
0.0825,16.416015625,3.923828125,-19.5390625
0.083,14.3740234375,7.0068359375,-20.6201171875
0.0835,11.0908203125,9.9296875,-20.33984375
0.084,5.8857421875,14.013671875,-19.37890625
0.0845,1.28125,17.296875,-18.177734375
0.085,-3.5634765625,20.01953125,-16.4560546875
0.0855,-6.486328125,21.060546875,-14.7744140625
0.086,-9.369140625,21.2607421875,-12.33203125
0.0865,-12.171875,21.2607421875,-9.76953125
0.087,-16.015625,19.9794921875,-4.7646484375
0.0875,-19.0986328125,18.2177734375,0.0400390625
0.088,-20.8203125,16.49609375,3.36328125
0.0885,-21.5009765625,14.25390625,6.24609375
0.089,-21.140625,11.05078125,9.0888671875
0.0895,-20.580078125,6.7666015625,12.8125
0.09,-19.5390625,2.40234375,16.1357421875
0.0905,-17.9375,-2.162109375,19.1787109375
0.091,-15.775390625,-5.3251953125,20.1796875
0.0915,-13.4130859375,-8.16796875,20.740234375
0.092,-9.9296875,-11.4111328125,20.5
0.0925,-4.2041015625,-15.455078125,19.0986328125
0.093,0.6806640625,-18.578125,17.5771484375
0.0935,4.64453125,-20.740234375,15.9755859375
0.094,7.52734375,-21.5810546875,14.2138671875
0.0945,10.5703125,-21.541015625,11.3310546875
0.095,13.693359375,-21.140625,8.0078125
0.0955,17.13671875,-19.859375,3.4833984375
0.096,20.099609375,-17.8974609375,-1.4013671875
0.0965,21.1005859375,-16.015625,-4.32421875
0.097,21.541015625,-13.61328125,-7.126953125
0.0975,21.1806640625,-10.2900390625,-10.1298828125
0.098,20.2197265625,-5.28515625,-14.1337890625
0.0985,18.9384765625,-1.041015625,-17.13671875
0.099,17.376953125,3.0830078125,-19.619140625
0.0995,15.0546875,6.2060546875,-20.5
0.1,12.091796875,9.0888671875,-20.5
0.1005,8.0478515625,12.7724609375,-20.2197265625
0.101,2.6025390625,16.49609375,-18.73828125
0.1015,-2.40234375,19.458984375,-16.9365234375
0.102,-5.60546875,20.900390625,-15.4150390625
0.1025,-8.48828125,21.62109375,-13.453125
0.103,-11.451171875,21.380859375,-10.5302734375
0.1035,-14.974609375,20.4599609375,-6.24609375
0.104,-18.1376953125,19.138671875,-1.921875
0.1045,-20.66015625,17.216796875,2.482421875
0.105,-21.220703125,15.0947265625,5.1650390625
0.1055,-21.4208984375,12.2919921875,8.087890625
0.106,-21.060546875,8.6884765625,11.37109375
0.1065,-19.939453125,3.8037109375,15.21484375
0.107,-18.337890625,-0.7607421875,18.177734375
0.1075,-16.65625,-4.32421875,20.0595703125
0.108,-14.4140625,-7.2470703125,20.8203125
0.1085,-11.0908203125,-10.330078125,20.4599609375
0.109,-6.3662109375,-14.09375,19.8193359375
0.1095,-1.1611328125,-17.6171875,18.2978515625
0.11,3.5634765625,-20.2197265625,16.49609375
0.1105,6.40625,-21.1806640625,14.8544921875
0.111,9.369140625,-21.78125,12.6923828125
0.1115,12.5322265625,-21.380859375,9.4091796875
0.112,16.095703125,-20.2197265625,4.8447265625
0.1125,19.138671875,-18.658203125,0.3603515625
0.113,21.1005859375,-16.8564453125,-3.4833984375
0.1135,21.4208984375,-14.5341796875,-6.1259765625
0.114,21.30078125,-11.291015625,-9.208984375
0.1145,20.740234375,-7.0869140625,-12.8125
0.115,19.5791015625,-2.482421875,-16.2958984375
0.1155,17.8173828125,2.0419921875,-19.0185546875
0.116,15.85546875,5.205078125,-20.2197265625
0.1165,13.4130859375,8.1279296875,-21.1806640625
0.117,9.3291015625,11.5712890625,-20.2998046875
0.1175,4.404296875,15.21484375,-19.21875
0.118,-0.6806640625,18.5380859375,-17.697265625
0.1185,-4.884765625,20.7802734375,-15.9755859375
0.119,-7.4873046875,21.3408203125,-14.1337890625
0.1195,-10.490234375,21.62109375,-11.6513671875
0.12,-13.93359375,21.0205078125,-7.8876953125
0.1205,-17.2568359375,19.69921875,-3.283203125
0.121,-20.01953125,17.857421875,1.3212890625
0.1215,-21.541015625,15.9755859375,4.6044921875
0.122,-21.7412109375,13.4130859375,7.3671875
0.1225,-21.5009765625,9.849609375,10.6904296875
0.123,-20.5400390625,5.3251953125,14.25390625
0.1235,-19.2587890625,0.7607421875,17.5771484375
0.124,-17.4169921875,-3.5234375,19.9794921875
0.1245,-15.21484375,-6.3662109375,20.6201171875
0.125,-12.5322265625,-9.3291015625,21.0205078125
0.1255,-7.607421875,-13.1728515625,20.1796875
0.126,-2.6826171875,-16.65625,18.818359375
0.1265,2.162109375,-19.5390625,17.216796875
0.127,5.8857421875,-21.4208984375,15.5751953125
0.1275,8.568359375,-21.701171875,13.4130859375
0.128,11.451171875,-21.9814453125,10.5703125
0.1285,15.1748046875,-20.900390625,6.3662109375
0.129,18.4580078125,-19.37890625,1.76171875
0.1295,20.8203125,-17.4970703125,-2.5224609375
0.13,21.62109375,-15.3349609375,-5.4453125
0.1305,21.78125,-12.5322265625,-8.328125
0.131,21.1806640625,-8.2880859375,-12.1318359375
0.1315,20.099609375,-3.923828125,-15.3349609375
0.132,18.578125,0.640625,-18.3779296875
0.1325,16.6962890625,4.5244140625,-20.4599609375
0.133,14.1337890625,7.287109375,-20.66015625
0.1335,11.2109375,10.2900390625,-20.8603515625
0.134,6.0458984375,14.3740234375,-19.8994140625
0.1345,0.880859375,17.697265625,-18.2578125
0.135,-3.5234375,20.1396484375,-16.576171875
0.1355,-6.7265625,21.4609375,-14.9345703125
0.136,-9.44921875,21.701171875,-12.8125
0.1365,-12.65234375,21.2607421875,-9.2490234375
0.137,-16.015625,20.2197265625,-5.0048828125
0.1375,-19.21875,18.5380859375,-0.2802734375
0.138,-21.140625,16.65625,3.5634765625
0.1385,-21.4609375,14.25390625,6.2060546875
0.139,-21.62109375,11.37109375,9.208984375
0.1395,-20.8203125,6.646484375,13.2529296875
0.14,-19.619140625,2.2822265625,16.3359375
0.1405,-18.017578125,-1.9619140625,18.9384765625
0.141,-16.17578125,-5.4052734375,20.66015625
0.1415,-13.453125,-8.1279296875,20.7001953125
0.142,-9.8095703125,-11.4111328125,20.4599609375
0.1425,-4.8447265625,-15.1748046875,19.37890625
0.143,0.48046875,-18.5380859375,17.7373046875
0.1435,4.484375,-20.5400390625,16.015625
0.144,7.3271484375,-21.3408203125,14.3740234375
0.1445,10.2099609375,-21.78125,11.8916015625
0.145,13.8134765625,-21.0205078125,7.84765625
0.1455,16.896484375,-19.859375,3.68359375
0.146,19.779296875,-18.1376953125,-0.8408203125
0.1465,21.30078125,-16.2158203125,-4.2841796875
0.147,21.2607421875,-13.5732421875,-6.8466796875
0.1475,21.2607421875,-10.41015625,-10.009765625
0.148,20.3798828125,-5.60546875,-13.9736328125
0.1485,19.05859375,-1.12109375,-17.1767578125
0.149,17.2568359375,2.8427734375,-19.2587890625
0.1495,15.21484375,5.9658203125,-20.4599609375
0.15,12.3720703125,8.9287109375,-20.580078125
0.1505,7.6474609375,12.8125,-19.859375
0.151,3.123046875,16.015625,-18.73828125
0.1515,-1.9619140625,19.1787109375,-17.056640625
0.152,-5.60546875,20.8203125,-15.375
0.1525,-8.087890625,21.1005859375,-13.3330078125
0.153,-10.970703125,21.4609375,-11.05078125
0.1535,-14.89453125,20.419921875,-6.2861328125
0.154,-17.8974609375,18.8984375,-1.8818359375
0.1545,-20.1396484375,17.296875,1.9619140625
0.155,-21.30078125,15.2548828125,5.0849609375
0.1555,-21.140625,12.412109375,7.8076171875
0.156,-20.900390625,8.5283203125,11.4111328125
0.1565,-19.939453125,4.2041015625,14.734375
0.157,-18.5380859375,-0.48046875,18.017578125
0.1575,-16.576171875,-4.1240234375,19.779296875
0.158,-14.4140625,-6.806640625,20.33984375
0.1585,-11.5712890625,-9.76953125,20.6201171875
0.159,-6.0859375,-14.0537109375,19.458984375
0.1595,-1.4013671875,-17.056640625,17.9775390625
0.16,2.8828125,-19.7392578125,16.49609375
0.1605,6.24609375,-21.140625,14.89453125
0.161,8.96875,-21.1806640625,12.412109375
0.1615,11.8515625,-21.140625,9.7294921875
0.162,15.615234375,-20.1396484375,5.1650390625
0.1625,18.73828125,-18.4580078125,0.48046875
0.163,20.419921875,-16.6962890625,-2.9228515625
0.1635,21.060546875,-14.494140625,-5.685546875
0.164,21.0205078125,-11.69140625,-8.48828125
0.1645,20.3798828125,-6.88671875,-12.6923828125
0.165,19.298828125,-2.9228515625,-15.5751953125
0.1655,17.9375,1.4013671875,-18.4580078125
0.166,15.935546875,4.884765625,-20.01953125
0.1665,13.212890625,7.52734375,-20.01953125
0.167,10.0498046875,10.73046875,-20.2197265625
0.1675,4.564453125,14.8544921875,-19.05859375
0.168,-0.5205078125,18.0576171875,-17.3369140625
0.1685,-4.1640625,19.9794921875,-15.8154296875
0.169,-7.126953125,21.1005859375,-14.25390625
0.1695,-9.9697265625,21.060546875,-11.611328125
0.17,-13.3330078125,20.4599609375,-7.84765625
0.1705,-16.49609375,19.4990234375,-3.8037109375
0.171,-19.4990234375,17.697265625,0.9208984375
0.1715,-20.7802734375,15.775390625,4.00390625
0.172,-20.900390625,13.3330078125,6.6064453125
0.1725,-21.0205078125,10.490234375,9.5693359375
0.173,-20.099609375,5.28515625,13.8134765625
0.1735,-18.73828125,1.12109375,16.7763671875
0.174,-17.2568359375,-2.642578125,18.8984375
0.1745,-15.4150390625,-5.845703125,20.33984375
0.175,-12.33203125,-8.6083984375,20.0595703125
0.1755,-8.2080078125,-12.2119140625,19.69921875
0.176,-3.203125,-15.85546875,18.498046875
0.1765,1.921875,-18.9384765625,16.7763671875
0.177,5.0849609375,-20.3798828125,15.21484375
0.1775,7.927734375,-21.1005859375,13.373046875
0.178,10.6103515625,-21.1806640625,10.970703125
0.1785,14.57421875,-20.1396484375,6.2060546875
0.179,17.537109375,-18.8984375,2.1220703125
0.1795,19.859375,-17.296875,-1.8017578125
0.18,20.7802734375,-15.3349609375,-4.724609375
0.1805,20.6201171875,-12.4521484375,-7.3271484375
0.181,20.4599609375,-9.0087890625,-10.650390625
0.1815,19.5791015625,-4.32421875,-14.4541015625
0.182,18.017578125,0.2802734375,-17.4970703125
0.1825,16.255859375,3.603515625,-19.05859375
0.183,14.2138671875,6.56640625,-20.099609375
0.1835,11.1708984375,9.4892578125,-19.9794921875
0.184,6.0458984375,13.533203125,-19.05859375
0.1845,1.521484375,16.6962890625,-17.8974609375
0.185,-3.0830078125,19.37890625,-16.2958984375
0.1855,-6.0458984375,20.4599609375,-14.654296875
0.186,-8.80859375,20.740234375,-12.33203125
0.1865,-11.5712890625,20.7802734375,-9.849609375
0.187,-15.455078125,19.5791015625,-5.0048828125
0.1875,-18.41796875,17.9375,-0.400390625
0.188,-20.0595703125,16.2958984375,2.8427734375
0.1885,-20.8203125,14.25390625,5.5654296875
0.189,-20.5400390625,11.2509765625,8.328125
0.1895,-20.01953125,6.9267578125,12.171875
0.19,-19.0986328125,2.72265625,15.4150390625
0.1905,-17.697265625,-1.681640625,18.41796875
0.191,-15.6953125,-5.0048828125,19.5390625
0.1915,-13.3330078125,-7.5673828125,20.0595703125
0.192,-10.009765625,-10.7705078125,20.0595703125
0.1925,-4.4443359375,-14.8544921875,18.6982421875
0.193,0.400390625,-17.9375,17.2568359375
0.1935,4.1240234375,-19.9794921875,15.8154296875
0.194,6.966796875,-20.9404296875,14.1337890625
0.1945,9.9296875,-20.900390625,11.37109375
0.195,13.052734375,-20.5,8.0478515625
0.1955,16.4560546875,-19.458984375,3.7236328125
0.196,19.37890625,-17.6171875,-1.0009765625
0.1965,20.66015625,-15.5751953125,-3.84375
0.197,20.9404296875,-13.453125,-6.6064453125
0.1975,20.7001953125,-10.3701171875,-9.5693359375
0.198,19.859375,-5.4453125,-13.61328125
0.1985,18.6181640625,-1.2412109375,-16.65625
0.199,17.1767578125,2.802734375,-19.1787109375
0.1995,14.974609375,5.8857421875,-20.1396484375
0.2,11.931640625,8.80859375,-20.099609375
0.2005,7.9677734375,12.4921875,-19.8994140625
0.201,2.6826171875,16.255859375,-18.578125
0.2015,-2.322265625,19.21875,-16.7763671875
0.202,-5.4453125,20.6201171875,-15.3349609375
0.2025,-8.2880859375,21.4208984375,-13.4931640625
0.203,-11.2509765625,21.1806640625,-10.5703125
0.2035,-14.8544921875,20.2998046875,-6.166015625
0.204,-18.017578125,18.978515625,-1.8818359375
0.2045,-20.66015625,17.13671875,2.5625
0.205,-21.1806640625,14.974609375,5.2451171875
0.2055,-21.30078125,12.171875,8.2080078125
0.206,-21.0205078125,8.4482421875,11.53125
0.2065,-19.8994140625,3.603515625,15.375
0.207,-18.2578125,-1.0009765625,18.2978515625
0.2075,-16.5361328125,-4.5244140625,20.1396484375
0.208,-14.333984375,-7.447265625,20.9404296875
0.2085,-10.810546875,-10.5302734375,20.4599609375
0.209,-6.0859375,-14.25390625,19.7392578125
0.2095,-1.0009765625,-17.7373046875,18.2578125
0.21,3.8037109375,-20.33984375,16.416015625
0.2105,6.56640625,-21.140625,14.734375
0.211,9.4892578125,-21.701171875,12.4921875
0.2115,12.6123046875,-21.30078125,9.2490234375
0.212,16.1357421875,-20.0595703125,4.6044921875
0.2125,19.21875,-18.4580078125,0.1201171875
0.213,21.1005859375,-16.65625,-3.603515625
0.2135,21.4208984375,-14.2939453125,-6.24609375
0.214,21.1806640625,-11.0908203125,-9.2890625
0.2145,20.580078125,-6.88671875,-12.892578125
0.215,19.458984375,-2.40234375,-16.2958984375
0.2155,17.697265625,2.0419921875,-18.9384765625
0.216,15.6552734375,5.0849609375,-19.8994140625
0.2165,13.29296875,8.0078125,-20.66015625
0.217,9.2890625,11.4111328125,-20.099609375
0.2175,4.2841796875,15.0546875,-18.8984375
0.218,-0.640625,18.2578125,-17.45703125
0.2185,-4.64453125,20.4599609375,-15.775390625
