wavelength,x,y,z
0.0,-1.44140625,-5.9658203125,5.4453125
0.0005,-2.7626953125,-4.884765625,5.8056640625
0.001,-4.00390625,-3.5634765625,5.9658203125
0.0015,-5.0048828125,-2.4423828125,6.0859375
0.002,-5.525390625,-1.681640625,6.24609375
0.0025,-5.525390625,-1.0009765625,5.8056640625
0.003,-5.3251953125,0.080078125,4.9248046875
0.0035,-5.205078125,1.3212890625,3.84375
0.004,-5.125,2.6826171875,2.6025390625
0.0045,-5.125,3.8037109375,1.76171875
0.005,-5.0048828125,4.5244140625,1.0009765625
0.0055,-4.2841796875,4.8447265625,0.16015625
0.006,-3.203125,5.0849609375,-1.1611328125
0.0065,-1.921875,5.4052734375,-2.6826171875
0.007,-0.9609375,5.6455078125,-3.923828125
0.0075,-0.2802734375,6.005859375,-4.96484375
0.008,0.640625,5.765625,-5.6455078125
0.0085,1.841796875,4.8046875,-5.92578125
0.009,3.1630859375,3.5234375,-6.24609375
0.0095,4.32421875,2.08203125,-6.3662109375
0.01,5.0849609375,1.201171875,-6.4462890625
0.0105,5.4052734375,0.5205078125,-6.40625
0.011,5.28515625,-0.3603515625,-5.765625
0.0115,5.044921875,-1.4814453125,-4.64453125
0.012,4.8447265625,-2.8828125,-3.283203125
0.0125,4.8046875,-4.1640625,-2.2021484375
0.013,4.7646484375,-5.125,-1.361328125
0.0135,4.3642578125,-5.6455078125,-0.640625
0.014,3.4033203125,-5.845703125,0.48046875
0.0145,2.162109375,-6.0859375,1.921875
0.015,0.80078125,-6.2861328125,3.4033203125
0.0155,0.0,-6.5263671875,4.5244140625
0.016,-0.80078125,-6.7265625,5.4052734375
0.0165,-1.76171875,-6.2060546875,5.8857421875
0.017,-3.04296875,-5.0048828125,6.166015625
0.0175,-4.3642578125,-3.603515625,6.326171875
0.018,-5.3251953125,-2.2822265625,6.40625
0.0185,-5.92578125,-1.4013671875,6.40625
0.019,-6.005859375,-0.6806640625,6.0859375
0.0195,-5.765625,0.3603515625,5.205078125
0.02,-5.4853515625,1.6015625,3.923828125
0.0205,-5.3251953125,3.0830078125,2.5224609375
0.021,-5.205078125,4.2041015625,1.521484375
0.0215,-5.0849609375,5.044921875,0.7607421875
0.022,-4.3642578125,5.3251953125,-0.2001953125
0.0225,-3.203125,5.4853515625,-1.44140625
0.023,-1.8017578125,5.7255859375,-3.0029296875
0.0235,-0.6005859375,5.845703125,-4.404296875
0.024,0.240234375,6.1259765625,-5.4453125
0.0245,1.0009765625,6.0458984375,-6.1259765625
0.025,2.1220703125,5.0849609375,-6.5263671875
0.0255,3.5234375,3.6435546875,-6.7666015625
0.026,4.8046875,2.1220703125,-6.7666015625
0.0265,5.6455078125,0.9609375,-6.7265625
0.027,6.005859375,0.16015625,-6.7265625
0.0275,5.8056640625,-0.720703125,-6.0458984375
0.028,5.525390625,-1.921875,-4.8447265625
0.0285,5.205078125,-3.36328125,-3.3232421875
0.029,5.0048828125,-4.6845703125,-1.9619140625
0.0295,4.8046875,-5.685546875,-1.0009765625
0.03,4.484375,-6.2861328125,-0.3203125
0.0305,3.5234375,-6.40625,0.80078125
0.031,1.9619140625,-6.486328125,2.3623046875
0.0315,0.48046875,-6.6064453125,3.923828125
0.032,-0.640625,-6.7265625,5.0849609375
0.0325,-1.28125,-6.9267578125,6.005859375
0.033,-2.162109375,-6.40625,6.5263671875
0.0335,-3.4833984375,-5.125,6.6865234375
0.034,-4.8046875,-3.5634765625,6.806640625
0.0345,-5.845703125,-2.08203125,6.7265625
0.035,-6.40625,-1.041015625,6.646484375
0.0355,-6.486328125,-0.3203125,6.3662109375
0.036,-6.2060546875,0.640625,5.4453125
0.0365,-5.765625,1.921875,4.00390625
0.037,-5.4853515625,3.4033203125,2.5224609375
0.0375,-5.2451171875,4.6044921875,1.28125
0.038,-5.0849609375,5.4052734375,0.4404296875
0.0385,-4.4443359375,5.765625,-0.48046875
0.039,-3.283203125,5.845703125,-1.5615234375
0.0395,-1.8017578125,5.9658203125,-3.1630859375
0.04,-0.3603515625,6.005859375,-4.64453125
0.0405,0.6005859375,6.0859375,-5.685546875
0.041,1.201171875,6.166015625,-6.4462890625
0.0415,2.2021484375,5.365234375,-6.8466796875
0.042,3.5634765625,3.9638671875,-7.0068359375
0.0425,4.8046875,2.4423828125,-7.0068359375
0.043,5.7255859375,1.041015625,-6.9267578125
0.0435,6.2060546875,0.16015625,-6.806640625
0.044,6.0859375,-0.640625,-6.3662109375
0.0445,5.765625,-1.681640625,-5.28515625
0.045,5.4052734375,-3.0830078125,-3.8037109375
0.0455,5.0849609375,-4.484375,-2.2822265625
0.046,4.8447265625,-5.5654296875,-1.1611328125
0.0465,4.64453125,-6.326171875,-0.4404296875
0.047,3.84375,-6.486328125,0.560546875
0.0475,2.5224609375,-6.56640625,1.841796875
0.048,1.0009765625,-6.6865234375,3.443359375
0.0485,-0.400390625,-6.7265625,4.8046875
0.049,-1.12109375,-6.9267578125,5.765625
0.0495,-1.8818359375,-6.7666015625,6.40625
0.05,-2.8828125,-5.765625,6.6865234375
0.0505,-4.2841796875,-4.244140625,6.8466796875
0.051,-5.4853515625,-2.72265625,6.7666015625
0.0515,-6.2861328125,-1.44140625,6.6865234375
0.052,-6.56640625,-0.720703125,6.6064453125
0.0525,-6.40625,0.2001953125,5.8857421875
0.053,-5.9658203125,1.3212890625,4.6845703125
0.0535,-5.6455078125,2.72265625,3.203125
0.054,-5.4052734375,4.1240234375,1.8017578125
0.0545,-5.2451171875,5.0849609375,0.880859375
0.055,-4.884765625,5.685546875,0.1201171875
0.0555,-3.923828125,5.845703125,-0.9609375
0.056,-2.482421875,5.92578125,-2.4423828125
0.0565,-1.0009765625,6.005859375,-4.0439453125
0.057,0.240234375,6.0859375,-5.28515625
0.0575,0.8408203125,6.326171875,-6.2060546875
0.058,1.76171875,5.845703125,-6.7265625
0.0585,3.04296875,4.6044921875,-6.966796875
0.059,4.404296875,3.0830078125,-7.0869140625
0.0595,5.4853515625,1.5615234375,-7.0068359375
0.06,6.0859375,0.48046875,-6.9267578125
0.0605,6.24609375,-0.3603515625,-6.6865234375
0.061,6.005859375,-1.28125,-5.765625
0.0615,5.60546875,-2.6025390625,-4.3642578125
0.062,5.2451171875,-4.1240234375,-2.7626953125
0.0625,5.044921875,-5.365234375,-1.4814453125
0.063,4.8447265625,-6.24609375,-0.640625
0.0635,4.2041015625,-6.6064453125,0.2802734375
0.064,3.0029296875,-6.7265625,1.4814453125
0.0645,1.4013671875,-6.8466796875,3.123046875
0.065,-0.2001953125,-6.806640625,4.64453125
0.0655,-1.041015625,-6.966796875,5.7255859375
0.066,-1.681640625,-6.9267578125,6.486328125
0.0665,-2.72265625,-6.1259765625,6.8466796875
0.067,-4.1640625,-4.6044921875,7.0068359375
0.0675,-5.365234375,-3.04296875,6.966796875
0.068,-6.2861328125,-1.6015625,6.8466796875
0.0685,-6.6865234375,-0.720703125,6.6865234375
0.069,-6.56640625,0.1201171875,6.166015625
0.0695,-6.166015625,1.1611328125,5.044921875
0.07,-5.765625,2.5224609375,3.5234375
0.0705,-5.4453125,3.923828125,2.0419921875
0.071,-5.205078125,5.044921875,0.9208984375
0.0715,-4.96484375,5.7255859375,0.1201171875
0.072,-4.083984375,5.8857421875,-0.80078125
0.0725,-2.7626953125,5.8857421875,-2.08203125
0.073,-1.28125,5.92578125,-3.68359375
0.0735,0.080078125,5.9658203125,-5.0048828125
0.074,0.7607421875,6.2060546875,-5.92578125
0.0745,1.4814453125,6.005859375,-6.56640625
0.075,2.5625,5.0048828125,-6.806640625
0.0755,3.84375,3.5634765625,-6.9267578125
0.076,5.044921875,2.0419921875,-6.88671875
0.0765,5.765625,0.80078125,-6.7666015625
0.077,6.0859375,0.080078125,-6.7265625
0.0775,5.8857421875,-0.80078125,-6.0859375
0.078,5.4853515625,-1.8017578125,-4.884765625
0.0785,5.1650390625,-3.203125,-3.4833984375
0.079,4.9248046875,-4.5244140625,-2.1220703125
0.0795,4.7646484375,-5.525390625,-1.1611328125
0.08,4.484375,-6.166015625,-0.48046875
0.0805,3.6435546875,-6.40625,0.5205078125
0.081,2.2822265625,-6.4462890625,1.8818359375
0.0815,0.80078125,-6.486328125,3.4033203125
0.082,-0.3203125,-6.6064453125,4.6044921875
0.0825,-0.9609375,-6.8466796875,5.60546875
0.083,-1.7216796875,-6.5263671875,6.1259765625
0.0835,-2.8828125,-5.4453125,6.40625
0.084,-4.1640625,-4.1240234375,6.5263671875
0.0845,-5.2451171875,-2.642578125,6.5263671875
0.085,-5.9658203125,-1.6416015625,6.5263671875
0.0855,-6.166015625,-0.9609375,6.40625
0.086,-6.005859375,0.0,5.7255859375
0.0865,-5.685546875,1.0810546875,4.5244140625
0.087,-5.4453125,2.482421875,3.1630859375
0.0875,-5.28515625,3.763671875,1.9619140625
0.088,-5.205078125,4.724609375,1.12109375
0.0885,-4.8046875,5.1650390625,0.3603515625
0.089,-3.84375,5.365234375,-0.720703125
0.0895,-2.5625,5.5654296875,-2.2021484375
0.09,-1.1611328125,5.7255859375,-3.68359375
0.0905,-0.2802734375,6.005859375,-4.8046875
0.091,0.48046875,6.2060546875,-5.7255859375
0.0915,1.4013671875,5.60546875,-6.166015625
0.092,2.6826171875,4.4443359375,-6.4462890625
0.0925,3.923828125,3.04296875,-6.5263671875
0.093,4.9248046875,1.7216796875,-6.56640625
0.0935,5.5654296875,0.880859375,-6.6865234375
0.094,5.6455078125,0.16015625,-6.3662109375
0.0945,5.4052734375,-0.8408203125,-5.4453125
0.095,5.0849609375,-2.08203125,-4.244140625
0.0955,4.9248046875,-3.443359375,-2.8828125
0.096,4.8046875,-4.6044921875,-1.8818359375
0.0965,4.724609375,-5.4853515625,-1.1611328125
0.097,4.083984375,-5.8056640625,-0.3603515625
0.0975,3.0029296875,-6.005859375,0.9208984375
0.098,1.7216796875,-6.1259765625,2.3623046875
0.0985,0.5205078125,-6.2861328125,3.7236328125
0.099,-0.3203125,-6.6064453125,4.7646484375
0.0995,-1.0009765625,-6.6064453125,5.525390625
0.1,-1.9619140625,-5.8857421875,5.8857421875
0.1005,-3.203125,-4.64453125,6.1259765625
0.101,-4.4443359375,-3.283203125,6.2060546875
0.1015,-5.28515625,-2.162109375,6.2861328125
0.102,-5.765625,-1.4814453125,6.3662109375
0.1025,-5.7255859375,-0.7607421875,5.8857421875
0.103,-5.4453125,0.2802734375,4.96484375
0.1035,-5.28515625,1.4814453125,3.8037109375
0.104,-5.125,2.802734375,2.5625
0.1045,-5.0849609375,3.84375,1.681640625
0.105,-4.96484375,4.5244140625,0.9609375
0.1055,-4.32421875,4.8447265625,0.16015625
0.106,-3.203125,5.0849609375,-1.1611328125
0.1065,-1.9619140625,5.365234375,-2.5625
0.107,-1.0009765625,5.60546875,-3.8037109375
0.1075,-0.3203125,6.005859375,-4.8447265625
0.108,0.560546875,5.765625,-5.4853515625
0.1085,1.6416015625,4.96484375,-5.8056640625
0.109,2.8828125,3.8037109375,-6.1259765625
0.1095,4.00390625,2.482421875,-6.24609375
0.11,4.8447265625,1.5615234375,-6.40625
0.1105,5.2451171875,0.880859375,-6.40625
0.111,5.1650390625,0.1201171875,-5.8857421875
0.1115,4.96484375,-1.041015625,-4.884765625
0.112,4.8046875,-2.2822265625,-3.7236328125
0.1125,4.7646484375,-3.5634765625,-2.6826171875
0.113,4.8046875,-4.6044921875,-1.8818359375
0.1135,4.484375,-5.205078125,-1.1611328125
0.114,3.68359375,-5.4853515625,-0.2001953125
0.1145,2.6025390625,-5.765625,1.201171875
0.115,1.361328125,-5.9658203125,2.5625
0.1155,0.560546875,-6.326171875,3.763671875
0.116,-0.2001953125,-6.6064453125,4.724609375
0.1165,-1.041015625,-6.2861328125,5.2451171875
0.117,-2.2421875,-5.28515625,5.60546875
0.1175,-3.4033203125,-4.083984375,5.8056640625
0.118,-4.484375,-2.8828125,5.9658203125
0.1185,-5.1650390625,-2.1220703125,6.166015625
0.119,-5.4052734375,-1.4814453125,6.005859375
0.1195,-5.28515625,-0.640625,5.3251953125
0.12,-5.125,0.48046875,4.404296875
0.1205,-5.044921875,1.7216796875,3.3232421875
0.121,-5.0849609375,2.8427734375,2.3623046875
0.1215,-5.125,3.84375,1.6416015625
0.122,-4.64453125,4.32421875,0.9609375
0.1225,-3.8037109375,4.64453125,-0.2001953125
0.123,-2.7626953125,5.0048828125,-1.4814453125
0.1235,-1.7216796875,5.2451171875,-2.802734375
0.124,-1.0009765625,5.7255859375,-3.923828125
0.1245,-0.3203125,5.845703125,-4.8046875
0.125,0.7607421875,5.3251953125,-5.28515625
0.1255,1.921875,4.404296875,-5.6455078125
0.126,3.1630859375,3.1630859375,-5.8857421875
0.1265,4.1240234375,2.162109375,-6.1259765625
0.127,4.7646484375,1.44140625,-6.326171875
0.1275,4.9248046875,0.7607421875,-6.0458984375
0.128,4.8046875,-0.2802734375,-5.28515625
0.1285,4.7646484375,-1.44140625,-4.3642578125
0.129,4.724609375,-2.72265625,-3.2431640625
0.1295,4.724609375,-3.84375,-2.4423828125
0.13,4.724609375,-4.64453125,-1.76171875
0.1305,4.1640625,-5.125,-0.9208984375
0.131,3.203125,-5.4453125,0.3203125
0.1315,2.08203125,-5.7255859375,1.7216796875
0.132,1.12109375,-6.1259765625,3.0029296875
0.1325,0.48046875,-6.56640625,4.1240234375
0.133,-0.4404296875,-6.4462890625,4.8046875
0.1335,-1.5615234375,-5.685546875,5.2451171875
0.134,-2.7626953125,-4.64453125,5.60546875
0.1345,-3.923828125,-3.4033203125,5.8056640625
0.135,-4.8046875,-2.5224609375,6.0458984375
0.1355,-5.2451171875,-1.8818359375,6.0859375
0.136,-5.28515625,-1.0810546875,5.685546875
0.1365,-5.125,0.0,4.7646484375
0.137,-5.0849609375,1.201171875,3.7236328125
0.1375,-5.125,2.4423828125,2.6826171875
0.138,-5.125,3.5234375,1.921875
0.1385,-4.8447265625,4.1640625,1.201171875
0.139,-4.1640625,4.5244140625,0.2802734375
0.1395,-3.123046875,4.9248046875,-1.12109375
0.14,-2.001953125,5.2451171875,-2.482421875
0.1405,-1.1611328125,5.60546875,-3.68359375
0.141,-0.5205078125,5.8857421875,-4.6845703125
0.1415,0.5205078125,5.5654296875,-5.28515625
0.142,1.76171875,4.564453125,-5.6455078125
0.1425,3.0029296875,3.36328125,-5.92578125
0.143,4.083984375,2.2021484375,-6.1259765625
0.1435,4.8046875,1.44140625,-6.3662109375
0.144,5.0048828125,0.7607421875,-6.1259765625
0.1445,4.9248046875,-0.2802734375,-5.4853515625
0.145,4.8046875,-1.3212890625,-4.484375
0.1455,4.64453125,-2.6826171875,-3.36328125
0.146,4.724609375,-3.8037109375,-2.3623046875
0.1465,4.724609375,-4.7646484375,-1.6416015625
0.147,4.2041015625,-5.205078125,-0.880859375
0.1475,3.2431640625,-5.4453125,0.3603515625
0.148,2.162109375,-5.765625,1.7216796875
0.1485,1.041015625,-6.0859375,3.04296875
0.149,0.3203125,-6.4462890625,4.1240234375
0.1495,-0.5205078125,-6.486328125,4.96484375
0.15,-1.4814453125,-5.8857421875,5.4052734375
0.1505,-2.7626953125,-4.7646484375,5.7255859375
0.151,-3.9638671875,-3.4833984375,5.8857421875
0.1515,-4.884765625,-2.4423828125,6.0859375
0.152,-5.4453125,-1.7216796875,6.2060546875
0.1525,-5.4453125,-1.041015625,5.765625
0.153,-5.28515625,0.0,4.884765625
0.1535,-5.1650390625,1.201171875,3.8037109375
0.154,-5.0849609375,2.5224609375,2.6826171875
0.1545,-5.125,3.6435546875,1.841796875
0.155,-4.9248046875,4.404296875,1.12109375
0.1555,-4.2841796875,4.724609375,0.2802734375
0.156,-3.203125,4.96484375,-1.041015625
0.1565,-2.001953125,5.28515625,-2.5224609375
0.157,-1.0810546875,5.60546875,-3.7236328125
0.1575,-0.400390625,6.005859375,-4.8046875
0.158,0.560546875,5.7255859375,-5.4453125
0.1585,1.7216796875,4.8046875,-5.8056640625
0.159,3.0029296875,3.603515625,-6.1259765625
0.1595,4.1240234375,2.2822265625,-6.24609375
0.16,4.96484375,1.4013671875,-6.40625
0.1605,5.28515625,0.640625,-6.3662109375
0.161,5.205078125,-0.2802734375,-5.765625
0.1615,4.96484375,-1.4013671875,-4.6845703125
0.162,4.8447265625,-2.72265625,-3.4033203125
0.1625,4.8046875,-3.9638671875,-2.322265625
0.163,4.8046875,-5.0048828125,-1.5615234375
0.1635,4.404296875,-5.4853515625,-0.80078125
0.164,3.443359375,-5.765625,0.3603515625
0.1645,2.2021484375,-5.9658203125,1.76171875
0.165,0.9609375,-6.166015625,3.203125
0.1655,0.1201171875,-6.486328125,4.404296875
0.166,-0.6806640625,-6.6865234375,5.3251953125
0.1665,-1.6416015625,-6.1259765625,5.8056640625
0.167,-2.962890625,-4.9248046875,6.0859375
0.1675,-4.2041015625,-3.5634765625,6.24609375
0.168,-5.2451171875,-2.2822265625,6.326171875
0.1685,-5.8056640625,-1.521484375,6.40625
0.169,-5.8857421875,-0.80078125,6.005859375
0.1695,-5.685546875,0.2802734375,5.0849609375
0.17,-5.4453125,1.6015625,3.84375
0.1705,-5.28515625,3.0029296875,2.5224609375
0.171,-5.1650390625,4.1640625,1.5615234375
0.1715,-5.0849609375,4.96484375,0.7607421875
0.172,-4.32421875,5.28515625,-0.2001953125
0.1725,-3.1630859375,5.4052734375,-1.4814453125
0.173,-1.8017578125,5.685546875,-3.04296875
0.1735,-0.640625,5.8857421875,-4.3642578125
0.174,0.2001953125,6.1259765625,-5.4052734375
0.1745,1.0009765625,5.9658203125,-6.1259765625
0.175,2.2021484375,4.96484375,-6.4462890625
0.1755,3.603515625,3.5234375,-6.7265625
0.176,4.8046875,2.0419921875,-6.7265625
0.1765,5.60546875,0.880859375,-6.7265625
0.177,5.92578125,0.1201171875,-6.646484375
0.1775,5.7255859375,-0.880859375,-5.92578125
0.178,5.4052734375,-2.001953125,-4.64453125
0.1785,5.125,-3.4833984375,-3.203125
0.179,4.96484375,-4.7646484375,-1.921875
0.1795,4.7646484375,-5.685546875,-1.0009765625
0.18,4.4443359375,-6.2861328125,-0.240234375
0.1805,3.36328125,-6.40625,0.9208984375
0.181,1.8818359375,-6.486328125,2.482421875
0.1815,0.400390625,-6.56640625,4.00390625
0.182,-0.640625,-6.7265625,5.125
0.1825,-1.28125,-6.88671875,6.005859375
0.183,-2.2421875,-6.2861328125,6.486328125
0.1835,-3.5634765625,-4.96484375,6.6865234375
0.184,-4.8447265625,-3.4833984375,6.7666015625
0.1845,-5.845703125,-2.0419921875,6.6865234375
0.185,-6.40625,-1.041015625,6.6064453125
0.1855,-6.4462890625,-0.3603515625,6.24609375
0.186,-6.1259765625,0.7607421875,5.3251953125
0.1865,-5.765625,2.0419921875,3.8837890625
0.187,-5.4453125,3.4833984375,2.40234375
0.1875,-5.2451171875,4.6044921875,1.28125
0.188,-5.044921875,5.4052734375,0.48046875
0.1885,-4.3642578125,5.7255859375,-0.48046875
0.189,-3.203125,5.845703125,-1.6416015625
0.1895,-1.681640625,5.92578125,-3.203125
0.19,-0.3603515625,6.005859375,-4.64453125
0.1905,0.560546875,6.166015625,-5.685546875
0.191,1.2412109375,6.166015625,-6.486328125
0.1915,2.2822265625,5.3251953125,-6.806640625
0.192,3.68359375,3.8837890625,-7.0068359375
0.1925,4.9248046875,2.2822265625,-7.0068359375
0.193,5.765625,0.9609375,-6.9267578125
0.1935,6.166015625,0.1201171875,-6.88671875
0.194,6.1259765625,-0.720703125,-6.2861328125
0.1945,5.7255859375,-1.8017578125,-5.1650390625
0.195,5.365234375,-3.203125,-3.68359375
0.1955,5.0849609375,-4.564453125,-2.2021484375
0.196,4.8447265625,-5.6455078125,-1.12109375
0.1965,4.6044921875,-6.3662109375,-0.3603515625
0.197,3.763671875,-6.5263671875,0.640625
0.1975,2.3623046875,-6.6064453125,2.0419921875
0.198,0.80078125,-6.646484375,3.6435546875
0.1985,-0.5205078125,-6.7265625,4.9248046875
0.199,-1.1611328125,-6.9267578125,5.8857421875
0.1995,-1.9619140625,-6.646484375,6.5263671875
0.2,-3.123046875,-5.5654296875,6.7265625
0.2005,-4.484375,-4.1240234375,6.88671875
0.201,-5.6455078125,-2.5625,6.7666015625
0.2015,-6.3662109375,-1.4013671875,6.6865234375
0.202,-6.56640625,-0.640625,6.56640625
0.2025,-6.3662109375,0.3203125,5.8056640625
0.203,-5.92578125,1.521484375,4.484375
0.2035,-5.60546875,2.8828125,3.04296875
0.204,-5.3251953125,4.2041015625,1.6416015625
0.2045,-5.1650390625,5.1650390625,0.7607421875
0.205,-4.8046875,5.7255859375,0.0
0.2055,-3.8037109375,5.8857421875,-1.12109375
0.206,-2.322265625,5.9658203125,-2.6025390625
0.2065,-0.80078125,6.005859375,-4.1640625
0.207,0.2802734375,6.1259765625,-5.3251953125
0.2075,0.9208984375,6.326171875,-6.24609375
0.208,1.841796875,5.765625,-6.7265625
0.2085,3.123046875,4.4443359375,-6.9267578125
0.209,4.4443359375,2.9228515625,-7.046875
0.2095,5.4853515625,1.4013671875,-6.966796875
0.21,6.0859375,0.48046875,-6.88671875
0.2105,6.2060546875,-0.400390625,-6.6064453125
0.211,5.8857421875,-1.3212890625,-5.7255859375
0.2115,5.5654296875,-2.642578125,-4.244140625
0.212,5.1650390625,-4.1240234375,-2.72265625
0.2125,4.96484375,-5.3251953125,-1.4814453125
0.213,4.8046875,-6.166015625,-0.640625
0.2135,4.1640625,-6.5263671875,0.2802734375
0.214,2.9228515625,-6.646484375,1.4814453125
0.2145,1.4013671875,-6.7265625,3.04296875
0.215,-0.16015625,-6.7265625,4.5244140625
0.2155,-1.0009765625,-6.9267578125,5.60546875
0.216,-1.6416015625,-6.9267578125,6.3662109375
0.2165,-2.6826171875,-6.1259765625,6.7666015625
0.217,-4.083984375,-4.64453125,6.88671875
0.2175,-5.3251953125,-3.0830078125,6.88671875
0.218,-6.2060546875,-1.6416015625,6.7666015625
0.2185,-6.6064453125,-0.8408203125,6.6865234375
0.219,-6.486328125,0.080078125,6.1259765625
0.2195,-6.1259765625,1.1611328125,4.96484375
0.22,-5.765625,2.5224609375,3.5234375
0.2205,-5.4453125,3.9638671875,2.0419921875
0.221,-5.2451171875,4.96484375,1.0009765625
0.2215,-5.0048828125,5.685546875,0.2001953125
0.222,-4.1240234375,5.8857421875,-0.80078125
0.2225,-2.72265625,5.8857421875,-2.162109375
0.223,-1.2412109375,6.005859375,-3.7236328125
0.2235,0.080078125,6.0458984375,-5.0048828125
0.224,0.720703125,6.24609375,-5.92578125
0.2245,1.521484375,5.9658203125,-6.56640625
0.225,2.6826171875,4.884765625,-6.88671875
0.2255,3.9638671875,3.36328125,-7.0068359375
0.226,5.125,1.921875,-6.88671875
0.2265,5.845703125,0.7607421875,-6.806640625
0.227,6.1259765625,0.0,-6.7265625
0.2275,5.92578125,-0.9208984375,-6.0458984375
0.228,5.5654296875,-2.0419921875,-4.724609375
0.2285,5.1650390625,-3.443359375,-3.2431640625
0.229,4.9248046875,-4.724609375,-1.9619140625
