wavelength,x,y,z
0.0,15.660278320312,-19.854370117188,4.8096923828125
0.0005,18.983520507812,-18.973510742188,0.7657470703125
0.001,21.385864257812,-17.452026367188,-3.0780029296875
0.0015,22.226684570312,-15.329956054688,-6.0008544921875
0.002,21.265747070312,-11.245971679688,-9.1239013671875
0.0025,20.424926757812,-7.0819091796875,-12.567260742188
0.003,19.944458007812,-2.8377685546875,-16.370971679688
0.0035,18.783325195312,1.4464111328125,-19.453979492188
0.004,17.381958007812,4.5294189453125,-21.175659179688
0.0045,14.939575195312,7.6124267578125,-21.816284179688
0.005,10.094848632812,11.055786132812,-20.494995117188
0.0055,5.2501220703125,14.779418945312,-19.574096679688
0.006,0.8858642578125,18.262817382812,-18.853393554688
0.0065,-3.5584716796875,20.865356445312,-17.331909179688
0.007,-6.3612060546875,21.826293945312,-15.770385742188
0.0075,-9.4842529296875,21.185668945312,-12.206909179688
0.008,-13.007690429688,20.304809570312,-7.9627685546875
0.0085,-16.691284179688,19.383911132812,-3.5985107421875
0.009,-19.774291992188,18.142700195312,0.7257080078125
0.0095,-21.656127929688,16.661254882812,3.9688720703125
0.01,-22.056518554688,14.098754882812,6.8917236328125
0.0105,-20.815307617188,9.6143798828125,10.214965820312
0.011,-20.054565429688,5.4503173828125,13.658325195312
0.0115,-19.574096679688,1.4464111328125,17.261840820312
0.012,-18.412963867188,-2.6776123046875,20.184692382812
0.0125,-16.731323242188,-5.6004638671875,21.465942382812
0.013,-13.568237304688,-8.5633544921875,21.305786132812
0.0135,-8.8436279296875,-12.126831054688,20.224731445312
0.014,-3.8387451171875,-15.970581054688,19.223754882812
0.0145,0.6055908203125,-18.973510742188,18.102661132812
0.015,4.1690673828125,-21.135620117188,16.901489257812
0.0155,7.0518798828125,-21.776245117188,14.859497070312
0.016,10.415161132812,-20.655151367188,10.575317382812
0.0165,13.778442382812,-19.894409179688,6.6915283203125
0.017,17.421997070312,-19.093627929688,2.4473876953125
0.0175,20.224731445312,-17.612182617188,-1.7967529296875
0.018,21.505981445312,-16.050659179688,-4.5594482421875
0.0185,21.385864257812,-12.967651367188,-7.5623779296875
0.019,20.184692382812,-8.4031982421875,-10.965698242188
0.0195,19.544067382812,-4.3192138671875,-14.449096679688
0.02,18.903442382812,-0.4754638671875,-17.692260742188
0.0205,17.822387695312,3.2882080078125,-20.374877929688
0.021,15.740356445312,6.1309814453125,-21.175659179688
0.0215,11.776489257812,9.2139892578125,-20.374877929688
0.022,7.3721923828125,12.857543945312,-19.654174804688
0.0225,2.5274658203125,16.661254882812,-18.853393554688
0.023,-1.9569091796875,19.383911132812,-17.371948242188
0.0235,-4.8397216796875,21.025512695312,-16.370971679688
0.024,-7.8426513671875,21.265747070312,-13.808471679688
0.0245,-11.406127929688,19.904418945312,-9.2440185546875
0.025,-14.689331054688,19.263793945312,-5.4403076171875
0.0255,-18.092651367188,18.463012695312,-1.3162841796875
0.026,-20.695190429688,16.941528320312,2.7677001953125
0.0265,-21.415893554688,14.979614257812,5.4102783203125
0.027,-20.855346679688,11.376098632812,8.5333251953125
0.0275,-19.894409179688,7.0518798828125,11.976684570312
0.028,-19.373901367188,2.8878173828125,15.620239257812
0.0285,-18.412963867188,-0.9959716796875,18.503051757812
0.029,-17.331909179688,-4.2391357421875,20.745239257812
0.0295,-14.889526367188,-7.0819091796875,21.145629882812
0.03,-10.204956054688,-10.445190429688,19.864379882812
0.0305,-6.0408935546875,-13.888549804688,19.303833007812
0.031,-1.2762451171875,-17.612182617188,18.382934570312
0.0315,3.0079345703125,-20.134643554688,16.901489257812
0.032,5.6104736328125,-21.135620117188,15.580200195312
0.0325,8.6534423828125,-20.895385742188,12.497192382812
0.033,12.337036132812,-19.614135742188,7.8126220703125
0.0335,15.660278320312,-18.933471679688,3.9688720703125
0.034,18.703247070312,-17.972534179688,0.1251220703125
0.0345,20.985473632812,-16.611206054688,-3.5584716796875
0.035,21.065551757812,-14.048706054688,-6.1610107421875
0.0355,20.184692382812,-9.9246826171875,-9.4842529296875
0.036,19.463989257812,-5.9207763671875,-12.767456054688
0.0365,19.023559570312,-1.9168701171875,-16.370971679688
0.037,17.782348632812,1.9669189453125,-19.013549804688
0.0375,16.501098632812,4.8096923828125,-20.575073242188
0.038,13.498168945312,7.7325439453125,-20.575073242188
0.0385,8.5333251953125,11.376098632812,-19.253784179688
0.039,4.4493408203125,14.739379882812,-18.733276367188
0.0395,0.0050048828125,17.982543945312,-17.772338867188
0.04,-3.8387451171875,20.224731445312,-16.491088867188
0.0405,-6.4012451171875,20.665161132812,-14.609252929688
0.041,-9.5643310546875,20.064575195312,-11.005737304688
0.0415,-13.127807617188,19.183715820312,-6.7615966796875
0.042,-16.531127929688,18.422973632812,-2.7576904296875
0.0425,-19.213745117188,17.221801757812,1.1260986328125
0.043,-20.975463867188,15.820434570312,4.1290283203125
0.0435,-20.695190429688,12.777465820312,6.9718017578125
0.044,-19.694213867188,8.2930908203125,10.455200195312
0.0445,-19.133666992188,4.6094970703125,13.618286132812
0.045,-18.613159179688,0.6856689453125,17.101684570312
0.0455,-17.452026367188,-3.0379638671875,19.584106445312
0.046,-15.690307617188,-5.6004638671875,20.464965820312
0.0465,-12.246948242188,-8.5233154296875,20.024536132812
0.047,-7.4022216796875,-12.246948242188,18.943481445312
0.0475,-3.0379638671875,-15.730346679688,18.222778320312
0.048,1.1260986328125,-18.493041992188,17.101684570312
0.0485,4.4493408203125,-20.535034179688,16.060668945312
0.049,7.0518798828125,-20.374877929688,13.538208007812
0.0495,10.415161132812,-19.453979492188,9.4542236328125
0.05,13.778442382812,-18.933471679688,5.7706298828125
0.0505,17.181762695312,-18.092651367188,1.7266845703125
0.051,19.544067382812,-16.811401367188,-1.9969482421875
0.0515,20.585083007812,-15.089721679688,-4.6395263671875
0.052,20.104614257812,-11.686401367188,-7.6424560546875
0.0525,19.143676757812,-7.1619873046875,-11.245971679688
0.053,18.703247070312,-3.5985107421875,-14.369018554688
0.0535,17.982543945312,0.1651611328125,-17.452026367188
0.054,16.941528320312,3.5684814453125,-19.814331054688
0.0545,14.419067382812,6.2110595703125,-19.934448242188
0.055,10.535278320312,9.2940673828125,-19.253784179688
0.0555,6.0909423828125,12.977661132812,-18.573120117188
0.056,1.5665283203125,16.461059570312,-17.772338867188
0.0565,-2.2371826171875,18.783325195312,-16.571166992188
0.057,-5.0399169921875,20.344848632812,-15.490112304688
0.0575,-7.8826904296875,19.904418945312,-12.447143554688
0.058,-11.446166992188,18.863403320312,-8.0428466796875
0.0585,-14.649291992188,18.463012695312,-4.5994873046875
0.059,-17.812377929688,17.502075195312,-0.6356201171875
0.0595,-20.014526367188,16.140747070312,2.9278564453125
0.06,-20.294799804688,13.858520507812,5.4503173828125
0.0605,-19.694213867188,10.174926757812,8.5733642578125
0.061,-18.893432617188,5.8907470703125,12.176879882812
0.0615,-18.453002929688,2.1270751953125,15.500122070312
0.062,-17.492065429688,-1.4364013671875,18.062622070312
0.0625,-16.491088867188,-4.4793701171875,20.144653320312
0.063,-13.448120117188,-7.1219482421875,19.784301757812
0.0635,-9.0037841796875,-10.525268554688,18.783325195312
0.064,-4.9197998046875,-14.048706054688,18.302856445312
0.0645,-0.3953857421875,-17.331909179688,17.301879882812
0.065,3.1280517578125,-19.333862304688,16.140747070312
0.0655,5.6104736328125,-20.134643554688,14.579223632812
0.066,8.6534423828125,-19.574096679688,11.215942382812
0.0665,12.296997070312,-18.573120117188,6.7716064453125
0.067,15.460083007812,-18.092651367188,3.3282470703125
0.0675,18.222778320312,-17.051635742188,-0.3953857421875
0.068,20.144653320312,-15.730346679688,-3.5584716796875
0.0685,19.784301757812,-12.807495117188,-6.1209716796875
0.069,19.023559570312,-8.8436279296875,-9.3641357421875
0.0695,18.543090820312,-4.9998779296875,-12.807495117188
0.07,18.062622070312,-1.2762451171875,-16.170776367188
0.0705,16.941528320312,2.1671142578125,-18.453002929688
0.071,15.620239257812,4.8897705078125,-19.814331054688
0.0715,12.136840820312,7.7325439453125,-19.253784179688
0.072,7.3321533203125,11.376098632812,-18.252807617188
0.0725,3.5684814453125,14.699340820312,-17.932495117188
0.073,-0.7557373046875,17.702270507812,-16.811401367188
0.0735,-3.9188232421875,19.664184570312,-15.810424804688
0.074,-6.4412841796875,19.704223632812,-13.528198242188
0.0745,-9.6444091796875,19.023559570312,-9.9246826171875
0.075,-13.287963867188,18.342895507812,-5.8006591796875
0.0755,-16.491088867188,17.622192382812,-1.9969482421875
0.076,-18.853393554688,16.501098632812,1.4063720703125
0.0765,-20.334838867188,15.019653320312,4.3292236328125
0.077,-19.614135742188,11.576293945312,7.0919189453125
0.0775,-18.853393554688,7.3321533203125,10.655395507812
0.078,-18.573120117188,3.7686767578125,13.938598632812
0.0785,-17.972534179688,-0.1551513671875,17.221801757812
0.079,-16.771362304688,-3.3582763671875,19.343872070312
0.0795,-14.769409179688,-5.9608154296875,19.864379882812
0.08,-10.965698242188,-9.0838623046875,19.263793945312
0.0805,-6.1209716796875,-12.967651367188,18.342895507812
0.081,-1.9969482421875,-16.130737304688,17.662231445312
0.0815,1.8868408203125,-18.733276367188,16.661254882812
0.082,4.8897705078125,-20.414916992188,15.580200195312
0.0825,7.6925048828125,-19.814331054688,12.417114257812
0.083,11.095825195312,-19.053588867188,8.4532470703125
0.0835,14.699340820312,-18.573120117188,4.6094970703125
0.084,17.902465820312,-17.612182617188,0.5255126953125
0.0845,19.904418945312,-16.370971679688,-2.7176513671875
0.085,20.625122070312,-14.248901367188,-5.5203857421875
0.0855,19.784301757812,-10.485229492188,-8.4832763671875
0.086,19.063598632812,-6.0408935546875,-12.327026367188
0.0865,18.703247070312,-2.4373779296875,-15.530151367188
0.087,17.862426757812,1.4063720703125,-18.493041992188
0.0875,16.541137695312,4.5294189453125,-20.454956054688
0.088,13.378051757812,7.2921142578125,-20.014526367188
0.0885,9.2940673828125,10.655395507812,-19.453979492188
0.089,4.4893798828125,14.699340820312,-18.733276367188
0.0895,0.0050048828125,17.862426757812,-17.612182617188
0.09,-3.4783935546875,19.904418945312,-16.531127929688
0.0905,-6.4412841796875,21.105590820312,-14.969604492188
0.091,-9.5643310546875,20.104614257812,-11.045776367188
0.0915,-13.127807617188,19.183715820312,-6.8016357421875
0.092,-16.611206054688,18.663208007812,-2.9578857421875
0.0925,-19.574096679688,17.301879882812,1.2862548828125
0.093,-21.135620117188,15.820434570312,4.3292236328125
0.0935,-21.095581054688,12.857543945312,7.2520751953125
0.094,-20.214721679688,8.8135986328125,10.415161132812
0.0945,-19.494018554688,4.3292236328125,14.218872070312
0.095,-18.733276367188,0.4454345703125,17.421997070312
0.0955,-17.652221679688,-3.1580810546875,19.864379882812
0.096,-16.090698242188,-6.2410888671875,21.465942382812
0.0965,-12.006713867188,-9.1239013671875,20.264770507812
0.097,-7.6424560546875,-12.567260742188,19.504028320312
0.0975,-2.9178466796875,-16.411010742188,18.823364257812
0.098,1.8468017578125,-19.333862304688,17.301879882812
0.0985,4.8096923828125,-20.895385742188,16.140747070312
0.099,7.6925048828125,-21.295776367188,13.818481445312
0.0995,11.015747070312,-20.174682617188,9.6143798828125
0.1,14.579223632812,-19.213745117188,5.2501220703125
0.1005,17.902465820312,-18.453002929688,1.3663330078125
0.101,20.344848632812,-17.051635742188,-2.4373779296875
0.1015,21.425903320312,-15.249877929688,-5.2801513671875
0.102,20.625122070312,-11.566284179688,-8.2830810546875
0.1025,19.784301757812,-7.4822998046875,-11.526245117188
0.103,19.263793945312,-3.3582763671875,-15.209838867188
0.1035,18.262817382812,0.7257080078125,-18.252807617188
0.104,17.021606445312,3.8487548828125,-20.174682617188
0.1045,15.059692382812,6.7315673828125,-21.135620117188
0.105,10.535278320312,9.9346923828125,-19.854370117188
0.1055,5.8907470703125,13.578247070312,-18.933471679688
0.106,1.6466064453125,17.021606445312,-18.412963867188
0.1065,-2.7576904296875,19.704223632812,-16.931518554688
0.107,-5.5203857421875,20.985473632812,-15.650268554688
0.1075,-8.4832763671875,20.625122070312,-12.567260742188
0.108,-11.846557617188,19.704223632812,-8.4832763671875
0.1085,-15.450073242188,18.863403320312,-4.1990966796875
0.109,-18.573120117188,17.782348632812,-0.1551513671875
0.1095,-20.655151367188,16.501098632812,3.1680908203125
0.11,-21.375854492188,14.338989257812,6.0509033203125
0.1105,-20.294799804688,10.174926757812,9.1739501953125
0.111,-19.534057617188,6.0909423828125,12.537231445312
0.1115,-19.173706054688,2.1270751953125,16.140747070312
0.112,-18.092651367188,-1.9569091796875,19.143676757812
0.1125,-16.691284179688,-4.8797607421875,20.665161132812
0.113,-14.008666992188,-7.7225341796875,20.905395507812
0.1135,-9.4041748046875,-11.165893554688,19.864379882812
0.114,-4.5194091796875,-14.969604492188,18.903442382812
0.1145,-0.1951904296875,-18.132690429688,17.942504882812
0.115,3.6485595703125,-20.494995117188,16.781372070312
0.1155,6.4512939453125,-21.335815429688,15.059692382812
0.116,9.7344970703125,-20.494995117188,11.135864257812
0.1165,13.097778320312,-19.694213867188,7.1719970703125
0.117,16.781372070312,-18.973510742188,2.9278564453125
0.1175,19.744262695312,-17.612182617188,-1.3563232421875
0.118,21.305786132812,-16.170776367188,-4.2391357421875
0.1185,21.465942382812,-13.328002929688,-7.2420654296875
0.119,20.304809570312,-8.8436279296875,-10.645385742188
0.1195,19.544067382812,-4.7596435546875,-14.128784179688
0.12,19.063598632812,-0.8758544921875,-17.532104492188
0.1205,17.902465820312,3.1280517578125,-20.374877929688
0.121,15.980590820312,6.0909423828125,-21.415893554688
0.1215,12.296997070312,9.1739501953125,-20.815307617188
0.122,7.6925048828125,12.817504882812,-19.974487304688
0.1225,2.7677001953125,16.701293945312,-19.093627929688
0.123,-1.7967529296875,19.584106445312,-17.692260742188
0.1235,-5.0799560546875,21.465942382812,-16.611206054688
0.124,-8.0828857421875,21.866333007812,-14.208862304688
0.1245,-11.686401367188,20.585083007812,-9.5643310546875
0.125,-15.049682617188,19.824340820312,-5.6405029296875
0.1255,-18.653198242188,18.943481445312,-1.2762451171875
0.126,-21.415893554688,17.301879882812,3.0880126953125
0.1265,-22.416870117188,15.420043945312,5.9307861328125
0.127,-22.056518554688,11.816528320312,9.1739501953125
0.1275,-20.855346679688,7.0919189453125,12.817504882812
0.128,-20.134643554688,2.8477783203125,16.380981445312
0.1285,-19.173706054688,-1.2762451171875,19.463989257812
0.129,-17.892456054688,-4.9197998046875,21.906372070312
0.1295,-15.410034179688,-7.8426513671875,22.426879882812
0.13,-10.725463867188,-11.286010742188,21.185668945312
0.1305,-6.1610107421875,-14.849487304688,20.344848632812
0.131,-1.0360107421875,-18.653198242188,19.223754882812
0.1315,3.5684814453125,-21.175659179688,17.542114257812
0.132,6.4512939453125,-22.456909179688,16.140747070312
0.1325,9.6544189453125,-22.296752929688,12.977661132812
0.133,13.458129882812,-20.775268554688,7.9327392578125
0.1335,16.781372070312,-19.934448242188,3.9288330078125
0.134,20.144653320312,-18.813354492188,-0.4354248046875
0.1345,22.466918945312,-17.131713867188,-4.4393310546875
0.135,22.667114257812,-14.569213867188,-7.2020263671875
0.1355,21.786254882812,-10.405151367188,-10.605346679688
0.136,20.745239257812,-5.8807373046875,-14.088745117188
0.1365,20.064575195312,-1.6365966796875,-17.732299804688
0.137,18.623168945312,2.5274658203125,-20.374877929688
0.1375,17.221801757812,5.7305908203125,-22.216674804688
0.138,14.098754882812,8.7735595703125,-22.136596679688
0.1385,8.8135986328125,12.457153320312,-20.655151367188
0.139,4.4893798828125,15.860473632812,-19.894409179688
0.1395,-0.3953857421875,19.343872070312,-18.733276367188
0.14,-4.5594482421875,21.626098632812,-17.091674804688
0.1405,-7.2420654296875,22.146606445312,-15.249877929688
0.141,-10.525268554688,21.626098632812,-11.686401367188
0.1415,-14.248901367188,20.344848632812,-6.8416748046875
0.142,-17.652221679688,19.463989257812,-2.7176513671875
0.1425,-20.535034179688,18.102661132812,1.4464111328125
0.143,-22.496948242188,16.501098632812,4.9698486328125
0.1435,-22.296752929688,13.378051757812,7.8126220703125
0.144,-21.215698242188,8.7335205078125,11.456176757812
0.1445,-20.414916992188,4.7296142578125,14.739379882812
0.145,-19.774291992188,0.5255126953125,18.382934570312
0.1455,-18.252807617188,-3.5584716796875,20.905395507812
0.146,-16.611206054688,-6.4012451171875,22.066528320312
0.1465,-13.087768554688,-9.4842529296875,21.746215820312
0.147,-7.7225341796875,-13.328002929688,20.344848632812
0.1475,-3.2781982421875,-16.731323242188,19.504028320312
0.148,1.2862548828125,-19.814331054688,18.222778320312
0.1485,5.0899658203125,-21.936401367188,16.901489257812
0.149,7.8927001953125,-21.936401367188,14.338989257812
0.1495,11.376098632812,-21.095581054688,10.214965820312
0.15,15.019653320312,-20.214721679688,5.8907470703125
0.1505,18.543090820312,-19.213745117188,1.5264892578125
0.151,21.105590820312,-17.772338867188,-2.4373779296875
0.1515,22.466918945312,-16.010620117188,-5.6004638671875
0.152,21.946411132812,-12.447143554688,-8.6834716796875
0.1525,20.825317382812,-7.5623779296875,-12.527221679688
0.153,20.184692382812,-3.7186279296875,-15.730346679688
0.1535,19.423950195312,0.5655517578125,-19.173706054688
0.154,17.942504882812,4.4093017578125,-21.616088867188
0.1545,15.420043945312,7.2520751953125,-21.976440429688
0.155,11.496215820312,10.535278320312,-21.375854492188
0.1555,6.1710205078125,14.579223632812,-20.254760742188
0.156,1.5264892578125,18.062622070312,-19.293823242188
0.1565,-2.7977294921875,20.665161132812,-17.892456054688
0.157,-6.2010498046875,22.466918945312,-16.531127929688
0.1575,-9.2039794921875,21.946411132812,-13.247924804688
0.158,-12.967651367188,20.825317382812,-8.6033935546875
0.1585,-16.491088867188,20.144653320312,-4.5594482421875
0.159,-20.014526367188,18.903442382812,0.1251220703125
0.1595,-22.216674804688,17.261840820312,3.8887939453125
0.16,-22.937377929688,14.859497070312,6.9317626953125
0.1605,-22.136596679688,10.855590820312,10.214965820312
0.161,-21.015502929688,5.8507080078125,14.218872070312
0.1615,-20.334838867188,1.8868408203125,17.582153320312
0.162,-19.213745117188,-2.2772216796875,20.545043945312
0.1625,-17.772338867188,-5.9207763671875,22.787231445312
0.163,-14.369018554688,-8.8035888671875,22.306762695312
0.1635,-9.8045654296875,-12.327026367188,21.385864257812
0.164,-4.7996826171875,-16.290893554688,20.464965820312
0.1645,0.3653564453125,-19.734252929688,19.063598632812
0.165,4.2491455078125,-21.856323242188,17.582153320312
0.1655,7.3721923828125,-23.017456054688,15.860473632812
0.166,10.655395507812,-22.096557617188,11.896606445312
0.1665,14.579223632812,-20.815307617188,6.8917236328125
0.167,17.942504882812,-20.054565429688,2.9678955078125
0.1675,21.105590820312,-18.733276367188,-1.5565185546875
0.168,22.987426757812,-16.971557617188,-5.1199951171875
0.1685,22.747192382812,-13.848510742188,-8.0428466796875
0.169,21.826293945312,-9.4842529296875,-11.526245117188
0.1695,20.865356445312,-4.7196044921875,-15.410034179688
0.17,19.984497070312,-0.5555419921875,-18.733276367188
0.1705,18.623168945312,3.3282470703125,-21.135620117188
0.171,16.981567382812,6.6915283203125,-22.937377929688
0.1715,12.857543945312,9.7344970703125,-21.896362304688
0.172,7.8526611328125,13.458129882812,-20.775268554688
0.1725,3.3282470703125,17.181762695312,-20.094604492188
0.173,-1.7567138671875,20.384887695312,-18.533081054688
0.1735,-5.2801513671875,22.146606445312,-17.011596679688
0.174,-8.2030029296875,22.466918945312,-14.689331054688
0.1745,-11.606323242188,21.546020507812,-10.605346679688
0.175,-15.490112304688,20.304809570312,-5.6405029296875
0.1755,-18.773315429688,19.383911132812,-1.5565185546875
0.176,-21.455932617188,17.942504882812,2.4874267578125
0.1765,-22.937377929688,16.060668945312,5.7706298828125
0.177,-22.096557617188,12.296997070312,8.7735595703125
0.1775,-21.215698242188,7.8927001953125,12.337036132812
0.178,-20.494995117188,3.5684814453125,15.980590820312
