wavelength,x,y,z
0.0,-4.1640625,4.1640625,-0.48046875
0.0005,-4.724609375,4.083984375,0.16015625
0.001,-4.724609375,3.1630859375,1.0810546875
0.0015,-4.9248046875,2.8427734375,1.6416015625
0.002,-5.125,1.841796875,2.802734375
0.0025,-4.9248046875,1.28125,3.1630859375
0.003,-4.484375,0.1201171875,3.84375
0.0035,-4.00390625,-0.80078125,4.2041015625
0.004,-3.283203125,-1.8017578125,4.4443359375
0.0045,-2.6826171875,-2.6025390625,4.6044921875
0.005,-1.8017578125,-3.7236328125,4.8447265625
0.0055,-0.9208984375,-4.00390625,4.2041015625
0.006,-0.1201171875,-4.7646484375,4.1240234375
0.0065,0.880859375,-4.8447265625,3.3232421875
0.007,1.6416015625,-5.205078125,2.8427734375
0.0075,2.8828125,-5.4052734375,1.8818359375
0.008,3.603515625,-5.3251953125,1.201171875
0.0085,3.923828125,-4.724609375,0.1201171875
0.009,4.404296875,-4.564453125,-0.5205078125
0.0095,4.4443359375,-3.603515625,-1.361328125
0.01,4.484375,-3.0830078125,-2.001953125
0.0105,4.724609375,-2.1220703125,-3.123046875
0.011,4.2041015625,-1.28125,-3.4033203125
0.0115,3.84375,-0.2802734375,-4.0439453125
0.012,3.123046875,0.6806640625,-4.244140625
0.0125,2.5224609375,1.521484375,-4.4443359375
0.013,1.76171875,2.40234375,-4.5244140625
0.0135,1.0009765625,3.283203125,-4.64453125
0.014,0.0,3.5234375,-3.8837890625
0.0145,-0.6005859375,4.1240234375,-3.8837890625
0.015,-1.6015625,4.1640625,-2.9228515625
0.0155,-2.2822265625,4.4443359375,-2.5625
0.016,-3.5634765625,4.484375,-1.5615234375
0.0165,-3.84375,4.2841796875,-0.9609375
0.017,-4.2041015625,3.8037109375,0.0
0.0175,-4.484375,3.5234375,0.5205078125
0.018,-4.564453125,2.802734375,1.28125
0.0185,-4.6845703125,2.2822265625,1.921875
0.019,-4.9248046875,1.5615234375,2.8828125
0.0195,-4.32421875,0.6806640625,3.123046875
0.02,-4.244140625,-0.2001953125,3.84375
0.0205,-3.36328125,-1.201171875,3.9638671875
0.021,-3.04296875,-1.9619140625,4.3642578125
0.0215,-2.2021484375,-2.8828125,4.484375
0.022,-1.4814453125,-3.603515625,4.4443359375
0.0225,-0.5205078125,-3.9638671875,3.84375
0.023,0.1201171875,-4.564453125,3.84375
0.0235,1.1611328125,-4.724609375,2.8427734375
0.024,1.921875,-5.125,2.4423828125
0.0245,3.04296875,-5.28515625,1.5615234375
0.025,3.283203125,-4.96484375,0.7607421875
0.0255,3.8837890625,-4.5244140625,0.0400390625
0.026,4.083984375,-4.00390625,-0.6806640625
0.0265,4.244140625,-3.36328125,-1.4814453125
0.027,4.32421875,-2.642578125,-2.2021484375
0.0275,4.484375,-1.9619140625,-3.0830078125
0.028,3.68359375,-0.8408203125,-3.36328125
0.0285,3.6435546875,-0.1201171875,-4.00390625
0.029,2.6025390625,1.0009765625,-4.00390625
0.0295,2.2822265625,1.6416015625,-4.3642578125
0.03,1.44140625,2.6025390625,-4.4443359375
0.0305,0.640625,3.1630859375,-4.1640625
0.031,-0.2001953125,3.5234375,-3.68359375
0.0315,-0.880859375,3.923828125,-3.443359375
0.032,-1.841796875,4.083984375,-2.6025390625
0.0325,-2.5625,4.2841796875,-2.162109375
0.033,-3.4833984375,4.244140625,-1.44140625
0.0335,-3.7236328125,3.763671875,-0.5205078125
0.034,-4.1640625,3.7236328125,0.0
0.0345,-4.2041015625,2.962890625,0.80078125
0.035,-4.484375,2.5625,1.4013671875
0.0355,-4.5244140625,1.841796875,2.2021484375
0.036,-4.564453125,1.2412109375,2.802734375
0.0365,-3.84375,0.16015625,3.1630859375
0.037,-3.84375,-0.5205078125,3.8037109375
0.0375,-2.9228515625,-1.5615234375,3.84375
0.038,-2.72265625,-2.1220703125,4.2041015625
0.0385,-1.8017578125,-3.1630859375,4.2841796875
0.039,-1.041015625,-3.5234375,3.8837890625
0.0395,-0.3203125,-4.0439453125,3.68359375
0.04,0.48046875,-4.4443359375,3.203125
0.0405,1.44140625,-4.724609375,2.5625
0.041,2.2421875,-4.8447265625,2.0419921875
0.0415,3.04296875,-4.96484375,1.28125
0.042,3.283203125,-4.32421875,0.4404296875
0.0425,3.84375,-4.32421875,0.0
0.043,3.84375,-3.443359375,-1.0009765625
0.0435,4.1240234375,-3.1630859375,-1.6015625
0.044,4.1640625,-2.2822265625,-2.482421875
0.0445,4.00390625,-1.521484375,-3.0029296875
0.045,3.443359375,-0.48046875,-3.4833984375
0.0455,3.1630859375,0.2802734375,-3.8837890625
0.046,2.2421875,1.3212890625,-4.0439453125
0.0465,1.9619140625,1.921875,-4.32421875
0.047,1.12109375,2.8427734375,-4.2841796875
0.0475,0.240234375,3.1630859375,-3.7236328125
0.048,-0.400390625,3.603515625,-3.68359375
0.0485,-1.4814453125,3.84375,-2.8427734375
0.049,-2.2421875,4.1240234375,-2.3623046875
0.0495,-2.9228515625,4.1240234375,-1.6416015625
0.05,-3.5634765625,4.1240234375,-1.0009765625
0.0505,-3.7236328125,3.4833984375,-0.16015625
0.051,-4.1640625,3.36328125,0.2802734375
0.0515,-4.2041015625,2.482421875,1.28125
0.052,-4.404296875,2.2021484375,1.76171875
0.0525,-4.484375,1.4013671875,2.5625
0.053,-4.0439453125,0.6005859375,2.9228515625
0.0535,-3.7236328125,-0.3203125,3.4833984375
0.054,-3.203125,-1.12109375,3.7236328125
0.0545,-2.6025390625,-1.9619140625,3.9638671875
0.055,-2.1220703125,-2.6025390625,4.083984375
0.0555,-1.3212890625,-3.36328125,4.0439453125
0.056,-0.5205078125,-3.68359375,3.4833984375
0.0565,0.0400390625,-4.244140625,3.4833984375
0.057,1.2412109375,-4.4443359375,2.482421875
0.0575,1.841796875,-4.724609375,2.2421875
0.058,2.6025390625,-4.6845703125,1.44140625
0.0585,3.0830078125,-4.5244140625,0.80078125
0.059,3.4033203125,-4.0439453125,0.080078125
0.0595,3.68359375,-3.84375,-0.5205078125
0.06,3.8837890625,-3.04296875,-1.44140625
0.0605,4.00390625,-2.642578125,-1.9619140625
0.061,4.083984375,-1.8818359375,-2.7626953125
0.0615,3.443359375,-0.880859375,-3.0830078125
0.062,3.2431640625,-0.080078125,-3.68359375
0.0625,2.482421875,0.9208984375,-3.84375
0.063,2.1220703125,1.6416015625,-4.1640625
0.0635,1.44140625,2.2822265625,-4.083984375
0.064,0.6806640625,2.9228515625,-4.00390625
0.0645,-0.16015625,3.1630859375,-3.4833984375
0.065,-0.80078125,3.7236328125,-3.36328125
0.0655,-2.001953125,3.923828125,-2.322265625
0.066,-2.5224609375,4.1240234375,-2.08203125
0.0665,-3.2431640625,4.083984375,-1.2412109375
0.067,-3.603515625,3.68359375,-0.560546875
0.0675,-3.923828125,3.4033203125,0.1201171875
0.068,-4.1240234375,2.8427734375,0.80078125
0.0685,-4.3642578125,2.2822265625,1.6015625
0.069,-4.32421875,1.76171875,2.1220703125
0.0695,-4.3642578125,1.0009765625,2.8427734375
0.07,-3.6435546875,0.0,3.1630859375
0.0705,-3.5634765625,-0.720703125,3.68359375
0.071,-2.642578125,-1.8017578125,3.84375
0.0715,-2.40234375,-2.40234375,4.1640625
0.072,-1.521484375,-3.123046875,3.8837890625
0.0725,-0.80078125,-3.6435546875,3.763671875
0.073,0.0,-4.00390625,3.2431640625
0.0735,0.7607421875,-4.3642578125,2.962890625
0.074,1.8818359375,-4.6044921875,2.1220703125
0.0745,2.2822265625,-4.64453125,1.7216796875
0.075,3.0029296875,-4.6044921875,0.9609375
0.0755,3.2431640625,-4.083984375,0.2802734375
0.076,3.68359375,-3.8837890625,-0.3203125
0.0765,3.763671875,-3.1630859375,-1.2412109375
0.077,4.0439453125,-2.7626953125,-1.8818359375
0.0775,3.84375,-1.9619140625,-2.4423828125
0.078,3.84375,-1.2412109375,-3.0830078125
0.0785,3.0830078125,-0.16015625,-3.36328125
0.079,2.9228515625,0.5205078125,-3.8837890625
0.0795,1.9619140625,1.6416015625,-4.0439453125
0.08,1.76171875,2.1220703125,-4.2841796875
0.0805,0.7607421875,2.8427734375,-4.00390625
0.081,0.0,3.203125,-3.7236328125
0.0815,-0.720703125,3.6435546875,-3.283203125
0.082,-1.681640625,4.00390625,-2.72265625
0.0825,-2.642578125,4.244140625,-1.9619140625
0.083,-3.0830078125,4.083984375,-1.4013671875
0.0835,-3.763671875,4.00390625,-0.6806640625
0.084,-3.8837890625,3.36328125,0.080078125
0.0845,-4.2841796875,3.203125,0.640625
0.085,-4.3642578125,2.2421875,1.6416015625
0.0855,-4.6044921875,1.921875,2.2021484375
0.086,-4.32421875,1.0009765625,2.802734375
0.0865,-4.1240234375,0.240234375,3.36328125
0.087,-3.4033203125,-0.80078125,3.6435546875
0.0875,-3.1630859375,-1.521484375,4.0439453125
0.088,-2.2021484375,-2.72265625,4.2041015625
0.0885,-1.76171875,-3.123046875,4.1240234375
0.089,-0.80078125,-3.84375,3.8837890625
0.0895,0.0,-4.1240234375,3.4833984375
0.09,0.720703125,-4.5244140625,3.123046875
0.0905,1.841796875,-4.7646484375,2.2822265625
0.091,2.6826171875,-5.0048828125,1.6416015625
0.0915,3.0830078125,-4.6044921875,0.9208984375
0.092,3.68359375,-4.5244140625,0.240234375
0.0925,3.763671875,-3.8037109375,-0.6005859375
0.093,4.083984375,-3.5234375,-1.1611328125
0.0935,4.2041015625,-2.5625,-2.2021484375
0.094,4.2041015625,-2.08203125,-2.642578125
0.0945,3.84375,-1.0810546875,-3.2431640625
0.095,3.443359375,-0.240234375,-3.7236328125
0.0955,2.7626953125,0.720703125,-3.923828125
0.096,2.2421875,1.521484375,-4.244140625
0.0965,1.4814453125,2.5224609375,-4.5244140625
0.097,0.8408203125,2.8427734375,-4.1640625
0.0975,0.0,3.6435546875,-3.9638671875
0.098,-0.8408203125,3.8037109375,-3.3232421875
0.0985,-1.5615234375,4.1640625,-3.0029296875
0.099,-2.7626953125,4.404296875,-2.001953125
0.0995,-3.4833984375,4.484375,-1.44140625
0.1,-3.84375,4.00390625,-0.6005859375
0.1005,-4.3642578125,3.8837890625,0.0400390625
0.101,-4.404296875,3.0830078125,0.880859375
0.1015,-4.64453125,2.72265625,1.44140625
0.102,-4.8447265625,1.8017578125,2.5625
0.1025,-4.64453125,1.2412109375,2.8828125
0.103,-4.32421875,0.2001953125,3.6435546875
0.1035,-3.8037109375,-0.7607421875,3.9638671875
0.104,-3.203125,-1.6416015625,4.2041015625
0.1045,-2.5224609375,-2.6025390625,4.404296875
0.105,-1.76171875,-3.603515625,4.6044921875
0.1055,-0.8408203125,-3.8837890625,4.0439453125
0.106,-0.1201171875,-4.6044921875,4.00390625
0.1065,0.880859375,-4.6845703125,3.1630859375
0.107,1.6416015625,-5.0849609375,2.7626953125
0.1075,2.9228515625,-5.28515625,1.76171875
0.108,3.5634765625,-5.1650390625,1.0009765625
0.1085,3.9638671875,-4.6044921875,0.080078125
0.109,4.3642578125,-4.404296875,-0.560546875
0.1095,4.404296875,-3.5634765625,-1.4013671875
0.11,4.484375,-2.9228515625,-2.1220703125
0.1105,4.7646484375,-2.0419921875,-3.203125
0.111,4.1240234375,-1.12109375,-3.5634765625
0.1115,3.84375,-0.16015625,-4.1640625
0.112,3.0029296875,0.80078125,-4.244140625
0.1125,2.4423828125,1.6416015625,-4.5244140625
0.113,1.5615234375,2.6025390625,-4.64453125
0.1135,0.8408203125,3.4833984375,-4.6845703125
0.114,-0.2001953125,3.763671875,-3.84375
0.1145,-0.80078125,4.32421875,-3.84375
0.115,-1.8818359375,4.32421875,-2.8427734375
0.1155,-2.5625,4.6044921875,-2.40234375
0.116,-3.8037109375,4.8046875,-1.361328125
0.1165,-4.1640625,4.404296875,-0.640625
0.117,-4.5244140625,3.8837890625,0.2001953125
0.1175,-4.8046875,3.5234375,0.8408203125
0.118,-4.8447265625,2.72265625,1.6416015625
0.1185,-4.9248046875,2.08203125,2.322265625
0.119,-5.125,1.28125,3.3232421875
0.1195,-4.3642578125,0.2802734375,3.5634765625
0.12,-4.2841796875,-0.6005859375,4.2841796875
0.1205,-3.3232421875,-1.6416015625,4.32421875
0.121,-2.9228515625,-2.4423828125,4.6044921875
0.1215,-1.9619140625,-3.443359375,4.724609375
0.122,-1.12109375,-4.1640625,4.6044921875
0.1225,-0.1201171875,-4.5244140625,3.923828125
0.123,0.560546875,-5.0849609375,3.84375
0.1235,1.76171875,-5.1650390625,2.72265625
0.124,2.482421875,-5.4453125,2.2822265625
0.1245,3.7236328125,-5.60546875,1.2412109375
0.125,4.0439453125,-5.0048828125,0.3603515625
0.1255,4.484375,-4.64453125,-0.48046875
0.126,4.64453125,-4.00390625,-1.28125
0.1265,4.7646484375,-3.1630859375,-2.162109375
0.127,4.724609375,-2.40234375,-2.8828125
0.1275,4.8447265625,-1.4814453125,-3.84375
0.128,3.84375,-0.3203125,-4.0439453125
0.1285,3.68359375,0.48046875,-4.64453125
0.129,2.482421875,1.7216796875,-4.64453125
0.1295,1.9619140625,2.4423828125,-4.8046875
0.13,1.041015625,3.443359375,-4.8046875
0.1305,0.080078125,3.9638671875,-4.404296875
0.131,-0.80078125,4.2041015625,-3.7236328125
0.1315,-1.6015625,4.64453125,-3.4033203125
0.132,-2.7626953125,4.724609375,-2.2822265625
0.1325,-3.283203125,4.724609375,-1.8017578125
0.133,-4.32421875,4.8046875,-0.880859375
0.1335,-4.4443359375,3.9638671875,0.0400390625
0.134,-4.8447265625,3.8037109375,0.6005859375
0.1345,-4.8447265625,2.9228515625,1.521484375
0.135,-5.0048828125,2.2822265625,2.2021484375
0.1355,-4.96484375,1.521484375,2.8828125
0.136,-4.884765625,0.720703125,3.603515625
0.1365,-4.00390625,-0.5205078125,3.84375
0.137,-3.9638671875,-1.1611328125,4.4443359375
0.1375,-2.8427734375,-2.2822265625,4.4443359375
0.138,-2.5224609375,-2.8828125,4.6845703125
0.1385,-1.44140625,-3.8837890625,4.6044921875
0.139,-0.5205078125,-4.32421875,4.1240234375
0.1395,0.2802734375,-4.724609375,3.763671875
0.14,1.2412109375,-5.0849609375,3.203125
0.1405,2.2822265625,-5.2451171875,2.322265625
0.141,2.8828125,-5.28515625,1.76171875
0.1415,3.84375,-5.365234375,0.9208984375
0.142,4.00390625,-4.5244140625,0.0
0.1425,4.484375,-4.484375,-0.640625
0.143,4.5244140625,-3.36328125,-1.681640625
0.1435,4.724609375,-2.9228515625,-2.322265625
0.144,4.6044921875,-2.001953125,-3.203125
0.1445,4.404296875,-1.12109375,-3.84375
0.145,3.5234375,0.080078125,-4.1240234375
0.1455,3.2431640625,0.880859375,-4.564453125
0.146,2.0419921875,2.162109375,-4.64453125
0.1465,1.7216796875,2.6826171875,-4.7646484375
0.147,0.6806640625,3.5634765625,-4.64453125
0.1475,-0.3203125,3.8837890625,-3.9638671875
0.148,-1.0009765625,4.32421875,-3.6435546875
0.1485,-2.162109375,4.6044921875,-2.7626953125
0.149,-3.0830078125,4.6845703125,-2.001953125
0.1495,-3.603515625,4.5244140625,-1.3212890625
0.15,-4.32421875,4.4443359375,-0.560546875
0.1505,-4.3642578125,3.603515625,0.3603515625
0.151,-4.724609375,3.443359375,0.8408203125
0.1515,-4.7646484375,2.2822265625,1.921875
0.152,-4.8447265625,1.921875,2.322265625
0.1525,-4.6845703125,1.0009765625,3.123046875
0.153,-4.2841796875,0.16015625,3.5234375
0.1535,-3.68359375,-0.80078125,3.923828125
0.154,-3.2431640625,-1.6015625,4.2041015625
0.1545,-2.40234375,-2.6025390625,4.32421875
0.155,-1.9619140625,-3.0830078125,4.3642578125
0.1555,-1.0009765625,-3.923828125,4.244140625
0.156,-0.1201171875,-4.1640625,3.603515625
0.1565,0.5205078125,-4.6845703125,3.5234375
0.157,1.76171875,-4.8447265625,2.482421875
0.1575,2.40234375,-5.125,2.08203125
0.158,3.04296875,-4.96484375,1.28125
0.1585,3.6435546875,-4.8046875,0.6005859375
0.159,3.84375,-4.1640625,-0.2802734375
0.1595,4.1640625,-4.00390625,-0.80078125
0.16,4.32421875,-3.0029296875,-1.9619140625
0.1605,4.404296875,-2.642578125,-2.3623046875
0.161,4.32421875,-1.681640625,-3.2431640625
0.1615,3.763671875,-0.640625,-3.603515625
0.162,3.283203125,0.3603515625,-4.083984375
0.1625,2.6025390625,1.28125,-4.32421875
0.163,1.921875,2.2421875,-4.564453125
0.1635,1.28125,2.72265625,-4.404296875
0.164,0.400390625,3.5234375,-4.244140625
0.1645,-0.560546875,3.763671875,-3.5634765625
0.165,-1.2412109375,4.2041015625,-3.36328125
0.1655,-2.5224609375,4.3642578125,-2.2421875
0.166,-3.04296875,4.484375,-1.8818359375
0.1665,-3.6435546875,4.2041015625,-1.0009765625
0.167,-4.0439453125,3.8837890625,-0.2802734375
0.1675,-4.2041015625,3.3232421875,0.48046875
0.168,-4.4443359375,2.8427734375,1.0810546875
0.1685,-4.64453125,2.0419921875,2.0419921875
0.169,-4.484375,1.5615234375,2.3623046875
0.1695,-4.4443359375,0.720703125,3.1630859375
0.17,-3.7236328125,-0.2802734375,3.4033203125
0.1705,-3.4833984375,-1.0009765625,3.8837890625
0.171,-2.6025390625,-2.0419921875,4.00390625
0.1715,-2.2421875,-2.72265625,4.2841796875
0.172,-1.44140625,-3.203125,3.9638671875
0.1725,-0.6806640625,-3.84375,3.84375
0.173,0.1201171875,-4.083984375,3.2431640625
0.1735,0.880859375,-4.564453125,3.04296875
0.174,2.0419921875,-4.7646484375,2.08203125
0.1745,2.4423828125,-4.8447265625,1.76171875
0.175,3.123046875,-4.64453125,0.9208984375
0.1755,3.4033203125,-4.244140625,0.240234375
0.176,3.8037109375,-3.923828125,-0.4404296875
0.1765,3.8837890625,-3.283203125,-1.2412109375
0.177,4.2041015625,-2.8427734375,-2.0419921875
0.1775,3.9638671875,-2.0419921875,-2.482421875
0.178,3.9638671875,-1.28125,-3.203125
0.1785,3.1630859375,-0.16015625,-3.5234375
0.179,3.04296875,0.6005859375,-4.0439453125
0.1795,2.0419921875,1.681640625,-4.1640625
0.18,1.76171875,2.2421875,-4.4443359375
0.1805,0.80078125,2.8828125,-4.00390625
0.181,0.0400390625,3.443359375,-3.84375
0.1815,-0.80078125,3.68359375,-3.2431640625
0.182,-1.6416015625,4.1240234375,-2.8427734375
0.1825,-2.72265625,4.32421875,-1.9619140625
0.183,-3.0830078125,4.1240234375,-1.4814453125
0.1835,-3.8037109375,4.00390625,-0.6806640625
0.184,-3.923828125,3.4033203125,0.0400390625
0.1845,-4.244140625,3.0830078125,0.640625
0.185,-4.3642578125,2.2421875,1.521484375
0.1855,-4.6044921875,1.921875,2.2021484375
0.186,-4.2041015625,1.0810546875,2.6025390625
0.1865,-4.1240234375,0.3203125,3.283203125
0.187,-3.3232421875,-0.7607421875,3.4833984375
0.1875,-3.1630859375,-1.4013671875,3.9638671875
0.188,-2.2421875,-2.5224609375,4.083984375
0.1885,-1.8017578125,-2.8828125,4.0439453125
0.189,-0.9208984375,-3.5634765625,3.8037109375
0.1895,-0.2001953125,-3.923828125,3.4833984375
0.19,0.560546875,-4.244140625,3.04296875
0.1905,1.521484375,-4.5244140625,2.40234375
0.191,2.40234375,-4.8447265625,1.8017578125
0.1915,2.6826171875,-4.484375,1.12109375
0.192,3.3232421875,-4.5244140625,0.5205078125
0.1925,3.443359375,-3.84375,-0.2802734375
0.193,3.84375,-3.6435546875,-0.80078125
0.1935,3.8837890625,-2.72265625,-1.76171875
0.194,4.083984375,-2.40234375,-2.2421875
0.1945,3.68359375,-1.361328125,-2.8427734375
0.195,3.4833984375,-0.640625,-3.36328125
0.1955,2.7626953125,0.400390625,-3.603515625
0.196,2.482421875,1.12109375,-4.00390625
0.1965,1.76171875,2.08203125,-4.244140625
0.197,1.201171875,2.4423828125,-4.0439453125
0.1975,0.3603515625,3.1630859375,-3.8837890625
0.198,-0.4404296875,3.443359375,-3.36328125
0.1985,-1.1611328125,3.84375,-3.0830078125
0.199,-2.2421875,4.083984375,-2.2421875
0.1995,-2.9228515625,4.2841796875,-1.76171875
0.2,-3.283203125,3.763671875,-0.9609375
0.2005,-3.84375,3.7236328125,-0.4404296875
0.201,-3.923828125,3.0029296875,0.400390625
0.2015,-4.2041015625,2.802734375,0.9609375
0.202,-4.4443359375,2.001953125,1.921875
0.2025,-4.3642578125,1.5615234375,2.2822265625
0.203,-4.083984375,0.560546875,2.962890625
0.2035,-3.68359375,-0.2802734375,3.36328125
0.204,-3.1630859375,-1.1611328125,3.68359375
0.2045,-2.642578125,-1.9619140625,3.9638671875
0.205,-2.0419921875,-2.802734375,4.1640625
0.2055,-1.28125,-3.123046875,3.8037109375
0.206,-0.640625,-3.84375,3.8037109375
0.2065,0.2802734375,-4.00390625,3.123046875
0.207,1.0009765625,-4.484375,2.8427734375
0.2075,2.08203125,-4.6845703125,1.921875
0.208,2.642578125,-4.7646484375,1.4013671875
0.2085,3.04296875,-4.3642578125,0.6005859375
0.209,3.4833984375,-4.2041015625,0.080078125
0.2095,3.603515625,-3.5234375,-0.6806640625
0.21,3.84375,-3.0830078125,-1.3212890625
0.2105,4.1240234375,-2.40234375,-2.2421875
0.211,3.7236328125,-1.681640625,-2.5625
0.2115,3.603515625,-0.8408203125,-3.2431640625
0.212,2.9228515625,0.1201171875,-3.5234375
0.2125,2.6025390625,0.9208984375,-3.8837890625
0.213,1.921875,1.76171875,-4.083984375
0.2135,1.4013671875,2.5224609375,-4.244140625
0.214,0.48046875,2.8427734375,-3.68359375
0.2145,-0.1201171875,3.4833984375,-3.7236328125
0.215,-1.041015625,3.6435546875,-2.9228515625
0.2155,-1.8017578125,4.00390625,-2.642578125
0.216,-2.8828125,4.2041015625,-1.8017578125
0.2165,-3.283203125,3.9638671875,-1.2412109375
0.217,-3.7236328125,3.68359375,-0.4404296875
0.2175,-4.00390625,3.36328125,0.2001953125
0.218,-4.2041015625,2.8427734375,0.9609375
0.2185,-4.3642578125,2.2421875,1.6015625
0.219,-4.6044921875,1.6416015625,2.482421875
0.2195,-4.0439453125,0.7607421875,2.7626953125
0.22,-4.0439453125,0.0,3.4833984375
0.2205,-3.203125,-1.0009765625,3.6435546875
0.221,-2.9228515625,-1.7216796875,4.00390625
0.2215,-2.1220703125,-2.6826171875,4.1240234375
0.222,-1.4814453125,-3.283203125,4.1240234375
0.2225,-0.640625,-3.7236328125,3.6435546875
0.223,0.0,-4.2041015625,3.5234375
0.2235,1.041015625,-4.4443359375,2.72265625
0.224,1.76171875,-4.8046875,2.322265625
0.2245,2.8828125,-5.0048828125,1.4814453125
0.225,3.1630859375,-4.564453125,0.720703125
0.2255,3.68359375,-4.3642578125,0.1201171875
0.226,3.84375,-3.763671875,-0.640625
0.2265,4.0439453125,-3.203125,-1.4013671875
0.227,4.1240234375,-2.5224609375,-2.2021484375
0.2275,4.2841796875,-1.8818359375,-2.9228515625
0.228,3.5234375,-0.7607421875,-3.283203125
0.2285,3.4833984375,0.0,-3.8837890625
0.229,2.482421875,1.041015625,-3.923828125
