wavelength,x,y,z
0.0,-2.50244140625,-1.30126953125,3.30322265625
0.0005,-2.90283203125,-0.90087890625,3.26318359375
0.001,-3.02294921875,-0.50048828125,2.94287109375
0.0015,-3.02294921875,0.18017578125,2.26220703125
0.002,-3.18310546875,0.98095703125,1.78173828125
0.0025,-3.38330078125,1.82177734375,1.18115234375
0.003,-3.42333984375,2.34228515625,0.70068359375
0.0035,-3.26318359375,2.66259765625,0.26025390625
0.004,-2.90283203125,2.82275390625,-0.30029296875
0.0045,-2.26220703125,2.94287109375,-1.10107421875
0.005,-1.66162109375,3.18310546875,-1.94189453125
0.0055,-1.14111328125,3.34326171875,-2.58251953125
0.006,-0.70068359375,3.34326171875,-3.06298828125
0.0065,-0.30029296875,3.14306640625,-3.22314453125
0.007,0.34033203125,2.58251953125,-3.30322265625
0.0075,1.10107421875,2.06201171875,-3.54345703125
0.008,1.94189453125,1.42138671875,-3.74365234375
0.0085,2.38232421875,0.98095703125,-3.78369140625
0.009,2.70263671875,0.50048828125,-3.66357421875
0.0095,2.78271484375,0.14013671875,-3.34326171875
0.01,2.82275390625,-0.54052734375,-2.66259765625
0.0105,3.02294921875,-1.26123046875,-2.18212890625
0.011,3.18310546875,-1.98193359375,-1.66162109375
0.0115,3.22314453125,-2.54248046875,-1.18115234375
0.012,3.10302734375,-2.82275390625,-0.70068359375
0.0125,2.70263671875,-2.98291015625,-0.18017578125
0.013,2.10205078125,-3.18310546875,0.62060546875
0.0135,1.46142578125,-3.46337890625,1.50146484375
0.014,0.98095703125,-3.54345703125,2.06201171875
0.0145,0.54052734375,-3.54345703125,2.54248046875
0.015,0.06005859375,-3.30322265625,2.74267578125
0.0155,-0.66064453125,-2.66259765625,2.82275390625
0.016,-1.42138671875,-2.18212890625,3.14306640625
0.0165,-2.22216796875,-1.58154296875,3.26318359375
0.017,-2.66259765625,-1.14111328125,3.26318359375
0.0175,-2.90283203125,-0.70068359375,3.06298828125
0.018,-2.94287109375,-0.18017578125,2.62255859375
0.0185,-3.06298828125,0.62060546875,2.06201171875
0.019,-3.26318359375,1.42138671875,1.46142578125
0.0195,-3.38330078125,2.02197265625,0.98095703125
0.02,-3.42333984375,2.54248046875,0.50048828125
0.0205,-3.14306640625,2.70263671875,0.02001953125
0.021,-2.54248046875,2.82275390625,-0.70068359375
0.0215,-1.98193359375,3.14306640625,-1.50146484375
0.022,-1.34130859375,3.34326171875,-2.34228515625
0.0225,-0.98095703125,3.38330078125,-2.82275390625
0.023,-0.50048828125,3.26318359375,-3.14306640625
0.0235,0.06005859375,2.90283203125,-3.26318359375
0.024,0.82080078125,2.22216796875,-3.42333984375
0.0245,1.58154296875,1.66162109375,-3.66357421875
0.025,2.22216796875,1.14111328125,-3.78369140625
0.0255,2.58251953125,0.70068359375,-3.78369140625
0.026,2.70263671875,0.34033203125,-3.38330078125
0.0265,2.74267578125,-0.26025390625,-2.86279296875
0.027,2.90283203125,-0.98095703125,-2.38232421875
0.0275,3.10302734375,-1.78173828125,-1.78173828125
0.028,3.18310546875,-2.26220703125,-1.34130859375
0.0285,3.14306640625,-2.70263671875,-0.90087890625
0.029,2.82275390625,-2.86279296875,-0.42041015625
0.0295,2.18212890625,-2.94287109375,0.34033203125
0.03,1.70166015625,-3.26318359375,1.14111328125
0.0305,1.14111328125,-3.42333984375,1.86181640625
0.031,0.74072265625,-3.46337890625,2.30224609375
0.0315,0.30029296875,-3.26318359375,2.54248046875
0.032,-0.30029296875,-2.90283203125,2.70263671875
0.0325,-1.02099609375,-2.38232421875,2.86279296875
0.033,-1.78173828125,-1.86181640625,3.06298828125
0.0335,-2.30224609375,-1.42138671875,3.14306640625
0.034,-2.66259765625,-0.98095703125,3.14306640625
0.0345,-2.74267578125,-0.50048828125,2.78271484375
0.035,-2.82275390625,0.14013671875,2.26220703125
0.0355,-3.06298828125,0.82080078125,1.86181640625
0.036,-3.22314453125,1.58154296875,1.30126953125
0.0365,-3.26318359375,2.06201171875,0.86083984375
0.037,-3.18310546875,2.42236328125,0.34033203125
0.0375,-2.86279296875,2.62255859375,-0.18017578125
0.038,-2.26220703125,2.82275390625,-0.94091796875
0.0385,-1.82177734375,3.14306640625,-1.70166015625
0.039,-1.30126953125,3.22314453125,-2.34228515625
0.0395,-0.90087890625,3.34326171875,-2.82275390625
0.04,-0.38037109375,3.06298828125,-3.02294921875
0.0405,0.26025390625,2.54248046875,-3.18310546875
0.041,0.98095703125,2.06201171875,-3.50341796875
0.0415,1.70166015625,1.54150390625,-3.70361328125
0.042,2.18212890625,1.14111328125,-3.70361328125
0.0425,2.54248046875,0.70068359375,-3.58349609375
0.043,2.62255859375,0.22021484375,-3.18310546875
0.0435,2.70263671875,-0.50048828125,-2.62255859375
0.044,3.02294921875,-1.26123046875,-2.22216796875
0.0445,3.14306640625,-1.94189453125,-1.62158203125
0.045,3.18310546875,-2.42236328125,-1.26123046875
0.0455,2.94287109375,-2.70263671875,-0.70068359375
0.046,2.54248046875,-2.90283203125,-0.10009765625
0.0465,1.94189453125,-3.14306640625,0.74072265625
0.047,1.42138671875,-3.34326171875,1.50146484375
0.0475,0.94091796875,-3.46337890625,2.06201171875
0.048,0.54052734375,-3.46337890625,2.46240234375
0.0485,0.02001953125,-3.06298828125,2.58251953125
0.049,-0.78076171875,-2.54248046875,2.74267578125
0.0495,-1.54150390625,-2.06201171875,2.98291015625
0.05,-2.18212890625,-1.46142578125,3.18310546875
0.0505,-2.54248046875,-1.10107421875,3.14306640625
0.051,-2.70263671875,-0.62060546875,2.86279296875
0.0515,-2.82275390625,-0.10009765625,2.42236328125
0.052,-2.94287109375,0.62060546875,1.90185546875
0.0525,-3.18310546875,1.34130859375,1.42138671875
0.053,-3.26318359375,1.94189453125,0.94091796875
0.0535,-3.22314453125,2.34228515625,0.50048828125
0.054,-2.86279296875,2.54248046875,0.02001953125
0.0545,-2.38232421875,2.70263671875,-0.70068359375
0.055,-1.94189453125,3.02294921875,-1.50146484375
0.0555,-1.42138671875,3.18310546875,-2.18212890625
0.056,-0.98095703125,3.22314453125,-2.62255859375
0.0565,-0.58056640625,3.06298828125,-2.94287109375
0.057,0.02001953125,2.70263671875,-3.10302734375
0.0575,0.70068359375,2.14208984375,-3.34326171875
0.058,1.42138671875,1.78173828125,-3.54345703125
0.0585,1.98193359375,1.26123046875,-3.66357421875
0.059,2.38232421875,0.90087890625,-3.62353515625
0.0595,2.50244140625,0.42041015625,-3.26318359375
0.06,2.62255859375,-0.18017578125,-2.82275390625
0.0605,2.86279296875,-0.90087890625,-2.42236328125
0.061,3.06298828125,-1.58154296875,-1.90185546875
0.0615,3.14306640625,-2.10205078125,-1.42138671875
0.062,3.10302734375,-2.54248046875,-0.98095703125
0.0625,2.74267578125,-2.74267578125,-0.46044921875
0.063,2.22216796875,-2.90283203125,0.30029296875
0.0635,1.74169921875,-3.26318359375,1.10107421875
0.064,1.22119140625,-3.38330078125,1.74169921875
0.0645,0.78076171875,-3.50341796875,2.22216796875
0.065,0.30029296875,-3.26318359375,2.46240234375
0.0655,-0.34033203125,-2.86279296875,2.58251953125
0.066,-1.14111328125,-2.26220703125,2.86279296875
0.0665,-1.78173828125,-1.78173828125,3.06298828125
0.067,-2.34228515625,-1.30126953125,3.14306640625
0.0675,-2.62255859375,-0.90087890625,3.06298828125
0.068,-2.70263671875,-0.38037109375,2.58251953125
0.0685,-2.86279296875,0.30029296875,2.14208984375
0.069,-3.14306640625,1.02099609375,1.66162109375
0.0695,-3.26318359375,1.74169921875,1.14111328125
0.07,-3.26318359375,2.14208984375,0.74072265625
0.0705,-3.06298828125,2.50244140625,0.26025390625
0.071,-2.62255859375,2.62255859375,-0.38037109375
0.0715,-2.06201171875,2.86279296875,-1.22119140625
0.072,-1.58154296875,3.14306640625,-1.94189453125
0.0725,-1.14111328125,3.18310546875,-2.54248046875
0.073,-0.74072265625,3.18310546875,-2.86279296875
0.0735,-0.22021484375,2.78271484375,-3.02294921875
0.074,0.50048828125,2.34228515625,-3.18310546875
0.0745,1.26123046875,1.86181640625,-3.42333984375
0.075,1.82177734375,1.38134765625,-3.54345703125
0.0755,2.22216796875,0.98095703125,-3.54345703125
0.076,2.46240234375,0.58056640625,-3.38330078125
0.0765,2.54248046875,0.02001953125,-2.94287109375
0.077,2.70263671875,-0.62060546875,-2.46240234375
0.0775,2.94287109375,-1.30126953125,-2.06201171875
0.078,3.06298828125,-1.94189453125,-1.58154296875
0.0785,3.06298828125,-2.34228515625,-1.22119140625
0.079,2.74267578125,-2.54248046875,-0.66064453125
0.0795,2.38232421875,-2.82275390625,-0.06005859375
0.08,1.90185546875,-3.06298828125,0.70068359375
0.0805,1.42138671875,-3.26318359375,1.34130859375
0.081,0.98095703125,-3.38330078125,1.90185546875
0.0815,0.58056640625,-3.38330078125,2.26220703125
0.082,0.02001953125,-2.94287109375,2.46240234375
0.0825,-0.66064453125,-2.54248046875,2.66259765625
0.083,-1.38134765625,-2.06201171875,2.98291015625
0.0835,-2.02197265625,-1.58154296875,3.10302734375
0.084,-2.38232421875,-1.22119140625,3.06298828125
0.0845,-2.58251953125,-0.70068359375,2.78271484375
0.085,-2.74267578125,-0.14013671875,2.42236328125
0.0855,-2.98291015625,0.62060546875,1.94189453125
0.086,-3.18310546875,1.30126953125,1.50146484375
0.0865,-3.26318359375,1.90185546875,1.02099609375
0.087,-3.22314453125,2.30224609375,0.58056640625
0.0875,-2.86279296875,2.50244140625,0.02001953125
0.088,-2.42236328125,2.78271484375,-0.78076171875
0.0885,-1.86181640625,3.06298828125,-1.58154296875
0.089,-1.42138671875,3.18310546875,-2.26220703125
0.0895,-0.98095703125,3.22314453125,-2.70263671875
0.09,-0.50048828125,3.10302734375,-2.94287109375
0.0905,0.18017578125,2.58251953125,-3.18310546875
0.091,0.98095703125,2.06201171875,-3.38330078125
0.0915,1.66162109375,1.58154296875,-3.58349609375
0.092,2.18212890625,1.14111328125,-3.70361328125
0.0925,2.46240234375,0.74072265625,-3.54345703125
0.093,2.54248046875,0.18017578125,-3.06298828125
0.0935,2.70263671875,-0.50048828125,-2.62255859375
0.094,2.94287109375,-1.26123046875,-2.10205078125
0.0945,3.10302734375,-1.90185546875,-1.66162109375
0.095,3.10302734375,-2.34228515625,-1.22119140625
0.0955,2.94287109375,-2.66259765625,-0.78076171875
0.096,2.46240234375,-2.82275390625,-0.14013671875
0.0965,1.94189453125,-3.06298828125,0.66064453125
0.097,1.38134765625,-3.30322265625,1.42138671875
0.0975,0.98095703125,-3.50341796875,1.94189453125
0.098,0.58056640625,-3.34326171875,2.30224609375
0.0985,0.06005859375,-3.02294921875,2.50244140625
0.099,-0.62060546875,-2.54248046875,2.70263671875
0.0995,-1.46142578125,-1.98193359375,2.94287109375
0.1,-2.02197265625,-1.58154296875,3.10302734375
0.1005,-2.46240234375,-1.14111328125,3.06298828125
0.101,-2.70263671875,-0.70068359375,2.90283203125
0.1015,-2.70263671875,-0.14013671875,2.42236328125
0.102,-2.90283203125,0.54052734375,1.94189453125
0.1025,-3.18310546875,1.30126953125,1.50146484375
0.103,-3.30322265625,1.94189453125,0.98095703125
0.1035,-3.22314453125,2.26220703125,0.58056640625
0.104,-2.98291015625,2.54248046875,0.06005859375
0.1045,-2.50244140625,2.70263671875,-0.66064453125
0.105,-1.94189453125,3.02294921875,-1.50146484375
0.1055,-1.46142578125,3.18310546875,-2.18212890625
0.106,-1.02099609375,3.30322265625,-2.70263671875
0.1065,-0.62060546875,3.22314453125,-3.06298828125
0.107,0.06005859375,2.74267578125,-3.18310546875
0.1075,0.78076171875,2.26220703125,-3.42333984375
0.108,1.66162109375,1.66162109375,-3.70361328125
0.1085,2.18212890625,1.22119140625,-3.78369140625
0.109,2.54248046875,0.78076171875,-3.66357421875
0.1095,2.70263671875,0.30029296875,-3.34326171875
0.11,2.74267578125,-0.38037109375,-2.78271484375
0.1105,2.94287109375,-1.18115234375,-2.22216796875
0.111,3.18310546875,-1.90185546875,-1.74169921875
0.1115,3.26318359375,-2.46240234375,-1.26123046875
0.112,3.14306640625,-2.74267578125,-0.82080078125
0.1125,2.62255859375,-2.94287109375,-0.22021484375
0.113,2.06201171875,-3.18310546875,0.58056640625
0.1135,1.42138671875,-3.46337890625,1.46142578125
0.114,0.94091796875,-3.46337890625,2.06201171875
0.1145,0.54052734375,-3.46337890625,2.50244140625
0.115,0.06005859375,-3.18310546875,2.70263671875
0.1155,-0.70068359375,-2.58251953125,2.78271484375
0.116,-1.46142578125,-2.06201171875,3.02294921875
0.1165,-2.22216796875,-1.46142578125,3.18310546875
0.117,-2.62255859375,-1.06103515625,3.18310546875
0.1175,-2.82275390625,-0.62060546875,2.94287109375
0.118,-2.86279296875,-0.14013671875,2.54248046875
0.1185,-2.94287109375,0.54052734375,1.98193359375
0.119,-3.18310546875,1.34130859375,1.42138671875
0.1195,-3.26318359375,1.94189453125,0.98095703125
0.12,-3.26318359375,2.42236328125,0.50048828125
0.1205,-3.06298828125,2.58251953125,0.06005859375
0.121,-2.50244140625,2.70263671875,-0.62060546875
0.1215,-2.06201171875,2.94287109375,-1.38134765625
0.122,-1.42138671875,3.18310546875,-2.18212890625
0.1225,-1.02099609375,3.26318359375,-2.66259765625
0.123,-0.62060546875,3.18310546875,-2.98291015625
0.1235,-0.14013671875,2.90283203125,-3.18310546875
0.124,0.62060546875,2.34228515625,-3.34326171875
0.1245,1.38134765625,1.82177734375,-3.54345703125
0.125,1.98193359375,1.34130859375,-3.70361328125
0.1255,2.50244140625,0.90087890625,-3.70361328125
0.126,2.62255859375,0.50048828125,-3.50341796875
0.1265,2.70263671875,-0.14013671875,-2.98291015625
0.127,2.90283203125,-0.78076171875,-2.54248046875
0.1275,3.14306640625,-1.62158203125,-1.94189453125
0.128,3.26318359375,-2.22216796875,-1.46142578125
0.1285,3.18310546875,-2.70263671875,-1.02099609375
0.129,2.90283203125,-2.90283203125,-0.54052734375
0.1295,2.30224609375,-3.06298828125,0.22021484375
0.13,1.78173828125,-3.34326171875,1.10107421875
0.1305,1.22119140625,-3.50341796875,1.86181640625
0.131,0.78076171875,-3.58349609375,2.34228515625
0.1315,0.30029296875,-3.38330078125,2.58251953125
0.132,-0.30029296875,-2.94287109375,2.74267578125
0.1325,-1.10107421875,-2.38232421875,2.98291015625
0.133,-1.94189453125,-1.74169921875,3.18310546875
0.1335,-2.46240234375,-1.30126953125,3.22314453125
0.134,-2.82275390625,-0.82080078125,3.18310546875
0.1345,-2.90283203125,-0.38037109375,2.82275390625
0.135,-2.90283203125,0.34033203125,2.18212890625
0.1355,-3.18310546875,1.10107421875,1.66162109375
0.136,-3.34326171875,1.86181640625,1.10107421875
0.1365,-3.34326171875,2.26220703125,0.62060546875
0.137,-3.18310546875,2.58251953125,0.14013671875
0.1375,-2.78271484375,2.70263671875,-0.42041015625
0.138,-2.10205078125,2.94287109375,-1.22119140625
0.1385,-1.58154296875,3.22314453125,-2.02197265625
0.139,-1.06103515625,3.30322265625,-2.62255859375
0.1395,-0.66064453125,3.34326171875,-3.06298828125
0.14,-0.18017578125,3.02294921875,-3.18310546875
0.1405,0.50048828125,2.42236328125,-3.26318359375
0.141,1.26123046875,1.94189453125,-3.54345703125
0.1415,2.02197265625,1.34130859375,-3.74365234375
0.142,2.42236328125,0.94091796875,-3.74365234375
0.1425,2.70263671875,0.50048828125,-3.54345703125
0.143,2.74267578125,0.02001953125,-3.18310546875
0.1435,2.86279296875,-0.70068359375,-2.54248046875
0.144,3.10302734375,-1.46142578125,-2.02197265625
0.1445,3.22314453125,-2.26220703125,-1.54150390625
0.145,3.26318359375,-2.70263671875,-1.06103515625
0.1455,2.98291015625,-2.94287109375,-0.62060546875
0.146,2.50244140625,-3.06298828125,0.10009765625
0.1465,1.94189453125,-3.26318359375,0.90087890625
0.147,1.30126953125,-3.54345703125,1.78173828125
0.1475,0.78076171875,-3.54345703125,2.30224609375
0.148,0.38037109375,-3.54345703125,2.66259765625
0.1485,-0.18017578125,-3.14306640625,2.82275390625
0.149,-0.98095703125,-2.50244140625,2.94287109375
0.1495,-1.78173828125,-1.94189453125,3.22314453125
0.15,-2.50244140625,-1.34130859375,3.34326171875
0.1505,-2.86279296875,-0.98095703125,3.30322265625
0.151,-3.02294921875,-0.46044921875,2.94287109375
0.1515,-3.06298828125,0.14013671875,2.46240234375
0.152,-3.18310546875,0.98095703125,1.78173828125
0.1525,-3.38330078125,1.74169921875,1.26123046875
0.153,-3.46337890625,2.30224609375,0.70068359375
0.1535,-3.38330078125,2.70263671875,0.26025390625
0.154,-2.94287109375,2.86279296875,-0.30029296875
0.1545,-2.26220703125,3.02294921875,-1.10107421875
0.155,-1.74169921875,3.34326171875,-1.98193359375
0.1555,-1.14111328125,3.46337890625,-2.70263671875
0.156,-0.66064453125,3.38330078125,-3.10302734375
0.1565,-0.26025390625,3.18310546875,-3.34326171875
0.157,0.46044921875,2.66259765625,-3.46337890625
0.1575,1.30126953125,1.94189453125,-3.58349609375
0.158,1.98193359375,1.42138671875,-3.78369140625
0.1585,2.54248046875,0.86083984375,-3.78369140625
0.159,2.86279296875,0.50048828125,-3.70361328125
0.1595,2.86279296875,0.02001953125,-3.22314453125
0.16,2.90283203125,-0.66064453125,-2.62255859375
0.1605,3.10302734375,-1.50146484375,-2.10205078125
0.161,3.22314453125,-2.26220703125,-1.54150390625
0.1615,3.22314453125,-2.70263671875,-1.06103515625
0.162,3.14306640625,-3.02294921875,-0.58056640625
0.1625,2.62255859375,-3.14306640625,0.02001953125
0.163,1.94189453125,-3.18310546875,0.82080078125
0.1635,1.38134765625,-3.54345703125,1.66162109375
0.164,0.78076171875,-3.58349609375,2.30224609375
0.1645,0.42041015625,-3.54345703125,2.70263671875
0.165,-0.14013671875,-3.22314453125,2.86279296875
0.1655,-0.78076171875,-2.66259765625,2.98291015625
0.166,-1.66162109375,-1.98193359375,3.18310546875
0.1665,-2.38232421875,-1.46142578125,3.34326171875
0.167,-2.82275390625,-0.98095703125,3.30322265625
0.1675,-3.06298828125,-0.58056640625,3.18310546875
0.168,-3.06298828125,0.02001953125,2.58251953125
0.1685,-3.14306640625,0.70068359375,1.94189453125
0.169,-3.34326171875,1.50146484375,1.42138671875
0.1695,-3.50341796875,2.18212890625,0.82080078125
0.17,-3.38330078125,2.62255859375,0.46044921875
0.1705,-3.14306640625,2.86279296875,-0.14013671875
0.171,-2.58251953125,2.98291015625,-0.78076171875
0.1715,-1.90185546875,3.18310546875,-1.66162109375
0.172,-1.30126953125,3.34326171875,-2.42236328125
0.1725,-0.82080078125,3.42333984375,-2.94287109375
0.173,-0.46044921875,3.34326171875,-3.26318359375
0.1735,0.14013671875,2.86279296875,-3.34326171875
0.174,0.94091796875,2.26220703125,-3.54345703125
0.1745,1.74169921875,1.62158203125,-3.74365234375
0.175,2.34228515625,1.14111328125,-3.82373046875
0.1755,2.70263671875,0.66064453125,-3.70361328125
0.176,2.86279296875,0.26025390625,-3.46337890625
0.1765,2.86279296875,-0.42041015625,-2.94287109375
0.177,2.94287109375,-1.14111328125,-2.30224609375
0.1775,3.18310546875,-1.94189453125,-1.82177734375
0.178,3.30322265625,-2.54248046875,-1.26123046875
0.1785,3.22314453125,-2.86279296875,-0.82080078125
0.179,2.82275390625,-3.02294921875,-0.26025390625
0.1795,2.26220703125,-3.18310546875,0.46044921875
0.18,1.58154296875,-3.38330078125,1.34130859375
0.1805,1.02099609375,-3.54345703125,1.98193359375
0.181,0.58056640625,-3.54345703125,2.50244140625
0.1815,0.18017578125,-3.42333984375,2.78271484375
0.182,-0.50048828125,-2.86279296875,2.86279296875
0.1825,-1.26123046875,-2.26220703125,3.02294921875
0.183,-2.06201171875,-1.70166015625,3.26318359375
0.1835,-2.62255859375,-1.18115234375,3.30322265625
0.184,-2.86279296875,-0.78076171875,3.18310546875
0.1845,-2.98291015625,-0.30029296875,2.82275390625
0.185,-3.06298828125,0.34033203125,2.26220703125
0.1855,-3.18310546875,1.14111328125,1.58154296875
0.186,-3.38330078125,1.86181640625,1.14111328125
0.1865,-3.42333984375,2.46240234375,0.58056640625
0.187,-3.30322265625,2.74267578125,0.18017578125
0.1875,-2.78271484375,2.86279296875,-0.50048828125
0.188,-2.22216796875,3.06298828125,-1.26123046875
0.1885,-1.58154296875,3.34326171875,-2.14208984375
0.189,-1.10107421875,3.38330078125,-2.70263671875
0.1895,-0.62060546875,3.34326171875,-3.14306640625
0.19,-0.18017578125,3.14306640625,-3.34326171875
0.1905,0.58056640625,2.50244140625,-3.46337890625
0.191,1.38134765625,1.90185546875,-3.62353515625
0.1915,2.06201171875,1.34130859375,-3.82373046875
0.192,2.58251953125,0.86083984375,-3.82373046875
0.1925,2.78271484375,0.46044921875,-3.62353515625
0.193,2.82275390625,-0.14013671875,-3.14306640625
0.1935,2.90283203125,-0.82080078125,-2.62255859375
0.194,3.14306640625,-1.62158203125,-1.94189453125
0.1945,3.26318359375,-2.26220703125,-1.46142578125
0.195,3.18310546875,-2.70263671875,-0.98095703125
0.1955,3.06298828125,-2.98291015625,-0.54052734375
0.196,2.42236328125,-3.06298828125,0.14013671875
0.1965,1.86181640625,-3.26318359375,0.98095703125
0.197,1.26123046875,-3.50341796875,1.78173828125
0.1975,0.78076171875,-3.54345703125,2.34228515625
0.198,0.34033203125,-3.46337890625,2.62255859375
0.1985,-0.18017578125,-3.10302734375,2.82275390625
0.199,-0.94091796875,-2.54248046875,2.94287109375
