wavelength,x,y,z
0.0,5.9207763671875,14.649291992188,-20.144653320312
0.0005,1.1561279296875,17.772338867188,-18.663208007812
0.001,-3.6085205078125,20.134643554688,-16.541137695312
0.0015,-5.1300048828125,20.935424804688,-14.819458007812
0.002,-9.4942626953125,21.255737304688,-12.296997070312
0.0025,-12.737426757812,20.815307617188,-8.8536376953125
0.003,-16.340942382812,19.494018554688,-4.0889892578125
0.0035,-19.103637695312,17.732299804688,0.4754638671875
0.004,-20.985473632812,15.890502929688,4.1190185546875
0.0045,-21.505981445312,13.488159179688,6.8817138671875
0.005,-21.305786132812,10.164916992188,10.084838867188
0.0055,-20.745239257812,6.0408935546875,13.768432617188
0.006,-19.664184570312,1.7567138671875,16.971557617188
0.0065,-17.862426757812,-1.2862548828125,19.494018554688
0.007,-15.980590820312,-5.5303955078125,20.535034179688
0.0075,-13.498168945312,-8.4532470703125,21.095581054688
0.008,-9.6544189453125,-11.776489257812,20.615112304688
0.0085,-4.5294189453125,-15.420043945312,19.333862304688
0.009,0.1551513671875,-18.262817382812,17.732299804688
0.0095,4.1990966796875,-20.304809570312,15.970581054688
0.01,6.8817138671875,-20.825317382812,15.369995117188
0.0105,10.044799804688,-20.865356445312,11.205932617188
0.011,13.488159179688,-20.344848632812,7.4022216796875
0.0115,16.771362304688,-19.063598632812,2.9979248046875
0.012,19.413940429688,-17.141723632812,-1.5264892578125
0.0125,20.775268554688,-15.420043945312,-4.5694580078125
0.013,21.135620117188,-12.857543945312,-7.4923095703125
0.0135,20.935424804688,-9.2940673828125,-10.855590820312
0.014,20.094604492188,-4.8497314453125,-14.459106445312
0.0145,18.893432617188,-0.7657470703125,-17.421997070312
0.015,17.291870117188,3.2381591796875,-19.744262695312
0.0155,15.049682617188,6.0809326171875,-20.384887695312
0.016,12.327026367188,9.0838623046875,-20.785278320312
0.0165,7.9627685546875,12.847534179688,-20.344848632812
0.017,2.9578857421875,16.170776367188,-18.863403320312
0.0175,-1.6866455078125,18.733276367188,-17.101684570312
0.018,-3.8487548828125,20.454956054688,-15.540161132812
0.0185,-7.9327392578125,20.815307617188,-13.338012695312
0.019,-11.055786132812,20.655151367188,-8.9737548828125
0.0195,-14.739379882812,19.854370117188,-5.9708251953125
0.02,-17.902465820312,18.412963867188,-1.4464111328125
0.0205,-20.224731445312,16.451049804688,2.8377685546875
0.021,-21.145629882812,14.449096679688,5.6405029296875
0.0215,-21.425903320312,11.646362304688,8.8035888671875
0.022,-21.025512695312,7.5623779296875,12.487182617188
0.0225,-19.944458007812,3.1981201171875,15.850463867188
0.023,-18.463012695312,-1.0059814453125,18.533081054688
0.0235,-16.821411132812,-4.6895751953125,20.575073242188
0.024,-14.258911132812,-7.4522705078125,20.895385742188
0.0245,-11.095825195312,-10.575317382812,20.895385742188
0.025,-6.2911376953125,-14.499145507812,20.094604492188
0.0255,-1.2462158203125,-17.702270507812,18.412963867188
0.026,3.1580810546875,-19.784301757812,16.491088867188
0.0265,6.2010498046875,-21.025512695312,14.929565429688
0.027,9.2440185546875,-21.225708007812,12.367065429688
0.0275,12.687377929688,-20.785278320312,8.6434326171875
0.028,16.050659179688,-19.744262695312,4.3992919921875
0.0285,19.093627929688,-17.982543945312,-0.3253173828125
0.029,21.055541992188,-16.100708007812,-4.1690673828125
0.0295,21.455932617188,-13.658325195312,-6.9317626953125
0.03,21.616088867188,-10.655395507812,-10.174926757812
0.0305,20.935424804688,-6.0509033203125,-14.138793945312
0.031,19.774291992188,-1.8067626953125,-17.221801757812
0.0315,17.972534179688,2.3172607421875,-19.504028320312
0.032,16.210815429688,5.6405029296875,-21.145629882812
0.0325,13.287963867188,8.5633544921875,-21.265747070312
0.033,9.3240966796875,12.086791992188,-20.905395507812
0.0335,4.5994873046875,15.610229492188,-19.904418945312
0.034,-0.6456298828125,18.813354492188,-18.102661132812
0.0345,-4.6495361328125,20.655151367188,-16.140747070312
0.035,-7.3721923828125,21.255737304688,-14.258911132812
0.0355,-10.575317382812,21.495971679688,-10.255004882812
0.036,-14.419067382812,20.575073242188,-7.0118408203125
0.0365,-17.462036132812,20.494995117188,-2.7276611328125
0.037,-20.144653320312,17.331909179688,1.7967529296875
0.0375,-20.505004882812,15.450073242188,5.3201904296875
0.038,-20.505004882812,12.527221679688,8.1629638671875
0.0385,-21.746215820312,9.0838623046875,11.646362304688
0.039,-20.825317382812,4.4793701171875,16.651245117188
0.0395,-19.423950195312,0.0350341796875,18.453002929688
0.04,-17.421997070312,-3.8887939453125,20.334838867188
0.0405,-15.540161132812,-6.8116455078125,21.415893554688
0.041,-12.497192382812,-9.8946533203125,21.495971679688
0.0415,-7.6124267578125,-13.818481445312,20.655151367188
0.042,-3.0880126953125,-16.821411132812,19.333862304688
0.0425,1.9168701171875,-19.584106445312,17.452026367188
0.043,5.5604248046875,-21.185668945312,15.690307617188
0.0435,8.2830810546875,-21.305786132812,13.287963867188
0.044,11.406127929688,-21.465942382812,10.525268554688
0.0445,15.410034179688,-20.384887695312,5.6004638671875
0.045,18.453002929688,-18.783325195312,1.1160888671875
0.0455,20.615112304688,-16.941528320312,-2.8878173828125
0.046,23.057495117188,-14.939575195312,-6.0509033203125
0.0465,21.736206054688,-11.856567382812,-9.0137939453125
0.047,21.415893554688,-7.6524658203125,-12.977661132812
0.0475,20.334838867188,-3.5284423828125,-16.060668945312
0.048,18.893432617188,0.9959716796875,-19.063598632812
0.0485,16.891479492188,4.6395263671875,-20.785278320312
0.049,14.369018554688,7.4022216796875,-21.145629882812
0.0495,11.486206054688,10.525268554688,-21.505981445312
0.05,5.8006591796875,14.889526367188,-20.304809570312
0.0505,1.1961669921875,17.772338867188,-18.663208007812
0.051,-3.1680908203125,20.014526367188,-16.941528320312
0.0515,-6.4913330078125,21.455932617188,-15.259887695312
0.052,-9.4542236328125,21.215698242188,-12.337036132812
0.0525,-12.697387695312,20.975463867188,-7.6925048828125
0.053,-16.380981445312,19.894409179688,-4.4493408203125
0.0535,-19.423950195312,17.972534179688,0.5155029296875
0.054,-21.145629882812,16.050659179688,4.0789794921875
0.0545,-20.505004882812,13.768432617188,7.0418701171875
0.055,-21.826293945312,10.725463867188,10.084838867188
0.0555,-21.145629882812,5.7606201171875,14.369018554688
0.056,-19.904418945312,1.7567138671875,17.131713867188
0.0565,-18.302856445312,-2.4073486328125,19.694213867188
0.057,-16.421020507812,-5.8907470703125,21.375854492188
0.0575,-13.338012695312,-8.7335205078125,21.135620117188
0.058,-10.094848632812,-11.936645507812,21.295776367188
0.0585,-4.5694580078125,-15.980590820312,19.974487304688
0.059,0.5555419921875,-18.863403320312,18.052612304688
0.0595,4.1990966796875,-19.223754882812,16.290893554688
0.06,7.2821044921875,-21.586059570312,14.489135742188
0.0605,10.325073242188,-21.385864257812,11.486206054688
0.061,15.369995117188,-20.665161132812,7.1219482421875
0.0615,17.251831054688,-19.504028320312,2.9979248046875
0.062,20.054565429688,-17.542114257812,-1.7266845703125
0.0625,21.455932617188,-15.580200195312,-5.0098876953125
0.063,21.576049804688,-11.536254882812,-7.9727783203125
0.0635,21.616088867188,-9.6944580078125,-11.095825195312
0.064,20.695190429688,-4.6495361328125,-15.299926757812
0.0645,20.494995117188,-0.4053955078125,-18.102661132812
0.065,17.492065429688,3.2781982421875,-20.024536132812
0.0655,15.570190429688,6.5213623046875,-21.465942382812
0.066,12.166870117188,9.6043701171875,-21.105590820312
0.0665,7.8426513671875,13.328002929688,-20.665161132812
0.067,3.0780029296875,16.731323242188,-19.504028320312
0.0675,-2.1671142578125,19.574096679688,-17.381958007812
0.068,-5.4903564453125,20.935424804688,-15.580200195312
0.0685,-8.3731689453125,21.415893554688,-13.458129882812
0.069,-11.416137695312,21.335815429688,-10.615356445312
0.0695,-15.460083007812,20.134643554688,-5.4503173828125
0.07,-18.422973632812,18.573120117188,-1.1661376953125
0.0705,-20.665161132812,16.691284179688,2.9578857421875
0.071,-20.505004882812,14.689331054688,6.0809326171875
0.0715,-21.626098632812,11.446166992188,9.1239013671875
0.072,-21.425903320312,7.8026123046875,12.647338867188
0.0725,-20.424926757812,3.1580810546875,16.250854492188
0.073,-18.743286132812,-1.4464111328125,19.133666992188
0.0735,-16.821411132812,-4.8096923828125,20.615112304688
0.074,-14.739379882812,-7.7325439453125,21.576049804688
0.0745,-11.296020507812,-10.855590820312,21.335815429688
0.075,-5.9708251953125,-14.899536132812,20.214721679688
0.0755,-1.4063720703125,-17.902465820312,18.853393554688
0.076,3.3582763671875,-20.304809570312,16.931518554688
0.0765,7.6824951171875,-21.425903320312,15.169799804688
0.077,9.4842529296875,-21.465942382812,12.286987304688
0.0775,12.687377929688,-21.305786132812,9.2039794921875
0.078,16.531127929688,-19.984497070312,4.1590576171875
0.0785,19.494018554688,-18.062622070312,-0.6456298828125
0.079,21.135620117188,-16.300903320312,-4.0089111328125
0.0795,21.896362304688,-14.058715820312,-7.0919189453125
0.08,21.616088867188,-10.655395507812,-10.134887695312
0.0805,20.975463867188,-6.2110595703125,-12.817504882812
0.081,19.854370117188,-2.0870361328125,-17.141723632812
0.0815,18.252807617188,2.3572998046875,-19.864379882812
0.082,16.130737304688,5.6004638671875,-20.985473632812
0.0825,13.448120117188,8.5633544921875,-21.305786132812
0.083,9.9246826171875,11.886596679688,-21.225708007812
0.0835,4.2391357421875,15.970581054688,-19.904418945312
0.084,-0.6055908203125,18.813354492188,-18.102661132812
0.0845,-4.4093017578125,20.655151367188,-16.380981445312
0.085,-7.4122314453125,21.536010742188,-14.459106445312
0.0855,-10.575317382812,21.215698242188,-11.255981445312
0.086,-14.058715820312,20.655151367188,-7.4122314453125
0.0865,-17.381958007812,19.333862304688,-2.8878173828125
0.087,-20.184692382812,17.251831054688,1.9569091796875
0.0875,-21.305786132812,16.651245117188,4.9598388671875
0.088,-20.505004882812,12.767456054688,8.0028076171875
0.0885,-21.505981445312,9.3240966796875,11.125854492188
0.089,-20.545043945312,4.4793701171875,15.089721679688
0.0895,-19.183715820312,0.3153076171875,17.892456054688
0.09,-17.662231445312,-3.5684814453125,20.214721679688
0.0905,-15.460083007812,-6.5714111328125,21.135620117188
0.091,-12.256958007812,-9.6143798828125,21.015502929688
0.0915,-8.3331298828125,-13.217895507812,20.775268554688
0.092,-2.9678955078125,-16.741333007812,20.494995117188
0.0925,1.9569091796875,-19.343872070312,17.131713867188
0.093,6.4012451171875,-20.705200195312,15.570190429688
0.0935,8.1629638671875,-21.305786132812,13.448120117188
0.094,11.205932617188,-20.985473632812,10.204956054688
0.0945,14.929565429688,-20.024536132812,5.7205810546875
0.095,17.972534179688,-18.583129882812,1.3963623046875
0.0955,20.414916992188,-15.380004882812,-2.9278564453125
0.096,21.135620117188,-14.619262695312,-5.7305908203125
0.0965,21.295776367188,-11.696411132812,-8.8536376953125
0.097,21.015502929688,-8.0528564453125,-12.216918945312
0.0975,19.974487304688,-3.4884033203125,-15.900512695312
0.098,18.332885742188,0.9559326171875,-18.543090820312
0.0985,16.731323242188,4.2391357421875,-20.264770507812
0.099,14.449096679688,7.2420654296875,-21.025512695312
0.0995,10.885620117188,10.405151367188,-20.665161132812
0.1,6.2811279296875,14.128784179688,-19.984497070312
0.1005,1.3963623046875,17.411987304688,-18.543090820312
0.101,-3.2882080078125,19.774291992188,-16.501098632812
0.1015,-6.0909423828125,20.655151367188,-14.899536132812
0.102,-9.0538330078125,20.975463867188,-12.457153320312
0.1025,-12.296997070312,20.535034179688,-7.6925048828125
0.103,-15.860473632812,19.253784179688,-4.3292236328125
0.1035,-18.623168945312,17.612182617188,0.1951904296875
0.104,-20.585083007812,15.770385742188,5.1199951171875
0.1045,-21.105590820312,13.488159179688,6.6014404296875
0.105,-21.025512695312,11.526245117188,9.7244873046875
0.1055,-19.223754882812,6.2010498046875,13.328002929688
0.106,-19.423950195312,1.9168701171875,16.611206054688
0.1065,-17.662231445312,-2.3272705078125,19.053588867188
0.107,-15.900512695312,-5.2501220703125,20.254760742188
0.1075,-13.498168945312,-8.1729736328125,20.855346679688
0.108,-9.6944580078125,-11.416137695312,20.414916992188
0.1085,-4.7696533203125,-15.019653320312,19.173706054688
0.109,1.2762451171875,-16.661254882812,17.652221679688
0.1095,4.0389404296875,-19.984497070312,15.850463867188
0.11,6.6815185546875,-20.545043945312,14.048706054688
0.1105,9.7645263671875,-20.705200195312,11.286010742188
0.111,13.207885742188,-20.184692382812,7.4822998046875
0.1115,16.451049804688,-18.863403320312,3.0780029296875
0.112,19.053588867188,-16.981567382812,-1.3262939453125
0.1125,21.776245117188,-15.339965820312,-4.4493408203125
0.113,20.855346679688,-11.536254882812,-7.2921142578125
0.1135,20.615112304688,-9.3741455078125,-10.575317382812
0.114,19.854370117188,-5.0098876953125,-12.817504882812
0.1145,18.733276367188,-0.9259033203125,-17.141723632812
0.115,17.011596679688,3.1180419921875,-19.383911132812
0.1155,14.929565429688,5.8807373046875,-20.064575195312
0.116,12.286987304688,8.8836669921875,-19.223754882812
0.1165,7.9627685546875,12.567260742188,-20.064575195312
0.117,3.1180419921875,15.890502929688,-18.623168945312
0.1175,-1.4864501953125,18.493041992188,-16.941528320312
0.118,-4.9698486328125,20.214721679688,-15.420043945312
0.1185,-6.4112548828125,21.776245117188,-13.257934570312
0.119,-10.775512695312,20.454956054688,-8.9737548828125
0.1195,-14.419067382812,19.614135742188,-6.0509033203125
0.12,-17.502075195312,18.172729492188,-1.5665283203125
0.1205,-19.864379882812,16.250854492188,2.5975341796875
0.121,-20.825317382812,14.369018554688,5.4002685546875
0.1215,-21.105590820312,11.566284179688,8.4432373046875
0.122,-20.745239257812,7.6024169921875,12.166870117188
0.1225,-19.704223632812,3.3582763671875,16.651245117188
0.123,-18.302856445312,-0.8057861328125,18.132690429688
0.1235,-15.380004882812,-4.4093017578125,20.174682617188
0.124,-14.258911132812,-7.0919189453125,20.454956054688
0.1245,-11.255981445312,-10.134887695312,20.615112304688
0.125,-6.4512939453125,-13.978637695312,19.814331054688
0.1255,-1.4864501953125,-17.141723632812,18.212768554688
0.126,2.8377685546875,-19.303833007812,16.330932617188
0.1265,5.7606201171875,-20.545043945312,14.849487304688
0.127,8.7635498046875,-20.825317382812,12.367065429688
0.1275,12.006713867188,-20.304809570312,8.8436279296875
0.128,16.651245117188,-19.343872070312,4.5994873046875
0.1285,18.332885742188,-17.742309570312,0.1551513671875
0.129,20.334838867188,-15.940551757812,-3.6085205078125
0.1295,20.735229492188,-13.738403320312,-6.2911376953125
0.13,20.935424804688,-10.775512695312,-9.3741455078125
0.1305,20.334838867188,-6.3712158203125,-13.297973632812
0.131,20.494995117188,-2.2071533203125,-16.300903320312
0.1315,17.572143554688,1.7166748046875,-18.583129882812
0.132,15.970581054688,4.9998779296875,-20.264770507812
0.1325,13.247924804688,7.8026123046875,-20.424926757812
0.133,9.6043701171875,11.125854492188,-20.184692382812
0.1335,4.9598388671875,14.729370117188,-17.942504882812
0.134,1.2762451171875,17.772338867188,-17.582153320312
0.1345,-4.0089111328125,19.654174804688,-15.740356445312
0.135,-6.6114501953125,20.374877929688,-12.817504882812
0.1355,-9.6544189453125,20.615112304688,-10.255004882812
0.136,-13.297973632812,19.854370117188,-7.3321533203125
0.1365,-16.300903320312,18.613159179688,-3.2481689453125
0.137,-18.943481445312,16.891479492188,1.1160888671875
0.1375,-20.665161132812,15.129760742188,4.5194091796875
0.138,-20.785278320312,12.527221679688,7.2420654296875
0.1385,-20.825317382812,9.3641357421875,10.485229492188
0.139,-20.064575195312,4.8397216796875,14.248901367188
0.1395,-18.863403320312,0.5955810546875,17.291870117188
0.14,-17.021606445312,-3.1680908203125,19.253784179688
0.1405,-15.299926757812,-6.0509033203125,20.454956054688
0.141,-12.457153320312,-7.6925048828125,20.615112304688
0.1415,-7.9327392578125,-12.737426757812,19.974487304688
0.142,-3.4884033203125,-15.780395507812,18.733276367188
0.1425,1.3162841796875,-18.583129882812,16.971557617188
0.143,4.9598388671875,-20.264770507812,16.651245117188
0.1435,7.6024169921875,-19.223754882812,13.127807617188
0.144,10.525268554688,-20.705200195312,10.605346679688
0.1445,14.569213867188,-19.784301757812,5.8006591796875
0.145,17.452026367188,-18.302856445312,1.5565185546875
0.1455,19.694213867188,-16.621215820312,-2.4073486328125
0.146,20.975463867188,-14.739379882812,-5.4903564453125
0.1465,20.975463867188,-11.816528320312,-8.4132080078125
0.147,20.735229492188,-7.8927001953125,-12.136840820312
0.1475,19.854370117188,-3.7686767578125,-15.339965820312
0.148,18.493041992188,0.6756591796875,-18.342895507812
0.1485,16.611206054688,4.2791748046875,-20.144653320312
0.149,14.248901367188,7.0418701171875,-20.625122070312
0.1495,12.807495117188,10.084838867188,-21.025512695312
0.15,6.0408935546875,14.369018554688,-19.944458007812
0.1505,1.4764404296875,17.251831054688,-18.463012695312
0.151,-2.8878173828125,19.574096679688,-16.701293945312
0.1515,-6.2911376953125,21.095581054688,-15.099731445312
0.152,-9.1339111328125,20.935424804688,-12.296997070312
0.1525,-12.296997070312,20.775268554688,-9.2540283203125
0.153,-16.100708007812,19.694213867188,-4.5294189453125
0.1535,-19.143676757812,17.852416992188,0.3553466796875
0.154,-20.905395507812,15.970581054688,3.9588623046875
0.1545,-21.666137695312,13.728393554688,6.9617919921875
0.155,-21.666137695312,10.765502929688,9.9647216796875
0.1555,-21.105590820312,5.8807373046875,14.208862304688
0.156,-19.824340820312,1.8768310546875,17.011596679688
0.1565,-18.262817382812,-2.4073486328125,19.694213867188
0.157,-16.300903320312,-5.8507080078125,21.255737304688
0.1575,-13.297973632812,-8.6934814453125,21.135620117188
0.158,-10.134887695312,-11.856567382812,21.255737304688
0.1585,-4.4893798828125,-15.940551757812,19.854370117188
0.159,0.5955810546875,-18.743286132812,19.213745117188
0.1595,4.3192138671875,-19.223754882812,16.130737304688
0.16,7.4022216796875,-21.546020507812,14.369018554688
0.1605,10.445190429688,-21.305786132812,11.245971679688
0.161,14.048706054688,-20.625122070312,7.1219482421875
0.1615,17.251831054688,-19.463989257812,2.8778076171875
0.162,20.014526367188,-17.421997070312,-1.8868408203125
0.1625,21.375854492188,-15.460083007812,-5.0899658203125
0.163,21.576049804688,-12.697387695312,-8.0128173828125
0.1635,21.495971679688,-9.6544189453125,-11.055786132812
0.164,20.575073242188,-4.6094970703125,-15.219848632812
0.1645,19.053588867188,-0.3653564453125,-17.902465820312
0.165,17.371948242188,3.2781982421875,-19.904418945312
0.1655,15.410034179688,6.5213623046875,-21.225708007812
0.166,12.046752929688,9.4442138671875,-20.825317382812
0.1665,8.0028076171875,12.967651367188,-19.223754882812
0.167,3.1580810546875,16.451049804688,-19.263793945312
0.1675,-2.0069580078125,20.494995117188,-17.181762695312
0.168,-5.2501220703125,20.454956054688,-15.420043945312
0.1685,-8.0928955078125,21.055541992188,-13.338012695312
0.169,-11.015747070312,20.935424804688,-10.575317382812
0.1695,-15.019653320312,19.694213867188,-5.6104736328125
0.17,-17.862426757812,18.372924804688,-1.4063720703125
0.1705,-20.104614257812,16.531127929688,2.6375732421875
0.171,-21.225708007812,14.569213867188,5.6805419921875
0.1715,-21.065551757812,12.807495117188,8.5633544921875
0.172,-20.945434570312,8.0828857421875,11.846557617188
0.1725,-19.984497070312,3.5184326171875,15.530151367188
0.173,-18.422973632812,-0.9659423828125,18.372924804688
0.1735,-16.621215820312,-4.2091064453125,19.854370117188
0.174,-14.659301757812,-7.0919189453125,20.855346679688
0.1745,-11.376098632812,-10.054809570312,20.655151367188
0.175,-6.2911376953125,-14.058715820312,19.654174804688
0.1755,-1.8868408203125,-16.981567382812,18.412963867188
0.176,2.7176513671875,-19.423950195312,16.571166992188
0.1765,5.7205810546875,-20.585083007812,14.889526367188
0.177,8.6434326171875,-20.745239257812,12.286987304688
0.1775,11.646362304688,-20.705200195312,9.5242919921875
0.178,15.530151367188,-19.423950195312,4.5594482421875
