wavelength,x,y,z
0.0,3.533447265625,-5.034912109375,0.970947265625
0.0005,4.214111328125,-5.114990234375,0.250244140625
0.001,4.214111328125,-4.314208984375,-0.510498046875
0.0015,4.494384765625,-4.194091796875,-0.910888671875
0.002,4.454345703125,-2.912841796875,-2.031982421875
0.0025,4.494384765625,-2.352294921875,-2.632568359375
0.003,4.334228515625,-1.271240234375,-3.553466796875
0.0035,4.013916015625,-0.510498046875,-3.993896484375
0.004,3.413330078125,0.370361328125,-4.194091796875
0.0045,2.972900390625,1.010986328125,-4.354248046875
0.005,1.931884765625,2.212158203125,-4.514404296875
0.0055,1.291259765625,2.812744140625,-4.434326171875
0.006,0.410400390625,3.693603515625,-4.434326171875
0.0065,-0.390380859375,3.893798828125,-3.833740234375
0.007,-0.990966796875,4.334228515625,-3.673583984375
0.0075,-2.152099609375,4.334228515625,-2.552490234375
0.008,-3.032958984375,4.534423828125,-1.911865234375
0.0085,-3.753662109375,4.334228515625,-0.990966796875
0.009,-4.314208984375,4.254150390625,-0.390380859375
0.0095,-4.394287109375,3.573486328125,0.290283203125
0.01,-4.554443359375,3.373291015625,0.770751953125
0.0105,-4.674560546875,2.292236328125,1.931884765625
0.011,-4.634521484375,1.691650390625,2.492431640625
0.0115,-4.634521484375,0.770751953125,3.373291015625
0.012,-4.114013671875,0.010009765625,3.653564453125
0.0125,-3.793701171875,-0.790771484375,4.013916015625
0.013,-3.072998046875,-1.591552734375,4.093994140625
0.0135,-2.312255859375,-2.592529296875,4.334228515625
0.014,-1.551513671875,-3.193115234375,4.134033203125
0.0145,-0.830810546875,-3.993896484375,4.174072265625
0.015,-0.070068359375,-4.114013671875,3.573486328125
0.0155,0.490478515625,-4.514404296875,3.453369140625
0.016,1.731689453125,-4.634521484375,2.292236328125
0.0165,2.452392578125,-4.834716796875,1.771728515625
0.017,3.173095703125,-4.674560546875,0.890869140625
0.0175,3.533447265625,-4.514404296875,0.370361328125
0.018,3.693603515625,-4.033935546875,-0.270263671875
0.0185,3.813720703125,-3.553466796875,-0.790771484375
0.019,4.053955078125,-2.752685546875,-1.831787109375
0.0195,3.933837890625,-2.072021484375,-2.392333984375
0.02,4.093994140625,-1.311279296875,-3.233154296875
0.0205,3.373291015625,-0.470458984375,-3.393310546875
0.021,3.293212890625,0.130126953125,-3.833740234375
0.0215,2.332275390625,1.131103515625,-3.833740234375
0.022,1.931884765625,1.931884765625,-4.194091796875
0.0225,1.010986328125,2.612548828125,-3.993896484375
0.023,0.450439453125,3.213134765625,-3.993896484375
0.0235,-0.310302734375,3.413330078125,-3.473388671875
0.024,-0.950927734375,3.773681640625,-3.193115234375
0.0245,-2.112060546875,3.893798828125,-2.192138671875
0.025,-2.712646484375,3.973876953125,-1.671630859375
0.0255,-3.473388671875,3.973876953125,-0.990966796875
0.026,-3.633544921875,3.653564453125,-0.430419921875
0.0265,-3.913818359375,3.453369140625,0.130126953125
0.027,-3.953857421875,2.732666015625,0.810791015625
0.0275,-4.314208984375,2.172119140625,1.651611328125
0.028,-4.114013671875,1.371337890625,2.252197265625
0.0285,-4.234130859375,0.810791015625,2.972900390625
0.029,-3.593505859375,-0.070068359375,3.173095703125
0.0295,-3.553466796875,-0.590576171875,3.613525390625
0.03,-2.592529296875,-1.631591796875,3.693603515625
0.0305,-2.272216796875,-2.312255859375,3.973876953125
0.031,-1.431396484375,-3.032958984375,3.853759765625
0.0315,-0.950927734375,-3.473388671875,3.773681640625
0.032,-0.270263671875,-3.793701171875,3.413330078125
0.0325,0.570556640625,-4.073974609375,2.852783203125
0.033,1.611572265625,-4.434326171875,2.172119140625
0.0335,2.212158203125,-4.354248046875,1.531494140625
0.034,2.852783203125,-4.514404296875,1.051025390625
0.0345,2.972900390625,-3.993896484375,0.450439453125
0.035,3.333251953125,-3.913818359375,0.050048828125
0.0355,3.453369140625,-3.072998046875,-0.910888671875
0.036,3.813720703125,-2.672607421875,-1.631591796875
0.0365,3.653564453125,-1.791748046875,-2.352294921875
0.037,3.653564453125,-1.311279296875,-2.872802734375
0.0375,3.093017578125,-0.390380859375,-3.153076171875
0.038,2.932861328125,0.170166015625,-3.513427734375
0.0385,2.092041015625,1.291259765625,-3.753662109375
0.039,1.611572265625,1.891845703125,-3.833740234375
0.0395,0.930908203125,2.572509765625,-3.873779296875
0.04,0.330322265625,2.892822265625,-3.553466796875
0.0405,-0.310302734375,3.253173828125,-3.353271484375
0.041,-1.271240234375,3.493408203125,-2.592529296875
0.0415,-2.232177734375,3.813720703125,-2.031982421875
0.042,-2.712646484375,3.693603515625,-1.311279296875
0.0425,-3.233154296875,3.853759765625,-0.990966796875
0.043,-3.393310546875,3.293212890625,-0.310302734375
0.0435,-3.673583984375,3.173095703125,0.170166015625
0.044,-3.833740234375,2.292236328125,1.131103515625
0.0445,-3.993896484375,1.851806640625,1.771728515625
0.045,-3.993896484375,1.091064453125,2.492431640625
0.0455,-3.753662109375,0.490478515625,2.812744140625
0.046,-3.433349609375,-0.270263671875,3.173095703125
0.0465,-2.952880859375,-0.990966796875,3.373291015625
0.047,-2.352294921875,-1.911865234375,3.733642578125
0.0475,-1.791748046875,-2.432373046875,3.653564453125
0.048,-1.311279296875,-3.153076171875,3.853759765625
0.0485,-0.630615234375,-3.393310546875,3.333251953125
0.049,0.010009765625,-3.873779296875,3.173095703125
0.0495,1.131103515625,-4.114013671875,2.292236328125
0.05,1.931884765625,-4.354248046875,1.891845703125
0.0505,2.492431640625,-4.194091796875,1.171142578125
0.051,2.852783203125,-4.234130859375,0.850830078125
0.0515,3.133056640625,-3.793701171875,0.170166015625
0.052,3.333251953125,-3.473388671875,-0.350341796875
0.0525,3.653564453125,-2.752685546875,-1.431396484375
0.053,3.613525390625,-2.112060546875,-1.991943359375
0.0535,3.693603515625,-1.391357421875,-2.792724609375
0.054,3.173095703125,-0.670654296875,-2.992919921875
0.0545,3.012939453125,0.010009765625,-3.433349609375
0.055,2.252197265625,0.930908203125,-3.593505859375
0.0555,1.771728515625,1.771728515625,-3.913818359375
0.056,1.010986328125,2.372314453125,-3.713623046875
0.0565,0.570556640625,2.932861328125,-3.833740234375
0.057,-0.270263671875,3.133056640625,-3.233154296875
0.0575,-0.990966796875,3.493408203125,-2.952880859375
0.058,-2.152099609375,3.813720703125,-1.951904296875
0.0585,-2.792724609375,3.853759765625,-1.431396484375
0.059,-3.353271484375,3.773681640625,-0.790771484375
0.0595,-3.553466796875,3.493408203125,-0.350341796875
0.06,-3.713623046875,3.093017578125,0.250244140625
0.0605,-3.873779296875,2.492431640625,0.970947265625
0.061,-4.194091796875,1.851806640625,1.931884765625
0.0615,-3.873779296875,1.051025390625,2.412353515625
0.062,-3.993896484375,0.490478515625,3.052978515625
0.0625,-3.353271484375,-0.350341796875,3.173095703125
0.063,-3.153076171875,-0.910888671875,3.533447265625
0.0635,-2.272216796875,-1.951904296875,3.693603515625
0.064,-1.791748046875,-2.632568359375,3.853759765625
0.0645,-1.111083984375,-3.193115234375,3.653564453125
0.065,-0.630615234375,-3.633544921875,3.613525390625
0.0655,0.170166015625,-3.793701171875,3.052978515625
0.066,0.970947265625,-4.114013671875,2.572509765625
0.0665,2.052001953125,-4.434326171875,1.771728515625
0.067,2.572509765625,-4.234130859375,1.091064453125
0.0675,3.133056640625,-4.354248046875,0.650634765625
0.068,3.213134765625,-3.833740234375,0.050048828125
0.0685,3.533447265625,-3.553466796875,-0.510498046875
0.069,3.613525390625,-2.712646484375,-1.391357421875
0.0695,3.893798828125,-2.192138671875,-2.232177734375
0.07,3.533447265625,-1.271240234375,-2.752685546875
0.0705,3.653564453125,-0.790771484375,-3.273193359375
0.071,2.852783203125,0.130126953125,-3.433349609375
0.0715,2.612548828125,0.810791015625,-3.833740234375
0.072,1.691650390625,1.851806640625,-4.154052734375
0.0725,1.051025390625,2.572509765625,-3.993896484375
0.073,0.370361328125,3.133056640625,-3.873779296875
0.0735,-0.310302734375,3.493408203125,-3.553466796875
0.074,-1.111083984375,3.733642578125,-2.952880859375
0.0745,-2.112060546875,3.973876953125,-2.272216796875
0.075,-3.193115234375,4.254150390625,-1.431396484375
0.0755,-3.593505859375,3.853759765625,-0.630615234375
0.076,-4.114013671875,3.933837890625,-0.230224609375
0.0765,-4.114013671875,3.173095703125,0.570556640625
0.077,-4.354248046875,2.732666015625,1.131103515625
0.0775,-4.434326171875,1.771728515625,2.212158203125
0.078,-4.514404296875,1.051025390625,2.972900390625
0.0785,-3.993896484375,0.130126953125,3.373291015625
0.079,-3.833740234375,-0.510498046875,3.853759765625
0.0795,-2.952880859375,-1.431396484375,3.853759765625
0.08,-2.552490234375,-2.272216796875,3.973876953125
0.0805,-1.591552734375,-3.313232421875,4.214111328125
0.081,-0.790771484375,-3.753662109375,3.853759765625
0.0815,-0.270263671875,-4.154052734375,3.813720703125
0.082,0.610595703125,-4.354248046875,3.173095703125
0.0825,1.411376953125,-4.514404296875,2.532470703125
0.083,2.412353515625,-4.634521484375,1.651611328125
0.0835,3.333251953125,-4.834716796875,0.930908203125
0.084,3.533447265625,-4.274169921875,0.170166015625
0.0845,3.933837890625,-4.314208984375,-0.190185546875
0.085,3.893798828125,-3.393310546875,-1.031005859375
0.0855,4.053955078125,-2.912841796875,-1.631591796875
0.086,4.214111328125,-1.951904296875,-2.792724609375
0.0865,4.053955078125,-1.151123046875,-3.353271484375
0.087,3.653564453125,-0.310302734375,-3.833740234375
0.0875,3.293212890625,0.370361328125,-4.073974609375
0.088,2.452392578125,1.291259765625,-4.194091796875
0.0885,1.851806640625,2.132080078125,-4.394287109375
0.089,0.890869140625,3.253173828125,-4.514404296875
0.0895,0.050048828125,3.693603515625,-3.993896484375
0.09,-0.510498046875,4.134033203125,-3.993896484375
0.0905,-1.631591796875,4.334228515625,-3.072998046875
0.091,-2.512451171875,4.494384765625,-2.352294921875
0.0915,-3.593505859375,4.534423828125,-1.351318359375
0.092,-4.394287109375,4.574462890625,-0.590576171875
0.0925,-4.514404296875,3.933837890625,0.250244140625
0.093,-4.874755859375,3.813720703125,0.690673828125
0.0935,-4.874755859375,2.652587890625,1.851806640625
0.094,-4.874755859375,1.971923828125,2.492431640625
0.0945,-4.954833984375,0.930908203125,3.573486328125
0.095,-4.514404296875,0.010009765625,4.013916015625
0.0955,-4.033935546875,-0.830810546875,4.374267578125
0.096,-3.353271484375,-1.791748046875,4.494384765625
0.0965,-2.392333984375,-2.832763671875,4.534423828125
0.097,-1.591552734375,-3.593505859375,4.494384765625
0.0975,-0.630615234375,-4.514404296875,4.494384765625
0.098,0.250244140625,-4.674560546875,3.853759765625
0.0985,0.770751953125,-5.074951171875,3.693603515625
0.099,2.052001953125,-5.155029296875,2.492431640625
0.0995,2.852783203125,-5.195068359375,1.771728515625
0.1,3.813720703125,-5.114990234375,0.690673828125
0.1005,4.414306640625,-4.914794921875,0.010009765625
0.101,4.414306640625,-4.234130859375,-0.710693359375
0.1015,4.614501953125,-3.913818359375,-1.231201171875
0.102,4.614501953125,-2.752685546875,-2.352294921875
0.1025,4.494384765625,-2.072021484375,-2.912841796875
0.103,4.534423828125,-1.031005859375,-3.993896484375
0.1035,3.853759765625,0.010009765625,-4.274169921875
0.104,3.533447265625,0.610595703125,-4.594482421875
0.1045,2.692626953125,1.571533203125,-4.634521484375
0.105,1.771728515625,2.652587890625,-4.794677734375
0.1055,0.930908203125,3.413330078125,-4.594482421875
0.106,0.010009765625,4.334228515625,-4.594482421875
0.1065,-0.950927734375,4.454345703125,-3.833740234375
0.107,-1.511474609375,4.814697265625,-3.633544921875
0.1075,-2.952880859375,4.854736328125,-2.272216796875
0.108,-3.713623046875,4.934814453125,-1.591552734375
0.1085,-4.634521484375,4.734619140625,-0.510498046875
0.109,-5.114990234375,4.494384765625,0.290283203125
0.1095,-5.155029296875,3.773681640625,0.970947265625
0.11,-5.315185546875,3.253173828125,1.651611328125
0.1105,-5.355224609375,2.052001953125,2.892822265625
0.111,-5.074951171875,1.171142578125,3.453369140625
0.1115,-5.114990234375,0.170166015625,4.494384765625
0.112,-4.234130859375,-0.950927734375,4.614501953125
0.1125,-3.833740234375,-1.631591796875,4.854736328125
0.113,-2.752685546875,-2.752685546875,4.894775390625
0.1135,-1.791748046875,-3.793701171875,4.974853515625
0.114,-0.790771484375,-4.394287109375,4.534423828125
0.1145,0.010009765625,-5.195068359375,4.494384765625
0.115,0.890869140625,-5.155029296875,3.653564453125
0.1155,1.571533203125,-5.475341796875,3.293212890625
0.116,3.052978515625,-5.515380859375,1.891845703125
0.1165,3.813720703125,-5.395263671875,1.051025390625
0.117,4.494384765625,-5.155029296875,0.050048828125
0.1175,4.814697265625,-4.714599609375,-0.630615234375
0.118,4.814697265625,-4.033935546875,-1.271240234375
0.1185,4.814697265625,-3.273193359375,-2.031982421875
0.119,4.934814453125,-2.192138671875,-3.233154296875
0.1195,4.494384765625,-1.271240234375,-3.713623046875
0.12,4.534423828125,-0.390380859375,-4.634521484375
0.1205,3.533447265625,0.610595703125,-4.634521484375
0.121,3.293212890625,1.291259765625,-4.954833984375
0.1215,1.971923828125,2.532470703125,-4.834716796875
0.122,1.251220703125,3.453369140625,-4.954833984375
0.1225,0.130126953125,4.013916015625,-4.474365234375
0.123,-0.630615234375,4.734619140625,-4.394287109375
0.1235,-1.471435546875,4.654541015625,-3.553466796875
0.124,-2.192138671875,4.934814453125,-3.072998046875
0.1245,-3.713623046875,5.054931640625,-1.711669921875
0.125,-4.314208984375,4.814697265625,-0.910888671875
0.1255,-4.994873046875,4.614501953125,0.010009765625
0.126,-5.195068359375,4.093994140625,0.730712890625
0.1265,-5.275146484375,3.493408203125,1.331298828125
0.127,-5.195068359375,2.532470703125,2.252197265625
0.1275,-5.395263671875,1.571533203125,3.373291015625
0.128,-4.834716796875,0.490478515625,3.813720703125
0.1285,-4.834716796875,-0.350341796875,4.614501953125
0.129,-3.833740234375,-1.431396484375,4.494384765625
0.1295,-3.553466796875,-1.951904296875,4.854736328125
0.13,-2.192138671875,-3.273193359375,4.814697265625
0.1305,-1.391357421875,-4.073974609375,4.814697265625
0.131,-0.390380859375,-4.634521484375,4.334228515625
0.1315,0.290283203125,-5.114990234375,4.174072265625
0.132,1.131103515625,-5.114990234375,3.333251953125
0.1325,1.971923828125,-5.275146484375,2.692626953125
0.133,3.373291015625,-5.435302734375,1.491455078125
0.1335,3.853759765625,-5.034912109375,0.610595703125
0.134,4.494384765625,-4.954833984375,-0.110107421875
0.1345,4.494384765625,-4.194091796875,-0.790771484375
0.135,4.574462890625,-3.793701171875,-1.351318359375
0.1355,4.494384765625,-2.712646484375,-2.312255859375
0.136,4.734619140625,-1.951904296875,-3.273193359375
0.1365,4.134033203125,-0.950927734375,-3.753662109375
0.137,4.053955078125,-0.270263671875,-4.354248046875
0.1375,3.133056640625,0.770751953125,-4.274169921875
0.138,2.852783203125,1.331298828125,-4.514404296875
0.1385,1.571533203125,2.692626953125,-4.594482421875
0.139,0.930908203125,3.253173828125,-4.514404296875
0.1395,0.010009765625,3.893798828125,-4.194091796875
0.14,-0.630615234375,4.214111328125,-3.873779296875
0.1405,-1.431396484375,4.334228515625,-3.233154296875
0.141,-2.352294921875,4.494384765625,-2.472412109375
0.1415,-3.593505859375,4.734619140625,-1.511474609375
0.142,-3.993896484375,4.254150390625,-0.670654296875
0.1425,-4.634521484375,4.334228515625,-0.110107421875
0.143,-4.554443359375,3.533447265625,0.650634765625
0.1435,-4.794677734375,3.173095703125,1.171142578125
0.144,-4.794677734375,2.052001953125,2.252197265625
0.1445,-4.874755859375,1.331298828125,3.012939453125
0.145,-4.434326171875,0.290283203125,3.533447265625
0.1455,-4.314208984375,-0.310302734375,4.093994140625
0.146,-3.473388671875,-1.271240234375,4.134033203125
0.1465,-3.032958984375,-1.871826171875,4.334228515625
0.147,-1.951904296875,-3.153076171875,4.494384765625
0.1475,-1.231201171875,-3.593505859375,4.174072265625
0.148,-0.550537109375,-4.234130859375,4.134033203125
0.1485,0.210205078125,-4.394287109375,3.573486328125
0.149,0.930908203125,-4.634521484375,3.133056640625
0.1495,1.971923828125,-4.794677734375,2.172119140625
0.15,3.012939453125,-4.994873046875,1.411376953125
0.1505,3.333251953125,-4.514404296875,0.610595703125
0.151,3.853759765625,-4.554443359375,0.210205078125
0.1515,3.813720703125,-3.793701171875,-0.590576171875
0.152,3.973876953125,-3.513427734375,-1.111083984375
0.1525,4.134033203125,-2.472412109375,-2.232177734375
0.153,4.093994140625,-1.871826171875,-2.792724609375
0.1535,3.853759765625,-0.910888671875,-3.393310546875
0.154,3.493408203125,-0.310302734375,-3.673583984375
0.1545,2.892822265625,0.570556640625,-3.873779296875
0.155,2.332275390625,1.331298828125,-4.033935546875
0.1555,1.571533203125,2.412353515625,-4.314208984375
0.156,0.770751953125,2.852783203125,-3.953857421875
0.1565,0.290283203125,3.533447265625,-4.114013671875
0.157,-0.590576171875,3.573486328125,-3.353271484375
0.1575,-1.271240234375,3.973876953125,-3.072998046875
0.158,-2.432373046875,4.134033203125,-2.031982421875
0.1585,-3.193115234375,4.214111328125,-1.391357421875
0.159,-3.633544921875,3.893798828125,-0.630615234375
0.1595,-3.993896484375,3.853759765625,-0.270263671875
0.16,-4.073974609375,3.173095703125,0.490478515625
0.1605,-4.234130859375,2.692626953125,1.091064453125
0.161,-4.514404296875,1.811767578125,2.172119140625
0.1615,-4.234130859375,1.131103515625,2.652587890625
0.162,-4.194091796875,0.410400390625,3.333251953125
0.1625,-3.593505859375,-0.350341796875,3.453369140625
0.163,-3.233154296875,-1.031005859375,3.773681640625
0.1635,-2.472412109375,-1.951904296875,3.853759765625
0.164,-1.871826171875,-2.832763671875,4.093994140625
0.1645,-1.151123046875,-3.193115234375,3.693603515625
0.165,-0.670654296875,-3.793701171875,3.853759765625
0.1655,0.170166015625,-3.873779296875,3.133056640625
0.166,0.890869140625,-4.234130859375,2.812744140625
0.1665,2.011962890625,-4.474365234375,1.851806640625
0.167,2.532470703125,-4.434326171875,1.291259765625
0.1675,3.052978515625,-4.314208984375,0.690673828125
0.168,3.173095703125,-4.073974609375,0.290283203125
0.1685,3.413330078125,-3.633544921875,-0.350341796875
0.169,3.533447265625,-3.072998046875,-1.111083984375
0.1695,3.893798828125,-2.392333984375,-1.991943359375
0.17,3.533447265625,-1.591552734375,-2.432373046875
0.1705,3.693603515625,-1.111083984375,-3.072998046875
0.171,2.972900390625,-0.230224609375,-3.193115234375
0.1715,2.852783203125,0.370361328125,-3.633544921875
0.172,1.971923828125,1.451416015625,-3.833740234375
0.1725,1.531494140625,2.092041015625,-3.953857421875
0.173,0.770751953125,2.652587890625,-3.753662109375
0.1735,0.290283203125,3.093017578125,-3.713623046875
0.174,-0.630615234375,3.333251953125,-3.072998046875
0.1745,-1.431396484375,3.693603515625,-2.632568359375
0.175,-2.512451171875,3.973876953125,-1.831787109375
0.1755,-2.912841796875,3.773681640625,-1.231201171875
0.176,-3.473388671875,3.853759765625,-0.790771484375
0.1765,-3.553466796875,3.293212890625,-0.230224609375
0.177,-3.873779296875,2.972900390625,0.450439453125
0.1775,-3.993896484375,2.212158203125,1.331298828125
0.178,-4.234130859375,1.691650390625,2.132080078125
0.1785,-3.833740234375,0.770751953125,2.572509765625
0.179,-3.913818359375,0.330322265625,3.133056640625
0.1795,-3.193115234375,-0.590576171875,3.213134765625
0.18,-2.952880859375,-1.231201171875,3.573486328125
0.1805,-2.112060546875,-2.232177734375,3.813720703125
0.181,-1.591552734375,-2.712646484375,3.693603515625
0.1815,-1.031005859375,-3.233154296875,3.693603515625
0.182,-0.430419921875,-3.553466796875,3.333251953125
0.1825,0.330322265625,-3.793701171875,2.852783203125
0.183,1.291259765625,-4.073974609375,2.212158203125
0.1835,2.132080078125,-4.354248046875,1.571533203125
0.184,2.492431640625,-4.073974609375,1.010986328125
0.1845,2.892822265625,-4.274169921875,0.770751953125
0.185,2.972900390625,-3.593505859375,0.010009765625
0.1855,3.333251953125,-3.353271484375,-0.510498046875
0.186,3.533447265625,-2.552490234375,-1.551513671875
0.1865,3.693603515625,-2.072021484375,-2.112060546875
0.187,3.413330078125,-1.271240234375,-2.632568359375
0.1875,3.333251953125,-0.790771484375,-3.032958984375
0.188,2.732666015625,0.130126953125,-3.273193359375
