wavelength,x,y,z
0.0,2.322265625,1.0009765625,-3.8037109375
0.0005,1.76171875,1.921875,-4.1240234375
0.001,1.12109375,2.2421875,-3.84375
0.0015,0.48046875,2.962890625,-3.8837890625
0.002,-0.3603515625,3.2431640625,-3.2431640625
0.0025,-1.0009765625,3.7236328125,-3.0830078125
0.003,-2.2021484375,3.8837890625,-2.08203125
0.0035,-2.8828125,4.00390625,-1.6015625
0.004,-3.36328125,3.7236328125,-0.720703125
0.0045,-3.8837890625,3.6435546875,-0.2001953125
0.005,-4.0439453125,3.0830078125,0.560546875
0.0055,-4.32421875,2.6826171875,1.201171875
0.006,-4.564453125,1.921875,2.2021484375
0.0065,-4.32421875,1.201171875,2.642578125
0.007,-4.244140625,0.3603515625,3.36328125
0.0075,-3.68359375,-0.560546875,3.68359375
0.008,-3.283203125,-1.28125,3.9638671875
0.0085,-2.5224609375,-2.2822265625,4.1240234375
0.009,-1.841796875,-3.1630859375,4.2841796875
0.0095,-1.0009765625,-3.5234375,3.8037109375
0.01,-0.3603515625,-4.1240234375,3.84375
0.0105,0.5205078125,-4.244140625,3.0830078125
0.011,1.201171875,-4.564453125,2.72265625
0.0115,2.482421875,-4.8046875,1.681640625
0.012,3.04296875,-4.64453125,0.9609375
0.0125,3.5234375,-4.2841796875,0.2001953125
0.013,3.84375,-4.00390625,-0.400390625
0.0135,3.923828125,-3.4033203125,-1.12109375
0.014,4.0439453125,-2.7626953125,-1.841796875
0.0145,4.32421875,-2.001953125,-2.8427734375
0.015,3.763671875,-1.1611328125,-3.1630859375
0.0155,3.763671875,-0.400390625,-3.8037109375
0.016,2.9228515625,0.48046875,-3.8837890625
0.0165,2.6025390625,1.12109375,-4.2041015625
0.017,1.76171875,2.2021484375,-4.3642578125
0.0175,1.0810546875,2.8828125,-4.404296875
0.018,0.16015625,3.283203125,-3.8037109375
0.0185,-0.4404296875,3.84375,-3.8037109375
0.019,-1.361328125,3.9638671875,-2.9228515625
0.0195,-2.08203125,4.244140625,-2.5224609375
0.02,-3.36328125,4.484375,-1.4814453125
0.0205,-3.8037109375,4.083984375,-0.6806640625
0.021,-4.3642578125,3.84375,0.0400390625
0.0215,-4.564453125,3.443359375,0.720703125
0.022,-4.724609375,2.8427734375,1.44140625
0.0225,-4.8447265625,2.0419921875,2.2421875
0.023,-5.044921875,1.28125,3.2431640625
0.0235,-4.32421875,0.240234375,3.5234375
0.024,-4.32421875,-0.5205078125,4.2841796875
0.0245,-3.36328125,-1.6015625,4.2841796875
0.025,-2.9228515625,-2.2822265625,4.5244140625
0.0255,-1.921875,-3.443359375,4.6044921875
0.026,-1.041015625,-4.0439453125,4.484375
0.0265,-0.16015625,-4.3642578125,3.84375
0.027,0.560546875,-4.884765625,3.68359375
0.0275,1.6015625,-4.96484375,2.6826171875
0.028,2.322265625,-5.0849609375,2.1220703125
0.0285,3.5634765625,-5.2451171875,1.041015625
0.029,3.84375,-4.64453125,0.16015625
0.0295,4.32421875,-4.404296875,-0.5205078125
0.03,4.484375,-3.7236328125,-1.3212890625
0.0305,4.5244140625,-3.04296875,-2.08203125
0.031,4.5244140625,-2.2021484375,-2.8828125
0.0315,4.6044921875,-1.3212890625,-3.763671875
0.032,3.763671875,-0.2802734375,-4.00390625
0.0325,3.7236328125,0.400390625,-4.564453125
0.033,2.5625,1.521484375,-4.5244140625
0.0335,2.162109375,2.162109375,-4.7646484375
0.034,1.12109375,3.283203125,-4.7646484375
0.0345,0.240234375,3.84375,-4.404296875
0.035,-0.640625,4.1240234375,-3.84375
0.0355,-1.44140625,4.564453125,-3.4833984375
0.036,-2.5625,4.6044921875,-2.4423828125
0.0365,-3.203125,4.6845703125,-1.8818359375
0.037,-4.3642578125,4.7646484375,-0.80078125
0.0375,-4.564453125,4.0439453125,0.1201171875
0.038,-5.0849609375,3.8837890625,0.720703125
0.0385,-5.1650390625,3.0029296875,1.7216796875
0.039,-5.2451171875,2.322265625,2.482421875
0.0395,-5.1650390625,1.361328125,3.3232421875
0.04,-5.125,0.5205078125,4.083984375
0.0405,-4.1640625,-0.720703125,4.2841796875
0.041,-4.1240234375,-1.4013671875,4.8447265625
0.0415,-2.802734375,-2.6826171875,4.8046875
0.042,-2.322265625,-3.203125,4.884765625
0.0425,-1.201171875,-4.2841796875,4.8046875
0.043,-0.2802734375,-4.6845703125,4.2841796875
0.0435,0.6005859375,-5.044921875,3.763671875
0.044,1.5615234375,-5.4052734375,3.1630859375
0.0445,2.6826171875,-5.4052734375,2.08203125
0.045,3.283203125,-5.3251953125,1.4013671875
0.0455,4.2841796875,-5.28515625,0.400390625
0.046,4.3642578125,-4.484375,-0.5205078125
0.0465,4.7646484375,-4.2841796875,-1.0810546875
0.047,4.8046875,-3.203125,-2.2021484375
0.0475,4.8447265625,-2.5625,-2.8828125
0.048,4.64453125,-1.5615234375,-3.6435546875
0.0485,4.5244140625,-0.720703125,-4.32421875
0.049,3.5234375,0.400390625,-4.484375
0.0495,3.36328125,1.0810546875,-4.9248046875
0.05,2.0419921875,2.4423828125,-4.884765625
0.0505,1.6416015625,2.962890625,-4.9248046875
0.051,0.5205078125,3.8837890625,-4.7646484375
0.0515,-0.48046875,4.2841796875,-4.1640625
0.052,-1.28125,4.6044921875,-3.7236328125
0.0525,-2.2822265625,4.884765625,-2.962890625
0.053,-3.36328125,4.96484375,-1.9619140625
0.0535,-3.9638671875,4.724609375,-1.1611328125
0.054,-4.8447265625,4.64453125,-0.2802734375
0.0545,-4.9248046875,3.8037109375,0.6806640625
0.055,-5.28515625,3.603515625,1.2412109375
0.0555,-5.28515625,2.40234375,2.4423828125
0.056,-5.3251953125,1.8017578125,3.04296875
0.0565,-5.044921875,0.6806640625,3.8037109375
0.057,-4.7646484375,-0.16015625,4.32421875
0.0575,-3.8837890625,-1.3212890625,4.484375
0.058,-3.5634765625,-1.9619140625,4.884765625
0.0585,-2.2822265625,-3.2431640625,4.8447265625
0.059,-1.76171875,-3.68359375,4.724609375
0.0595,-0.6806640625,-4.5244140625,4.5244140625
0.06,0.2802734375,-4.8046875,3.84375
0.0605,0.9609375,-5.125,3.5234375
0.061,2.08203125,-5.28515625,2.5625
0.0615,3.0029296875,-5.365234375,1.76171875
0.062,3.5634765625,-5.0048828125,0.880859375
0.0625,4.2841796875,-4.96484375,0.080078125
0.063,4.32421875,-4.083984375,-0.80078125
0.0635,4.64453125,-3.8837890625,-1.28125
0.064,4.64453125,-2.72265625,-2.5224609375
0.0645,4.64453125,-2.2822265625,-3.0029296875
0.065,4.404296875,-1.201171875,-3.7236328125
0.0655,4.00390625,-0.3603515625,-4.244140625
0.066,3.3232421875,0.6806640625,-4.4443359375
0.0665,2.8828125,1.44140625,-4.6845703125
0.067,1.8017578125,2.642578125,-4.8447265625
0.0675,1.28125,3.04296875,-4.64453125
0.068,0.2802734375,3.8837890625,-4.484375
0.0685,-0.720703125,4.1240234375,-3.8037109375
0.069,-1.4013671875,4.5244140625,-3.4833984375
0.0695,-2.6025390625,4.64453125,-2.4423828125
0.07,-3.4833984375,4.8046875,-1.7216796875
0.0705,-4.00390625,4.404296875,-0.7607421875
0.071,-4.64453125,4.2841796875,0.0
0.0715,-4.7646484375,3.4833984375,0.880859375
0.072,-5.0048828125,3.1630859375,1.4013671875
0.0725,-5.125,1.9619140625,2.6025390625
0.073,-4.96484375,1.361328125,3.0029296875
0.0735,-4.6845703125,0.3603515625,3.763671875
0.074,-4.1640625,-0.5205078125,4.1240234375
0.0745,-3.5634765625,-1.44140625,4.404296875
0.075,-2.9228515625,-2.2822265625,4.5244140625
0.0755,-2.0419921875,-3.283203125,4.64453125
0.076,-1.28125,-3.603515625,4.2041015625
0.0765,-0.48046875,-4.3642578125,4.1240234375
0.077,0.4404296875,-4.5244140625,3.4033203125
0.0775,1.0810546875,-4.8447265625,3.1630859375
0.078,2.2421875,-4.9248046875,2.001953125
0.0785,2.8828125,-4.96484375,1.44140625
0.079,3.4033203125,-4.564453125,0.560546875
0.0795,3.84375,-4.3642578125,0.0
0.08,3.9638671875,-3.7236328125,-0.80078125
0.0805,4.1240234375,-3.36328125,-1.361328125
0.081,4.32421875,-2.5224609375,-2.40234375
0.0815,4.1240234375,-1.9619140625,-2.7626953125
0.082,4.00390625,-1.041015625,-3.4833984375
0.0825,3.36328125,-0.16015625,-3.7236328125
0.083,3.123046875,0.6005859375,-4.1640625
0.0835,2.2822265625,1.521484375,-4.2041015625
0.084,1.841796875,2.2822265625,-4.5244140625
0.0845,0.9609375,2.72265625,-4.083984375
0.085,0.2802734375,3.443359375,-4.0439453125
0.0855,-0.640625,3.6435546875,-3.36328125
0.086,-1.28125,4.083984375,-3.203125
0.0865,-2.482421875,4.2041015625,-2.1220703125
0.087,-2.962890625,4.244140625,-1.6416015625
0.0875,-3.6435546875,3.9638671875,-0.7607421875
0.088,-4.0439453125,3.7236328125,-0.16015625
0.0885,-4.32421875,3.203125,0.640625
0.089,-4.484375,2.6826171875,1.28125
0.0895,-4.7646484375,1.9619140625,2.2421875
0.09,-4.404296875,1.28125,2.6025390625
0.0905,-4.3642578125,0.48046875,3.4033203125
0.091,-3.68359375,-0.5205078125,3.6435546875
0.0915,-3.4833984375,-1.1611328125,4.0439453125
0.092,-2.5625,-2.2021484375,4.1240234375
0.0925,-2.08203125,-2.8427734375,4.2841796875
0.093,-1.1611328125,-3.283203125,3.84375
0.0935,-0.560546875,-3.8837890625,3.763671875
0.094,0.3203125,-4.1240234375,3.123046875
0.0945,1.0009765625,-4.404296875,2.7626953125
0.095,2.162109375,-4.6044921875,1.841796875
0.0955,2.5224609375,-4.404296875,1.28125
0.096,3.123046875,-4.2841796875,0.560546875
0.0965,3.3232421875,-3.8837890625,-0.1201171875
0.097,3.6435546875,-3.603515625,-0.720703125
0.0975,3.68359375,-2.8828125,-1.44140625
0.098,3.9638671875,-2.40234375,-2.1220703125
0.0985,3.5234375,-1.5615234375,-2.5224609375
0.099,3.603515625,-1.0009765625,-3.1630859375
0.0995,2.8427734375,0.0,-3.36328125
0.1,2.8427734375,0.5205078125,-3.763671875
0.1005,1.9619140625,1.5615234375,-3.8837890625
0.101,1.6416015625,1.9619140625,-4.00390625
0.1015,0.80078125,2.5625,-3.7236328125
0.102,0.16015625,3.04296875,-3.5634765625
0.1025,-0.640625,3.36328125,-3.1630859375
0.103,-1.4013671875,3.6435546875,-2.6025390625
0.1035,-2.3623046875,3.9638671875,-1.9619140625
0.104,-2.72265625,3.68359375,-1.361328125
0.1045,-3.4033203125,3.763671875,-0.80078125
0.105,-3.6435546875,3.203125,-0.080078125
0.1055,-4.0439453125,3.04296875,0.48046875
0.106,-4.2041015625,2.2822265625,1.4013671875
0.1065,-4.4443359375,1.921875,2.0419921875
0.107,-4.0439453125,0.9609375,2.5625
0.1075,-4.0439453125,0.3603515625,3.1630859375
0.108,-3.36328125,-0.640625,3.4833984375
0.1085,-3.1630859375,-1.28125,3.84375
0.109,-2.3623046875,-2.2822265625,4.00390625
0.1095,-1.8017578125,-2.642578125,3.84375
0.11,-1.0009765625,-3.36328125,3.7236328125
0.1105,-0.3203125,-3.68359375,3.3232421875
0.111,0.4404296875,-4.0439453125,2.962890625
0.1115,1.361328125,-4.244140625,2.2421875
0.112,2.2021484375,-4.4443359375,1.6416015625
0.1125,2.5224609375,-4.0439453125,0.9208984375
0.113,3.0830078125,-4.1640625,0.4404296875
0.1135,3.1630859375,-3.5634765625,-0.3203125
0.114,3.4833984375,-3.2431640625,-0.80078125
0.1145,3.68359375,-2.5224609375,-1.7216796875
0.115,3.68359375,-2.0419921875,-2.162109375
0.1155,3.4033203125,-1.1611328125,-2.72265625
0.116,3.1630859375,-0.5205078125,-3.1630859375
0.1165,2.6826171875,0.240234375,-3.4033203125
0.117,2.2822265625,0.9609375,-3.7236328125
0.1175,1.76171875,1.8017578125,-3.923828125
0.118,1.12109375,2.08203125,-3.603515625
0.1185,0.560546875,2.802734375,-3.7236328125
0.119,-0.3203125,3.04296875,-3.1630859375
0.1195,-0.9609375,3.4833984375,-2.9228515625
0.12,-1.9619140625,3.68359375,-2.08203125
0.1205,-2.5625,3.763671875,-1.6416015625
0.121,-3.04296875,3.4833984375,-0.880859375
0.1215,-3.5634765625,3.4833984375,-0.5205078125
0.122,-3.7236328125,2.9228515625,0.3603515625
0.1225,-4.0439453125,2.642578125,0.9609375
0.123,-4.2841796875,1.921875,1.8818359375
0.1235,-4.0439453125,1.28125,2.2421875
0.124,-4.00390625,0.5205078125,3.0029296875
0.1245,-3.5634765625,-0.3203125,3.3232421875
0.125,-3.203125,-1.041015625,3.68359375
0.1255,-2.5625,-1.921875,3.84375
0.126,-2.001953125,-2.642578125,4.00390625
0.1265,-1.2412109375,-3.0029296875,3.5634765625
0.127,-0.640625,-3.68359375,3.68359375
0.1275,0.2802734375,-3.84375,2.962890625
0.128,0.9208984375,-4.2041015625,2.6826171875
0.1285,2.0419921875,-4.4443359375,1.76171875
0.129,2.5224609375,-4.3642578125,1.12109375
0.1295,3.0029296875,-4.083984375,0.4404296875
0.13,3.3232421875,-3.84375,-0.080078125
0.1305,3.4833984375,-3.2431640625,-0.80078125
0.131,3.68359375,-2.802734375,-1.44140625
0.1315,3.9638671875,-2.1220703125,-2.322265625
0.132,3.443359375,-1.3212890625,-2.642578125
0.1325,3.4833984375,-0.640625,-3.283203125
0.133,2.7626953125,0.240234375,-3.443359375
0.1335,2.482421875,0.880859375,-3.8037109375
0.134,1.76171875,1.76171875,-3.923828125
0.1345,1.1611328125,2.40234375,-3.923828125
0.135,0.400390625,2.72265625,-3.5234375
0.1355,-0.16015625,3.3232421875,-3.5234375
0.136,-1.12109375,3.4833984375,-2.72265625
0.1365,-1.8017578125,3.763671875,-2.40234375
0.137,-2.8427734375,3.923828125,-1.5615234375
0.1375,-3.203125,3.603515625,-0.9208984375
0.138,-3.7236328125,3.5234375,-0.3203125
0.1385,-3.923828125,3.123046875,0.3603515625
0.139,-4.1640625,2.6025390625,1.12109375
0.1395,-4.32421875,1.9619140625,1.841796875
0.14,-4.5244140625,1.361328125,2.642578125
0.1405,-3.8837890625,0.400390625,3.0029296875
0.141,-3.9638671875,-0.2802734375,3.68359375
0.1415,-3.0830078125,-1.2412109375,3.763671875
0.142,-2.802734375,-1.921875,4.083984375
0.1425,-1.9619140625,-2.8828125,4.1240234375
0.143,-1.2412109375,-3.4033203125,3.9638671875
0.1435,-0.48046875,-3.8037109375,3.603515625
0.144,0.2802734375,-4.2841796875,3.36328125
0.1445,1.28125,-4.484375,2.482421875
0.145,2.001953125,-4.64453125,1.9619140625
0.1455,3.0029296875,-4.7646484375,1.0810546875
0.146,3.2431640625,-4.2041015625,0.3603515625
0.1465,3.7236328125,-4.1240234375,-0.2001953125
0.147,3.84375,-3.4033203125,-1.041015625
0.1475,4.0439453125,-2.8828125,-1.76171875
0.148,4.0439453125,-2.08203125,-2.5224609375
0.1485,4.083984375,-1.4013671875,-3.203125
0.149,3.36328125,-0.3603515625,-3.4833984375
0.1495,3.3232421875,0.2802734375,-4.00390625
0.15,2.2822265625,1.28125,-4.0439453125
0.1505,1.9619140625,1.921875,-4.2841796875
0.151,1.0810546875,2.8427734375,-4.244140625
0.1515,0.2802734375,3.2431640625,-3.8837890625
0.152,-0.4404296875,3.6435546875,-3.5634765625
0.1525,-1.3212890625,3.923828125,-3.0830078125
0.153,-2.322265625,4.083984375,-2.2421875
0.1535,-2.962890625,4.1240234375,-1.6416015625
0.154,-3.84375,4.1640625,-0.80078125
0.1545,-4.00390625,3.5634765625,0.0
0.155,-4.4443359375,3.5234375,0.48046875
0.1555,-4.564453125,2.5625,1.521484375
0.156,-4.724609375,2.1220703125,2.1220703125
0.1565,-4.64453125,1.2412109375,2.9228515625
0.157,-4.5244140625,0.48046875,3.5234375
0.1575,-3.84375,-0.6005859375,3.84375
0.158,-3.6435546875,-1.28125,4.32421875
0.1585,-2.5625,-2.4423828125,4.3642578125
0.159,-2.1220703125,-2.962890625,4.484375
0.1595,-1.1611328125,-3.8837890625,4.3642578125
0.16,-0.2802734375,-4.244140625,3.84375
0.1605,0.4404296875,-4.6845703125,3.5234375
0.161,1.4814453125,-5.0048828125,2.7626953125
0.1615,2.5224609375,-5.125,1.921875
0.162,3.123046875,-4.9248046875,1.12109375
0.1625,3.8837890625,-4.8447265625,0.3603515625
0.163,4.00390625,-4.083984375,-0.5205078125
0.1635,4.3642578125,-3.923828125,-1.041015625
0.164,4.4443359375,-2.7626953125,-2.2021484375
0.1645,4.484375,-2.2822265625,-2.72265625
0.165,4.2841796875,-1.28125,-3.5234375
0.1655,3.9638671875,-0.4404296875,-4.00390625
0.166,3.203125,0.6005859375,-4.2041015625
0.1665,2.8828125,1.28125,-4.564453125
0.167,1.76171875,2.5224609375,-4.6044921875
0.1675,1.28125,2.9228515625,-4.5244140625
0.168,0.2802734375,3.763671875,-4.3642578125
0.1685,-0.640625,4.00390625,-3.763671875
0.169,-1.3212890625,4.3642578125,-3.4033203125
0.1695,-2.5625,4.5244140625,-2.5224609375
0.17,-3.4833984375,4.724609375,-1.6015625
0.1705,-4.00390625,4.32421875,-0.7607421875
0.171,-4.6845703125,4.2041015625,0.0
0.1715,-4.7646484375,3.443359375,0.880859375
0.172,-5.0849609375,3.203125,1.4013671875
0.1725,-5.125,2.001953125,2.642578125
0.173,-5.0849609375,1.4013671875,3.1630859375
0.1735,-4.7646484375,0.3603515625,3.84375
0.174,-4.3642578125,-0.560546875,4.32421875
0.1745,-3.603515625,-1.5615234375,4.5244140625
0.175,-3.0830078125,-2.322265625,4.8046875
0.1755,-1.9619140625,-3.603515625,4.9248046875
0.176,-1.28125,-3.9638671875,4.5244140625
0.1765,-0.3203125,-4.8046875,4.3642578125
0.177,0.640625,-5.0048828125,3.6435546875
0.1775,1.361328125,-5.28515625,3.2431640625
0.178,2.642578125,-5.4052734375,2.1220703125
0.1785,3.5634765625,-5.4453125,1.28125
0.179,4.00390625,-4.884765625,0.2802734375
0.1795,4.6044921875,-4.7646484375,-0.48046875
0.18,4.6044921875,-3.84375,-1.3212890625
0.1805,4.8046875,-3.4833984375,-1.921875
0.181,4.884765625,-2.2822265625,-3.203125
0.1815,4.6044921875,-1.5615234375,-3.603515625
0.182,4.2841796875,-0.5205078125,-4.2841796875
0.1825,3.7236328125,0.48046875,-4.6044921875
0.183,3.0029296875,1.3212890625,-4.724609375
0.1835,2.2822265625,2.2421875,-4.884765625
0.184,1.28125,3.4033203125,-5.044921875
0.1845,0.4404296875,3.6435546875,-4.484375
0.185,-0.48046875,4.404296875,-4.3642578125
0.1855,-1.361328125,4.5244140625,-3.5234375
0.186,-2.08203125,4.8046875,-3.0830078125
0.1865,-3.4033203125,4.9248046875,-1.921875
0.187,-4.244140625,4.9248046875,-1.041015625
0.1875,-4.64453125,4.2841796875,0.0
0.188,-5.205078125,4.1240234375,0.640625
0.1885,-5.1650390625,3.203125,1.521484375
0.189,-5.3251953125,2.6826171875,2.162109375
0.1895,-5.4853515625,1.5615234375,3.443359375
0.19,-5.044921875,0.720703125,3.84375
0.1905,-4.6845703125,-0.3203125,4.484375
0.191,-4.083984375,-1.28125,4.8046875
0.1915,-3.36328125,-2.1220703125,4.884765625
0.192,-2.5224609375,-3.123046875,4.96484375
0.1925,-1.521484375,-4.244140625,5.044921875
0.193,-0.5205078125,-4.5244140625,4.2841796875
0.1935,0.2802734375,-5.125,4.2041015625
0.194,1.2412109375,-5.1650390625,3.2431640625
0.1945,1.921875,-5.4052734375,2.802734375
0.195,3.283203125,-5.4453125,1.5615234375
0.1955,3.923828125,-5.2451171875,0.6806640625
0.196,4.32421875,-4.64453125,-0.2802734375
0.1965,4.6845703125,-4.404296875,-0.8408203125
0.197,4.6044921875,-3.5234375,-1.681640625
0.1975,4.6845703125,-2.8828125,-2.322265625
0.198,4.8447265625,-1.8818359375,-3.5234375
0.1985,4.2841796875,-1.0009765625,-3.763671875
0.199,4.00390625,-0.080078125,-4.4443359375
0.1995,3.2431640625,0.880859375,-4.5244140625
0.2,2.72265625,1.5615234375,-4.724609375
0.2005,1.841796875,2.5224609375,-4.8046875
0.201,1.041015625,3.4033203125,-4.884765625
0.2015,0.0400390625,3.7236328125,-4.083984375
0.202,-0.640625,4.404296875,-4.1240234375
0.2025,-1.6416015625,4.404296875,-3.1630859375
0.203,-2.322265625,4.6845703125,-2.72265625
0.2035,-3.6435546875,4.8046875,-1.5615234375
0.204,-4.1640625,4.484375,-0.80078125
0.2045,-4.64453125,4.083984375,0.16015625
0.205,-4.96484375,3.763671875,0.7607421875
0.2055,-5.044921875,3.0029296875,1.5615234375
0.206,-5.125,2.2822265625,2.322265625
0.2065,-5.3251953125,1.4013671875,3.4833984375
0.207,-4.6044921875,0.3603515625,3.7236328125
0.2075,-4.484375,-0.5205078125,4.4443359375
0.208,-3.5634765625,-1.521484375,4.484375
0.2085,-3.0830078125,-2.2822265625,4.724609375
0.209,-2.08203125,-3.36328125,4.724609375
0.2095,-1.2412109375,-4.1240234375,4.6044921875
0.21,-0.2802734375,-4.3642578125,3.8837890625
0.2105,0.3603515625,-4.9248046875,3.84375
0.211,1.44140625,-4.9248046875,2.8427734375
0.2115,2.1220703125,-5.125,2.322265625
0.212,3.36328125,-5.205078125,1.2412109375
0.2125,3.68359375,-4.6845703125,0.400390625
0.213,4.1240234375,-4.3642578125,-0.3203125
0.2135,4.2841796875,-3.84375,-1.0009765625
0.214,4.32421875,-3.203125,-1.7216796875
0.2145,4.32421875,-2.4423828125,-2.4423828125
0.215,4.484375,-1.6416015625,-3.36328125
0.2155,3.68359375,-0.640625,-3.5634765625
0.216,3.763671875,0.080078125,-4.1240234375
0.2165,2.72265625,0.9208984375,-4.1240234375
0.217,2.4423828125,1.5615234375,-4.404296875
0.2175,1.521484375,2.5625,-4.4443359375
0.218,0.8408203125,3.04296875,-4.2041015625
0.2185,0.0,3.443359375,-3.8037109375
0.219,-0.640625,3.8837890625,-3.5634765625
0.2195,-1.6015625,4.00390625,-2.802734375
0.22,-2.322265625,4.2041015625,-2.2822265625
0.2205,-3.36328125,4.3642578125,-1.4013671875
0.221,-3.603515625,3.84375,-0.640625
0.2215,-4.2041015625,3.84375,0.0
0.222,-4.32421875,3.1630859375,0.6806640625
0.2225,-4.564453125,2.802734375,1.361328125
0.223,-4.64453125,1.921875,2.2021484375
0.2235,-4.724609375,1.361328125,2.8828125
0.224,-4.00390625,0.3203125,3.2431640625
0.2245,-4.1240234375,-0.400390625,3.923828125
0.225,-3.203125,-1.4814453125,3.84375
0.2255,-2.8828125,-2.001953125,4.32421875
0.226,-1.9619140625,-3.04296875,4.32421875
0.2265,-1.2412109375,-3.443359375,4.00390625
0.227,-0.48046875,-4.00390625,3.8037109375
0.2275,0.2802734375,-4.32421875,3.36328125
0.228,1.201171875,-4.5244140625,2.6826171875
0.2285,2.001953125,-4.6845703125,2.0419921875
0.229,2.8828125,-4.7646484375,1.2412109375
0.2295,3.123046875,-4.1640625,0.4404296875
