wavelength,x,y,z
0.0,23.547973632812,-11.406127929688,-12.206909179688
0.0005,22.747192382812,-6.9217529296875,-15.970581054688
0.001,21.826293945312,-3.6785888671875,-18.332885742188
0.0015,19.504028320312,1.5665283203125,-21.295776367188
0.002,17.061645507812,6.2110595703125,-23.337768554688
0.0025,12.377075195312,10.695434570312,-23.097534179688
0.003,9.4942626953125,14.178833007812,-23.698120117188
0.0035,4.5294189453125,17.462036132812,-22.136596679688
0.004,0.2852783203125,19.984497070312,-20.454956054688
0.0045,-4.3592529296875,22.066528320312,-17.972534179688
0.005,-9.0838623046875,23.668090820312,-15.049682617188
0.0055,-12.847534179688,23.027465820312,-10.725463867188
0.006,-16.531127929688,22.987426757812,-7.0418701171875
0.0065,-19.053588867188,21.746215820312,-3.2781982421875
0.007,-21.656127929688,19.864379882812,1.2862548828125
0.0075,-22.977416992188,16.981567382812,5.5303955078125
0.008,-23.177612304688,13.097778320312,9.6544189453125
0.0085,-23.257690429688,9.9747314453125,12.897583007812
0.009,-22.096557617188,5.2901611328125,16.461059570312
0.0095,-20.895385742188,1.9669189453125,18.543090820312
0.01,-18.733276367188,-2.8377685546875,21.185668945312
0.0105,-15.930541992188,-7.4022216796875,22.947387695312
0.011,-11.286010742188,-11.406127929688,22.306762695312
0.0115,-8.2830810546875,-14.809448242188,22.707153320312
0.012,-3.7186279296875,-17.572143554688,20.985473632812
0.0125,0.9659423828125,-20.134643554688,19.023559570312
0.013,4.8897705078125,-21.776245117188,16.781372070312
0.0135,9.6544189453125,-22.897338867188,13.177856445312
0.014,12.857543945312,-22.496948242188,9.7344970703125
0.0145,16.701293945312,-22.136596679688,5.5704345703125
0.015,18.823364257812,-20.815307617188,2.1671142578125
0.0155,21.305786132812,-18.973510742188,-2.2772216796875
0.016,22.587036132812,-16.170776367188,-6.4012451171875
0.0165,22.266723632812,-12.126831054688,-10.244995117188
0.017,22.747192382812,-9.4442138671875,-13.448120117188
0.0175,21.265747070312,-4.8797607421875,-16.651245117188
0.018,19.864379882812,-1.0760498046875,-18.933471679688
0.0185,17.862426757812,3.2882080078125,-21.175659179688
0.019,14.419067382812,8.1729736328125,-22.697143554688
0.0195,10.335083007812,11.656372070312,-22.096557617188
0.02,6.9718017578125,15.259887695312,-22.376831054688
0.0205,2.8077392578125,17.502075195312,-20.454956054688
0.021,-1.8367919921875,20.304809570312,-18.733276367188
0.0215,-5.9207763671875,21.666137695312,-16.170776367188
0.022,-10.605346679688,22.386840820312,-12.206909179688
0.0225,-13.608276367188,22.346801757812,-9.2440185546875
0.023,-17.331909179688,21.586059570312,-4.8397216796875
0.0235,-19.213745117188,19.984497070312,-1.3162841796875
0.024,-21.455932617188,18.102661132812,2.8077392578125
0.0245,-22.496948242188,14.779418945312,7.2120361328125
0.025,-21.896362304688,10.615356445312,10.815551757812
0.0255,-22.416870117188,7.8526611328125,14.138793945312
0.026,-20.695190429688,3.4884033203125,16.901489257812
0.0265,-19.293823242188,-0.6756591796875,19.584106445312
0.027,-16.891479492188,-4.7996826171875,21.305786132812
0.0275,-13.207885742188,-9.6444091796875,22.466918945312
0.028,-9.3240966796875,-12.887573242188,21.826293945312
0.0285,-5.4002685546875,-16.531127929688,21.586059570312
0.029,-0.9559326171875,-18.533081054688,19.223754882812
0.0295,3.4083251953125,-21.215698242188,17.742309570312
0.03,7.6124267578125,-22.136596679688,14.499145507812
0.0305,11.896606445312,-22.336791992188,10.495239257812
0.031,14.859497070312,-22.456909179688,7.6925048828125
0.0315,18.503051757812,-21.135620117188,2.7677001953125
0.032,20.505004882812,-19.333862304688,-1.1160888671875
0.0325,22.146606445312,-17.171752929688,-4.9998779296875
0.033,22.987426757812,-13.808471679688,-9.2840576171875
0.0335,22.026489257812,-9.5643310546875,-12.687377929688
0.034,22.346801757812,-6.4412841796875,-16.010620117188
0.0345,20.024536132812,-1.7567138671875,-18.453002929688
0.035,18.623168945312,2.5675048828125,-21.295776367188
0.0355,15.259887695312,6.7716064453125,-22.096557617188
0.036,11.536254882812,11.376098632812,-22.937377929688
0.0365,7.8927001953125,14.379028320312,-22.376831054688
0.037,3.3282470703125,17.902465820312,-21.375854492188
0.0375,-1.0760498046875,19.704223632812,-18.933471679688
0.038,-5.2801513671875,22.106567382812,-17.211791992188
0.0385,-9.7244873046875,22.667114257812,-13.408081054688
0.039,-13.528198242188,22.346801757812,-9.2840576171875
0.0395,-16.571166992188,22.506958007812,-6.5213623046875
0.04,-19.534057617188,20.464965820312,-1.5565185546875
0.0405,-21.495971679688,18.583129882812,2.4073486328125
0.041,-22.416870117188,15.660278320312,6.2510986328125
0.0415,-23.057495117188,12.136840820312,10.495239257812
0.042,-22.016479492188,7.9727783203125,13.738403320312
0.0425,-21.896362304688,4.6094970703125,16.941528320312
0.043,-19.453979492188,0.0850830078125,19.063598632812
0.0435,-18.012573242188,-4.2391357421875,21.906372070312
0.044,-14.048706054688,-8.4832763671875,22.106567382812
0.0445,-10.244995117188,-12.567260742188,22.426879882812
0.045,-6.8416748046875,-15.530151367188,22.026489257812
0.0455,-1.7967529296875,-18.613159179688,20.104614257812
0.046,2.5675048828125,-20.494995117188,17.862426757812
0.0465,6.5313720703125,-22.256713867188,15.660278320312
0.047,10.895629882812,-22.777221679688,11.896606445312
0.0475,14.338989257812,-21.976440429688,7.7325439453125
0.048,17.462036132812,-22.096557617188,4.7296142578125
0.0485,20.024536132812,-19.894409179688,-0.1551513671875
0.049,22.146606445312,-17.972534179688,-4.1990966796875
0.0495,22.346801757812,-14.609252929688,-7.8426513671875
0.05,22.867309570312,-11.245971679688,-11.686401367188
0.0505,21.906372070312,-7.2420654296875,-14.769409179688
0.051,21.105590820312,-3.3983154296875,-17.812377929688
0.0515,18.743286132812,1.1260986328125,-19.934448242188
0.052,16.821411132812,5.4102783203125,-22.296752929688
0.0525,12.577270507812,9.7344970703125,-22.416870117188
0.053,8.7735595703125,13.418090820312,-22.256713867188
0.0535,5.6505126953125,16.220825195312,-21.976440429688
0.054,0.4053955078125,19.063598632812,-19.614135742188
0.0545,-3.7586669921875,21.105590820312,-17.692260742188
0.055,-8.0028076171875,22.146606445312,-14.569213867188
0.0555,-11.926635742188,22.747192382812,-11.326049804688
0.056,-15.289916992188,21.746215820312,-7.0018310546875
0.0565,-18.132690429688,21.385864257812,-3.8387451171875
0.057,-20.374877929688,19.103637695312,0.7657470703125
0.0575,-22.336791992188,16.941528320312,4.8897705078125
0.058,-22.096557617188,12.937622070312,8.6934814453125
0.0585,-22.456909179688,9.7344970703125,12.296997070312
0.059,-21.736206054688,6.0909423828125,15.259887695312
0.0595,-20.334838867188,1.9268798828125,18.182739257812
0.06,-18.252807617188,-2.4373779296875,20.304809570312
0.0605,-15.650268554688,-6.7615966796875,21.986450195312
0.061,-11.846557617188,-10.765502929688,22.266723632812
0.0615,-7.5623779296875,-14.328979492188,21.546020507812
0.062,-4.4393310546875,-16.891479492188,21.025512695312
0.0625,1.0059814453125,-19.574096679688,18.422973632812
0.063,4.8497314453125,-21.616088867188,16.661254882812
0.0635,9.2940673828125,-21.976440429688,12.657348632812
0.064,12.657348632812,-22.577026367188,10.014770507812
0.0645,16.140747070312,-21.616088867188,5.4903564453125
0.065,18.863403320312,-20.735229492188,1.9268798828125
0.0655,20.985473632812,-18.573120117188,-2.4373779296875
0.066,22.587036132812,-16.010620117188,-6.5614013671875
0.0665,22.066528320312,-12.046752929688,-10.124877929688
0.067,22.146606445312,-8.5633544921875,-13.688354492188
0.0675,21.425903320312,-5.2000732421875,-16.330932617188
0.068,19.504028320312,-0.4354248046875,-19.253784179688
0.0685,17.462036132812,3.6885986328125,-21.295776367188
0.069,13.818481445312,8.3331298828125,-22.216674804688
0.0695,10.815551757812,11.816528320312,-22.657104492188
0.07,6.0909423828125,15.380004882812,-21.616088867188
0.0705,2.8077392578125,17.662231445312,-20.615112304688
0.071,-2.3172607421875,20.224731445312,-18.212768554688
0.0715,-6.4412841796875,22.146606445312,-16.090698242188
0.072,-10.805541992188,21.946411132812,-11.606323242188
0.0725,-14.048706054688,22.426879882812,-8.9237060546875
0.073,-17.211791992188,21.305786132812,-4.6795654296875
0.0735,-19.734252929688,19.904418945312,-0.7957763671875
0.074,-21.415893554688,17.662231445312,3.2081298828125
0.0745,-22.577026367188,14.539184570312,7.6524658203125
0.075,-22.136596679688,10.855590820312,10.895629882812
0.0755,-21.896362304688,6.9317626953125,14.619262695312
0.076,-20.975463867188,3.8487548828125,16.741333007812
0.0765,-19.013549804688,-1.1561279296875,19.784301757812
0.077,-16.691284179688,-5.2401123046875,21.586059570312
0.0775,-12.527221679688,-9.7645263671875,21.906372070312
0.078,-9.7645263671875,-12.967651367188,22.386840820312
0.0785,-4.8397216796875,-16.491088867188,20.985473632812
0.079,-0.9959716796875,-18.613159179688,19.343872070312
0.0795,3.4884033203125,-20.895385742188,17.301879882812
0.08,7.9727783203125,-22.536987304688,14.579223632812
0.0805,11.816528320312,-22.096557617188,10.255004882812
0.081,15.219848632812,-22.416870117188,7.1719970703125
0.0815,18.182739257812,-21.135620117188,3.0079345703125
0.082,20.785278320312,-19.413940429688,-1.3162841796875
0.0825,22.066528320312,-16.971557617188,-5.1199951171875
0.083,22.827270507812,-13.328002929688,-9.5643310546875
0.0835,22.506958007812,-10.084838867188,-12.527221679688
0.084,21.866333007812,-5.7205810546875,-16.330932617188
0.0845,20.384887695312,-2.2772216796875,-18.252807617188
0.085,18.503051757812,2.6876220703125,-21.255737304688
0.0855,15.460083007812,7.0919189453125,-22.657104492188
0.086,10.935668945312,11.496215820312,-22.536987304688
0.0865,8.2930908203125,14.579223632812,-22.937377929688
0.087,3.1680908203125,17.902465820312,-21.135620117188
0.0875,-1.1961669921875,20.144653320312,-19.213745117188
0.088,-5.3201904296875,21.986450195312,-17.011596679688
0.0885,-10.244995117188,23.307739257812,-13.568237304688
0.089,-13.728393554688,22.466918945312,-9.3240966796875
0.0895,-17.331909179688,22.627075195312,-5.8807373046875
0.09,-19.734252929688,20.745239257812,-1.5965576171875
0.0905,-22.336791992188,18.903442382812,2.9278564453125
0.091,-22.977416992188,15.740356445312,6.7716064453125
0.0915,-23.337768554688,11.656372070312,11.336059570312
0.092,-23.057495117188,8.5333251953125,14.178833007812
0.0925,-21.936401367188,3.6885986328125,17.942504882812
0.093,-20.014526367188,-0.1551513671875,19.784301757812
0.0935,-17.972534179688,-4.8397216796875,22.426879882812
0.094,-14.369018554688,-9.4842529296875,23.467895507812
0.0945,-9.6844482421875,-13.488159179688,22.787231445312
0.095,-6.6815185546875,-16.651245117188,22.947387695312
0.0955,-1.0760498046875,-19.574096679688,20.384887695312
0.096,3.5284423828125,-21.976440429688,18.342895507812
0.0965,7.3721923828125,-23.057495117188,15.620239257812
0.097,12.296997070312,-24.098510742188,11.776489257812
0.0975,15.460083007812,-23.057495117188,7.6524658203125
0.098,19.343872070312,-22.697143554688,3.4483642578125
0.0985,21.305786132812,-20.374877929688,-0.9158935546875
0.099,23.868286132812,-18.332885742188,-5.5203857421875
0.0995,23.868286132812,-14.689331054688,-9.2440185546875
0.1,23.828247070312,-10.445190429688,-13.448120117188
0.1005,23.507934570312,-7.3221435546875,-16.290893554688
0.101,21.586059570312,-1.9969482421875,-19.734252929688
0.1015,19.383911132812,2.2471923828125,-21.776245117188
0.102,16.781372070312,6.7716064453125,-23.698120117188
0.1025,12.817504882812,11.536254882812,-24.418823242188
0.103,8.1329345703125,15.139770507812,-23.337768554688
0.1035,4.7696533203125,18.302856445312,-23.217651367188
0.104,-0.9158935546875,20.785278320312,-20.214721679688
0.1045,-5.4002685546875,23.307739257812,-18.292846679688
0.105,-9.5643310546875,23.628051757812,-14.529174804688
0.1055,-14.048706054688,24.348754882812,-10.845581054688
0.106,-17.051635742188,23.227661132812,-6.7615966796875
0.1065,-20.655151367188,22.266723632812,-2.2371826171875
0.107,-22.296752929688,19.704223632812,2.0469970703125
0.1075,-24.418823242188,17.301879882812,6.6915283203125
0.108,-24.098510742188,13.097778320312,10.575317382812
0.1085,-23.738159179688,8.8135986328125,14.539184570312
0.109,-23.377807617188,5.8106689453125,17.301879882812
0.1095,-21.015502929688,0.4053955078125,20.304809570312
0.11,-18.933471679688,-3.9188232421875,22.546997070312
0.1105,-15.570190429688,-8.3631591796875,23.547973632812
0.111,-11.846557617188,-12.807495117188,24.308715820312
0.1115,-7.0418701171875,-16.170776367188,22.827270507812
0.112,-3.1981201171875,-19.213745117188,22.106567382812
0.1125,2.2471923828125,-21.495971679688,18.943481445312
0.113,6.6114501953125,-23.858276367188,17.101684570312
0.1135,10.935668945312,-23.698120117188,12.617309570312
0.114,14.859497070312,-23.978393554688,9.2540283203125
0.1145,17.942504882812,-23.097534179688,5.3702392578125
0.115,21.225708007812,-21.495971679688,0.4454345703125
0.1155,22.827270507812,-19.053588867188,-3.7586669921875
0.116,24.348754882812,-16.210815429688,-8.1629638671875
0.1165,24.188598632812,-12.327026367188,-11.926635742188
0.117,23.347778320312,-7.8026123046875,-15.650268554688
0.1175,22.907348632812,-4.8397216796875,-18.212768554688
0.118,20.184692382812,0.8458251953125,-21.095581054688
0.1185,18.222778320312,5.0899658203125,-23.417846679688
0.119,13.818481445312,9.7745361328125,-23.698120117188
0.1195,10.615356445312,13.698364257812,-24.378784179688
0.12,5.8907470703125,17.021606445312,-23.017456054688
0.1205,1.5665283203125,19.784301757812,-21.656127929688
0.121,-3.4783935546875,21.906372070312,-18.893432617188
0.1215,-8.0828857421875,24.148559570312,-16.531127929688
0.122,-12.367065429688,23.828247070312,-11.886596679688
0.1225,-16.090698242188,23.748168945312,-8.2030029296875
0.123,-18.973510742188,22.987426757812,-4.5994873046875
0.1235,-21.976440429688,20.905395507812,0.6055908203125
0.124,-23.497924804688,18.342895507812,4.6495361328125
0.1245,-24.498901367188,14.739379882812,9.3741455078125
0.125,-24.378784179688,11.135864257812,12.897583007812
0.1255,-23.377807617188,6.3712158203125,16.661254882812
0.126,-22.496948242188,3.1680908203125,19.023559570312
0.1265,-19.894409179688,-2.4373779296875,21.906372070312
0.127,-17.492065429688,-7.0418701171875,24.148559570312
0.1275,-12.647338867188,-11.686401367188,23.908325195312
0.128,-9.4442138671875,-15.289916992188,24.348754882812
0.1285,-4.5194091796875,-18.613159179688,22.747192382812
0.129,0.6055908203125,-21.455932617188,20.625122070312
0.1295,5.0499267578125,-23.257690429688,18.062622070312
0.13,10.214965820312,-25.019409179688,14.859497070312
0.1305,14.098754882812,-24.338745117188,10.415161132812
0.131,17.982543945312,-24.098510742188,6.2911376953125
0.1315,20.745239257812,-22.817260742188,2.2872314453125
0.132,23.708129882812,-20.535034179688,-3.1580810546875
0.1325,24.829223632812,-17.532104492188,-7.2420654296875
0.133,25.309692382812,-13.408081054688,-11.966674804688
0.1335,24.989379882812,-9.9647216796875,-15.129760742188
0.134,23.668090820312,-4.7996826171875,-18.973510742188
0.1345,21.946411132812,-0.8758544921875,-21.215698242188
0.135,19.343872070312,4.5294189453125,-23.898315429688
0.1355,15.940551757812,9.5743408203125,-25.579956054688
0.136,10.855590820312,13.978637695312,-24.859252929688
0.1365,7.5323486328125,17.421997070312,-24.979370117188
0.137,2.2471923828125,20.464965820312,-22.937377929688
0.1375,-3.0780029296875,23.347778320312,-20.414916992188
0.138,-7.3621826171875,24.508911132812,-17.572143554688
0.1385,-12.807495117188,25.910278320312,-13.568237304688
0.139,-16.170776367188,24.829223632812,-9.2440185546875
0.1395,-20.214721679688,24.348754882812,-4.6795654296875
0.14,-22.296752929688,22.266723632812,-0.5555419921875
0.1405,-25.059448242188,19.824340820312,4.7696533203125
0.141,-25.499877929688,16.140747070312,8.9737548828125
0.1415,-25.539916992188,11.496215820312,13.658325195312
0.142,-25.179565429688,8.1729736328125,16.661254882812
0.1425,-23.417846679688,2.8477783203125,20.264770507812
0.143,-21.295776367188,-1.4364013671875,22.346801757812
0.1435,-18.613159179688,-6.3211669921875,24.508911132812
0.144,-14.689331054688,-11.446166992188,25.750122070312
0.1445,-9.6844482421875,-15.369995117188,24.508911132812
0.145,-5.9207763671875,-18.893432617188,24.388793945312
0.1455,-0.5955810546875,-21.415893554688,21.465942382812
0.146,4.7696533203125,-24.058471679688,19.223754882812
0.1465,8.6934814453125,-24.699096679688,15.980590820312
0.147,14.058715820312,-25.619995117188,11.656372070312
0.1475,16.981567382812,-24.659057617188,7.8126220703125
0.148,21.105590820312,-23.778198242188,2.8477783203125
0.1485,22.787231445312,-21.415893554688,-1.2762451171875
0.149,25.309692382812,-18.973510742188,-6.2410888671875
0.1495,25.509887695312,-15.089721679688,-10.405151367188
0.15,24.989379882812,-10.565307617188,-14.569213867188
0.1505,24.789184570312,-7.3221435546875,-17.572143554688
0.151,22.506958007812,-1.9969482421875,-20.655151367188
0.1515,20.384887695312,2.6075439453125,-23.057495117188
0.152,17.301879882812,7.0919189453125,-24.458862304688
0.1525,13.097778320312,12.296997070312,-25.619995117188
0.153,8.5733642578125,15.740356445312,-24.378784179688
0.1535,4.3692626953125,19.223754882812,-24.058471679688
0.154,-0.5155029296875,21.305786132812,-21.095581054688
0.1545,-5.6405029296875,24.268676757812,-18.973510742188
0.155,-9.8846435546875,24.468872070312,-15.089721679688
0.1555,-14.769409179688,25.109497070312,-10.885620117188
0.156,-17.612182617188,24.348754882812,-7.4022216796875
0.1565,-21.335815429688,23.027465820312,-2.2772216796875
0.157,-23.017456054688,20.545043945312,1.9268798828125
0.1575,-25.019409179688,17.902465820312,6.6514892578125
0.158,-25.219604492188,13.698364257812,11.095825195312
0.1585,-24.498901367188,9.2139892578125,14.939575195312
0.159,-24.378784179688,5.9307861328125,18.102661132812
0.1595,-21.816284179688,0.7657470703125,20.785278320312
0.16,-19.894409179688,-4.0389404296875,23.628051757812
0.1605,-16.090698242188,-8.4031982421875,24.188598632812
0.161,-12.206909179688,-13.528198242188,25.269653320312
0.1615,-7.6424560546875,-16.691284179688,24.068481445312
0.162,-2.9979248046875,-20.214721679688,22.987426757812
0.1625,2.0870361328125,-22.096557617188,19.824340820312
0.163,7.0518798828125,-24.859252929688,17.822387695312
0.1635,11.456176757812,-24.659057617188,13.257934570312
0.164,15.820434570312,-24.979370117188,9.2540283203125
0.1645,18.903442382812,-24.378784179688,5.6505126953125
0.165,22.386840820312,-22.456909179688,0.2452392578125
0.1655,24.228637695312,-19.854370117188,-4.3192138671875
0.166,25.589965820312,-16.691284179688,-8.8436279296875
0.1665,25.630004882812,-12.647338867188,-13.127807617188
0.167,24.629028320312,-7.9627685546875,-16.811401367188
0.1675,24.068481445312,-4.3592529296875,-19.854370117188
0.168,21.105590820312,1.2462158203125,-22.376831054688
0.1685,19.103637695312,6.2110595703125,-25.299682617188
0.169,14.138793945312,10.775512695312,-25.019409179688
0.1695,10.575317382812,15.339965820312,-25.900268554688
0.17,5.8507080078125,18.463012695312,-24.418823242188
0.1705,0.7657470703125,21.746215820312,-22.657104492188
0.171,-4.3192138671875,23.547973632812,-19.534057617188
0.1715,-9.5643310546875,26.030395507812,-16.931518554688
0.172,-13.888549804688,25.309692382812,-12.006713867188
0.1725,-17.892456054688,25.149536132812,-7.8426513671875
0.173,-20.815307617188,24.308715820312,-4.0789794921875
0.1735,-23.738159179688,21.786254882812,1.4063720703125
0.174,-25.419799804688,18.903442382812,6.0509033203125
0.1745,-26.020385742188,14.819458007812,10.815551757812
0.175,-25.980346679688,10.975708007812,14.659301757812
0.1755,-24.699096679688,6.0509033203125,18.302856445312
0.176,-23.578002929688,2.2471923828125,21.025512695312
0.1765,-20.575073242188,-3.3582763671875,23.347778320312
0.177,-18.012573242188,-8.4031982421875,25.990356445312
0.1775,-12.607299804688,-12.927612304688,25.149536132812
0.178,-9.0037841796875,-16.891479492188,25.549926757812
