wavelength,x,y,z
0.0,5.935791015625,-10.119873046875,4.134033203125
0.0005,7.096923828125,-9.679443359375,2.572509765625
0.001,7.937744140625,-8.918701171875,0.970947265625
0.0015,8.618408203125,-7.837646484375,-0.830810546875
0.002,9.218994140625,-6.436279296875,-2.712646484375
0.0025,9.819580078125,-5.195068359375,-4.594482421875
0.003,9.579345703125,-3.713623046875,-5.795654296875
0.0035,9.138916015625,-1.991943359375,-7.116943359375
0.004,8.137939453125,-0.310302734375,-7.837646484375
0.0045,7.136962890625,1.571533203125,-8.678466796875
0.005,5.615478515625,3.773681640625,-9.279052734375
0.0055,4.093994140625,5.455322265625,-9.559326171875
0.006,2.252197265625,6.696533203125,-8.958740234375
0.0065,0.730712890625,7.697509765625,-8.478271484375
0.007,-0.990966796875,8.378173828125,-7.637451171875
0.0075,-2.712646484375,9.018798828125,-6.476318359375
0.008,-4.554443359375,9.619384765625,-5.275146484375
0.0085,-5.755615234375,9.259033203125,-3.793701171875
0.009,-6.876708984375,8.818603515625,-2.312255859375
0.0095,-7.557373046875,7.977783203125,-0.750732421875
0.01,-8.197998046875,6.936767578125,1.010986328125
0.0105,-8.798583984375,5.695556640625,2.852783203125
0.011,-9.279052734375,4.574462890625,4.454345703125
0.0115,-8.998779296875,3.173095703125,5.575439453125
0.012,-8.478271484375,1.411376953125,6.736572265625
0.0125,-7.717529296875,-0.190185546875,7.617431640625
0.013,-6.596435546875,-2.031982421875,8.298095703125
0.0135,-5.275146484375,-4.033935546875,9.018798828125
0.014,-3.713623046875,-5.475341796875,8.898681640625
0.0145,-2.112060546875,-6.716552734375,8.578369140625
0.015,-0.670654296875,-7.637451171875,8.097900390625
0.0155,0.970947265625,-8.438232421875,7.377197265625
0.016,2.692626953125,-9.118896484375,6.296142578125
0.0165,4.334228515625,-9.639404296875,5.255126953125
0.017,5.375244140625,-9.319091796875,3.893798828125
0.0175,6.536376953125,-8.958740234375,2.372314453125
0.018,7.297119140625,-8.117919921875,0.930908203125
0.0185,8.057861328125,-7.197021484375,-0.870849609375
0.019,8.778564453125,-6.156005859375,-2.592529296875
0.0195,9.058837890625,-5.114990234375,-3.993896484375
0.02,8.938720703125,-3.713623046875,-5.275146484375
0.0205,8.298095703125,-1.951904296875,-6.276123046875
0.021,7.657470703125,-0.350341796875,-7.277099609375
0.0215,6.536376953125,1.531494140625,-7.997802734375
0.022,5.455322265625,3.373291015625,-8.798583984375
0.0225,3.893798828125,4.654541015625,-8.518310546875
0.023,2.412353515625,5.975830078125,-8.318115234375
0.0235,0.970947265625,6.856689453125,-7.837646484375
0.024,-0.670654296875,7.697509765625,-7.156982421875
0.0245,-2.352294921875,8.378173828125,-6.276123046875
0.025,-3.793701171875,8.698486328125,-5.235107421875
0.0255,-4.874755859375,8.498291015625,-3.993896484375
0.026,-5.955810546875,8.177978515625,-2.432373046875
0.0265,-6.796630859375,7.417236328125,-0.910888671875
0.027,-7.557373046875,6.536376953125,0.810791015625
0.0275,-8.398193359375,5.735595703125,2.412353515625
0.028,-8.558349609375,4.654541015625,3.653564453125
0.0285,-8.438232421875,3.133056640625,5.094970703125
0.029,-7.917724609375,1.571533203125,6.095947265625
0.0295,-7.237060546875,-0.190185546875,7.177001953125
0.03,-6.196044921875,-2.031982421875,7.977783203125
0.0305,-5.074951171875,-3.753662109375,8.498291015625
0.031,-3.553466796875,-4.994873046875,8.298095703125
0.0315,-2.112060546875,-6.356201171875,8.177978515625
0.032,-0.630615234375,-7.277099609375,7.737548828125
0.0325,1.010986328125,-8.197998046875,7.016845703125
0.033,2.732666015625,-9.078857421875,6.216064453125
0.0335,4.053955078125,-9.118896484375,4.974853515625
0.034,5.295166015625,-8.958740234375,3.653564453125
0.0345,6.336181640625,-8.398193359375,2.052001953125
0.035,7.297119140625,-7.717529296875,0.490478515625
0.0355,8.097900390625,-6.796630859375,-1.351318359375
0.036,8.898681640625,-5.955810546875,-2.952880859375
0.0365,8.858642578125,-4.634521484375,-4.234130859375
0.037,8.578369140625,-2.952880859375,-5.635498046875
0.0375,7.977783203125,-1.351318359375,-6.596435546875
0.038,7.136962890625,0.530517578125,-7.637451171875
0.0385,6.055908203125,2.532470703125,-8.518310546875
0.039,4.614501953125,4.134033203125,-8.718505859375
0.0395,3.012939453125,5.495361328125,-8.478271484375
0.04,1.531494140625,6.656494140625,-8.157958984375
0.0405,-0.150146484375,7.537353515625,-7.557373046875
0.041,-1.951904296875,8.298095703125,-6.596435546875
0.0415,-3.673583984375,9.018798828125,-5.715576171875
0.042,-4.834716796875,8.778564453125,-4.154052734375
0.0425,-6.156005859375,8.578369140625,-2.712646484375
0.043,-6.916748046875,7.697509765625,-1.071044921875
0.0435,-7.797607421875,6.896728515625,0.690673828125
0.044,-8.638427734375,5.775634765625,2.572509765625
0.0445,-8.998779296875,4.654541015625,4.134033203125
0.045,-8.838623046875,3.133056640625,5.415283203125
0.0455,-8.318115234375,1.371337890625,6.696533203125
0.046,-7.557373046875,-0.350341796875,7.537353515625
0.0465,-6.396240234375,-2.312255859375,8.378173828125
0.047,-5.034912109375,-4.474365234375,9.138916015625
0.0475,-3.233154296875,-5.835693359375,8.818603515625
0.048,-1.711669921875,-7.156982421875,8.658447265625
0.0485,0.010009765625,-8.117919921875,7.977783203125
0.049,1.651611328125,-8.958740234375,7.136962890625
0.0495,3.653564453125,-9.719482421875,5.935791015625
0.05,5.295166015625,-9.959716796875,4.654541015625
0.0505,6.416259765625,-9.439208984375,3.012939453125
0.051,7.537353515625,-8.958740234375,1.451416015625
0.0515,8.218017578125,-7.837646484375,-0.390380859375
0.052,8.978759765625,-6.756591796875,-2.192138671875
0.0525,9.739501953125,-5.515380859375,-4.234130859375
0.053,9.539306640625,-3.913818359375,-5.595458984375
0.0535,9.138916015625,-2.272216796875,-6.916748046875
0.054,8.258056640625,-0.470458984375,-7.717529296875
0.0545,7.217041015625,1.411376953125,-8.558349609375
0.055,5.735595703125,3.533447265625,-9.279052734375
0.0555,4.214111328125,5.495361328125,-9.719482421875
0.056,2.252197265625,6.696533203125,-8.918701171875
0.0565,0.730712890625,7.857666015625,-8.678466796875
0.057,-1.071044921875,8.498291015625,-7.637451171875
0.0575,-2.832763671875,9.098876953125,-6.556396484375
0.058,-4.834716796875,9.859619140625,-5.275146484375
0.0585,-6.115966796875,9.579345703125,-3.673583984375
0.059,-7.197021484375,8.938720703125,-2.031982421875
0.0595,-7.997802734375,8.097900390625,-0.430419921875
0.06,-8.518310546875,6.856689453125,1.371337890625
0.0605,-9.078857421875,5.655517578125,3.173095703125
0.061,-9.679443359375,4.334228515625,5.054931640625
0.0615,-9.118896484375,2.692626953125,6.135986328125
0.062,-8.678466796875,1.010986328125,7.377197265625
0.0625,-7.637451171875,-0.750732421875,8.017822265625
0.063,-6.516357421875,-2.552490234375,8.738525390625
0.0635,-5.034912109375,-4.634521484375,9.339111328125
0.064,-3.353271484375,-6.236083984375,9.259033203125
0.0645,-1.591552734375,-7.317138671875,8.658447265625
0.065,-0.150146484375,-8.318115234375,8.258056640625
0.0655,1.571533203125,-8.958740234375,7.177001953125
0.066,3.213134765625,-9.479248046875,6.176025390625
0.0665,5.094970703125,-10.119873046875,4.974853515625
0.067,6.135986328125,-9.479248046875,3.373291015625
0.0675,7.257080078125,-9.078857421875,1.931884765625
0.068,7.817626953125,-8.077880859375,0.290283203125
0.0685,8.538330078125,-7.076904296875,-1.431396484375
0.069,9.138916015625,-5.955810546875,-3.193115234375
0.0695,9.459228515625,-4.674560546875,-4.794677734375
0.07,8.978759765625,-3.113037109375,-5.835693359375
0.0705,8.458251953125,-1.471435546875,-6.996826171875
0.071,7.457275390625,0.250244140625,-7.637451171875
0.0715,6.496337890625,1.931884765625,-8.398193359375
0.072,5.175048828125,3.973876953125,-9.078857421875
0.0725,3.493408203125,5.215087890625,-8.758544921875
0.073,1.931884765625,6.416259765625,-8.398193359375
0.0735,0.530517578125,7.217041015625,-7.877685546875
0.074,-1.151123046875,8.017822265625,-7.076904296875
0.0745,-2.712646484375,8.658447265625,-6.156005859375
0.075,-4.234130859375,9.058837890625,-5.034912109375
0.0755,-5.195068359375,8.538330078125,-3.593505859375
0.076,-6.396240234375,8.258056640625,-2.112060546875
0.0765,-6.996826171875,7.297119140625,-0.630615234375
0.077,-7.797607421875,6.536376953125,1.010986328125
0.0775,-8.478271484375,5.535400390625,2.692626953125
0.078,-8.678466796875,4.414306640625,3.973876953125
0.0785,-8.358154296875,2.892822265625,5.215087890625
0.079,-7.917724609375,1.331298828125,6.336181640625
0.0795,-7.116943359375,-0.350341796875,7.136962890625
0.08,-6.276123046875,-2.031982421875,8.017822265625
0.0805,-4.994873046875,-3.873779296875,8.498291015625
0.081,-3.513427734375,-5.074951171875,8.218017578125
0.0815,-2.072021484375,-6.436279296875,8.177978515625
0.082,-0.630615234375,-7.197021484375,7.657470703125
0.0825,0.970947265625,-8.077880859375,7.056884765625
0.083,2.572509765625,-8.878662109375,6.256103515625
0.0835,3.973876953125,-9.038818359375,5.094970703125
0.084,5.094970703125,-8.758544921875,3.693603515625
0.0845,6.176025390625,-8.358154296875,2.212158203125
0.085,7.016845703125,-7.637451171875,0.690673828125
0.0855,7.897705078125,-6.956787109375,-0.990966796875
0.086,8.658447265625,-6.035888671875,-2.632568359375
0.0865,8.658447265625,-4.834716796875,-3.833740234375
0.087,8.458251953125,-3.193115234375,-5.195068359375
0.0875,7.817626953125,-1.671630859375,-6.196044921875
0.088,7.177001953125,0.050048828125,-7.197021484375
0.0885,6.256103515625,1.851806640625,-8.077880859375
0.089,4.974853515625,3.493408203125,-8.398193359375
0.0895,3.413330078125,4.734619140625,-8.197998046875
0.09,1.971923828125,6.095947265625,-8.037841796875
0.0905,0.490478515625,6.896728515625,-7.437255859375
0.091,-1.111083984375,7.777587890625,-6.876708984375
0.0915,-2.752685546875,8.578369140625,-5.995849609375
0.092,-3.953857421875,8.418212890625,-4.714599609375
0.0925,-5.195068359375,8.258056640625,-3.273193359375
0.093,-6.115966796875,7.657470703125,-1.831787109375
0.0935,-7.036865234375,6.896728515625,-0.190185546875
0.094,-7.877685546875,6.216064453125,1.411376953125
0.0945,-8.478271484375,5.135009765625,3.052978515625
0.095,-8.318115234375,3.893798828125,4.214111328125
0.0955,-8.117919921875,2.252197265625,5.655517578125
0.096,-7.397216796875,0.650634765625,6.536376953125
0.0965,-6.716552734375,-1.151123046875,7.537353515625
0.097,-5.555419921875,-3.072998046875,8.298095703125
0.0975,-4.114013671875,-4.514404296875,8.298095703125
0.098,-2.632568359375,-5.755615234375,8.177978515625
0.0985,-1.231201171875,-6.876708984375,7.897705078125
0.099,0.410400390625,-7.757568359375,7.217041015625
0.0995,2.011962890625,-8.678466796875,6.536376953125
0.1,3.693603515625,-9.198974609375,5.415283203125
0.1005,4.814697265625,-8.878662109375,4.093994140625
0.101,6.095947265625,-8.678466796875,2.532470703125
0.1015,6.896728515625,-7.837646484375,0.970947265625
0.102,7.817626953125,-7.076904296875,-0.710693359375
0.1025,8.658447265625,-6.236083984375,-2.472412109375
0.103,8.858642578125,-4.954833984375,-3.953857421875
0.1035,8.618408203125,-3.433349609375,-5.195068359375
0.104,8.097900390625,-1.791748046875,-6.356201171875
0.1045,7.297119140625,-0.150146484375,-7.237060546875
0.105,6.416259765625,1.731689453125,-8.157958984375
0.1055,5.094970703125,3.693603515625,-8.798583984375
0.106,3.413330078125,5.014892578125,-8.398193359375
0.1065,1.931884765625,6.336181640625,-8.278076171875
0.107,0.370361328125,7.177001953125,-7.637451171875
0.1075,-1.311279296875,8.017822265625,-6.876708984375
0.108,-3.032958984375,8.818603515625,-5.995849609375
0.1085,-4.514404296875,8.938720703125,-4.634521484375
0.109,-5.595458984375,8.498291015625,-3.193115234375
0.1095,-6.716552734375,7.977783203125,-1.591552734375
0.11,-7.357177734375,7.016845703125,0.090087890625
0.1105,-8.197998046875,6.216064453125,1.731689453125
0.111,-8.918701171875,5.094970703125,3.533447265625
0.1115,-8.678466796875,3.653564453125,4.814697265625
0.112,-8.398193359375,2.011962890625,6.135986328125
0.1125,-7.677490234375,0.330322265625,7.056884765625
0.113,-6.716552734375,-1.551513671875,7.857666015625
0.1135,-5.635498046875,-3.393310546875,8.658447265625
0.114,-3.993896484375,-5.155029296875,8.858642578125
0.1145,-2.392333984375,-6.276123046875,8.378173828125
0.115,-0.870849609375,-7.557373046875,8.218017578125
0.1155,0.850830078125,-8.278076171875,7.297119140625
0.116,2.492431640625,-8.998779296875,6.456298828125
0.1165,4.334228515625,-9.719482421875,5.415283203125
0.117,5.535400390625,-9.359130859375,3.813720703125
0.1175,6.696533203125,-8.958740234375,2.292236328125
0.118,7.537353515625,-8.157958984375,0.650634765625
0.1185,8.258056640625,-7.116943359375,-1.151123046875
0.119,8.978759765625,-6.156005859375,-2.832763671875
0.1195,9.459228515625,-4.834716796875,-4.634521484375
0.12,8.978759765625,-3.193115234375,-5.755615234375
0.1205,8.498291015625,-1.551513671875,-7.036865234375
0.121,7.417236328125,0.290283203125,-7.717529296875
0.1215,6.416259765625,2.092041015625,-8.518310546875
0.122,5.094970703125,4.134033203125,-9.239013671875
0.1225,3.333251953125,5.615478515625,-8.958740234375
0.123,1.731689453125,6.696533203125,-8.478271484375
0.1235,0.170166015625,7.737548828125,-7.997802734375
0.124,-1.671630859375,8.418212890625,-6.876708984375
0.1245,-3.273193359375,9.058837890625,-5.995849609375
0.125,-4.994873046875,9.459228515625,-4.714599609375
0.1255,-6.035888671875,8.778564453125,-3.072998046875
0.126,-7.156982421875,8.378173828125,-1.551513671875
0.1265,-7.717529296875,7.217041015625,0.250244140625
0.127,-8.438232421875,6.216064453125,1.931884765625
0.1275,-9.078857421875,5.215087890625,3.613525390625
0.128,-9.118896484375,3.693603515625,5.175048828125
0.1285,-8.558349609375,2.011962890625,6.256103515625
0.129,-8.077880859375,0.330322265625,7.417236328125
0.1295,-6.796630859375,-1.591552734375,7.977783203125
0.13,-5.795654296875,-3.233154296875,8.738525390625
0.1305,-4.314208984375,-5.155029296875,9.178955078125
0.131,-2.552490234375,-6.396240234375,8.658447265625
0.1315,-1.031005859375,-7.557373046875,8.378173828125
0.132,0.650634765625,-8.318115234375,7.577392578125
0.1325,2.372314453125,-8.998779296875,6.576416015625
0.133,4.013916015625,-9.639404296875,5.615478515625
0.1335,5.535400390625,-9.719482421875,4.174072265625
0.134,6.456298828125,-9.078857421875,2.612548828125
0.1345,7.577392578125,-8.558349609375,1.051025390625
0.135,8.097900390625,-7.357177734375,-0.750732421875
0.1355,8.818603515625,-6.436279296875,-2.392333984375
0.136,9.419189453125,-5.315185546875,-4.154052734375
0.1365,9.178955078125,-3.753662109375,-5.435302734375
0.137,8.618408203125,-2.112060546875,-6.556396484375
0.1375,7.817626953125,-0.390380859375,-7.517333984375
0.138,6.696533203125,1.571533203125,-8.197998046875
0.1385,5.655517578125,3.333251953125,-8.918701171875
0.139,4.093994140625,5.054931640625,-9.118896484375
0.1395,2.292236328125,6.176025390625,-8.478271484375
0.14,0.850830078125,7.377197265625,-8.278076171875
0.1405,-0.950927734375,8.017822265625,-7.237060546875
0.141,-2.512451171875,8.698486328125,-6.396240234375
0.1415,-4.154052734375,9.259033203125,-5.355224609375
0.142,-5.395263671875,8.938720703125,-3.833740234375
0.1425,-6.436279296875,8.418212890625,-2.272216796875
0.143,-7.317138671875,7.697509765625,-0.670654296875
0.1435,-7.917724609375,6.536376953125,1.131103515625
0.144,-8.678466796875,5.775634765625,2.612548828125
0.1445,-9.118896484375,4.494384765625,4.334228515625
0.145,-8.678466796875,2.852783203125,5.495361328125
0.1455,-8.278076171875,1.251220703125,6.696533203125
0.146,-7.277099609375,-0.510498046875,7.457275390625
0.1465,-6.316162109375,-2.272216796875,8.298095703125
0.147,-5.114990234375,-4.033935546875,8.858642578125
0.1475,-3.433349609375,-5.595458984375,8.778564453125
0.148,-1.871826171875,-6.716552734375,8.338134765625
0.1485,-0.350341796875,-7.837646484375,7.977783203125
0.149,1.411376953125,-8.478271484375,6.976806640625
0.1495,2.932861328125,-9.198974609375,6.176025390625
0.15,4.614501953125,-9.639404296875,5.014892578125
0.1505,5.735595703125,-9.118896484375,3.413330078125
0.151,6.856689453125,-8.758544921875,1.931884765625
0.1515,7.617431640625,-7.797607421875,0.250244140625
0.152,8.338134765625,-6.876708984375,-1.471435546875
0.1525,9.058837890625,-6.035888671875,-3.072998046875
0.153,9.259033203125,-4.634521484375,-4.634521484375
0.1535,8.698486328125,-2.952880859375,-5.795654296875
0.154,8.258056640625,-1.271240234375,-6.996826171875
0.1545,7.056884765625,0.650634765625,-7.717529296875
0.155,6.176025390625,2.412353515625,-8.558349609375
0.1555,4.814697265625,4.214111328125,-8.998779296875
0.156,3.093017578125,5.535400390625,-8.638427734375
0.1565,1.571533203125,6.696533203125,-8.318115234375
0.157,0.010009765625,7.617431640625,-7.677490234375
0.1575,-1.831787109375,8.298095703125,-6.676513671875
0.158,-3.353271484375,8.978759765625,-5.835693359375
0.1585,-4.874755859375,9.138916015625,-4.514404296875
0.159,-5.875732421875,8.498291015625,-2.912841796875
0.1595,-6.996826171875,8.057861328125,-1.351318359375
0.16,-7.557373046875,6.896728515625,0.410400390625
0.1605,-8.318115234375,6.055908203125,2.052001953125
0.161,-8.958740234375,5.054931640625,3.653564453125
0.1615,-8.838623046875,3.493408203125,5.054931640625
0.162,-8.358154296875,1.931884765625,6.216064453125
0.1625,-7.717529296875,0.170166015625,7.297119140625
0.163,-6.556396484375,-1.751708984375,7.977783203125
0.1635,-5.595458984375,-3.433349609375,8.698486328125
0.164,-3.993896484375,-5.155029296875,8.898681640625
0.1645,-2.392333984375,-6.356201171875,8.418212890625
0.165,-0.830810546875,-7.557373046875,8.218017578125
0.1655,0.930908203125,-8.318115234375,7.297119140625
0.166,2.572509765625,-9.038818359375,6.376220703125
0.1665,4.174072265625,-9.599365234375,5.375244140625
0.167,5.495361328125,-9.439208984375,3.893798828125
0.1675,6.536376953125,-8.878662109375,2.372314453125
0.168,7.537353515625,-8.197998046875,0.690673828125
0.1685,8.177978515625,-7.076904296875,-1.151123046875
0.169,8.938720703125,-6.276123046875,-2.712646484375
0.1695,9.339111328125,-5.074951171875,-4.434326171875
0.17,8.978759765625,-3.313232421875,-5.635498046875
0.1705,8.458251953125,-1.631591796875,-6.796630859375
0.171,7.497314453125,0.210205078125,-7.637451171875
0.1715,6.376220703125,2.132080078125,-8.398193359375
0.172,5.175048828125,3.853759765625,-8.998779296875
0.1725,3.533447265625,5.415283203125,-8.958740234375
0.173,1.891845703125,6.536376953125,-8.398193359375
0.1735,0.290283203125,7.617431640625,-7.997802734375
0.174,-1.591552734375,8.298095703125,-6.836669921875
0.1745,-3.153076171875,8.938720703125,-6.035888671875
0.175,-4.674560546875,9.259033203125,-4.834716796875
0.1755,-5.755615234375,8.818603515625,-3.273193359375
0.176,-6.836669921875,8.258056640625,-1.711669921875
0.1765,-7.597412109375,7.217041015625,0.050048828125
0.177,-8.278076171875,6.135986328125,1.851806640625
0.1775,-8.918701171875,5.295166015625,3.293212890625
0.178,-9.078857421875,3.933837890625,4.894775390625
0.1785,-8.478271484375,2.252197265625,5.975830078125
0.179,-8.077880859375,0.570556640625,7.177001953125
0.1795,-6.756591796875,-1.351318359375,7.857666015625
0.18,-5.795654296875,-3.193115234375,8.658447265625
0.1805,-4.394287109375,-4.874755859375,8.978759765625
0.181,-2.752685546875,-6.196044921875,8.658447265625
0.1815,-1.231201171875,-7.277099609375,8.298095703125
0.182,0.490478515625,-8.278076171875,7.657470703125
0.1825,2.372314453125,-8.958740234375,6.536376953125
0.183,3.853759765625,-9.559326171875,5.655517578125
0.1835,5.335205078125,-9.639404296875,4.334228515625
0.184,6.336181640625,-9.038818359375,2.732666015625
0.1845,7.417236328125,-8.598388671875,1.131103515625
0.185,8.057861328125,-7.397216796875,-0.710693359375
0.1855,8.818603515625,-6.476318359375,-2.432373046875
0.186,9.299072265625,-5.435302734375,-3.913818359375
0.1865,9.259033203125,-3.873779296875,-5.395263671875
0.187,8.538330078125,-2.112060546875,-6.436279296875
0.1875,7.937744140625,-0.390380859375,-7.557373046875
0.188,6.576416015625,1.691650390625,-8.197998046875
