wavelength,x,y,z
0.0,11.611328125,9.12890625,-20.3798828125
0.0005,7.84765625,12.65234375,-20.01953125
0.001,3.3232421875,16.0556640625,-19.0986328125
0.0015,-1.76171875,18.6982421875,-16.9365234375
0.002,-4.884765625,19.8994140625,-15.2548828125
0.0025,-8.0078125,20.4599609375,-12.8525390625
0.003,-10.970703125,20.1796875,-9.849609375
0.0035,-14.7744140625,19.21875,-5.205078125
0.004,-17.8974609375,17.9375,-1.0009765625
0.0045,-20.1396484375,16.015625,3.1630859375
0.005,-21.1005859375,13.93359375,6.2861328125
0.0055,-21.060546875,10.6904296875,9.44921875
0.006,-20.8603515625,7.3671875,12.6123046875
0.0065,-20.1796875,3.0830078125,16.17578125
0.007,-18.4580078125,-1.4814453125,19.0185546875
0.0075,-16.576171875,-4.8447265625,20.5
0.008,-14.2939453125,-8.0078125,21.30078125
0.0085,-10.7705078125,-10.970703125,20.98046875
0.009,-5.92578125,-14.654296875,19.9794921875
0.0095,-1.4013671875,-17.697265625,18.73828125
0.01,3.36328125,-20.01953125,16.576171875
0.0105,6.40625,-20.7802734375,14.57421875
0.011,9.609375,-20.8603515625,11.5712890625
0.0115,12.732421875,-20.5400390625,8.328125
0.012,16.4560546875,-19.37890625,3.68359375
0.0125,19.298828125,-17.5771484375,-1.0009765625
0.013,21.0205078125,-15.6552734375,-4.5244140625
0.0135,21.6611328125,-13.1328125,-7.6875
0.014,21.4208984375,-9.6494140625,-10.890625
0.0145,20.8203125,-5.685546875,-14.333984375
0.015,19.9794921875,-1.6015625,-17.6171875
0.0155,18.0576171875,3.0029296875,-20.2197265625
0.016,15.8154296875,6.0859375,-21.2607421875
0.0165,13.052734375,9.2490234375,-21.62109375
0.017,9.2490234375,12.4921875,-21.2607421875
0.0175,4.1240234375,16.2158203125,-19.939453125
0.018,-0.6806640625,18.9384765625,-18.2177734375
0.0185,-4.724609375,20.7802734375,-16.255859375
0.019,-7.767578125,21.2607421875,-13.8935546875
0.0195,-11.0908203125,20.98046875,-10.5302734375
0.02,-14.5341796875,20.419921875,-6.6865234375
0.0205,-17.9775390625,19.138671875,-2.08203125
0.021,-20.5400390625,16.9365234375,2.6826171875
0.0215,-21.7412109375,14.974609375,6.0859375
0.022,-22.181640625,12.01171875,9.1689453125
0.0225,-21.78125,8.2880859375,12.5322265625
0.023,-20.900390625,3.9638671875,15.9755859375
0.0235,-19.619140625,-0.3203125,18.9384765625
0.024,-17.7373046875,-4.5244140625,21.220703125
0.0245,-15.21484375,-7.4873046875,21.78125
0.025,-11.8916015625,-10.650390625,21.7412109375
0.0255,-7.7275390625,-14.09375,21.1806640625
0.026,-2.5625,-17.5771484375,19.69921875
0.0265,2.4423828125,-19.939453125,17.4169921875
0.027,5.765625,-21.220703125,15.5751953125
0.0275,8.96875,-21.541015625,12.9326171875
0.028,12.2119140625,-21.0205078125,9.3291015625
0.0285,15.6953125,-20.1396484375,5.125
0.029,18.8984375,-18.658203125,0.6005859375
0.0295,21.1005859375,-16.5361328125,-3.84375
0.03,21.78125,-14.09375,-6.7666015625
0.0305,21.94140625,-11.05078125,-10.0498046875
0.031,21.4609375,-7.126953125,-13.453125
0.0315,20.5400390625,-2.8427734375,-16.896484375
0.032,18.6982421875,1.521484375,-19.4189453125
0.0325,16.896484375,5.2451171875,-21.3408203125
0.033,14.09375,8.2880859375,-21.6611328125
0.0335,10.490234375,11.451171875,-21.3408203125
0.034,6.0859375,14.974609375,-20.580078125
0.0345,1.2412109375,18.177734375,-19.21875
0.035,-3.603515625,20.2998046875,-16.7763671875
0.0355,-6.56640625,21.060546875,-14.7744140625
0.036,-9.76953125,21.2607421875,-12.0517578125
0.0365,-13.212890625,20.580078125,-8.087890625
0.037,-16.65625,19.4990234375,-3.8037109375
0.0375,-19.458984375,17.77734375,0.80078125
0.038,-21.5009765625,15.6953125,4.8046875
0.0385,-21.78125,13.0126953125,7.7275390625
0.039,-21.8212890625,9.76953125,11.05078125
0.0395,-21.220703125,5.685546875,14.57421875
0.04,-20.259765625,1.3212890625,17.9775390625
0.0405,-18.2177734375,-3.0029296875,20.2197265625
0.041,-16.255859375,-6.2060546875,21.541015625
0.0415,-13.453125,-9.3291015625,21.9013671875
0.042,-9.208984375,-12.7724609375,21.2607421875
0.0425,-4.6044921875,-16.0556640625,20.1796875
0.043,0.4404296875,-19.05859375,18.41796875
0.0435,4.724609375,-20.98046875,16.3359375
0.044,7.607421875,-21.220703125,13.8935546875
0.0445,10.73046875,-21.30078125,11.05078125
0.045,14.5341796875,-20.5,6.646484375
0.0455,17.8173828125,-19.21875,2.2421875
0.046,20.33984375,-17.2568359375,-2.2421875
0.0465,21.8212890625,-15.2548828125,-5.7255859375
0.047,21.9814453125,-12.2919921875,-8.80859375
0.0475,21.78125,-8.5283203125,-12.3720703125
0.048,20.98046875,-4.564453125,-15.615234375
0.0485,19.69921875,0.0,-18.8583984375
0.049,17.77734375,4.2841796875,-21.0205078125
0.0495,15.134765625,7.1669921875,-21.5810546875
0.05,12.251953125,10.330078125,-21.94140625
0.0505,7.3271484375,14.2138671875,-21.0205078125
0.051,2.72265625,17.3369140625,-19.779296875
0.0515,-2.08203125,19.779296875,-17.697265625
0.052,-5.845703125,21.4208984375,-15.8154296875
0.0525,-8.8486328125,21.30078125,-12.9326171875
0.053,-12.0517578125,21.1005859375,-9.689453125
0.0535,-15.85546875,20.2197265625,-5.2451171875
0.054,-18.8583984375,18.6181640625,-0.4404296875
0.0545,-21.140625,16.4560546875,3.763671875
0.055,-22.0615234375,14.1337890625,6.88671875
0.0555,-22.181640625,11.0908203125,10.08984375
0.056,-21.701171875,6.7666015625,13.8935546875
0.0565,-20.7802734375,2.8427734375,17.0166015625
0.057,-19.21875,-1.6015625,19.779296875
0.0575,-17.1767578125,-5.525390625,21.78125
0.058,-14.2138671875,-8.408203125,21.78125
0.0585,-11.2109375,-11.4912109375,21.9013671875
0.059,-6.005859375,-15.455078125,20.900390625
0.0595,-0.9609375,-18.578125,19.21875
0.06,3.443359375,-20.5400390625,17.0166015625
0.0605,6.88671875,-21.78125,15.0947265625
0.061,10.009765625,-21.6611328125,12.091796875
0.0615,13.533203125,-21.060546875,8.1279296875
0.062,16.9365234375,-20.1396484375,4.00390625
0.0625,19.9794921875,-18.2578125,-0.9609375
0.063,21.78125,-16.095703125,-4.8046875
0.0635,22.1416015625,-13.3330078125,-7.927734375
0.064,22.26171875,-10.3701171875,-11.05078125
0.0645,21.541015625,-5.5654296875,-15.0947265625
0.065,20.3798828125,-1.4013671875,-18.2177734375
0.0655,18.498046875,2.802734375,-20.4599609375
0.066,16.5361328125,6.40625,-22.1015625
0.0665,13.0927734375,9.44921875,-21.8212890625
0.067,9.2890625,12.8125,-21.541015625
0.0675,4.5244140625,16.4560546875,-20.580078125
0.068,-0.880859375,19.4990234375,-18.5380859375
0.0685,-4.8447265625,21.1005859375,-16.416015625
0.069,-8.0078125,21.701171875,-14.09375
0.0695,-11.0908203125,21.6611328125,-11.2109375
0.07,-15.0947265625,20.6201171875,-6.3662109375
0.0705,-18.2578125,19.37890625,-2.08203125
0.071,-20.7802734375,17.4169921875,2.4423828125
0.0715,-22.3017578125,15.294921875,6.0458984375
0.072,-22.2216796875,12.091796875,9.1689453125
0.0725,-22.2216796875,8.728515625,12.4921875
0.073,-21.4208984375,4.1640625,16.255859375
0.0735,-19.9794921875,-0.400390625,19.37890625
0.074,-17.8173828125,-4.32421875,21.140625
0.0745,-15.6953125,-7.447265625,22.3017578125
0.075,-12.33203125,-10.6103515625,22.1416015625
0.0755,-7.4072265625,-14.4140625,21.1806640625
0.076,-2.9228515625,-17.6171875,20.099609375
0.0765,2.2421875,-20.259765625,17.8974609375
0.077,5.9658203125,-21.62109375,15.8154296875
0.0775,9.0888671875,-21.62109375,12.892578125
0.078,12.171875,-21.5810546875,9.9697265625
0.0785,16.2158203125,-20.4599609375,4.96484375
0.079,19.2587890625,-18.73828125,0.2802734375
0.0795,21.220703125,-16.6962890625,-3.6435546875
0.08,22.341796875,-14.4541015625,-6.9267578125
0.0805,22.0615234375,-11.0908203125,-10.08984375
0.081,21.6611328125,-7.1669921875,-13.693359375
0.0815,20.8603515625,-3.04296875,-17.0166015625
0.082,19.138671875,1.681640625,-19.939453125
0.0825,16.896484375,5.4052734375,-21.4609375
0.083,14.1337890625,8.4482421875,-21.861328125
0.0835,11.0908203125,11.451171875,-21.94140625
0.084,5.5654296875,15.615234375,-20.6201171875
0.0845,0.9609375,18.4580078125,-19.1787109375
0.085,-3.4833984375,20.5,-17.13671875
0.0855,-6.9267578125,21.62109375,-15.0146484375
0.086,-10.1298828125,21.2607421875,-11.69140625
0.0865,-13.3330078125,20.900390625,-8.328125
0.087,-17.0166015625,19.859375,-3.7236328125
0.0875,-19.939453125,17.7373046875,1.28125
0.088,-21.4208984375,15.6552734375,4.7646484375
0.0885,-22.021484375,13.0927734375,7.927734375
0.089,-21.8212890625,9.9697265625,10.8505859375
0.0895,-21.1005859375,5.4052734375,14.7744140625
0.09,-20.1396484375,1.3212890625,17.8173828125
0.0905,-18.3779296875,-2.9228515625,20.33984375
0.091,-16.2958984375,-6.3662109375,21.7412109375
0.0915,-12.97265625,-9.369140625,21.5009765625
0.092,-9.76953125,-12.412109375,21.4609375
0.0925,-4.4443359375,-16.5361328125,20.1796875
0.093,0.7607421875,-19.0986328125,18.09765625
0.0935,4.32421875,-20.580078125,16.3359375
0.094,7.607421875,-21.4208984375,14.09375
0.0945,10.6103515625,-21.0205078125,10.890625
0.095,14.25390625,-20.2197265625,6.56640625
0.0955,17.537109375,-19.1787109375,2.40234375
0.096,20.1396484375,-17.13671875,-2.2421875
0.0965,21.2607421875,-15.0546875,-5.3251953125
0.097,21.4609375,-12.091796875,-8.408203125
0.0975,21.3408203125,-8.7685546875,-11.3310546875
0.098,20.5400390625,-4.4443359375,-15.3349609375
0.0985,19.05859375,-0.1201171875,-18.177734375
0.099,17.296875,3.603515625,-20.1396484375
0.0995,15.2548828125,6.806640625,-21.3408203125
0.1,11.8115234375,9.849609375,-20.98046875
0.1005,7.767578125,13.3330078125,-20.5
0.101,3.1630859375,16.65625,-19.4990234375
0.1015,-1.9619140625,19.21875,-17.2568359375
0.102,-5.0849609375,20.33984375,-15.4150390625
0.1025,-8.2080078125,20.7802734375,-12.97265625
0.103,-11.2509765625,20.4599609375,-9.8896484375
0.1035,-15.0947265625,19.458984375,-5.1650390625
0.104,-18.09765625,18.0576171875,-0.8408203125
0.1045,-20.2197265625,16.1357421875,3.1630859375
0.105,-21.1005859375,13.9736328125,6.0859375
0.1055,-21.0205078125,10.810546875,9.2490234375
0.106,-20.8203125,7.3271484375,12.4921875
0.1065,-20.1796875,3.1630859375,16.0556640625
0.107,-18.4580078125,-1.3212890625,18.818359375
0.1075,-16.6162109375,-4.64453125,20.33984375
0.108,-14.3740234375,-7.6474609375,21.140625
0.1085,-10.9306640625,-10.650390625,20.8603515625
0.109,-6.0859375,-14.4140625,19.859375
0.1095,-1.5615234375,-17.45703125,18.6181640625
0.11,3.0029296875,-19.6591796875,16.6162109375
0.1105,6.0458984375,-20.5,14.6142578125
0.111,9.12890625,-20.5,11.69140625
0.1115,12.2919921875,-20.2197265625,8.4482421875
0.112,15.9755859375,-19.0986328125,4.1240234375
0.1125,18.73828125,-17.3369140625,-0.6806640625
0.113,20.419921875,-15.455078125,-3.9638671875
0.1135,20.98046875,-13.1328125,-7.0869140625
0.114,20.740234375,-9.8896484375,-10.0498046875
0.1145,20.1796875,-5.845703125,-13.61328125
0.115,19.4189453125,-1.921875,-16.736328125
0.1155,17.6572265625,2.40234375,-19.2587890625
0.116,15.615234375,5.4453125,-20.33984375
0.1165,12.892578125,8.4482421875,-20.66015625
0.117,9.44921875,11.7314453125,-20.2197265625
0.1175,4.404296875,15.294921875,-19.298828125
0.118,-0.3203125,17.9375,-17.537109375
0.1185,-3.8837890625,19.6591796875,-15.8955078125
0.119,-6.9267578125,20.2998046875,-13.6533203125
0.1195,-9.9697265625,19.9794921875,-10.5703125
0.12,-13.533203125,19.458984375,-6.7666015625
0.1205,-16.6962890625,18.2978515625,-2.5224609375
0.121,-19.2587890625,16.3759765625,2.1220703125
0.1215,-20.259765625,14.4140625,4.884765625
0.122,-20.7001953125,11.8115234375,7.9677734375
0.1225,-20.5,8.568359375,11.0107421875
0.123,-19.8193359375,4.32421875,14.57421875
0.1235,-18.578125,0.3203125,17.4169921875
0.124,-17.0166015625,-3.4833984375,19.5791015625
0.1245,-14.89453125,-6.3662109375,20.3798828125
0.125,-11.771484375,-9.2890625,20.2998046875
0.1255,-7.927734375,-12.6923828125,19.939453125
0.126,-3.0830078125,-16.0556640625,18.6982421875
0.1265,1.6416015625,-18.41796875,16.6162109375
0.127,4.6044921875,-19.619140625,15.0546875
0.1275,7.6474609375,-20.099609375,12.732421875
0.128,10.6904296875,-19.7392578125,9.4892578125
0.1285,14.1337890625,-18.9384765625,5.4453125
0.129,17.13671875,-17.77734375,1.201171875
0.1295,19.3388671875,-15.8154296875,-2.8427734375
0.13,19.9794921875,-13.6533203125,-5.525390625
0.1305,20.1796875,-10.8505859375,-8.568359375
0.131,19.939453125,-7.3671875,-11.8115234375
0.1315,19.2587890625,-3.283203125,-15.21484375
0.132,17.6572265625,0.8408203125,-17.7373046875
0.1325,16.1357421875,4.083984375,-19.4189453125
0.133,13.7734375,6.966796875,-20.099609375
0.1335,10.490234375,9.9296875,-19.8193359375
0.134,6.24609375,13.3330078125,-19.1787109375
0.1345,1.7216796875,16.49609375,-17.9375
0.135,-2.642578125,18.578125,-15.9755859375
0.1355,-5.4052734375,19.298828125,-14.1337890625
0.136,-8.328125,19.5791015625,-11.69140625
0.1365,-11.5712890625,19.138671875,-8.2080078125
0.137,-14.89453125,18.2978515625,-4.083984375
0.1375,-17.5771484375,16.65625,0.16015625
0.138,-19.458984375,14.9345703125,3.6435546875
0.1385,-19.8994140625,12.6123046875,6.40625
0.139,-19.939453125,9.609375,9.44921875
0.1395,-19.5390625,5.8857421875,12.732421875
0.14,-18.818359375,1.921875,16.015625
0.1405,-17.0966796875,-2.08203125,18.2978515625
0.141,-15.4150390625,-4.8447265625,19.4189453125
0.1415,-12.97265625,-7.7275390625,19.939453125
0.142,-9.1689453125,-11.0107421875,19.4990234375
0.1425,-4.7646484375,-14.25390625,18.498046875
0.143,-0.3203125,-16.9765625,16.9365234375
0.1435,3.4833984375,-18.8984375,15.3349609375
0.144,6.2060546875,-19.21875,13.2529296875
0.1445,9.0087890625,-19.298828125,10.650390625
0.145,12.412109375,-18.8984375,6.88671875
0.1455,15.6552734375,-17.7373046875,2.7626953125
0.146,17.9375,-16.015625,-1.28125
0.1465,19.2587890625,-14.2939453125,-4.1640625
0.147,19.619140625,-11.8515625,-7.0068359375
0.1475,19.458984375,-8.4482421875,-10.25
0.148,18.8984375,-4.8046875,-13.373046875
0.1485,17.8974609375,-0.880859375,-16.2958984375
0.149,16.2958984375,2.8828125,-18.4580078125
0.1495,14.2138671875,5.525390625,-18.978515625
0.15,11.7314453125,8.248046875,-19.37890625
0.1505,7.607421875,11.771484375,-18.9384765625
0.151,3.2431640625,14.8544921875,-17.8173828125
0.1515,-1.0009765625,17.0966796875,-16.015625
0.152,-4.00390625,18.5380859375,-14.6142578125
0.1525,-6.56640625,18.818359375,-12.4521484375
0.153,-9.689453125,18.498046875,-9.44921875
0.1535,-13.052734375,18.017578125,-5.7255859375
0.154,-16.015625,16.736328125,-1.5615234375
0.1545,-18.1376953125,15.0546875,2.2421875
0.155,-18.8984375,13.1728515625,4.8046875
0.1555,-19.21875,10.73046875,7.52734375
0.156,-18.978515625,7.0869140625,11.0107421875
0.1565,-18.3779296875,3.4833984375,14.09375
0.157,-17.13671875,-0.2802734375,16.5361328125
0.1575,-15.775390625,-3.5234375,18.41796875
0.158,-13.453125,-6.1259765625,18.818359375
0.1585,-10.6103515625,-8.9287109375,18.818359375
0.159,-6.486328125,-12.33203125,18.2978515625
0.1595,-2.001953125,-15.4150390625,17.0166015625
0.16,1.921875,-17.376953125,15.3349609375
0.1605,4.5244140625,-18.2978515625,13.853515625
0.161,7.3271484375,-18.658203125,11.5712890625
0.1615,10.5703125,-18.2177734375,8.087890625
0.162,13.6533203125,-17.6171875,4.5244140625
0.1625,16.3359375,-16.2158203125,0.640625
0.163,18.2177734375,-14.7744140625,-2.7626953125
0.1635,18.6982421875,-12.2919921875,-5.2451171875
0.164,18.8583984375,-9.8896484375,-8.16796875
0.1645,18.5380859375,-6.2060546875,-11.611328125
0.165,17.8974609375,-2.4423828125,-14.7744140625
0.1655,16.3359375,1.28125,-16.8564453125
0.166,14.974609375,4.083984375,-18.337890625
0.1665,12.4921875,6.88671875,-18.73828125
0.167,8.9287109375,10.0498046875,-18.4580078125
0.1675,5.0849609375,13.1328125,-17.8974609375
0.168,0.6005859375,15.9755859375,-16.3759765625
0.1685,-3.0029296875,17.7373046875,-14.8544921875
0.169,-5.525390625,18.177734375,-12.97265625
0.1695,-8.2080078125,18.5380859375,-10.7705078125
0.17,-11.931640625,17.9775390625,-6.7265625
0.1705,-14.89453125,17.0166015625,-2.8828125
0.171,-17.2568359375,15.53515625,0.9208984375
0.1715,-18.8583984375,13.9736328125,3.9638671875
0.172,-18.9384765625,11.611328125,6.7666015625
0.1725,-19.0986328125,8.2880859375,9.8896484375
0.173,-18.658203125,4.7646484375,13.0927734375
0.1735,-17.697265625,0.7607421875,16.095703125
0.174,-16.095703125,-2.8427734375,18.0576171875
0.1745,-14.25390625,-5.4453125,18.8984375
0.175,-11.8515625,-8.2080078125,19.298828125
0.1755,-7.3271484375,-11.8916015625,18.6181640625
0.176,-3.203125,-14.8544921875,17.6171875
0.1765,1.0009765625,-17.1767578125,15.9755859375
0.177,4.2841796875,-18.8583984375,14.5341796875
0.1775,7.0068359375,-18.8583984375,12.091796875
0.178,9.849609375,-18.8583984375,9.44921875
0.1785,13.453125,-18.2978515625,5.4052734375
0.179,16.4560546875,-16.896484375,1.201171875
0.1795,18.3779296875,-15.2548828125,-2.40234375
0.18,19.298828125,-13.3330078125,-5.205078125
0.1805,19.4990234375,-10.7705078125,-7.9677734375
0.181,19.1787109375,-6.7666015625,-11.6513671875
0.1815,18.578125,-3.3232421875,-14.5341796875
0.182,17.296875,0.6005859375,-17.13671875
0.1825,15.6552734375,4.0439453125,-18.978515625
0.183,13.0927734375,6.646484375,-18.9384765625
0.1835,10.5302734375,9.44921875,-19.37890625
0.184,5.765625,13.2529296875,-18.578125
0.1845,1.3212890625,16.0556640625,-17.1767578125
0.185,-2.3623046875,17.857421875,-15.5751953125
0.1855,-5.4052734375,19.05859375,-13.9736328125
0.186,-8.16796875,19.0185546875,-11.291015625
0.1865,-11.4912109375,18.5380859375,-7.7275390625
0.187,-14.6142578125,17.9375,-4.0439453125
0.1875,-17.3369140625,16.2958984375,0.240234375
0.188,-18.978515625,14.654296875,3.5234375
0.1885,-19.37890625,12.2119140625,6.2060546875
0.189,-19.5791015625,9.7294921875,9.0087890625
0.1895,-19.0986328125,5.4453125,12.7724609375
0.19,-18.2177734375,1.7216796875,15.6552734375
0.1905,-16.736328125,-1.841796875,17.7373046875
0.191,-15.134765625,-4.8447265625,19.298828125
0.1915,-12.3720703125,-7.5673828125,19.1787109375
0.192,-8.96875,-10.6904296875,18.978515625
0.1925,-4.7646484375,-14.09375,18.2978515625
0.193,0.0400390625,-16.81640625,16.4560546875
0.1935,3.283203125,-18.2578125,14.9345703125
0.194,6.0458984375,-18.8984375,12.97265625
0.1945,8.6884765625,-18.978515625,10.6103515625
0.195,12.4921875,-18.2578125,6.326171875
0.1955,15.375,-17.3369140625,2.642578125
0.196,17.6171875,-15.775390625,-1.1611328125
0.1965,19.0185546875,-14.09375,-4.1640625
0.197,19.0185546875,-11.4111328125,-6.8466796875
0.1975,19.138671875,-8.6083984375,-9.8095703125
0.198,18.6982421875,-4.6845703125,-13.29296875
0.1985,17.537109375,-0.640625,-16.17578125
0.199,15.8955078125,2.6826171875,-17.8974609375
0.1995,14.173828125,5.525390625,-18.978515625
0.2,11.4912109375,8.16796875,-19.0986328125
0.2005,7.0869140625,11.8115234375,-18.41796875
0.201,3.203125,14.734375,-17.697265625
0.2015,-1.1611328125,17.216796875,-16.015625
0.202,-4.244140625,18.498046875,-14.4140625
0.2025,-7.0068359375,18.6181640625,-12.01171875
0.203,-9.76953125,18.6982421875,-9.5693359375
0.2035,-13.533203125,17.9775390625,-5.1650390625
0.204,-16.416015625,16.576171875,-1.0009765625
0.2045,-18.2578125,15.0546875,2.40234375
0.205,-19.37890625,13.1728515625,5.3251953125
0.2055,-19.37890625,10.3701171875,8.0478515625
0.206,-19.1787109375,6.7666015625,11.53125
0.2065,-18.658203125,3.1630859375,14.6943359375
0.207,-17.3369140625,-0.9609375,17.4169921875
0.2075,-15.53515625,-4.2041015625,18.8984375
0.208,-13.2529296875,-6.9267578125,19.37890625
0.2085,-10.6103515625,-9.76953125,19.619140625
0.209,-5.5654296875,-13.61328125,18.578125
0.2095,-1.2412109375,-16.3759765625,17.296875
0.21,2.5625,-18.337890625,15.6953125
0.2105,5.685546875,-19.4189453125,13.93359375
0.211,8.6083984375,-19.2587890625,11.0107421875
0.2115,11.8115234375,-19.05859375,7.8076171875
0.212,15.21484375,-18.2978515625,3.7236328125
0.2125,18.0576171875,-16.49609375,-0.80078125
0.213,19.4189453125,-14.7744140625,-3.84375
0.2135,20.099609375,-12.412109375,-6.8466796875
0.214,19.9794921875,-9.4892578125,-9.689453125
0.2145,19.4189453125,-5.205078125,-13.4130859375
0.215,18.498046875,-1.4013671875,-16.3759765625
0.2155,16.9765625,2.5224609375,-18.8583984375
0.216,15.0546875,5.5654296875,-19.939453125
0.2165,11.9716796875,8.48828125,-19.8994140625
0.217,8.6484375,11.6513671875,-19.8994140625
0.2175,3.84375,15.3349609375,-18.8583984375
0.218,-1.0009765625,17.8974609375,-16.81640625
