wavelength,x,y,z
0.0,-6.9267578125,1.921875,5.1650390625
0.0005,-6.40625,0.6005859375,5.92578125
0.001,-5.4853515625,-1.0009765625,6.4462890625
0.0015,-4.6845703125,-2.2822265625,6.88671875
0.002,-3.2431640625,-3.9638671875,7.1669921875
0.0025,-2.2421875,-4.7646484375,6.88671875
0.003,-0.80078125,-6.0859375,6.7265625
0.0035,0.48046875,-6.40625,5.845703125
0.004,1.6015625,-7.1669921875,5.4453125
0.0045,3.5234375,-7.4072265625,3.8037109375
0.005,4.724609375,-7.7275390625,2.8427734375
0.0055,5.5654296875,-7.20703125,1.4814453125
0.006,6.40625,-7.0869140625,0.4404296875
0.0065,6.5263671875,-6.1259765625,-0.80078125
0.007,6.966796875,-5.60546875,-1.7216796875
0.0075,7.046875,-3.8837890625,-3.5234375
0.008,6.88671875,-2.962890625,-4.32421875
0.0085,6.5263671875,-1.44140625,-5.525390625
0.009,5.765625,0.0,-6.1259765625
0.0095,4.9248046875,1.44140625,-6.6865234375
0.01,3.84375,2.8828125,-6.966796875
0.0105,2.6025390625,4.5244140625,-7.3671875
0.011,1.44140625,5.2451171875,-6.7666015625
0.0115,0.080078125,6.486328125,-6.646484375
0.012,-1.2412109375,6.7265625,-5.6455078125
0.0125,-2.40234375,7.4873046875,-5.1650390625
0.013,-4.3642578125,7.6875,-3.36328125
0.0135,-5.4453125,7.8076171875,-2.4423828125
0.014,-6.166015625,7.1669921875,-1.0009765625
0.0145,-6.88671875,7.0068359375,0.0
0.015,-6.966796875,5.92578125,1.201171875
0.0155,-7.20703125,5.1650390625,2.2421875
0.016,-7.4072265625,3.68359375,3.9638671875
0.0165,-6.966796875,2.482421875,4.6044921875
0.017,-6.6865234375,0.9609375,5.8056640625
0.0175,-5.7255859375,-0.5205078125,6.24609375
0.018,-4.96484375,-1.841796875,6.806640625
0.0185,-3.6435546875,-3.36328125,7.0068359375
0.019,-2.482421875,-4.8447265625,7.2470703125
0.0195,-1.12109375,-5.4453125,6.4462890625
0.02,0.080078125,-6.6064453125,6.4462890625
0.0205,1.4013671875,-6.7666015625,5.2451171875
0.021,2.6025390625,-7.447265625,4.64453125
0.0215,4.64453125,-7.7275390625,2.8828125
0.022,5.525390625,-7.5673828125,1.841796875
0.0225,6.24609375,-6.9267578125,0.4404296875
0.023,6.7265625,-6.56640625,-0.5205078125
0.0235,6.8466796875,-5.4853515625,-1.7216796875
0.024,6.966796875,-4.484375,-2.8828125
0.0245,7.20703125,-3.123046875,-4.5244140625
0.025,6.4462890625,-1.8017578125,-5.044921875
0.0255,6.24609375,-0.400390625,-6.2861328125
0.026,5.0048828125,1.201171875,-6.4462890625
0.0265,4.3642578125,2.4423828125,-7.0068359375
0.027,2.8427734375,4.083984375,-7.0869140625
0.0275,1.8017578125,5.365234375,-7.2470703125
0.028,0.3203125,5.92578125,-6.3662109375
0.0285,-0.720703125,6.966796875,-6.3662109375
0.029,-2.1220703125,7.0869140625,-5.0048828125
0.0295,-3.36328125,7.6875,-4.32421875
0.03,-5.365234375,7.927734375,-2.5625
0.0305,-6.005859375,7.4873046875,-1.44140625
0.031,-6.7666015625,7.046875,-0.2001953125
0.0315,-7.0869140625,6.4462890625,0.7607421875
0.032,-7.20703125,5.4453125,1.921875
0.0325,-7.20703125,4.2041015625,3.1630859375
0.033,-7.4873046875,2.9228515625,4.724609375
0.0335,-6.4462890625,1.4013671875,5.1650390625
0.034,-6.4462890625,0.2001953125,6.40625
0.0345,-5.0048828125,-1.44140625,6.4462890625
0.035,-4.484375,-2.6025390625,7.046875
0.0355,-2.8828125,-4.3642578125,7.1669921875
0.036,-1.6416015625,-5.4453125,6.966796875
0.0365,-0.2802734375,-6.0859375,6.24609375
0.037,0.7607421875,-6.9267578125,6.0859375
0.0375,2.322265625,-7.0869140625,4.6845703125
0.038,3.5634765625,-7.5673828125,3.84375
0.0385,5.4853515625,-7.84765625,2.162109375
0.039,5.92578125,-7.0869140625,0.9609375
0.0395,6.7265625,-6.88671875,-0.2001953125
0.04,6.8466796875,-5.92578125,-1.28125
0.0405,7.046875,-5.044921875,-2.4423828125
0.041,7.046875,-3.68359375,-3.84375
0.0415,7.1669921875,-2.40234375,-5.205078125
0.042,6.0458984375,-0.6806640625,-5.7255859375
0.0425,6.005859375,0.5205078125,-6.7666015625
0.043,4.32421875,2.162109375,-6.7265625
0.0435,3.7236328125,3.3232421875,-7.2470703125
0.044,2.1220703125,5.125,-7.4072265625
0.0445,0.7607421875,6.0458984375,-6.88671875
0.045,-0.560546875,6.7265625,-6.2861328125
0.0455,-1.7216796875,7.4072265625,-5.8056640625
0.046,-3.4033203125,7.6474609375,-4.32421875
0.0465,-4.564453125,7.927734375,-3.36328125
0.047,-6.3662109375,8.087890625,-1.76171875
0.0475,-6.6064453125,7.0869140625,-0.4404296875
0.048,-7.4072265625,7.046875,0.5205078125
0.0485,-7.3271484375,5.7255859375,1.76171875
0.049,-7.52734375,4.724609375,3.0029296875
0.0495,-7.4072265625,3.1630859375,4.3642578125
0.05,-7.3271484375,1.921875,5.5654296875
0.0505,-6.1259765625,0.240234375,6.0458984375
0.051,-5.9658203125,-1.0009765625,6.966796875
0.0515,-4.2041015625,-2.6826171875,6.9267578125
0.052,-3.5634765625,-3.8037109375,7.287109375
0.0525,-1.8818359375,-5.4853515625,7.2470703125
0.053,-0.48046875,-6.1259765625,6.4462890625
0.0535,0.640625,-6.8466796875,6.1259765625
0.054,2.08203125,-7.3271484375,5.0849609375
0.0545,3.6435546875,-7.5673828125,3.8037109375
0.055,4.7646484375,-7.6474609375,2.6826171875
0.0555,6.1259765625,-7.7275390625,1.3212890625
0.056,6.326171875,-6.6064453125,0.0400390625
0.0565,7.046875,-6.6865234375,-0.7607421875
0.057,6.88671875,-5.0849609375,-2.2421875
0.0575,7.0869140625,-4.32421875,-3.2431640625
0.058,6.966796875,-2.642578125,-4.6845703125
0.0585,6.646484375,-1.4013671875,-5.60546875
0.059,5.6455078125,0.2001953125,-6.1259765625
0.0595,5.2451171875,1.3212890625,-6.806640625
0.06,3.68359375,3.0830078125,-6.9267578125
0.0605,2.962890625,4.1240234375,-7.20703125
0.061,1.4013671875,5.685546875,-7.20703125
0.0615,0.0400390625,6.24609375,-6.326171875
0.062,-1.041015625,7.0869140625,-6.166015625
0.0625,-2.72265625,7.4873046875,-4.8046875
0.063,-4.1240234375,7.8076171875,-3.7236328125
0.0635,-5.28515625,7.767578125,-2.482421875
0.064,-6.4462890625,7.7275390625,-1.2412109375
0.0645,-6.6865234375,6.7666015625,0.0
0.065,-7.3671875,6.6064453125,0.9208984375
0.0655,-7.3271484375,4.9248046875,2.5224609375
0.066,-7.4873046875,4.1640625,3.5234375
0.0665,-7.3271484375,2.5224609375,4.96484375
0.067,-6.7666015625,1.12109375,5.8056640625
0.0675,-5.9658203125,-0.4404296875,6.4462890625
0.068,-5.1650390625,-1.8017578125,7.0068359375
0.0685,-3.6435546875,-3.603515625,7.2470703125
0.069,-2.642578125,-4.6044921875,7.20703125
0.0695,-1.1611328125,-6.0859375,7.0869140625
0.07,0.3203125,-6.486328125,6.1259765625
0.0705,1.3212890625,-7.3671875,5.8857421875
0.071,3.3232421875,-7.607421875,4.1240234375
0.0715,4.6044921875,-7.8876953125,3.123046875
0.072,5.685546875,-7.5673828125,1.6416015625
0.0725,6.646484375,-7.4072265625,0.48046875
0.073,6.6865234375,-6.40625,-0.7607421875
0.0735,7.20703125,-5.9658203125,-1.681640625
0.074,7.1669921875,-4.0439453125,-3.5234375
0.0745,7.0869140625,-3.203125,-4.32421875
0.075,6.8466796875,-1.5615234375,-5.6455078125
0.0755,6.0458984375,0.0,-6.24609375
0.076,5.205078125,1.3212890625,-6.7666015625
0.0765,4.1240234375,2.802734375,-7.0869140625
0.077,2.72265625,4.484375,-7.3671875
0.0775,1.6416015625,5.28515625,-7.0869140625
0.078,0.2001953125,6.56640625,-6.806640625
0.0785,-1.1611328125,6.88671875,-5.8056640625
0.079,-2.2421875,7.607421875,-5.4453125
0.0795,-4.2041015625,7.8076171875,-3.603515625
0.08,-5.205078125,7.9677734375,-2.72265625
0.0805,-6.2060546875,7.52734375,-1.28125
0.081,-6.9267578125,7.1669921875,-0.2001953125
0.0815,-7.0869140625,6.24609375,0.9609375
0.082,-7.4072265625,5.685546875,1.921875
0.0825,-7.447265625,3.9638671875,3.68359375
0.083,-7.20703125,2.962890625,4.404296875
0.0835,-6.966796875,1.44140625,5.685546875
0.084,-5.9658203125,0.0400390625,6.0859375
0.0845,-5.4052734375,-1.361328125,6.7666015625
0.085,-4.0439453125,-2.9228515625,6.966796875
0.0855,-2.962890625,-4.3642578125,7.287109375
0.086,-1.6416015625,-5.1650390625,6.7265625
0.0865,-0.400390625,-6.3662109375,6.56640625
0.087,0.9208984375,-6.6064453125,5.60546875
0.0875,2.0419921875,-7.3671875,5.1650390625
0.088,4.083984375,-7.5673828125,3.3232421875
0.0885,4.96484375,-7.6875,2.482421875
0.089,5.8857421875,-7.20703125,1.0009765625
0.0895,6.4462890625,-6.8466796875,0.080078125
0.09,6.6865234375,-5.92578125,-1.12109375
0.0905,6.88671875,-5.044921875,-2.2421875
0.091,7.0869140625,-3.6435546875,-3.84375
0.0915,6.646484375,-2.5224609375,-4.5244140625
0.092,6.5263671875,-1.041015625,-5.8056640625
0.0925,5.4052734375,0.48046875,-6.1259765625
0.093,4.8447265625,1.76171875,-6.8466796875
0.0935,3.36328125,3.443359375,-6.966796875
0.094,2.482421875,4.7646484375,-7.3271484375
0.0945,1.0009765625,5.525390625,-6.6064453125
0.095,-0.2802734375,6.646484375,-6.5263671875
0.0955,-1.5615234375,6.9267578125,-5.4453125
0.096,-2.802734375,7.607421875,-4.8447265625
0.0965,-4.8447265625,7.8076171875,-3.0830078125
0.097,-5.6455078125,7.6474609375,-2.08203125
0.0975,-6.5263671875,7.20703125,-0.6806640625
0.098,-6.9267578125,6.7265625,0.3603515625
0.0985,-7.1669921875,5.8857421875,1.4814453125
0.099,-7.2470703125,4.64453125,2.7626953125
0.0995,-7.5673828125,3.4033203125,4.32421875
0.1,-6.7666015625,2.001953125,4.96484375
0.1005,-6.6865234375,0.6005859375,6.2060546875
0.101,-5.365234375,-1.041015625,6.40625
0.1015,-4.8447265625,-2.2421875,7.046875
0.102,-3.1630859375,-4.00390625,7.1669921875
0.1025,-2.08203125,-5.1650390625,7.1669921875
0.103,-0.6005859375,-5.92578125,6.40625
0.1035,0.5205078125,-6.8466796875,6.24609375
0.104,1.921875,-7.046875,5.044921875
0.1045,3.203125,-7.6474609375,4.1640625
0.105,5.205078125,-7.8876953125,2.482421875
0.1055,5.8056640625,-7.3671875,1.28125
0.106,6.6865234375,-7.0068359375,0.080078125
0.1065,6.8466796875,-6.166015625,-1.0009765625
0.107,7.046875,-5.3251953125,-2.08203125
0.1075,7.046875,-3.8837890625,-3.5634765625
0.108,7.2470703125,-2.6826171875,-4.9248046875
0.1085,6.2060546875,-1.1611328125,-5.4453125
0.109,6.1259765625,0.16015625,-6.5263671875
0.1095,4.6044921875,1.76171875,-6.56640625
0.11,4.083984375,2.8427734375,-7.126953125
0.1105,2.40234375,4.724609375,-7.2470703125
0.111,1.28125,5.5654296875,-7.0068359375
0.1115,-0.2001953125,6.3662109375,-6.326171875
0.112,-1.1611328125,7.046875,-5.9658203125
0.1125,-2.6025390625,7.2470703125,-4.7646484375
0.113,-3.923828125,7.6474609375,-3.8037109375
0.1135,-5.765625,7.8876953125,-2.2021484375
0.114,-6.1259765625,7.1669921875,-1.0009765625
0.1145,-7.0068359375,7.046875,0.080078125
0.115,-7.0068359375,6.005859375,1.12109375
0.1155,-7.2470703125,5.2451171875,2.2421875
0.116,-7.20703125,3.763671875,3.6435546875
0.1165,-7.2470703125,2.6025390625,4.8046875
0.117,-6.2861328125,1.0009765625,5.4052734375
0.1175,-6.166015625,-0.16015625,6.40625
0.118,-4.724609375,-1.7216796875,6.4462890625
0.1185,-4.1640625,-2.8828125,7.0068359375
0.119,-2.5625,-4.64453125,7.1669921875
0.1195,-1.361328125,-5.3251953125,6.6064453125
0.12,-0.2001953125,-6.2861328125,6.326171875
0.1205,1.0009765625,-6.806640625,5.60546875
0.121,2.482421875,-7.20703125,4.564453125
0.1215,3.923828125,-7.52734375,3.443359375
0.122,5.525390625,-7.7275390625,2.0419921875
0.1225,5.845703125,-6.7666015625,0.720703125
0.123,6.7265625,-6.9267578125,-0.16015625
0.1235,6.6865234375,-5.60546875,-1.44140625
0.124,7.046875,-4.8447265625,-2.5625
0.1245,7.046875,-3.283203125,-4.1640625
0.125,6.88671875,-2.08203125,-5.125
0.1255,6.005859375,-0.4404296875,-5.92578125
0.126,5.685546875,0.80078125,-6.6865234375
0.1265,4.2041015625,2.40234375,-6.806640625
0.127,3.443359375,3.6435546875,-7.20703125
0.1275,1.8818359375,5.4453125,-7.447265625
0.128,0.4404296875,6.0859375,-6.56640625
0.1285,-0.6806640625,7.0068359375,-6.40625
0.129,-2.2421875,7.3671875,-5.28515625
0.1295,-3.68359375,7.767578125,-4.1640625
0.13,-5.125,7.927734375,-2.8427734375
0.1305,-6.486328125,7.9677734375,-1.44140625
0.131,-6.7666015625,6.88671875,0.0
0.1315,-7.52734375,6.88671875,0.7607421875
0.132,-7.3671875,5.2451171875,2.2822265625
0.1325,-7.52734375,4.4443359375,3.283203125
0.133,-7.4873046875,2.72265625,4.96484375
0.1335,-6.9267578125,1.361328125,5.7255859375
0.134,-6.1259765625,-0.2802734375,6.40625
0.1345,-5.4453125,-1.5615234375,7.0068359375
0.135,-3.8837890625,-3.2431640625,7.1669921875
0.1355,-3.0029296875,-4.32421875,7.287109375
0.136,-1.44140625,-5.92578125,7.287109375
0.1365,0.1201171875,-6.40625,6.2060546875
0.137,1.0009765625,-7.287109375,6.1259765625
0.1375,2.8828125,-7.4873046875,4.484375
0.138,4.083984375,-7.8076171875,3.5634765625
0.1385,5.4052734375,-7.7275390625,2.08203125
0.139,6.4462890625,-7.5673828125,0.880859375
0.1395,6.646484375,-6.56640625,-0.400390625
0.14,7.2470703125,-6.3662109375,-1.2412109375
0.1405,7.126953125,-4.6044921875,-2.8828125
0.141,7.1669921875,-3.84375,-3.763671875
0.1415,7.1669921875,-2.162109375,-5.4052734375
0.142,6.3662109375,-0.6806640625,-6.005859375
0.1425,5.7255859375,0.7607421875,-6.7265625
0.143,4.724609375,2.162109375,-7.0869140625
0.1435,3.3232421875,3.84375,-7.4072265625
0.144,2.3623046875,4.9248046875,-7.4072265625
0.1445,0.80078125,6.3662109375,-7.287109375
0.145,-0.6806640625,6.7666015625,-6.24609375
0.1455,-1.681640625,7.7275390625,-6.1259765625
0.146,-3.763671875,7.927734375,-4.2041015625
0.1465,-4.8447265625,8.2080078125,-3.36328125
0.147,-6.2060546875,8.0078125,-1.8017578125
0.1475,-7.0869140625,7.6875,-0.560546875
0.148,-7.2470703125,6.7265625,0.6806640625
0.1485,-7.7275390625,6.24609375,1.681640625
0.149,-7.7275390625,4.404296875,3.5234375
0.1495,-7.607421875,3.4833984375,4.32421875
0.15,-7.4873046875,1.841796875,5.845703125
0.1505,-6.4462890625,0.240234375,6.3662109375
0.151,-5.845703125,-1.2412109375,7.1669921875
0.1515,-4.484375,-2.8828125,7.3671875
0.152,-3.1630859375,-4.484375,7.607421875
0.1525,-1.8818359375,-5.4453125,7.1669921875
0.153,-0.400390625,-6.7666015625,7.046875
0.1535,1.0009765625,-7.0068359375,5.8857421875
0.154,2.1220703125,-7.7275390625,5.4853515625
0.1545,4.2841796875,-7.8876953125,3.4833984375
0.155,5.1650390625,-8.0078125,2.6025390625
0.1555,6.326171875,-7.5673828125,1.041015625
0.156,6.966796875,-7.0869140625,-0.16015625
0.1565,7.0869140625,-6.166015625,-1.28125
0.157,7.3271484375,-5.4052734375,-2.322265625
0.1575,7.3671875,-3.7236328125,-4.0439453125
0.158,7.0068359375,-2.6025390625,-4.7646484375
0.1585,6.806640625,-1.12109375,-6.1259765625
0.159,5.6455078125,0.5205078125,-6.40625
0.1595,5.0849609375,1.76171875,-7.0869140625
0.16,3.5234375,3.443359375,-7.20703125
0.1605,2.5625,4.7646484375,-7.4873046875
0.161,1.2412109375,5.60546875,-6.966796875
0.1615,-0.2001953125,6.806640625,-6.7265625
0.162,-1.44140625,7.046875,-5.7255859375
0.1625,-2.6025390625,7.7275390625,-5.205078125
0.163,-4.64453125,7.8876953125,-3.283203125
0.1635,-5.4052734375,7.927734375,-2.5224609375
0.164,-6.486328125,7.52734375,-1.0009765625
0.1645,-6.9267578125,7.0068359375,0.1201171875
0.165,-7.2470703125,6.24609375,1.201171875
0.1655,-7.3671875,5.205078125,2.3623046875
0.166,-7.5673828125,3.8837890625,3.84375
0.1665,-7.0869140625,2.642578125,4.6044921875
0.167,-7.0068359375,1.2412109375,5.8857421875
0.1675,-5.765625,-0.3603515625,6.2060546875
0.168,-5.2451171875,-1.6015625,6.88671875
0.1685,-3.68359375,-3.4833984375,7.046875
0.169,-2.8427734375,-4.6044921875,7.3271484375
0.1695,-1.28125,-5.4853515625,6.6865234375
0.17,0.0,-6.486328125,6.486328125
0.1705,1.2412109375,-6.806640625,5.525390625
0.171,2.5625,-7.447265625,4.8046875
0.1715,4.484375,-7.7275390625,3.0830078125
0.172,5.2451171875,-7.5673828125,2.08203125
0.1725,6.2861328125,-7.2470703125,0.720703125
0.173,6.56640625,-6.56640625,-0.3603515625
0.1735,6.966796875,-5.845703125,-1.44140625
0.174,7.0068359375,-4.5244140625,-2.8828125
0.1745,7.287109375,-3.36328125,-4.2841796875
0.175,6.5263671875,-1.9619140625,-5.0048828125
0.1755,6.4462890625,-0.6005859375,-6.24609375
0.176,4.96484375,0.9609375,-6.4462890625
0.1765,4.6044921875,2.2421875,-7.0869140625
0.177,2.8828125,4.1240234375,-7.20703125
0.1775,2.0419921875,5.205078125,-7.3271484375
0.178,0.400390625,6.1259765625,-6.6064453125
0.1785,-0.80078125,7.046875,-6.3662109375
0.179,-2.1220703125,7.3271484375,-5.2451171875
0.1795,-3.603515625,7.8076171875,-4.2841796875
0.18,-5.5654296875,8.16796875,-2.6025390625
0.1805,-6.1259765625,7.607421875,-1.44140625
0.181,-7.126953125,7.3671875,-0.16015625
0.1815,-7.3271484375,6.4462890625,1.0009765625
0.182,-7.5673828125,5.685546875,2.08203125
0.1825,-7.5673828125,4.1240234375,3.6435546875
0.183,-7.7275390625,2.8828125,5.044921875
0.1835,-6.7265625,1.28125,5.6455078125
0.184,-6.6064453125,0.0,6.8466796875
0.1845,-5.0849609375,-1.841796875,6.88671875
0.185,-4.484375,-2.962890625,7.3671875
0.1855,-2.6025390625,-4.9248046875,7.52734375
0.186,-1.4013671875,-5.8056640625,7.126953125
0.1865,0.1201171875,-6.6865234375,6.486328125
0.187,1.201171875,-7.3271484375,6.005859375
0.1875,2.6826171875,-7.5673828125,4.8046875
0.188,4.1640625,-7.927734375,3.5634765625
0.1885,6.0859375,-8.2080078125,1.921875
0.189,6.40625,-7.2470703125,0.6005859375
0.1895,7.3271484375,-7.126953125,-0.5205078125
0.19,7.20703125,-5.8857421875,-1.681640625
0.1905,7.4072265625,-5.044921875,-2.7626953125
0.191,7.3671875,-3.36328125,-4.3642578125
0.1915,7.287109375,-2.1220703125,-5.525390625
0.192,6.24609375,-0.400390625,-6.166015625
0.1925,5.9658203125,0.80078125,-7.046875
0.193,4.32421875,2.2822265625,-7.0869140625
0.1935,3.6435546875,3.6435546875,-7.4072265625
0.194,1.921875,5.525390625,-7.6474609375
0.1945,0.6005859375,6.2060546875,-6.9267578125
0.195,-0.6806640625,7.0869140625,-6.486328125
0.1955,-1.921875,7.5673828125,-5.7255859375
0.196,-3.36328125,7.84765625,-4.5244140625
0.1965,-4.8447265625,8.087890625,-3.2431640625
0.197,-6.5263671875,8.2880859375,-1.76171875
0.1975,-6.806640625,7.20703125,-0.3603515625
0.198,-7.6474609375,7.20703125,0.560546875
0.1985,-7.4873046875,5.8056640625,1.8818359375
0.199,-7.7275390625,4.96484375,2.9228515625
0.1995,-7.7275390625,3.283203125,4.6044921875
0.2,-7.447265625,1.921875,5.5654296875
0.2005,-6.40625,0.2802734375,6.326171875
0.201,-6.1259765625,-1.0009765625,7.20703125
0.2015,-4.5244140625,-2.6025390625,7.1669921875
0.202,-3.7236328125,-3.8037109375,7.447265625
0.2025,-1.9619140625,-5.6455078125,7.5673828125
0.203,-0.5205078125,-6.24609375,6.646484375
0.2035,0.6005859375,-7.126953125,6.4462890625
0.204,2.1220703125,-7.447265625,5.2451171875
0.2045,3.5234375,-7.84765625,4.1240234375
0.205,5.0048828125,-7.9677734375,2.7626953125
0.2055,6.40625,-8.0078125,1.3212890625
0.206,6.646484375,-6.88671875,0.0
0.2065,7.3671875,-6.88671875,-0.9208984375
0.207,7.1669921875,-5.205078125,-2.3623046875
0.2075,7.3671875,-4.3642578125,-3.36328125
0.208,7.3671875,-2.642578125,-5.125
0.2085,6.7666015625,-1.3212890625,-5.92578125
0.209,6.0458984375,0.3203125,-6.6865234375
0.2095,5.2451171875,1.6015625,-7.0869140625
0.21,3.763671875,3.283203125,-7.2470703125
0.2105,2.8427734375,4.4443359375,-7.447265625
0.211,1.28125,6.1259765625,-7.447265625
0.2115,-0.2802734375,6.56640625,-6.40625
0.212,-1.2412109375,7.52734375,-6.3662109375
0.2125,-3.04296875,7.7275390625,-4.7646484375
0.213,-4.32421875,8.087890625,-3.8037109375
0.2135,-5.765625,8.0478515625,-2.2822265625
0.214,-6.8466796875,7.8876953125,-1.0009765625
0.2145,-7.0869140625,6.88671875,0.3203125
0.215,-7.7275390625,6.6865234375,1.1611328125
0.2155,-7.607421875,4.96484375,2.8427734375
0.216,-7.607421875,4.083984375,3.68359375
0.2165,-7.607421875,2.3623046875,5.4052734375
0.217,-6.806640625,0.8408203125,6.005859375
0.2175,-6.2060546875,-0.6005859375,6.8466796875
0.218,-5.125,-2.0419921875,7.1669921875
0.2185,-3.763671875,-3.7236328125,7.4873046875
0.219,-2.6025390625,-4.8046875,7.3671875
0.2195,-1.0810546875,-6.2861328125,7.287109375
0.22,0.4404296875,-6.6865234375,6.2060546875
0.2205,1.44140625,-7.6474609375,6.0859375
0.221,3.4833984375,-7.767578125,4.1240234375
0.2215,4.5244140625,-8.0078125,3.3232421875
0.222,5.92578125,-7.84765625,1.7216796875
0.2225,6.7265625,-7.4873046875,0.5205078125
0.223,6.9267578125,-6.5263671875,-0.7607421875
0.2235,7.3671875,-6.0458984375,-1.7216796875
0.224,7.3271484375,-4.32421875,-3.5234375
0.2245,7.1669921875,-3.36328125,-4.2841796875
0.225,7.126953125,-1.8017578125,-5.8056640625
0.2255,6.0859375,-0.2001953125,-6.24609375
0.226,5.60546875,1.201171875,-7.0068359375
0.2265,4.1640625,2.802734375,-7.20703125
0.227,3.0029296875,4.32421875,-7.4873046875
0.2275,1.841796875,5.3251953125,-7.2470703125
0.228,0.3203125,6.646484375,-7.046875
