wavelength,x,y,z
0.0,-0.9609375,-5.765625,4.724609375
0.0005,-1.8818359375,-5.765625,5.7255859375
0.001,-3.203125,-4.4443359375,5.8857421875
0.0015,-4.1640625,-3.203125,5.765625
0.002,-4.6845703125,-2.001953125,5.5654296875
0.0025,-5.0849609375,-1.28125,5.4052734375
0.003,-5.4453125,-0.48046875,5.28515625
0.0035,-5.7255859375,0.6005859375,4.8447265625
0.004,-5.4453125,1.841796875,3.8037109375
0.0045,-4.884765625,2.8828125,2.2421875
0.005,-4.5244140625,3.5234375,1.4013671875
0.0055,-4.32421875,4.2041015625,0.640625
0.006,-4.1640625,5.044921875,-0.2802734375
0.0065,-2.8427734375,5.1650390625,-1.6416015625
0.007,-1.681640625,5.2451171875,-2.8427734375
0.0075,-0.640625,5.044921875,-3.7236328125
0.008,0.16015625,5.0849609375,-4.4443359375
0.0085,1.0810546875,5.044921875,-5.3251953125
0.009,2.0419921875,4.6845703125,-6.2060546875
0.0095,3.3232421875,3.203125,-6.2861328125
0.01,4.2041015625,1.76171875,-5.8857421875
0.0105,4.6044921875,0.880859375,-5.7255859375
0.011,5.044921875,0.1201171875,-5.6455078125
0.0115,5.4052734375,-0.8408203125,-5.4453125
0.012,5.28515625,-2.162109375,-4.4443359375
0.0125,5.0048828125,-3.283203125,-3.1630859375
0.013,4.4443359375,-4.1240234375,-1.921875
0.0135,4.083984375,-4.8046875,-1.041015625
0.014,3.8037109375,-5.4453125,-0.240234375
0.0145,3.3232421875,-6.2861328125,0.80078125
0.015,1.8818359375,-6.1259765625,2.2822265625
0.0155,0.48046875,-5.92578125,3.4833984375
0.016,-0.4404296875,-5.845703125,4.2041015625
0.0165,-1.201171875,-5.8857421875,5.044921875
0.017,-2.1220703125,-5.6455078125,5.8857421875
0.0175,-3.4833984375,-4.64453125,6.3662109375
0.018,-4.4443359375,-3.283203125,6.326171875
0.0185,-5.1650390625,-1.8017578125,5.845703125
0.019,-5.4453125,-1.0009765625,5.60546875
0.0195,-5.7255859375,-0.16015625,5.365234375
0.02,-6.1259765625,0.8408203125,5.1650390625
0.0205,-5.7255859375,2.2822265625,3.5634765625
0.021,-5.205078125,3.4033203125,2.162109375
0.0215,-4.64453125,4.0439453125,1.1611328125
0.022,-4.32421875,4.64453125,0.3603515625
0.0225,-3.9638671875,5.28515625,-0.560546875
0.023,-2.9228515625,5.7255859375,-1.9619140625
0.0235,-1.521484375,5.685546875,-3.283203125
0.024,-0.16015625,5.2451171875,-4.2841796875
0.0245,0.6005859375,5.2451171875,-4.96484375
0.025,1.4013671875,5.0849609375,-5.765625
0.0255,2.40234375,4.8046875,-6.6865234375
0.026,3.84375,3.1630859375,-6.7265625
0.0265,4.8046875,1.7216796875,-6.4462890625
0.027,5.205078125,0.6005859375,-6.0458984375
0.0275,5.4052734375,-0.3203125,-5.765625
0.028,5.7255859375,-1.28125,-5.525390625
0.0285,5.8056640625,-2.4423828125,-4.64453125
0.029,5.4052734375,-3.8037109375,-3.1630859375
0.0295,4.6845703125,-4.7646484375,-1.6416015625
0.03,4.1240234375,-5.3251953125,-0.720703125
0.0305,3.763671875,-5.845703125,0.3203125
0.031,3.3232421875,-6.486328125,1.1611328125
0.0315,1.7216796875,-6.6865234375,2.802734375
0.032,0.2802734375,-6.40625,4.0439453125
0.0325,-0.8408203125,-6.1259765625,4.8046875
0.033,-1.5615234375,-6.0458984375,5.4052734375
0.0335,-2.5625,-5.685546875,6.24609375
0.034,-3.7236328125,-5.0048828125,7.0068359375
0.0345,-4.9248046875,-3.36328125,6.88671875
0.035,-5.685546875,-1.681640625,6.326171875
0.0355,-5.92578125,-0.720703125,5.8857421875
0.036,-6.166015625,0.1201171875,5.525390625
0.0365,-6.2861328125,1.201171875,5.125
0.037,-6.0458984375,2.6826171875,3.6435546875
0.0375,-5.60546875,3.8037109375,2.2421875
0.038,-4.8447265625,4.5244140625,1.0009765625
0.0385,-4.32421875,5.044921875,0.080078125
0.039,-3.84375,5.5654296875,-0.9208984375
0.0395,-3.203125,6.1259765625,-1.921875
0.04,-1.4814453125,5.9658203125,-3.5234375
0.0405,0.080078125,5.5654296875,-4.64453125
0.041,0.880859375,5.365234375,-5.28515625
0.0415,1.5615234375,5.125,-5.9658203125
0.042,2.642578125,4.7646484375,-6.7265625
0.0425,3.9638671875,3.5234375,-7.0869140625
0.043,4.96484375,2.0419921875,-6.9267578125
0.0435,5.4853515625,0.6005859375,-6.326171875
0.044,5.7255859375,-0.3203125,-5.92578125
0.0445,5.845703125,-1.28125,-5.5654296875
0.045,6.0859375,-2.2421875,-5.1650390625
0.0455,5.60546875,-3.8037109375,-3.4033203125
0.046,4.96484375,-4.884765625,-1.8818359375
0.0465,4.2841796875,-5.4453125,-0.80078125
0.047,3.84375,-5.9658203125,0.1201171875
0.0475,3.2431640625,-6.5263671875,1.12109375
0.048,2.2021484375,-6.88671875,2.5224609375
0.0485,0.640625,-6.7265625,3.84375
0.049,-0.8408203125,-6.24609375,4.8046875
0.0495,-1.5615234375,-6.1259765625,5.4052734375
0.05,-2.482421875,-5.765625,6.2060546875
0.0505,-3.36328125,-5.4453125,7.0068359375
0.051,-4.8447265625,-3.68359375,7.0068359375
0.0515,-5.685546875,-2.1220703125,6.6064453125
0.052,-5.92578125,-1.0009765625,6.0458984375
0.0525,-6.1259765625,0.0,5.685546875
0.053,-6.2861328125,0.9208984375,5.2451171875
0.0535,-6.3662109375,2.162109375,4.404296875
0.054,-5.8857421875,3.4033203125,2.9228515625
0.0545,-5.125,4.404296875,1.28125
0.055,-4.5244140625,4.9248046875,0.3203125
0.0555,-4.0439453125,5.4453125,-0.560546875
0.056,-3.603515625,6.0859375,-1.44140625
0.0565,-1.9619140625,6.0859375,-3.1630859375
0.057,-0.5205078125,5.8056640625,-4.3642578125
0.0575,0.6005859375,5.4052734375,-5.125
0.058,1.201171875,5.365234375,-5.7255859375
0.0585,2.2421875,5.044921875,-6.486328125
0.059,3.36328125,4.404296875,-7.20703125
0.0595,4.6044921875,2.72265625,-7.0869140625
0.06,5.28515625,1.0009765625,-6.4462890625
0.0605,5.6455078125,0.0400390625,-6.1259765625
0.061,5.8056640625,-0.8408203125,-5.8056640625
0.0615,6.0859375,-1.8017578125,-5.4453125
0.062,5.7255859375,-3.283203125,-3.923828125
0.0625,5.28515625,-4.404296875,-2.5625
0.063,4.564453125,-5.205078125,-1.28125
0.0635,4.083984375,-5.765625,-0.3203125
0.064,3.5634765625,-6.326171875,0.640625
0.0645,3.0830078125,-6.966796875,1.6416015625
0.065,1.28125,-6.806640625,3.283203125
0.0655,-0.4404296875,-6.40625,4.484375
0.066,-1.2412109375,-6.0458984375,5.2451171875
0.0665,-1.9619140625,-6.0458984375,5.8857421875
0.067,-3.0029296875,-5.6455078125,6.7265625
0.0675,-4.404296875,-4.32421875,7.046875
0.068,-5.28515625,-2.9228515625,6.8466796875
0.0685,-5.92578125,-1.3212890625,6.24609375
0.069,-6.1259765625,-0.4404296875,5.8857421875
0.0695,-6.2861328125,0.560546875,5.4853515625
0.07,-6.5263671875,1.4814453125,5.0849609375
0.0705,-6.0458984375,3.04296875,3.3232421875
0.071,-5.365234375,4.1640625,1.76171875
0.0715,-4.724609375,4.7646484375,0.720703125
0.072,-4.244140625,5.2451171875,-0.2802734375
0.0725,-3.7236328125,5.765625,-1.2412109375
0.073,-2.5625,6.1259765625,-2.6025390625
0.0735,-1.12109375,5.92578125,-3.8837890625
0.074,0.400390625,5.4853515625,-4.724609375
0.0745,1.0810546875,5.365234375,-5.4853515625
0.075,1.921875,5.0849609375,-6.166015625
0.0755,2.8427734375,4.8046875,-7.0869140625
0.076,4.32421875,3.0029296875,-7.0068359375
0.0765,5.1650390625,1.521484375,-6.646484375
0.077,5.4853515625,0.3603515625,-6.166015625
0.0775,5.685546875,-0.6005859375,-5.845703125
0.078,5.8857421875,-1.44140625,-5.4453125
0.0785,5.8857421875,-2.6025390625,-4.6044921875
0.079,5.4453125,-3.84375,-3.203125
0.0795,4.64453125,-4.9248046875,-1.5615234375
0.08,4.1240234375,-5.4453125,-0.640625
0.0805,3.7236328125,-6.0458984375,0.2802734375
0.081,3.3232421875,-6.6865234375,1.12109375
0.0815,1.7216796875,-6.7265625,2.72265625
0.082,0.2802734375,-6.3662109375,4.0439453125
0.0825,-0.880859375,-6.0458984375,4.724609375
0.083,-1.521484375,-6.005859375,5.4052734375
0.0835,-2.4423828125,-5.765625,6.166015625
0.084,-3.4033203125,-5.1650390625,6.8466796875
0.0845,-4.6845703125,-3.6435546875,6.806640625
0.085,-5.4853515625,-1.921875,6.2060546875
0.0855,-5.765625,-1.0009765625,5.845703125
0.086,-5.9658203125,-0.16015625,5.60546875
0.0865,-6.24609375,0.7607421875,5.365234375
0.087,-5.9658203125,2.162109375,3.9638671875
0.0875,-5.5654296875,3.2431640625,2.6826171875
0.088,-4.884765625,4.0439453125,1.361328125
0.0885,-4.4443359375,4.6044921875,0.48046875
0.089,-4.0439453125,5.205078125,-0.4404296875
0.0895,-3.6435546875,5.8056640625,-1.361328125
0.09,-1.9619140625,5.7255859375,-2.802734375
0.0905,-0.5205078125,5.4052734375,-4.00390625
0.091,0.3603515625,5.28515625,-4.6845703125
0.0915,1.12109375,5.2451171875,-5.4453125
0.092,2.0419921875,4.96484375,-6.326171875
0.0925,3.3232421875,3.84375,-6.6865234375
0.093,4.32421875,2.5625,-6.6064453125
0.0935,4.96484375,1.0810546875,-6.1259765625
0.094,5.2451171875,0.240234375,-5.8056640625
0.0945,5.4853515625,-0.640625,-5.6455078125
0.095,5.8056640625,-1.4814453125,-5.4453125
0.0955,5.4052734375,-2.9228515625,-3.84375
0.096,4.8046875,-4.00390625,-2.40234375
0.0965,4.2841796875,-4.724609375,-1.4013671875
0.097,3.9638671875,-5.3251953125,-0.6005859375
0.0975,3.5634765625,-6.005859375,0.400390625
0.098,2.6826171875,-6.3662109375,1.6015625
0.0985,1.28125,-6.2861328125,2.8828125
0.099,-0.16015625,-5.845703125,3.8837890625
0.0995,-0.8408203125,-5.845703125,4.6044921875
0.1,-1.6015625,-5.8056640625,5.4052734375
0.1005,-2.482421875,-5.765625,6.3662109375
0.101,-3.8837890625,-4.1240234375,6.40625
0.1015,-4.8046875,-2.72265625,6.166015625
0.102,-5.205078125,-1.6015625,5.765625
0.1025,-5.525390625,-0.80078125,5.5654296875
0.103,-5.765625,0.1201171875,5.3251953125
0.1035,-5.92578125,1.1611328125,4.724609375
0.104,-5.5654296875,2.3623046875,3.443359375
0.1045,-4.9248046875,3.3232421875,1.921875
0.105,-4.484375,3.923828125,1.041015625
0.1055,-4.244140625,4.564453125,0.2802734375
0.106,-4.0439453125,5.365234375,-0.560546875
0.1065,-2.6025390625,5.4052734375,-1.9619140625
0.107,-1.3212890625,5.28515625,-3.123046875
0.1075,-0.3203125,5.0849609375,-3.9638671875
0.108,0.5205078125,5.0849609375,-4.724609375
0.1085,1.28125,5.044921875,-5.525390625
0.109,2.2421875,4.6845703125,-6.326171875
0.1095,3.443359375,3.2431640625,-6.326171875
0.11,4.2841796875,1.76171875,-5.92578125
0.1105,4.6845703125,0.880859375,-5.7255859375
0.111,5.0849609375,0.16015625,-5.6455078125
0.1115,5.4453125,-0.720703125,-5.60546875
0.112,5.2451171875,-1.9619140625,-4.4443359375
0.1125,4.9248046875,-3.0830078125,-3.3232421875
0.113,4.404296875,-3.923828125,-2.08203125
0.1135,4.083984375,-4.64453125,-1.28125
0.114,3.84375,-5.28515625,-0.4404296875
0.1145,3.603515625,-5.9658203125,0.48046875
0.115,2.162109375,-5.9658203125,1.841796875
0.1155,0.7607421875,-5.765625,3.0029296875
0.116,0.0,-5.7255859375,3.8037109375
0.1165,-0.80078125,-5.8056640625,4.6044921875
0.117,-1.681640625,-5.765625,5.5654296875
0.1175,-2.9228515625,-4.8447265625,6.005859375
0.118,-3.8837890625,-3.6435546875,6.005859375
0.1185,-4.564453125,-2.2822265625,5.60546875
0.119,-5.0048828125,-1.4814453125,5.4853515625
0.1195,-5.365234375,-0.720703125,5.4052734375
0.12,-5.765625,0.1201171875,5.365234375
0.1205,-5.4453125,1.3212890625,4.00390625
0.121,-5.0048828125,2.40234375,2.6826171875
0.1215,-4.6044921875,3.123046875,1.76171875
0.122,-4.3642578125,3.8837890625,1.0009765625
0.1225,-4.1640625,4.6044921875,0.240234375
0.123,-3.443359375,5.0849609375,-1.0009765625
0.1235,-2.2822265625,5.125,-2.08203125
0.124,-1.0009765625,4.8447265625,-3.0830078125
0.1245,-0.400390625,5.0048828125,-3.84375
0.125,0.48046875,5.0849609375,-4.7646484375
0.1255,1.2412109375,5.125,-5.7255859375
0.126,2.6025390625,3.84375,-5.845703125
0.1265,3.5234375,2.5224609375,-5.765625
0.127,4.083984375,1.521484375,-5.60546875
0.1275,4.5244140625,0.7607421875,-5.525390625
0.128,4.96484375,0.0,-5.4853515625
0.1285,5.1650390625,-1.0810546875,-5.0849609375
0.129,4.96484375,-2.162109375,-4.0439453125
0.1295,4.4443359375,-3.203125,-2.7626953125
0.13,4.1240234375,-3.84375,-1.8818359375
0.1305,4.0439453125,-4.64453125,-1.1611328125
0.131,3.9638671875,-5.4453125,-0.400390625
0.1315,2.802734375,-5.6455078125,1.0009765625
0.132,1.5615234375,-5.6455078125,2.162109375
0.1325,0.6005859375,-5.60546875,3.04296875
0.133,-0.16015625,-5.765625,3.8837890625
0.1335,-1.041015625,-5.7255859375,4.8447265625
0.134,-1.9619140625,-5.525390625,5.685546875
0.1345,-3.1630859375,-4.32421875,5.8056640625
0.135,-4.0439453125,-2.8828125,5.4853515625
0.1355,-4.564453125,-1.9619140625,5.4052734375
0.136,-5.0048828125,-1.28125,5.4052734375
0.1365,-5.4853515625,-0.6005859375,5.4052734375
0.137,-5.4052734375,0.6806640625,4.404296875
0.1375,-5.1650390625,1.76171875,3.36328125
0.138,-4.7646484375,2.642578125,2.2822265625
0.1385,-4.484375,3.4033203125,1.44140625
0.139,-4.2841796875,4.1640625,0.6806640625
0.1395,-4.1240234375,4.9248046875,-0.240234375
0.14,-2.8427734375,5.044921875,-1.4814453125
0.1405,-1.521484375,4.8447265625,-2.642578125
0.141,-0.80078125,4.96484375,-3.4833984375
0.1415,0.0,5.0849609375,-4.32421875
0.142,0.9609375,5.0849609375,-5.3251953125
0.1425,2.2021484375,4.1240234375,-5.8056640625
0.143,3.1630859375,3.04296875,-5.8857421875
0.1435,3.8837890625,1.76171875,-5.60546875
0.144,4.404296875,0.9609375,-5.525390625
0.1445,4.8046875,0.2001953125,-5.4853515625
0.145,5.2451171875,-0.640625,-5.4853515625
0.1455,4.96484375,-1.9619140625,-4.2041015625
0.146,4.564453125,-3.04296875,-2.8828125
0.1465,4.1640625,-3.8037109375,-1.9619140625
0.147,4.00390625,-4.5244140625,-1.201171875
0.1475,3.8037109375,-5.3251953125,-0.3203125
0.148,3.04296875,-5.8056640625,0.880859375
0.1485,1.841796875,-5.845703125,2.08203125
0.149,0.6005859375,-5.6455078125,3.123046875
0.1495,-0.2802734375,-5.7255859375,3.9638671875
0.15,-1.0009765625,-5.765625,4.8046875
0.1505,-1.921875,-5.765625,5.8056640625
0.151,-3.283203125,-4.2841796875,5.9658203125
0.1515,-4.2041015625,-2.9228515625,5.765625
0.152,-4.724609375,-1.921875,5.4853515625
0.1525,-5.125,-1.2412109375,5.4052734375
0.153,-5.4853515625,-0.3603515625,5.2451171875
0.1535,-5.6455078125,0.7607421875,4.564453125
0.154,-5.4052734375,1.921875,3.5234375
0.1545,-4.8046875,2.962890625,2.162109375
0.155,-4.4443359375,3.6435546875,1.2412109375
0.1555,-4.2041015625,4.32421875,0.5205078125
0.156,-4.0439453125,5.0849609375,-0.3603515625
0.1565,-2.642578125,5.205078125,-1.8017578125
0.157,-1.44140625,5.1650390625,-2.9228515625
0.1575,-0.640625,5.0849609375,-3.603515625
0.158,0.240234375,5.0849609375,-4.5244140625
0.1585,1.201171875,4.96484375,-5.4453125
0.159,2.2421875,4.5244140625,-6.166015625
0.1595,3.4033203125,3.1630859375,-6.166015625
0.16,4.244140625,1.6416015625,-5.8056640625
0.1605,4.64453125,0.7607421875,-5.6455078125
0.161,4.96484375,0.0,-5.5654296875
0.1615,5.365234375,-0.9208984375,-5.4853515625
0.162,5.205078125,-2.2021484375,-4.1640625
0.1625,4.8447265625,-3.2431640625,-3.0830078125
0.163,4.3642578125,-4.0439453125,-1.921875
0.1635,4.0439453125,-4.7646484375,-1.041015625
0.164,3.7236328125,-5.4453125,-0.2001953125
0.1645,3.3232421875,-6.1259765625,0.80078125
0.165,1.8818359375,-6.0859375,2.2021484375
0.1655,0.400390625,-5.92578125,3.36328125
0.166,-0.3603515625,-5.8056640625,4.083984375
0.1665,-1.12109375,-5.8056640625,4.884765625
0.167,-2.08203125,-5.6455078125,5.8857421875
0.1675,-3.4033203125,-4.5244140625,6.166015625
0.168,-4.3642578125,-3.203125,6.166015625
0.1685,-4.96484375,-1.9619140625,5.7255859375
0.169,-5.365234375,-1.12109375,5.5654296875
0.1695,-5.6455078125,-0.3203125,5.28515625
0.17,-5.9658203125,0.720703125,5.125
0.1705,-5.6455078125,2.08203125,3.6435546875
0.171,-5.125,3.1630859375,2.162109375
0.1715,-4.6044921875,3.84375,1.28125
0.172,-4.32421875,4.484375,0.48046875
0.1725,-3.9638671875,5.205078125,-0.5205078125
0.173,-2.8828125,5.5654296875,-1.8818359375
0.1735,-1.6416015625,5.60546875,-2.962890625
0.174,-0.3203125,5.2451171875,-4.083984375
0.1745,0.4404296875,5.2451171875,-4.8046875
0.175,1.28125,5.0849609375,-5.6455078125
0.1755,2.2822265625,4.9248046875,-6.486328125
0.176,3.8037109375,3.1630859375,-6.646484375
0.1765,4.6845703125,1.6416015625,-6.326171875
0.177,5.044921875,0.6806640625,-5.92578125
0.1775,5.3251953125,-0.3203125,-5.8056640625
0.178,5.6455078125,-1.2412109375,-5.4052734375
0.1785,5.685546875,-2.482421875,-4.484375
0.179,5.3251953125,-3.7236328125,-3.1630859375
0.1795,4.64453125,-4.724609375,-1.6416015625
0.18,4.1240234375,-5.205078125,-0.7607421875
0.1805,3.7236328125,-5.845703125,0.16015625
0.181,3.3232421875,-6.5263671875,1.12109375
0.1815,1.6015625,-6.5263671875,2.9228515625
0.182,0.240234375,-6.2861328125,4.00390625
0.1825,-0.8408203125,-6.0458984375,4.7646484375
0.183,-1.6015625,-5.92578125,5.4052734375
0.1835,-2.642578125,-5.60546875,6.166015625
0.184,-3.8037109375,-4.8046875,6.9267578125
0.1845,-5.0048828125,-3.203125,6.806640625
0.185,-5.765625,-1.5615234375,6.24609375
0.1855,-5.92578125,-0.6806640625,5.765625
0.186,-6.0859375,0.3203125,5.4453125
0.1865,-6.3662109375,1.28125,5.044921875
0.187,-5.92578125,2.8427734375,3.443359375
0.1875,-5.4853515625,3.8837890625,2.08203125
0.188,-4.7646484375,4.564453125,0.880859375
0.1885,-4.2841796875,5.044921875,0.0
0.189,-3.7236328125,5.5654296875,-1.0009765625
0.1895,-3.04296875,6.0859375,-2.08203125
0.19,-1.3212890625,5.92578125,-3.603515625
0.1905,0.2802734375,5.4853515625,-4.6845703125
0.191,0.9208984375,5.28515625,-5.28515625
0.1915,1.7216796875,5.2451171875,-5.845703125
0.192,2.72265625,4.724609375,-6.806640625
0.1925,4.1240234375,3.203125,-7.0869140625
0.193,4.96484375,1.76171875,-6.806640625
0.1935,5.4453125,0.4404296875,-6.2861328125
0.194,5.685546875,-0.48046875,-5.8857421875
0.1945,5.8056640625,-1.3212890625,-5.525390625
0.195,6.0458984375,-2.322265625,-5.0849609375
0.1955,5.525390625,-3.84375,-3.283203125
0.196,4.8046875,-4.884765625,-1.76171875
0.1965,4.244140625,-5.4453125,-0.720703125
0.197,3.84375,-5.9658203125,0.2001953125
0.1975,3.2431640625,-6.56640625,1.1611328125
0.198,1.9619140625,-6.806640625,2.6025390625
0.1985,0.5205078125,-6.6064453125,3.8837890625
0.199,-0.8408203125,-6.1259765625,4.8046875
0.1995,-1.4814453125,-5.92578125,5.4052734375
0.2,-2.40234375,-5.765625,6.2060546875
0.2005,-3.36328125,-5.4453125,7.0068359375
0.201,-4.884765625,-3.7236328125,6.966796875
0.2015,-5.6455078125,-2.08203125,6.4462890625
0.202,-5.92578125,-1.0009765625,6.005859375
0.2025,-6.1259765625,0.0,5.6455078125
0.203,-6.24609375,0.9208984375,5.2451171875
0.2035,-6.2060546875,2.2021484375,4.1640625
0.204,-5.765625,3.4033203125,2.802734375
0.2045,-5.0048828125,4.32421875,1.28125
0.205,-4.484375,4.8046875,0.400390625
0.2055,-4.0439453125,5.365234375,-0.5205078125
0.206,-3.6435546875,5.9658203125,-1.361328125
0.2065,-1.9619140625,5.92578125,-3.04296875
0.207,-0.5205078125,5.685546875,-4.2041015625
0.2075,0.560546875,5.28515625,-5.0048828125
0.208,1.28125,5.2451171875,-5.6455078125
0.2085,2.2021484375,4.9248046875,-6.40625
0.209,3.3232421875,4.083984375,-7.0869140625
0.2095,4.484375,2.6025390625,-7.0068359375
0.21,5.2451171875,1.041015625,-6.3662109375
0.2105,5.525390625,0.1201171875,-6.0458984375
0.211,5.7255859375,-0.80078125,-5.765625
0.2115,6.005859375,-1.681640625,-5.4453125
0.212,5.685546875,-3.2431640625,-3.84375
0.2125,5.1650390625,-4.404296875,-2.5224609375
0.213,4.484375,-5.125,-1.2412109375
0.2135,4.083984375,-5.7255859375,-0.3603515625
0.214,3.5634765625,-6.2861328125,0.640625
0.2145,2.8828125,-6.8466796875,1.76171875
0.215,1.201171875,-6.6865234375,3.3232421875
0.2155,-0.5205078125,-6.24609375,4.484375
0.216,-1.1611328125,-6.1259765625,5.125
0.2165,-1.9619140625,-6.005859375,5.8857421875
0.217,-3.0830078125,-5.6455078125,6.9267578125
0.2175,-4.484375,-4.1640625,7.0068359375
0.218,-5.4052734375,-2.6826171875,6.806640625
0.2185,-5.92578125,-1.28125,6.2060546875
0.219,-6.1259765625,-0.400390625,5.8056640625
0.2195,-6.2861328125,0.640625,5.4453125
0.22,-6.5263671875,1.7216796875,4.9248046875
0.2205,-6.0458984375,3.203125,3.1630859375
0.221,-5.28515625,4.32421875,1.5615234375
0.2215,-4.64453125,4.884765625,0.5205078125
0.222,-4.2041015625,5.4052734375,-0.400390625
0.2225,-3.68359375,6.005859375,-1.361328125
0.223,-2.2822265625,6.2060546875,-2.9228515625
0.2235,-0.7607421875,6.0458984375,-4.244140625
0.224,0.6005859375,5.4853515625,-5.0849609375
0.2245,1.2412109375,5.28515625,-5.6455078125
0.225,2.162109375,5.0849609375,-6.326171875
0.2255,3.1630859375,4.6044921875,-7.2470703125
0.226,4.6044921875,2.802734375,-7.126953125
0.2265,5.365234375,1.201171875,-6.646484375
0.227,5.6455078125,0.080078125,-6.1259765625
0.2275,5.8056640625,-0.80078125,-5.765625
0.228,5.9658203125,-1.76171875,-5.365234375
