wavelength,x,y,z
0.0,-6.3662109375,0.6005859375,5.6455078125
0.0005,-6.0859375,2.0419921875,4.1240234375
0.001,-5.60546875,3.2431640625,2.6826171875
0.0015,-5.125,4.2841796875,1.4013671875
0.002,-4.6845703125,4.9248046875,0.6005859375
0.0025,-4.244140625,5.4052734375,-0.2802734375
0.003,-3.7236328125,5.8857421875,-1.1611328125
0.0035,-1.8818359375,5.685546875,-2.8427734375
0.004,-0.2802734375,5.4453125,-4.2041015625
0.0045,0.6005859375,5.525390625,-5.0048828125
0.005,1.1611328125,5.4453125,-5.7255859375
0.0055,2.08203125,5.1650390625,-6.4462890625
0.006,3.36328125,3.9638671875,-6.7666015625
0.0065,4.484375,2.482421875,-6.7265625
0.007,5.28515625,1.041015625,-6.40625
0.0075,5.60546875,0.2802734375,-6.24609375
0.008,5.7255859375,-0.5205078125,-5.765625
0.0085,5.8857421875,-1.4013671875,-5.6455078125
0.009,5.4052734375,-3.0029296875,-3.84375
0.0095,4.8447265625,-4.2041015625,-2.3623046875
0.01,4.5244140625,-4.96484375,-1.361328125
0.0105,4.2041015625,-5.525390625,-0.640625
0.011,3.763671875,-6.0458984375,0.2802734375
0.0115,2.6826171875,-6.2861328125,1.44140625
0.012,1.12109375,-6.1259765625,2.8828125
0.0125,-0.3203125,-5.9658203125,4.00390625
0.013,-0.9208984375,-6.0859375,4.8046875
0.0135,-1.6015625,-5.92578125,5.4853515625
0.014,-2.4423828125,-5.8056640625,6.326171875
0.0145,-3.923828125,-4.1240234375,6.3662109375
0.015,-4.884765625,-2.642578125,6.2060546875
0.0155,-5.4853515625,-1.6015625,6.005859375
0.016,-5.7255859375,-0.880859375,5.765625
0.0165,-5.92578125,-0.2001953125,5.60546875
0.017,-5.9658203125,0.8408203125,5.044921875
0.0175,-5.525390625,2.162109375,3.5234375
0.018,-5.0048828125,3.36328125,2.0419921875
0.0185,-4.724609375,4.1240234375,1.2412109375
0.019,-4.4443359375,4.6044921875,0.560546875
0.0195,-4.1240234375,5.2451171875,-0.2802734375
0.02,-2.6826171875,5.28515625,-1.7216796875
0.0205,-1.28125,5.2451171875,-3.0029296875
0.021,-0.3203125,5.1650390625,-4.00390625
0.0215,0.3203125,5.2451171875,-4.8046875
0.022,1.12109375,5.2451171875,-5.4853515625
0.0225,1.9619140625,4.9248046875,-6.24609375
0.023,3.3232421875,3.36328125,-6.24609375
0.0235,4.32421875,1.8818359375,-6.005859375
0.024,4.8447265625,0.9609375,-6.1259765625
0.0245,5.0849609375,0.3603515625,-5.8857421875
0.025,5.4052734375,-0.48046875,-5.765625
0.0255,5.205078125,-1.681640625,-4.724609375
0.026,4.9248046875,-2.7626953125,-3.4833984375
0.0265,4.5244140625,-3.84375,-2.2822265625
0.027,4.32421875,-4.564453125,-1.4814453125
0.0275,4.083984375,-5.1650390625,-0.80078125
0.028,3.8037109375,-5.765625,0.0400390625
0.0285,2.2021484375,-5.765625,1.521484375
0.029,0.880859375,-5.6455078125,2.802734375
0.0295,0.0,-5.92578125,3.763671875
0.03,-0.6005859375,-5.9658203125,4.484375
0.0305,-1.44140625,-5.92578125,5.365234375
0.031,-2.6025390625,-5.0849609375,5.845703125
0.0315,-3.7236328125,-3.8037109375,5.92578125
0.032,-4.64453125,-2.322265625,5.8857421875
0.0325,-5.125,-1.76171875,5.7255859375
0.033,-5.4453125,-1.12109375,5.6455078125
0.0335,-5.765625,-0.400390625,5.6455078125
0.034,-5.4453125,1.12109375,4.2041015625
0.0345,-5.0849609375,2.2822265625,2.9228515625
0.035,-4.8447265625,3.1630859375,2.0419921875
0.0355,-4.6845703125,3.84375,1.3212890625
0.036,-4.3642578125,4.484375,0.6005859375
0.0365,-3.68359375,4.9248046875,-0.560546875
0.037,-2.322265625,4.96484375,-1.841796875
0.0375,-1.0009765625,5.044921875,-2.962890625
0.038,-0.4404296875,5.0849609375,-3.8837890625
0.0385,0.3203125,5.1650390625,-4.6845703125
0.039,1.0810546875,5.2451171875,-5.60546875
0.0395,2.4423828125,3.8837890625,-5.765625
0.04,3.36328125,2.5224609375,-5.765625
0.0405,4.1640625,1.5615234375,-5.765625
0.041,4.64453125,0.9609375,-5.845703125
0.0415,4.884765625,0.240234375,-5.7255859375
0.042,5.1650390625,-0.640625,-5.4453125
0.0425,4.8447265625,-1.8017578125,-4.1640625
0.043,4.484375,-3.04296875,-2.8427734375
0.0435,4.32421875,-3.84375,-2.08203125
0.044,4.2041015625,-4.5244140625,-1.44140625
0.0445,4.1240234375,-5.205078125,-0.720703125
0.045,2.8828125,-5.4453125,0.6806640625
0.0455,1.76171875,-5.4052734375,1.921875
0.046,0.7607421875,-5.6455078125,2.9228515625
0.0465,0.1201171875,-5.92578125,3.8037109375
0.047,-0.720703125,-5.92578125,4.64453125
0.0475,-1.6015625,-5.8056640625,5.525390625
0.048,-2.9228515625,-4.244140625,5.7255859375
0.0485,-4.0439453125,-3.0830078125,5.5654296875
0.049,-4.724609375,-2.2822265625,5.6455078125
0.0495,-5.125,-1.6015625,5.685546875
0.05,-5.4853515625,-0.8408203125,5.685546875
0.0505,-5.4453125,0.4404296875,4.7646484375
0.051,-5.2451171875,1.5615234375,3.68359375
0.0515,-4.9248046875,2.642578125,2.482421875
0.052,-4.7646484375,3.443359375,1.7216796875
0.0525,-4.5244140625,4.1240234375,1.0009765625
0.053,-4.32421875,4.8046875,0.240234375
0.0535,-2.8427734375,4.8447265625,-1.4013671875
0.054,-1.521484375,4.8447265625,-2.6025390625
0.0545,-0.80078125,5.0849609375,-3.5634765625
0.055,0.0,5.2451171875,-4.3642578125
0.0555,0.80078125,5.1650390625,-5.2451171875
0.056,1.8818359375,4.32421875,-5.765625
0.0565,3.1630859375,3.123046875,-5.92578125
0.057,4.0439453125,1.76171875,-5.8056640625
0.0575,4.5244140625,1.041015625,-5.845703125
0.058,4.884765625,0.4404296875,-5.7255859375
0.0585,5.2451171875,-0.3603515625,-5.7255859375
0.059,4.9248046875,-1.76171875,-4.244140625
0.0595,4.6044921875,-2.9228515625,-3.0029296875
0.06,4.4443359375,-3.84375,-2.08203125
0.0605,4.244140625,-4.5244140625,-1.4013671875
0.061,3.9638671875,-5.1650390625,-0.6806640625
0.0615,3.203125,-5.6455078125,0.48046875
0.062,1.8818359375,-5.6455078125,1.841796875
0.0625,0.6806640625,-5.6455078125,3.0029296875
0.063,0.0400390625,-5.845703125,3.84375
0.0635,-0.720703125,-5.92578125,4.64453125
0.064,-1.7216796875,-5.845703125,5.60546875
0.0645,-3.0830078125,-4.484375,5.8056640625
0.065,-4.083984375,-3.0830078125,5.8056640625
0.0655,-4.8447265625,-2.162109375,5.7255859375
0.066,-5.1650390625,-1.4013671875,5.7255859375
0.0665,-5.4453125,-0.720703125,5.5654296875
0.067,-5.7255859375,0.2802734375,5.1650390625
0.0675,-5.3251953125,1.6015625,3.8037109375
0.068,-4.96484375,2.802734375,2.40234375
0.0685,-4.7646484375,3.5634765625,1.6015625
0.069,-4.5244140625,4.2041015625,0.9609375
0.0695,-4.244140625,4.8447265625,0.16015625
0.07,-2.9228515625,5.044921875,-1.361328125
0.0705,-1.6416015625,5.044921875,-2.642578125
0.071,-0.6806640625,5.0849609375,-3.6435546875
0.0715,0.0400390625,5.2451171875,-4.484375
0.072,0.9208984375,5.205078125,-5.205078125
0.0725,1.76171875,4.9248046875,-6.0458984375
0.073,3.283203125,3.4033203125,-6.0859375
0.0735,4.1240234375,1.841796875,-5.92578125
0.074,4.724609375,1.041015625,-5.8857421875
0.0745,5.0048828125,0.400390625,-5.8056640625
0.075,5.28515625,-0.48046875,-5.6455078125
0.0755,5.1650390625,-1.7216796875,-4.564453125
0.076,4.9248046875,-2.9228515625,-3.3232421875
0.0765,4.5244140625,-3.9638671875,-2.1220703125
0.077,4.32421875,-4.6845703125,-1.361328125
0.0775,4.00390625,-5.2451171875,-0.640625
0.078,3.68359375,-5.845703125,0.240234375
0.0785,1.9619140625,-5.8056640625,1.841796875
0.079,0.640625,-5.765625,3.123046875
0.0795,-0.2001953125,-5.92578125,4.0439453125
0.08,-0.80078125,-6.005859375,4.8046875
0.0805,-1.76171875,-5.845703125,5.60546875
0.081,-2.962890625,-5.0048828125,6.0458984375
0.0815,-4.244140625,-3.4833984375,6.1259765625
0.082,-5.0849609375,-2.08203125,5.92578125
0.0825,-5.4853515625,-1.3212890625,5.8857421875
0.083,-5.7255859375,-0.6005859375,5.685546875
0.0835,-5.9658203125,0.2802734375,5.4453125
0.084,-5.60546875,1.8818359375,3.8037109375
0.0845,-5.205078125,3.0830078125,2.4423828125
0.085,-4.884765625,3.8837890625,1.44140625
0.0855,-4.6044921875,4.484375,0.7607421875
0.086,-4.1640625,5.0849609375,-0.2001953125
0.0865,-3.203125,5.4453125,-1.361328125
0.087,-1.6416015625,5.4052734375,-2.8427734375
0.0875,-0.3603515625,5.2451171875,-4.0439453125
0.088,0.3603515625,5.365234375,-4.884765625
0.0885,1.12109375,5.2451171875,-5.60546875
0.089,2.1220703125,5.0849609375,-6.486328125
0.0895,3.5634765625,3.3232421875,-6.56640625
0.09,4.6044921875,1.921875,-6.40625
0.0905,5.2451171875,0.80078125,-6.24609375
0.091,5.4453125,0.080078125,-6.0458984375
0.0915,5.60546875,-0.8408203125,-5.7255859375
0.092,5.7255859375,-1.921875,-5.0849609375
0.0925,5.2451171875,-3.4033203125,-3.36328125
0.093,4.7646484375,-4.6044921875,-1.841796875
0.0935,4.4443359375,-5.28515625,-1.0009765625
0.094,4.00390625,-5.765625,-0.2802734375
0.0945,3.5234375,-6.2861328125,0.6806640625
0.095,1.8818359375,-6.40625,2.40234375
0.0955,0.400390625,-6.2861328125,3.8037109375
0.096,-0.720703125,-6.2060546875,4.724609375
0.0965,-1.361328125,-6.166015625,5.4052734375
0.097,-2.2421875,-5.7255859375,6.2060546875
0.0975,-3.36328125,-5.28515625,6.806640625
0.098,-4.8447265625,-3.36328125,6.7265625
0.0985,-5.765625,-1.8017578125,6.40625
0.099,-6.1259765625,-0.880859375,6.2060546875
0.0995,-6.166015625,0.0,5.845703125
0.1,-6.326171875,0.880859375,5.4052734375
0.1005,-6.0859375,2.40234375,3.923828125
0.101,-5.60546875,3.6435546875,2.4423828125
0.1015,-5.0048828125,4.6044921875,1.12109375
0.102,-4.564453125,5.125,0.2802734375
0.1025,-4.00390625,5.525390625,-0.640625
0.103,-3.36328125,5.9658203125,-1.6015625
0.1035,-1.4013671875,5.8056640625,-3.36328125
0.104,0.2001953125,5.5654296875,-4.724609375
0.1045,0.880859375,5.4853515625,-5.4453125
0.105,1.521484375,5.365234375,-5.9658203125
0.1055,2.482421875,4.8447265625,-6.7265625
0.106,3.84375,3.7236328125,-7.0869140625
0.1065,4.96484375,2.1220703125,-6.9267578125
0.107,5.685546875,0.6005859375,-6.486328125
0.1075,5.8857421875,-0.2802734375,-6.2861328125
0.108,5.8857421875,-1.041015625,-5.845703125
0.1085,6.005859375,-1.8818359375,-5.4052734375
0.109,5.4853515625,-3.5634765625,-3.5234375
0.1095,4.96484375,-4.8046875,-1.9619140625
0.11,4.484375,-5.525390625,-0.9609375
0.1105,4.083984375,-6.0458984375,-0.2001953125
0.111,3.4833984375,-6.40625,0.7607421875
0.1115,2.4423828125,-6.7265625,2.0419921875
0.112,0.6005859375,-6.4462890625,3.6435546875
0.1125,-0.80078125,-6.2861328125,4.7646484375
0.113,-1.4013671875,-6.2861328125,5.4853515625
0.1135,-2.2021484375,-6.0859375,6.0859375
0.114,-3.123046875,-5.6455078125,6.88671875
0.1145,-4.724609375,-3.84375,6.966796875
0.115,-5.7255859375,-2.2822265625,6.6865234375
0.1155,-6.24609375,-1.0810546875,6.3662109375
0.116,-6.3662109375,-0.3203125,6.0859375
0.1165,-6.4462890625,0.640625,5.60546875
0.117,-6.4462890625,1.76171875,4.884765625
0.1175,-5.92578125,3.283203125,3.04296875
0.118,-5.28515625,4.484375,1.4013671875
0.1185,-4.8447265625,5.0849609375,0.560546875
0.119,-4.3642578125,5.525390625,-0.3203125
0.1195,-3.7236328125,6.005859375,-1.2412109375
0.12,-2.001953125,6.005859375,-3.0029296875
0.1205,-0.4404296875,5.7255859375,-4.3642578125
0.121,0.720703125,5.60546875,-5.28515625
0.1215,1.3212890625,5.4853515625,-5.9658203125
0.122,2.2021484375,5.1650390625,-6.56640625
0.1225,3.2431640625,4.6044921875,-7.2470703125
0.123,4.7646484375,2.642578125,-7.126953125
0.1235,5.685546875,0.9609375,-6.7265625
0.124,6.005859375,0.0,-6.4462890625
0.1245,6.0859375,-0.880859375,-6.1259765625
0.125,6.1259765625,-1.7216796875,-5.60546875
0.1255,5.8857421875,-3.2431640625,-4.1640625
0.126,5.3251953125,-4.5244140625,-2.5224609375
0.1265,4.7646484375,-5.525390625,-1.1611328125
0.127,4.32421875,-6.0859375,-0.3203125
0.1275,3.763671875,-6.4462890625,0.560546875
0.128,3.0830078125,-6.9267578125,1.521484375
0.1285,1.0009765625,-6.7265625,3.3232421875
0.129,-0.640625,-6.4462890625,4.6845703125
0.1295,-1.4013671875,-6.40625,5.4453125
0.13,-2.001953125,-6.166015625,6.0859375
0.1305,-3.0029296875,-5.7255859375,6.7666015625
0.131,-4.3642578125,-4.484375,7.1669921875
0.1315,-5.525390625,-2.8427734375,7.0068359375
0.132,-6.2861328125,-1.28125,6.5263671875
0.1325,-6.5263671875,-0.48046875,6.24609375
0.133,-6.5263671875,0.48046875,5.8056640625
0.1335,-6.646484375,1.3212890625,5.4052734375
0.134,-6.1259765625,3.123046875,3.36328125
0.1345,-5.4853515625,4.32421875,1.841796875
0.135,-5.0048828125,5.0849609375,0.7607421875
0.1355,-4.5244140625,5.5654296875,0.0
0.136,-3.8837890625,5.9658203125,-1.0009765625
0.1365,-2.72265625,6.2060546875,-2.3623046875
0.137,-0.9609375,5.92578125,-3.9638671875
0.1375,0.560546875,5.60546875,-5.1650390625
0.138,1.2412109375,5.60546875,-5.8056640625
0.1385,1.921875,5.365234375,-6.40625
0.139,2.8427734375,4.96484375,-7.0869140625
0.1395,4.484375,3.0830078125,-7.126953125
0.14,5.4052734375,1.521484375,-6.88671875
0.1405,5.8857421875,0.3203125,-6.486328125
0.141,6.0458984375,-0.560546875,-6.24609375
0.1415,6.0458984375,-1.361328125,-5.765625
0.142,6.0859375,-2.40234375,-5.044921875
0.1425,5.4453125,-3.923828125,-3.203125
0.143,4.8046875,-5.125,-1.5615234375
0.1435,4.404296875,-5.765625,-0.640625
0.144,3.9638671875,-6.166015625,0.1201171875
0.1445,3.443359375,-6.646484375,0.9609375
0.145,1.7216796875,-6.6865234375,2.6025390625
0.1455,0.16015625,-6.4462890625,3.923828125
0.146,-1.0009765625,-6.2060546875,4.9248046875
0.1465,-1.5615234375,-6.166015625,5.60546875
0.147,-2.322265625,-5.92578125,6.2060546875
0.1475,-3.283203125,-5.4853515625,6.88671875
0.148,-4.8046875,-3.5634765625,6.7666015625
0.1485,-5.7255859375,-1.921875,6.4462890625
0.149,-6.1259765625,-1.0009765625,6.2060546875
0.1495,-6.24609375,-0.3203125,5.92578125
0.15,-6.326171875,0.6005859375,5.5654296875
0.1505,-6.1259765625,2.001953125,4.244140625
0.151,-5.6455078125,3.203125,2.8427734375
0.1515,-5.0849609375,4.2841796875,1.4013671875
0.152,-4.724609375,4.9248046875,0.6005859375
0.1525,-4.244140625,5.28515625,-0.240234375
0.153,-3.8037109375,5.8056640625,-1.0810546875
0.1535,-1.9619140625,5.685546875,-2.7626953125
0.154,-0.3603515625,5.4453125,-4.1240234375
0.1545,0.5205078125,5.4853515625,-4.96484375
0.155,1.12109375,5.4853515625,-5.6455078125
0.1555,1.921875,5.1650390625,-6.3662109375
0.156,3.1630859375,4.2041015625,-6.806640625
0.1565,4.404296875,2.6025390625,-6.7666015625
0.157,5.2451171875,1.12109375,-6.40625
0.1575,5.5654296875,0.3203125,-6.24609375
0.158,5.685546875,-0.5205078125,-5.9658203125
0.1585,5.8857421875,-1.2412109375,-5.765625
0.159,5.4052734375,-2.8427734375,-3.923828125
0.1595,4.96484375,-4.0439453125,-2.482421875
0.16,4.5244140625,-4.96484375,-1.44140625
0.1605,4.244140625,-5.525390625,-0.6806640625
0.161,3.8037109375,-6.0458984375,0.16015625
0.1615,2.8828125,-6.40625,1.28125
0.162,1.2412109375,-6.2060546875,2.8427734375
0.1625,-0.2802734375,-6.0458984375,4.0439453125
0.163,-0.880859375,-6.1259765625,4.8046875
0.1635,-1.5615234375,-6.0458984375,5.5654296875
0.164,-2.4423828125,-5.8056640625,6.326171875
0.1645,-3.84375,-4.1640625,6.40625
0.165,-4.9248046875,-2.802734375,6.326171875
0.1655,-5.60546875,-1.6015625,6.0859375
0.166,-5.765625,-0.9208984375,5.8857421875
0.1665,-5.92578125,-0.2001953125,5.6455078125
0.167,-6.0458984375,0.80078125,5.1650390625
0.1675,-5.60546875,2.2421875,3.5234375
0.168,-5.0849609375,3.443359375,2.0419921875
0.1685,-4.7646484375,4.1240234375,1.201171875
0.169,-4.4443359375,4.64453125,0.5205078125
0.1695,-4.083984375,5.1650390625,-0.3603515625
0.17,-2.6826171875,5.365234375,-1.8017578125
0.1705,-1.28125,5.2451171875,-3.0830078125
0.171,-0.2802734375,5.1650390625,-4.083984375
0.1715,0.48046875,5.28515625,-4.96484375
0.172,1.12109375,5.205078125,-5.525390625
0.1725,2.1220703125,5.044921875,-6.3662109375
0.173,3.4033203125,3.3232421875,-6.2861328125
0.1735,4.404296875,1.841796875,-6.0859375
0.174,4.9248046875,1.0009765625,-6.0458984375
0.1745,5.1650390625,0.3603515625,-5.92578125
0.175,5.365234375,-0.4404296875,-5.765625
0.1755,5.28515625,-1.6015625,-4.8046875
0.176,4.9248046875,-2.72265625,-3.4833984375
0.1765,4.5244140625,-3.923828125,-2.2421875
0.177,4.32421875,-4.64453125,-1.4814453125
0.1775,4.083984375,-5.2451171875,-0.8408203125
0.178,3.84375,-5.8056640625,0.0400390625
0.1785,2.2421875,-5.8056640625,1.521484375
0.179,0.9208984375,-5.765625,2.802734375
0.1795,0.1201171875,-5.845703125,3.84375
0.18,-0.6005859375,-6.0458984375,4.484375
0.1805,-1.28125,-5.765625,5.28515625
0.181,-2.5224609375,-5.2451171875,5.92578125
0.1815,-3.7236328125,-3.8837890625,5.9658203125
0.182,-4.64453125,-2.5224609375,5.765625
0.1825,-5.1650390625,-1.7216796875,5.765625
0.183,-5.4453125,-1.0810546875,5.7255859375
0.1835,-5.765625,-0.4404296875,5.685546875
0.184,-5.4453125,1.12109375,4.244140625
0.1845,-5.1650390625,2.2021484375,3.04296875
0.185,-4.884765625,3.1630859375,2.0419921875
0.1855,-4.724609375,3.84375,1.3212890625
0.186,-4.404296875,4.484375,0.6005859375
0.1865,-3.8037109375,5.0048828125,-0.48046875
0.187,-2.3623046875,4.96484375,-1.841796875
0.1875,-1.0009765625,4.96484375,-3.203125
0.188,-0.400390625,5.1650390625,-4.00390625
0.1885,0.400390625,5.3251953125,-4.7646484375
0.189,1.12109375,5.2451171875,-5.60546875
0.1895,2.482421875,3.9638671875,-5.845703125
0.19,3.5234375,2.6826171875,-5.8857421875
0.1905,4.2841796875,1.5615234375,-5.8056640625
0.191,4.6845703125,0.9609375,-5.8056640625
0.1915,4.96484375,0.240234375,-5.7255859375
0.192,5.2451171875,-0.6005859375,-5.4853515625
0.1925,4.8046875,-1.9619140625,-4.083984375
0.193,4.484375,-3.203125,-2.72265625
0.1935,4.32421875,-3.9638671875,-1.9619140625
0.194,4.1240234375,-4.5244140625,-1.3212890625
0.1945,3.9638671875,-5.205078125,-0.640625
0.195,2.8427734375,-5.4853515625,0.7607421875
0.1955,1.6015625,-5.4052734375,2.1220703125
0.196,0.640625,-5.60546875,3.0029296875
0.1965,0.080078125,-5.765625,3.9638671875
0.197,-0.80078125,-5.845703125,4.64453125
0.1975,-1.6015625,-5.8056640625,5.525390625
0.198,-3.0029296875,-4.3642578125,5.685546875
0.1985,-4.0439453125,-3.0029296875,5.60546875
0.199,-4.6845703125,-2.162109375,5.685546875
0.1995,-5.0849609375,-1.521484375,5.685546875
0.2,-5.4453125,-0.9208984375,5.60546875
0.2005,-5.4052734375,0.2802734375,4.8046875
0.201,-5.1650390625,1.4013671875,3.68359375
0.2015,-4.884765625,2.5224609375,2.482421875
0.202,-4.7646484375,3.36328125,1.76171875
0.2025,-4.5244140625,4.00390625,1.12109375
0.203,-4.3642578125,4.724609375,0.3603515625
0.2035,-2.8427734375,4.8046875,-1.28125
0.204,-1.6416015625,4.8447265625,-2.4423828125
0.2045,-0.9609375,5.044921875,-3.4033203125
0.205,-0.3203125,5.2451171875,-4.2041015625
0.2055,0.6005859375,5.2451171875,-5.0849609375
0.206,1.7216796875,4.6044921875,-5.6455078125
0.2065,2.8828125,3.36328125,-5.8056640625
0.207,3.84375,2.0419921875,-5.7255859375
0.2075,4.4443359375,1.28125,-5.765625
0.208,4.8046875,0.6005859375,-5.765625
0.2085,5.125,0.0,-5.765625
0.209,4.884765625,-1.4013671875,-4.5244140625
0.2095,4.6044921875,-2.6025390625,-3.36328125
0.21,4.4443359375,-3.5234375,-2.40234375
0.2105,4.32421875,-4.244140625,-1.681640625
0.211,4.083984375,-4.9248046875,-1.0009765625
0.2115,3.443359375,-5.5654296875,0.1201171875
0.212,2.2021484375,-5.525390625,1.4013671875
0.2125,1.0009765625,-5.525390625,2.642578125
0.213,0.3203125,-5.8056640625,3.5634765625
0.2135,-0.48046875,-5.92578125,4.404296875
0.214,-1.28125,-5.92578125,5.28515625
0.2145,-2.6826171875,-4.6845703125,5.6455078125
0.215,-3.8037109375,-3.443359375,5.7255859375
0.2155,-4.564453125,-2.3623046875,5.685546875
0.216,-4.884765625,-1.681640625,5.60546875
0.2165,-5.3251953125,-1.041015625,5.60546875
0.217,-5.6455078125,-0.2001953125,5.365234375
0.2175,-5.3251953125,1.2412109375,3.9638671875
0.218,-4.96484375,2.5224609375,2.6025390625
0.2185,-4.7646484375,3.3232421875,1.8017578125
0.219,-4.564453125,3.9638671875,1.12109375
0.2195,-4.3642578125,4.6845703125,0.4404296875
0.22,-3.1630859375,4.9248046875,-1.041015625
0.2205,-1.8818359375,4.96484375,-2.322265625
0.221,-0.880859375,5.044921875,-3.4033203125
0.2215,-0.2001953125,5.205078125,-4.2841796875
0.222,0.6005859375,5.205078125,-5.044921875
0.2225,1.521484375,5.0849609375,-5.8857421875
0.223,2.9228515625,3.4833984375,-6.005859375
0.2235,4.00390625,2.0419921875,-5.92578125
0.224,4.724609375,1.201171875,-5.9658203125
0.2245,4.9248046875,0.48046875,-5.8056640625
0.225,5.1650390625,-0.3603515625,-5.6455078125
0.2255,5.125,-1.5615234375,-4.7646484375
0.226,4.884765625,-2.72265625,-3.4833984375
0.2265,4.5244140625,-3.84375,-2.2021484375
0.227,4.32421875,-4.6044921875,-1.44140625
0.2275,4.1240234375,-5.125,-0.7607421875
