wavelength,x,y,z
0.0,5.135009765625,-8.918701171875,3.773681640625
0.0005,6.135986328125,-8.598388671875,2.452392578125
0.001,7.016845703125,-7.957763671875,0.930908203125
0.0015,7.577392578125,-6.876708984375,-0.750732421875
0.002,8.258056640625,-5.955810546875,-2.312255859375
0.0025,8.338134765625,-4.754638671875,-3.673583984375
0.003,8.338134765625,-3.193115234375,-5.155029296875
0.0035,7.857666015625,-1.791748046875,-6.115966796875
0.004,7.217041015625,0.010009765625,-7.116943359375
0.0045,6.015869140625,1.891845703125,-7.837646484375
0.005,4.734619140625,3.493408203125,-8.197998046875
0.0055,3.213134765625,4.974853515625,-8.157958984375
0.006,2.052001953125,6.176025390625,-8.197998046875
0.0065,0.650634765625,7.056884765625,-7.757568359375
0.007,-1.031005859375,7.777587890625,-6.916748046875
0.0075,-2.632568359375,8.458251953125,-6.035888671875
0.008,-3.913818359375,8.458251953125,-4.794677734375
0.0085,-5.315185546875,8.458251953125,-3.393310546875
0.009,-6.196044921875,7.937744140625,-2.031982421875
0.0095,-7.076904296875,7.177001953125,-0.430419921875
0.01,-7.717529296875,6.135986328125,1.331298828125
0.0105,-8.278076171875,5.094970703125,2.892822265625
0.011,-8.318115234375,3.733642578125,4.334228515625
0.0115,-8.197998046875,2.212158203125,5.735595703125
0.012,-7.637451171875,0.730712890625,6.696533203125
0.0125,-6.676513671875,-1.151123046875,7.537353515625
0.013,-5.355224609375,-3.153076171875,8.177978515625
0.0135,-3.793701171875,-4.714599609375,8.218017578125
0.014,-2.392333984375,-6.156005859375,8.298095703125
0.0145,-1.111083984375,-7.156982421875,8.057861328125
0.015,0.450439453125,-7.997802734375,7.457275390625
0.0155,2.212158203125,-8.678466796875,6.416259765625
0.016,3.733642578125,-9.118896484375,5.295166015625
0.0165,4.974853515625,-8.998779296875,3.893798828125
0.017,6.216064453125,-8.838623046875,2.572509765625
0.0175,6.976806640625,-8.157958984375,1.131103515625
0.018,7.697509765625,-7.116943359375,-0.550537109375
0.0185,8.298095703125,-6.035888671875,-2.312255859375
0.019,8.498291015625,-4.794677734375,-3.793701171875
0.0195,8.498291015625,-3.273193359375,-5.235107421875
0.02,8.017822265625,-1.791748046875,-6.276123046875
0.0205,7.417236328125,-0.190185546875,-7.277099609375
0.021,6.135986328125,1.811767578125,-7.957763671875
0.0215,4.854736328125,3.693603515625,-8.558349609375
0.022,3.173095703125,5.094970703125,-8.318115234375
0.0225,1.891845703125,6.496337890625,-8.398193359375
0.023,0.530517578125,7.297119140625,-7.877685546875
0.0235,-1.111083984375,8.057861328125,-7.116943359375
0.024,-2.952880859375,8.738525390625,-5.995849609375
0.0245,-4.354248046875,8.818603515625,-4.674560546875
0.025,-5.675537109375,8.618408203125,-3.273193359375
0.0255,-6.676513671875,8.298095703125,-1.791748046875
0.026,-7.397216796875,7.377197265625,-0.310302734375
0.0265,-7.997802734375,6.256103515625,1.531494140625
0.027,-8.638427734375,5.014892578125,3.333251953125
0.0275,-8.518310546875,3.573486328125,4.734619140625
0.028,-8.478271484375,2.052001953125,6.176025390625
0.0285,-7.837646484375,0.490478515625,7.056884765625
0.029,-6.956787109375,-1.271240234375,7.937744140625
0.0295,-5.435302734375,-3.393310546875,8.538330078125
0.03,-3.833740234375,-5.195068359375,8.698486328125
0.0305,-2.152099609375,-6.516357421875,8.418212890625
0.031,-0.870849609375,-7.717529296875,8.338134765625
0.0315,0.690673828125,-8.398193359375,7.577392578125
0.032,2.372314453125,-8.998779296875,6.536376953125
0.0325,4.174072265625,-9.639404296875,5.375244140625
0.033,5.495361328125,-9.319091796875,3.773681640625
0.0335,6.656494140625,-9.239013671875,2.412353515625
0.034,7.417236328125,-8.318115234375,0.930908203125
0.0345,8.097900390625,-7.397216796875,-0.710693359375
0.035,8.578369140625,-6.075927734375,-2.552490234375
0.0355,8.978759765625,-4.754638671875,-4.234130859375
0.036,8.658447265625,-3.193115234375,-5.515380859375
0.0365,8.418212890625,-1.631591796875,-6.796630859375
0.037,7.577392578125,0.010009765625,-7.517333984375
0.0375,6.536376953125,1.771728515625,-8.197998046875
0.038,4.974853515625,3.893798828125,-8.838623046875
0.0385,3.213134765625,5.415283203125,-8.678466796875
0.039,1.771728515625,6.736572265625,-8.558349609375
0.0395,0.490478515625,7.657470703125,-8.197998046875
0.04,-1.151123046875,8.298095703125,-7.317138671875
0.0405,-2.952880859375,8.698486328125,-6.196044921875
0.041,-4.594482421875,9.218994140625,-4.874755859375
0.0415,-5.755615234375,8.738525390625,-3.273193359375
0.042,-6.956787109375,8.578369140625,-1.911865234375
0.0425,-7.517333984375,7.617431640625,-0.390380859375
0.043,-8.157958984375,6.576416015625,1.291259765625
0.0435,-8.678466796875,5.215087890625,3.173095703125
0.044,-8.758544921875,3.773681640625,4.734619140625
0.0445,-8.558349609375,2.252197265625,6.055908203125
0.045,-8.077880859375,0.690673828125,7.136962890625
0.0455,-7.197021484375,-0.950927734375,7.817626953125
0.046,-5.915771484375,-2.832763671875,8.458251953125
0.0465,-4.314208984375,-4.874755859375,8.898681640625
0.047,-2.512451171875,-6.276123046875,8.458251953125
0.0475,-1.151123046875,-7.557373046875,8.458251953125
0.048,0.290283203125,-8.238037109375,7.817626953125
0.0485,1.971923828125,-8.918701171875,6.776611328125
0.049,3.693603515625,-9.479248046875,5.695556640625
0.0495,5.094970703125,-9.519287109375,4.334228515625
0.05,6.256103515625,-9.038818359375,2.852783203125
0.0505,7.217041015625,-8.678466796875,1.451416015625
0.051,7.737548828125,-7.717529296875,0.010009765625
0.0515,8.298095703125,-6.556396484375,-1.711669921875
0.052,8.818603515625,-5.275146484375,-3.553466796875
0.0525,8.658447265625,-3.833740234375,-4.834716796875
0.053,8.498291015625,-2.352294921875,-6.196044921875
0.0535,7.817626953125,-0.870849609375,-6.996826171875
0.054,7.016845703125,0.850830078125,-7.837646484375
0.0545,5.655517578125,2.812744140625,-8.398193359375
0.055,4.093994140625,4.614501953125,-8.678466796875
0.0555,2.492431640625,5.855712890625,-8.358154296875
0.056,1.251220703125,7.096923828125,-8.358154296875
0.0565,-0.310302734375,7.697509765625,-7.557373046875
0.057,-1.791748046875,8.298095703125,-6.716552734375
0.0575,-3.593505859375,8.938720703125,-5.635498046875
0.058,-4.874755859375,8.778564453125,-4.114013671875
0.0585,-6.115966796875,8.618408203125,-2.792724609375
0.059,-6.916748046875,7.977783203125,-1.311279296875
0.0595,-7.597412109375,7.056884765625,0.290283203125
0.06,-8.197998046875,5.895751953125,1.971923828125
0.0605,-8.598388671875,4.614501953125,3.733642578125
0.061,-8.398193359375,3.173095703125,4.974853515625
0.0615,-8.318115234375,1.651611328125,6.416259765625
0.062,-7.557373046875,0.170166015625,7.096923828125
0.0625,-6.636474609375,-1.591552734375,7.937744140625
0.063,-5.155029296875,-3.673583984375,8.458251953125
0.0635,-3.473388671875,-5.275146484375,8.458251953125
0.064,-1.991943359375,-6.556396484375,8.338134765625
0.0645,-0.710693359375,-7.637451171875,8.137939453125
0.065,0.810791015625,-8.318115234375,7.337158203125
0.0655,2.452392578125,-8.918701171875,6.336181640625
0.066,4.134033203125,-9.359130859375,5.175048828125
0.0665,5.295166015625,-8.958740234375,3.693603515625
0.067,6.536376953125,-8.878662109375,2.372314453125
0.0675,7.136962890625,-8.037841796875,0.970947265625
0.068,7.817626953125,-7.116943359375,-0.710693359375
0.0685,8.378173828125,-5.955810546875,-2.432373046875
0.069,8.618408203125,-4.634521484375,-3.993896484375
0.0695,8.458251953125,-3.193115234375,-5.275146484375
0.07,8.137939453125,-1.671630859375,-6.476318359375
0.0705,7.377197265625,-0.150146484375,-7.197021484375
0.071,6.336181640625,1.691650390625,-7.997802734375
0.0715,4.934814453125,3.693603515625,-8.598388671875
0.072,3.213134765625,5.094970703125,-8.318115234375
0.0725,1.931884765625,6.456298828125,-8.398193359375
0.073,0.610595703125,7.177001953125,-7.957763671875
0.0735,-0.990966796875,7.977783203125,-7.156982421875
0.074,-2.672607421875,8.618408203125,-6.115966796875
0.0745,-4.274169921875,8.858642578125,-4.834716796875
0.075,-5.435302734375,8.498291015625,-3.393310546875
0.0755,-6.636474609375,8.298095703125,-1.991943359375
0.076,-7.197021484375,7.377197265625,-0.510498046875
0.0765,-7.877685546875,6.416259765625,1.251220703125
0.077,-8.478271484375,5.175048828125,3.052978515625
0.0775,-8.438232421875,3.693603515625,4.494384765625
0.078,-8.358154296875,2.252197265625,5.855712890625
0.0785,-7.837646484375,0.730712890625,6.896728515625
0.079,-6.996826171875,-0.990966796875,7.657470703125
0.0795,-5.715576171875,-2.912841796875,8.298095703125
0.08,-4.073974609375,-4.834716796875,8.618408203125
0.0805,-2.432373046875,-6.115966796875,8.298095703125
0.081,-1.151123046875,-7.517333984375,8.378173828125
0.0815,0.370361328125,-8.157958984375,7.577392578125
0.082,1.931884765625,-8.718505859375,6.696533203125
0.0825,3.693603515625,-9.319091796875,5.575439453125
0.083,5.094970703125,-9.239013671875,4.134033203125
0.0835,6.256103515625,-8.958740234375,2.692626953125
0.084,7.177001953125,-8.398193359375,1.291259765625
0.0845,7.737548828125,-7.397216796875,-0.310302734375
0.085,8.298095703125,-6.316162109375,-1.991943359375
0.0855,8.818603515625,-4.994873046875,-3.833740234375
0.086,8.538330078125,-3.473388671875,-5.114990234375
0.0865,8.378173828125,-1.991943359375,-6.436279296875
0.087,7.577392578125,-0.430419921875,-7.156982421875
0.0875,6.656494140625,1.331298828125,-7.957763671875
0.088,5.255126953125,3.333251953125,-8.598388671875
0.0885,3.573486328125,5.054931640625,-8.638427734375
0.089,2.132080078125,6.256103515625,-8.398193359375
0.0895,0.810791015625,7.377197265625,-8.278076171875
0.09,-0.790771484375,7.977783203125,-7.357177734375
0.0905,-2.352294921875,8.578369140625,-6.396240234375
0.091,-4.154052734375,9.098876953125,-5.195068359375
0.0915,-5.395263671875,8.738525390625,-3.593505859375
0.092,-6.636474609375,8.578369140625,-2.272216796875
0.0925,-7.237060546875,7.697509765625,-0.710693359375
0.093,-7.917724609375,6.696533203125,0.970947265625
0.0935,-8.438232421875,5.495361328125,2.692626953125
0.094,-8.718505859375,4.013916015625,4.454345703125
0.0945,-8.398193359375,2.532470703125,5.655517578125
0.095,-8.197998046875,0.970947265625,6.976806640625
0.0955,-7.197021484375,-0.710693359375,7.577392578125
0.096,-6.115966796875,-2.512451171875,8.298095703125
0.0965,-4.514404296875,-4.554443359375,8.778564453125
0.097,-2.792724609375,-6.075927734375,8.538330078125
0.0975,-1.431396484375,-7.357177734375,8.458251953125
0.098,0.090087890625,-8.157958984375,7.937744140625
0.0985,1.731689453125,-8.718505859375,6.936767578125
0.099,3.333251953125,-9.279052734375,5.895751953125
0.0995,4.974853515625,-9.559326171875,4.534423828125
0.1,6.055908203125,-9.038818359375,2.972900390625
0.1005,7.217041015625,-8.798583984375,1.571533203125
0.101,7.697509765625,-7.717529296875,0.050048828125
0.1015,8.298095703125,-6.676513671875,-1.631591796875
0.102,8.818603515625,-5.435302734375,-3.393310546875
0.1025,8.778564453125,-3.833740234375,-4.954833984375
0.103,8.498291015625,-2.392333984375,-6.115966796875
0.1035,7.977783203125,-0.790771484375,-7.197021484375
0.104,6.936767578125,0.930908203125,-7.837646484375
0.1045,5.735595703125,2.812744140625,-8.478271484375
0.105,4.134033203125,4.734619140625,-8.878662109375
0.1055,2.492431640625,6.015869140625,-8.518310546875
0.106,1.211181640625,7.297119140625,-8.478271484375
0.1065,-0.390380859375,7.977783203125,-7.677490234375
0.107,-2.072021484375,8.538330078125,-6.676513671875
0.1075,-3.713623046875,9.098876953125,-5.595458984375
0.108,-5.235107421875,9.018798828125,-4.073974609375
0.1085,-6.356201171875,8.658447265625,-2.592529296875
0.109,-7.357177734375,8.177978515625,-1.111083984375
0.1095,-7.837646484375,6.976806640625,0.610595703125
0.11,-8.398193359375,5.895751953125,2.252197265625
0.1105,-8.918701171875,4.494384765625,4.134033203125
0.111,-8.638427734375,2.852783203125,5.495361328125
0.1115,-8.438232421875,1.331298828125,6.856689453125
0.112,-7.597412109375,-0.350341796875,7.617431640625
0.1125,-6.436279296875,-2.192138671875,8.298095703125
0.113,-4.994873046875,-4.154052734375,8.778564453125
0.1135,-3.233154296875,-5.915771484375,8.898681640625
0.114,-1.631591796875,-7.116943359375,8.538330078125
0.1145,-0.310302734375,-8.278076171875,8.298095703125
0.115,1.491455078125,-8.838623046875,7.217041015625
0.1155,3.133056640625,-9.319091796875,6.135986328125
0.116,4.814697265625,-9.759521484375,4.934814453125
0.1165,6.095947265625,-9.399169921875,3.293212890625
0.117,7.217041015625,-8.998779296875,1.891845703125
0.1175,7.897705078125,-8.197998046875,0.290283203125
0.118,8.378173828125,-6.916748046875,-1.431396484375
0.1185,8.898681640625,-5.755615234375,-3.113037109375
0.119,9.138916015625,-4.194091796875,-4.954833984375
0.1195,8.738525390625,-2.592529296875,-6.196044921875
0.12,8.378173828125,-1.031005859375,-7.397216796875
0.1205,7.257080078125,0.770751953125,-7.997802734375
0.121,5.975830078125,2.652587890625,-8.678466796875
0.1215,4.494384765625,4.614501953125,-9.118896484375
0.122,2.692626953125,6.095947265625,-8.918701171875
0.1225,1.291259765625,7.297119140625,-8.598388671875
0.123,-0.270263671875,8.258056640625,-8.077880859375
0.1235,-2.112060546875,8.778564453125,-6.876708984375
0.124,-3.673583984375,9.218994140625,-5.755615234375
0.1245,-5.395263671875,9.459228515625,-4.394287109375
0.125,-6.476318359375,8.938720703125,-2.712646484375
0.1255,-7.557373046875,8.538330078125,-1.271240234375
0.126,-8.077880859375,7.337158203125,0.490478515625
0.1265,-8.638427734375,6.055908203125,2.292236328125
0.127,-8.998779296875,4.814697265625,3.973876953125
0.1275,-8.998779296875,3.133056640625,5.655517578125
0.128,-8.518310546875,1.491455078125,6.776611328125
0.1285,-7.997802734375,-0.190185546875,7.897705078125
0.129,-6.636474609375,-2.192138671875,8.418212890625
0.1295,-5.275146484375,-4.033935546875,8.938720703125
0.13,-3.513427734375,-5.915771484375,9.098876953125
0.1305,-1.831787109375,-7.116943359375,8.698486328125
0.131,-0.430419921875,-8.278076171875,8.458251953125
0.1315,1.251220703125,-8.918701171875,7.577392578125
0.132,3.012939453125,-9.399169921875,6.256103515625
0.1325,4.494384765625,-9.759521484375,5.175048828125
0.133,6.055908203125,-9.679443359375,3.693603515625
0.1335,6.976806640625,-9.078857421875,2.132080078125
0.134,7.857666015625,-8.478271484375,0.650634765625
0.1345,8.258056640625,-7.197021484375,-1.071044921875
0.135,8.698486328125,-6.035888671875,-2.712646484375
0.1355,9.018798828125,-4.714599609375,-4.354248046875
0.136,8.818603515625,-3.072998046875,-5.755615234375
0.1365,8.338134765625,-1.551513671875,-6.836669921875
0.137,7.617431640625,0.090087890625,-7.677490234375
0.1375,6.336181640625,1.931884765625,-8.238037109375
0.138,5.094970703125,3.613525390625,-8.718505859375
0.1385,3.413330078125,5.375244140625,-8.798583984375
0.139,1.931884765625,6.456298828125,-8.438232421875
0.1395,0.610595703125,7.617431640625,-8.238037109375
0.14,-0.990966796875,8.137939453125,-7.237060546875
0.1405,-2.552490234375,8.618408203125,-6.236083984375
0.141,-4.033935546875,8.978759765625,-5.155029296875
0.1415,-5.315185546875,8.738525390625,-3.673583984375
0.142,-6.396240234375,8.418212890625,-2.312255859375
0.1425,-7.197021484375,7.697509765625,-0.790771484375
0.143,-7.677490234375,6.576416015625,0.810791015625
0.1435,-8.238037109375,5.655517578125,2.332275390625
0.144,-8.518310546875,4.294189453125,3.973876953125
0.1445,-8.278076171875,2.772705078125,5.255126953125
0.145,-8.117919921875,1.291259765625,6.536376953125
0.1455,-7.197021484375,-0.310302734375,7.177001953125
0.146,-6.196044921875,-2.072021484375,7.857666015625
0.1465,-4.874755859375,-3.753662109375,8.298095703125
0.147,-3.273193359375,-5.275146484375,8.298095703125
0.1475,-1.951904296875,-6.476318359375,8.177978515625
0.148,-0.630615234375,-7.477294921875,7.937744140625
0.1485,0.930908203125,-8.077880859375,7.056884765625
0.149,2.372314453125,-8.678466796875,6.256103515625
0.1495,3.853759765625,-8.998779296875,5.094970703125
0.15,5.054931640625,-8.758544921875,3.773681640625
0.1505,6.135986328125,-8.598388671875,2.492431640625
0.151,6.816650390625,-7.837646484375,1.010986328125
0.1515,7.497314453125,-6.956787109375,-0.550537109375
0.152,8.137939453125,-6.115966796875,-1.991943359375
0.1525,8.298095703125,-4.754638671875,-3.633544921875
0.153,8.177978515625,-3.473388671875,-4.834716796875
0.1535,7.977783203125,-1.951904296875,-6.115966796875
0.154,7.136962890625,-0.390380859375,-6.836669921875
0.1545,6.256103515625,1.411376953125,-7.677490234375
0.155,5.014892578125,3.133056640625,-8.077880859375
0.1555,3.493408203125,4.614501953125,-8.077880859375
0.156,2.372314453125,5.815673828125,-8.197998046875
0.1565,0.970947265625,6.776611328125,-7.797607421875
0.157,-0.590576171875,7.497314453125,-7.076904296875
0.1575,-2.031982421875,8.177978515625,-6.356201171875
0.158,-3.553466796875,8.418212890625,-5.114990234375
0.1585,-4.754638671875,8.298095703125,-3.793701171875
0.159,-5.955810546875,8.057861328125,-2.392333984375
0.1595,-6.636474609375,7.217041015625,-0.910888671875
0.16,-7.437255859375,6.416259765625,0.770751953125
0.1605,-8.037841796875,5.415283203125,2.292236328125
0.161,-8.197998046875,3.973876953125,3.893798828125
0.1615,-8.157958984375,2.652587890625,5.215087890625
0.162,-7.717529296875,1.051025390625,6.336181640625
0.1625,-6.796630859375,-0.630615234375,7.136962890625
0.163,-5.755615234375,-2.392333984375,7.857666015625
0.1635,-4.274169921875,-4.194091796875,8.177978515625
0.164,-2.832763671875,-5.515380859375,8.137939453125
0.1645,-1.551513671875,-6.796630859375,8.177978515625
0.165,0.010009765625,-7.597412109375,7.457275390625
0.1655,1.571533203125,-8.318115234375,6.696533203125
0.166,3.052978515625,-8.838623046875,5.735595703125
0.1665,4.534423828125,-8.878662109375,4.334228515625
0.167,5.655517578125,-8.678466796875,3.052978515625
0.1675,6.696533203125,-8.197998046875,1.571533203125
0.168,7.297119140625,-7.197021484375,0.010009765625
0.1685,8.017822265625,-6.396240234375,-1.631591796875
0.169,8.458251953125,-5.155029296875,-3.353271484375
0.1695,8.338134765625,-3.713623046875,-4.754638671875
0.17,8.177978515625,-2.272216796875,-6.035888671875
0.1705,7.417236328125,-0.510498046875,-6.916748046875
0.171,6.376220703125,1.371337890625,-7.717529296875
0.1715,5.215087890625,3.173095703125,-8.318115234375
0.172,3.573486328125,4.814697265625,-8.358154296875
0.1725,2.252197265625,6.055908203125,-8.318115234375
0.173,0.890869140625,7.177001953125,-8.037841796875
0.1735,-0.910888671875,7.817626953125,-7.076904296875
0.174,-2.512451171875,8.458251953125,-6.196044921875
0.1745,-4.033935546875,8.818603515625,-4.994873046875
0.175,-5.355224609375,8.618408203125,-3.513427734375
0.1755,-6.476318359375,8.298095703125,-2.112060546875
0.176,-7.277099609375,7.457275390625,-0.510498046875
0.1765,-7.877685546875,6.296142578125,1.331298828125
0.177,-8.438232421875,5.175048828125,2.932861328125
0.1775,-8.678466796875,3.733642578125,4.614501953125
0.178,-8.318115234375,2.132080078125,5.895751953125
0.1785,-7.997802734375,0.610595703125,7.096923828125
0.179,-6.796630859375,-1.311279296875,7.817626953125
0.1795,-5.515380859375,-3.273193359375,8.498291015625
0.18,-3.873779296875,-5.074951171875,8.698486328125
0.1805,-2.272216796875,-6.556396484375,8.578369140625
0.181,-0.910888671875,-7.637451171875,8.298095703125
0.1815,0.690673828125,-8.478271484375,7.697509765625
0.182,2.612548828125,-9.118896484375,6.416259765625
0.1825,4.134033203125,-9.479248046875,5.335205078125
0.183,5.655517578125,-9.559326171875,3.893798828125
0.1835,6.696533203125,-9.038818359375,2.372314453125
0.184,7.657470703125,-8.518310546875,0.930908203125
0.1845,8.177978515625,-7.277099609375,-0.950927734375
0.185,8.698486328125,-6.115966796875,-2.712646484375
0.1855,8.978759765625,-4.834716796875,-4.234130859375
0.186,8.978759765625,-3.193115234375,-5.835693359375
0.1865,8.378173828125,-1.511474609375,-6.916748046875
0.187,7.697509765625,0.210205078125,-7.837646484375
0.1875,6.216064453125,2.332275390625,-8.478271484375
0.188,4.814697265625,4.174072265625,-8.998779296875
