wavelength,x,y,z
0.0,-18.733276367188,-0.7957763671875,18.623168945312
0.0005,-16.811401367188,-4.5194091796875,20.384887695312
0.001,-14.489135742188,-7.0819091796875,20.745239257812
0.0015,-11.886596679688,-10.084838867188,21.105590820312
0.002,-6.4813232421875,-14.128784179688,20.064575195312
0.0025,-1.6365966796875,-17.331909179688,18.543090820312
0.003,2.7677001953125,-19.494018554688,16.661254882812
0.0035,6.0509033203125,-20.895385742188,15.019653320312
0.004,8.9337158203125,-20.855346679688,12.296997070312
0.0045,12.176879882812,-20.655151367188,9.0137939453125
0.005,16.020629882812,-19.694213867188,4.4893798828125
0.0055,19.223754882812,-17.812377929688,-0.5955810546875
0.006,20.905395507812,-15.890502929688,-4.1590576171875
0.0065,21.465942382812,-13.648315429688,-7.0018310546875
0.007,21.626098632812,-10.845581054688,-9.9246826171875
0.0075,20.985473632812,-6.1209716796875,-14.088745117188
0.008,19.984497070312,-2.0770263671875,-17.131713867188
0.0085,18.302856445312,2.1671142578125,-19.614135742188
0.009,16.461059570312,5.6505126953125,-21.215698242188
0.0095,13.418090820312,8.4132080078125,-21.135620117188
0.01,10.214965820312,11.656372070312,-21.215698242188
0.0105,4.8096923828125,15.740356445312,-20.174682617188
0.011,-0.5955810546875,18.903442382812,-18.212768554688
0.0115,-4.3192138671875,20.545043945312,-16.370971679688
0.012,-7.4822998046875,21.626098632812,-14.489135742188
0.0125,-10.565307617188,21.465942382812,-11.526245117188
0.013,-14.328979492188,20.665161132812,-7.1219482421875
0.0135,-17.812377929688,19.584106445312,-2.6375732421875
0.014,-20.735229492188,17.462036132812,2.4073486328125
0.0145,-22.136596679688,15.380004882812,5.7706298828125
0.015,-22.296752929688,12.577270507812,8.6934814453125
0.0155,-22.416870117188,9.5743408203125,11.816528320312
0.016,-21.495971679688,4.4493408203125,16.060668945312
0.0165,-19.974487304688,-0.1951904296875,19.183715820312
0.017,-17.972534179688,-4.0389404296875,21.065551757812
0.0175,-16.090698242188,-7.3621826171875,22.426879882812
0.018,-12.487182617188,-10.244995117188,21.946411132812
0.0185,-8.2030029296875,-13.848510742188,21.465942382812
0.019,-3.1580810546875,-17.532104492188,20.264770507812
0.0195,2.4874267578125,-20.494995117188,17.862426757812
0.02,5.9307861328125,-21.696166992188,15.860473632812
0.0205,9.0137939453125,-22.176635742188,13.498168945312
0.021,12.096801757812,-22.056518554688,10.535278320312
0.0215,16.380981445312,-20.775268554688,5.1300048828125
0.022,19.544067382812,-19.133666992188,0.4854736328125
0.0225,21.786254882812,-17.131713867188,-3.8387451171875
0.023,22.787231445312,-14.849487304688,-7.0018310546875
0.0235,22.466918945312,-11.526245117188,-10.084838867188
0.024,22.306762695312,-8.0028076171875,-13.448120117188
0.0245,21.385864257812,-3.1981201171875,-17.251831054688
0.025,19.504028320312,1.6466064453125,-20.374877929688
0.0255,17.261840820312,5.0899658203125,-21.656127929688
0.026,15.099731445312,8.2930908203125,-22.577026367188
0.0265,11.496215820312,11.376098632812,-22.256713867188
0.027,6.0909423828125,15.500122070312,-21.095581054688
0.0275,1.2061767578125,18.823364257812,-19.734252929688
0.028,-3.8787841796875,21.305786132812,-17.452026367188
0.0285,-7.0819091796875,22.226684570312,-15.410034179688
0.029,-10.285034179688,22.146606445312,-12.487182617188
0.0295,-13.448120117188,21.986450195312,-9.2840576171875
0.03,-17.692260742188,20.625122070312,-3.8387451171875
0.0305,-20.815307617188,18.422973632812,1.4864501953125
0.031,-22.456909179688,16.340942382812,5.0899658203125
0.0315,-23.217651367188,13.938598632812,8.2530517578125
0.032,-22.857299804688,10.415161132812,11.416137695312
0.0325,-22.256713867188,5.9307861328125,15.219848632812
0.033,-21.135620117188,1.5264892578125,18.583129882812
0.0335,-19.213745117188,-3.3983154296875,21.465942382812
0.034,-16.731323242188,-6.5614013671875,22.426879882812
0.0345,-13.968627929688,-9.6444091796875,22.747192382812
0.035,-10.405151367188,-12.887573242188,22.546997070312
0.0355,-4.3592529296875,-17.131713867188,20.905395507812
0.036,0.9659423828125,-20.134643554688,19.023559570312
0.0365,5.0899658203125,-22.056518554688,16.941528320312
0.037,8.2930908203125,-22.777221679688,14.779418945312
0.0375,11.696411132812,-22.376831054688,11.215942382812
0.038,15.219848632812,-21.816284179688,7.3321533203125
0.0385,18.943481445312,-20.414916992188,2.2872314453125
0.039,21.946411132812,-17.972534179688,-3.0780029296875
0.0395,22.907348632812,-15.850463867188,-6.1610107421875
0.04,23.427856445312,-13.087768554688,-9.4041748046875
0.0405,23.027465820312,-9.5242919921875,-12.687377929688
0.041,22.066528320312,-4.4393310546875,-16.691284179688
0.0415,20.625122070312,0.0050048828125,-19.814331054688
0.042,18.583129882812,4.4093017578125,-22.096557617188
0.0425,16.100708007812,7.5323486328125,-22.817260742188
0.043,12.617309570312,10.735473632812,-22.657104492188
0.0435,8.5333251953125,14.338989257812,-22.296752929688
0.044,2.7276611328125,18.302856445312,-20.695190429688
0.0445,-2.7576904296875,21.025512695312,-18.212768554688
0.045,-6.1610107421875,22.426879882812,-16.330932617188
0.0455,-9.4041748046875,22.947387695312,-14.048706054688
0.046,-12.807495117188,22.426879882812,-10.285034179688
0.0465,-16.731323242188,21.345825195312,-5.5203857421875
0.047,-20.174682617188,19.744262695312,-0.5955810546875
0.0475,-22.697143554688,17.301879882812,4.3292236328125
0.048,-23.337768554688,14.939575195312,7.3721923828125
0.0485,-23.537963867188,11.776489257812,10.735473632812
0.049,-23.057495117188,7.8526611328125,14.138793945312
0.0495,-21.936401367188,2.8477783203125,18.062622070312
0.05,-20.014526367188,-1.9569091796875,20.945434570312
0.0505,-18.012573242188,-5.7205810546875,22.747192382812
0.051,-15.410034179688,-8.7635498046875,23.307739257812
0.0515,-11.446166992188,-12.086791992188,22.747192382812
0.052,-6.7215576171875,-15.770385742188,21.906372070312
0.0525,-1.1561279296875,-19.494018554688,20.184692382812
0.053,4.1690673828125,-21.776245117188,17.622192382812
0.0535,7.2120361328125,-22.536987304688,15.540161132812
0.054,10.495239257812,-22.977416992188,12.857543945312
0.0545,14.058715820312,-22.296752929688,8.8936767578125
0.055,17.862426757812,-20.895385742188,3.8887939453125
0.0555,20.905395507812,-18.973510742188,-1.1561279296875
0.056,22.987426757812,-16.731323242188,-5.2801513671875
0.0565,23.227661132812,-14.168823242188,-8.2030029296875
0.057,23.107543945312,-10.685424804688,-11.526245117188
0.0575,22.466918945312,-6.4012451171875,-15.249877929688
0.058,21.345825195312,-1.5965576171875,-18.813354492188
0.0585,19.143676757812,3.0479736328125,-21.335815429688
0.059,16.941528320312,6.2911376953125,-22.456909179688
0.0595,14.298950195312,9.4542236328125,-22.977416992188
0.06,9.9346923828125,12.937622070312,-22.296752929688
0.0605,4.8497314453125,16.621215820312,-21.055541992188
0.061,-0.4354248046875,19.904418945312,-19.213745117188
0.0615,-4.9598388671875,21.906372070312,-17.051635742188
0.062,-7.8026123046875,22.266723632812,-14.809448242188
0.0625,-11.085815429688,22.386840820312,-11.886596679688
0.063,-14.849487304688,21.626098632812,-7.5623779296875
0.0635,-18.412963867188,20.144653320312,-2.5975341796875
0.064,-21.175659179688,17.942504882812,2.2872314453125
0.0645,-22.737182617188,15.860473632812,5.8907470703125
0.065,-22.937377929688,13.137817382812,8.8135986328125
0.0655,-22.737182617188,9.2540283203125,12.296997070312
0.066,-21.816284179688,4.8897705078125,15.940551757812
0.0665,-20.575073242188,0.2852783203125,19.303833007812
0.067,-18.453002929688,-4.1190185546875,21.586059570312
0.0675,-16.170776367188,-6.9217529296875,22.146606445312
0.068,-13.287963867188,-9.9647216796875,22.546997070312
0.0685,-8.6834716796875,-13.808471679688,21.786254882812
0.069,-3.3983154296875,-17.291870117188,20.264770507812
0.0695,1.6065673828125,-19.894409179688,18.182739257812
0.07,5.4903564453125,-21.736206054688,16.340942382812
0.0705,8.3731689453125,-21.936401367188,13.858520507812
0.071,11.616333007812,-21.776245117188,10.735473632812
0.0715,15.420043945312,-20.935424804688,6.2110595703125
0.072,18.903442382812,-19.253784179688,1.2862548828125
0.0725,21.265747070312,-17.171752929688,-3.1981201171875
0.073,22.146606445312,-15.089721679688,-6.1610107421875
0.0735,22.426879882812,-12.367065429688,-9.3240966796875
0.074,22.066528320312,-8.0828857421875,-13.087768554688
0.0745,21.065551757812,-3.8387451171875,-16.411010742188
0.075,19.544067382812,0.6856689453125,-19.373901367188
0.0755,17.662231445312,4.6895751953125,-21.495971679688
0.076,14.979614257812,7.4522705078125,-21.736206054688
0.0765,12.016723632812,10.575317382812,-21.936401367188
0.077,6.9317626953125,14.619262695312,-21.055541992188
0.0775,1.7266845703125,18.062622070312,-19.534057617188
0.078,-2.9578857421875,20.304809570312,-17.331909179688
0.0785,-6.2811279296875,21.626098632812,-15.650268554688
0.079,-9.3240966796875,21.826293945312,-12.967651367188
0.0795,-12.807495117188,21.345825195312,-9.2840576171875
0.08,-16.491088867188,20.424926757812,-4.7596435546875
0.0805,-19.814331054688,18.543090820312,0.4454345703125
0.081,-21.816284179688,16.380981445312,4.4893798828125
0.0815,-22.376831054688,13.938598632812,7.2921142578125
0.082,-22.577026367188,11.095825195312,10.535278320312
0.0825,-21.976440429688,6.3712158203125,14.579223632812
0.083,-20.855346679688,2.0069580078125,17.942504882812
0.0835,-19.093627929688,-2.3572998046875,20.424926757812
0.084,-17.211791992188,-5.9207763671875,22.226684570312
0.0845,-14.248901367188,-8.8035888671875,22.226684570312
0.085,-10.565307617188,-12.206909179688,21.946411132812
0.0855,-5.4403076171875,-16.010620117188,20.865356445312
0.086,0.1651611328125,-19.333862304688,18.943481445312
0.0865,4.4093017578125,-21.175659179688,16.781372070312
0.087,7.2921142578125,-21.936401367188,14.859497070312
0.0875,10.535278320312,-22.136596679688,12.016723632812
0.088,14.539184570312,-21.135620117188,7.3721923828125
0.0885,17.782348632812,-19.974487304688,3.0479736328125
0.089,20.625122070312,-17.972534179688,-1.7967529296875
0.0895,22.186645507812,-16.050659179688,-5.4403076171875
0.09,22.266723632812,-13.127807617188,-8.2030029296875
0.0905,22.346801757812,-9.8846435546875,-11.526245117188
0.091,21.465942382812,-5.2000732421875,-15.410034179688
0.0915,20.184692382812,-0.6356201171875,-18.653198242188
0.092,18.102661132812,3.3282470703125,-20.575073242188
0.0925,16.140747070312,6.4112548828125,-21.776245117188
0.093,13.097778320312,9.4542236328125,-21.736206054688
0.0935,8.4932861328125,13.177856445312,-21.095581054688
0.094,3.9288330078125,16.461059570312,-19.974487304688
0.0945,-1.3563232421875,19.383911132812,-17.932495117188
0.095,-5.1199951171875,20.945434570312,-16.010620117188
0.0955,-7.7625732421875,21.185668945312,-13.728393554688
0.096,-10.765502929688,21.385864257812,-11.205932617188
0.0965,-14.929565429688,20.304809570312,-6.1209716796875
0.097,-18.052612304688,18.703247070312,-1.4764404296875
0.0975,-20.254760742188,16.781372070312,2.5274658203125
0.098,-21.576049804688,14.859497070312,5.6905517578125
0.0985,-21.495971679688,12.096801757812,8.4532470703125
0.099,-21.295776367188,8.3331298828125,12.096801757812
0.0995,-20.535034179688,4.1690673828125,15.420043945312
0.1,-19.133666992188,-0.3553466796875,18.543090820312
0.1005,-17.171752929688,-3.9588623046875,20.224731445312
0.101,-15.049682617188,-6.5213623046875,20.785278320312
0.1015,-12.407104492188,-9.4442138671875,21.105590820312
0.102,-7.1219482421875,-13.488159179688,20.024536132812
0.1025,-2.5574951171875,-16.611206054688,18.703247070312
0.103,1.9268798828125,-18.893432617188,16.901489257812
0.1035,5.2100830078125,-20.374877929688,15.259887695312
0.104,7.9327392578125,-20.374877929688,12.737426757812
0.1045,11.015747070312,-20.414916992188,9.7344970703125
0.105,14.859497070312,-19.574096679688,5.3302001953125
0.1055,17.902465820312,-17.812377929688,0.6055908203125
0.106,19.704223632812,-16.010620117188,-2.8778076171875
0.1065,20.464965820312,-14.048706054688,-5.6004638671875
0.107,20.625122070312,-11.446166992188,-8.3231201171875
0.1075,20.144653320312,-7.0819091796875,-12.327026367188
0.108,19.423950195312,-3.2781982421875,-15.410034179688
0.1085,18.022583007812,0.8057861328125,-17.972534179688
0.109,16.340942382812,4.1290283203125,-19.654174804688
0.1095,13.818481445312,6.6915283203125,-19.814331054688
0.11,11.015747070312,9.6544189453125,-20.054565429688
0.1105,6.0108642578125,13.698364257812,-19.213745117188
0.111,1.1260986328125,16.701293945312,-17.612182617188
0.1115,-2.5174560546875,18.543090820312,-16.010620117188
0.112,-5.4803466796875,19.784301757812,-14.489135742188
0.1125,-8.2830810546875,19.824340820312,-11.926635742188
0.113,-11.806518554688,19.303833007812,-8.1629638671875
0.1135,-15.209838867188,18.543090820312,-4.1590576171875
0.114,-18.132690429688,16.821411132812,0.4854736328125
0.1145,-19.694213867188,15.179809570312,3.6485595703125
0.115,-20.054565429688,12.937622070312,6.2110595703125
0.1155,-20.374877929688,10.335083007812,9.0538330078125
0.116,-19.734252929688,5.7305908203125,13.137817382812
0.1165,-18.733276367188,1.7266845703125,16.140747070312
0.117,-17.291870117188,-1.8768310546875,18.262817382812
0.1175,-15.730346679688,-4.8397216796875,19.784301757812
0.118,-12.887573242188,-7.5223388671875,19.664184570312
0.1185,-9.3240966796875,-10.845581054688,19.504028320312
0.119,-4.6795654296875,-14.489135742188,18.623168945312
0.1195,0.3253173828125,-17.331909179688,16.741333007812
0.12,3.5284423828125,-18.773315429688,15.219848632812
0.1205,6.2510986328125,-19.574096679688,13.458129882812
0.121,9.0137939453125,-19.854370117188,11.135864257812
0.1215,13.057739257812,-18.933471679688,6.4112548828125
0.122,16.100708007812,-17.812377929688,2.4073486328125
0.1225,18.422973632812,-16.170776367188,-1.5164794921875
0.123,19.624145507812,-14.489135742188,-4.3592529296875
0.1235,19.624145507812,-11.926635742188,-6.9217529296875
0.124,19.784301757812,-8.8836669921875,-10.124877929688
0.1245,19.223754882812,-4.7196044921875,-13.808471679688
0.125,17.982543945312,-0.5155029296875,-16.771362304688
0.1255,16.340942382812,2.6876220703125,-18.252807617188
0.126,14.619262695312,5.4503173828125,-19.373901367188
0.1265,11.856567382812,8.1729736328125,-19.453979492188
0.127,7.1719970703125,12.016723632812,-18.733276367188
0.1275,3.0479736328125,15.179809570312,-17.932495117188
0.128,-1.4364013671875,17.662231445312,-16.170776367188
0.1285,-4.3592529296875,18.903442382812,-14.729370117188
0.129,-7.0018310546875,19.063598632812,-12.527221679688
0.1295,-9.9246826171875,19.343872070312,-10.004760742188
0.13,-13.888549804688,18.463012695312,-5.2801513671875
0.1305,-16.851440429688,16.901489257812,-0.7557373046875
0.131,-18.573120117188,15.339965820312,2.4073486328125
0.1315,-19.614135742188,13.618286132812,5.0899658203125
0.132,-19.574096679688,10.975708007812,7.6925048828125
0.1325,-19.333862304688,7.0919189453125,11.296020507812
0.133,-18.853393554688,3.3282470703125,14.659301757812
0.1335,-17.452026367188,-0.7557373046875,17.341918945312
0.134,-15.890502929688,-3.7186279296875,18.703247070312
0.1345,-13.808471679688,-6.2410888671875,19.223754882812
0.135,-11.085815429688,-9.0838623046875,19.504028320312
0.1355,-5.8406982421875,-13.087768554688,18.382934570312
0.136,-1.4364013671875,-16.010620117188,17.021606445312
0.1365,2.2471923828125,-18.012573242188,15.620239257812
0.137,5.0899658203125,-19.213745117188,14.138793945312
0.1375,7.7325439453125,-19.133666992188,11.576293945312
0.138,11.055786132812,-18.933471679688,8.3331298828125
0.1385,14.699340820312,-18.132690429688,4.1290283203125
0.139,17.421997070312,-16.370971679688,-0.3953857421875
0.1395,18.703247070312,-14.889526367188,-3.0780029296875
0.14,19.343872070312,-12.887573242188,-5.7205810546875
0.1405,19.463989257812,-10.285034179688,-8.4031982421875
0.141,18.943481445312,-5.8406982421875,-12.327026367188
0.1415,18.142700195312,-2.1170654296875,-15.289916992188
0.142,16.821411132812,1.5264892578125,-17.652221679688
0.1425,15.179809570312,4.3692626953125,-18.853393554688
0.143,12.497192382812,7.0118408203125,-18.853393554688
0.1435,9.3341064453125,10.214965820312,-19.013549804688
0.144,4.4893798828125,14.018676757812,-18.092651367188
0.1445,-0.3153076171875,16.701293945312,-16.210815429688
0.145,-3.1981201171875,18.182739257812,-15.049682617188
0.1455,-6.0408935546875,19.103637695312,-13.448120117188
0.146,-8.8035888671875,19.063598632812,-10.765502929688
0.1465,-12.527221679688,18.422973632812,-6.5213623046875
0.147,-15.690307617188,17.421997070312,-2.5174560546875
0.1475,-18.172729492188,15.700317382812,1.6466064453125
0.148,-19.133666992188,14.058715820312,4.2091064453125
0.1485,-19.413940429688,11.656372070312,6.9317626953125
0.149,-19.494018554688,8.7735595703125,9.9346923828125
0.1495,-18.933471679688,4.4093017578125,13.658325195312
0.15,-17.612182617188,0.2852783203125,16.541137695312
0.1505,-16.170776367188,-2.8778076171875,18.222778320312
0.151,-14.569213867188,-5.6004638671875,19.343872070312
0.1515,-11.566284179688,-8.2830810546875,19.103637695312
0.152,-7.4422607421875,-11.846557617188,18.663208007812
0.1525,-2.8778076171875,-15.329956054688,17.662231445312
0.153,1.7667236328125,-17.772338867188,15.820434570312
0.1535,4.2891845703125,-18.733276367188,14.379028320312
0.154,7.1319580078125,-19.293823242188,12.377075195312
0.1545,10.094848632812,-19.173706054688,9.5743408203125
0.155,13.818481445312,-18.252807617188,5.0499267578125
0.1555,16.781372070312,-16.851440429688,0.8057861328125
0.156,18.663208007812,-15.289916992188,-2.6375732421875
0.1565,19.343872070312,-13.448120117188,-5.0799560546875
0.157,19.303833007812,-10.685424804688,-7.7625732421875
0.1575,19.103637695312,-7.2020263671875,-11.165893554688
0.158,18.583129882812,-3.2381591796875,-14.689331054688
0.1585,17.021606445312,0.9259033203125,-17.211791992188
0.159,15.460083007812,3.6485595703125,-18.372924804688
0.1595,13.578247070312,6.3311767578125,-19.213745117188
0.16,10.415161132812,9.2139892578125,-19.053588867188
0.1605,5.6905517578125,12.857543945312,-18.172729492188
0.161,1.3262939453125,15.980590820312,-16.971557617188
0.1615,-2.7576904296875,17.982543945312,-15.410034179688
0.162,-5.1600341796875,18.783325195312,-13.848510742188
0.1625,-8.0028076171875,18.983520507812,-11.406127929688
0.163,-11.205932617188,18.743286132812,-8.2030029296875
0.1635,-14.729370117188,17.782348632812,-3.8387451171875
0.164,-17.411987304688,16.020629882812,0.6055908203125
0.1645,-18.773315429688,14.539184570312,3.3682861328125
0.165,-19.413940429688,12.577270507812,5.9708251953125
0.1655,-19.373901367188,9.7344970703125,8.7735595703125
0.166,-18.853393554688,5.6905517578125,12.296997070312
0.1665,-18.092651367188,1.8468017578125,15.420043945312
0.167,-16.651245117188,-1.9969482421875,17.782348632812
0.1675,-14.929565429688,-4.5194091796875,18.623168945312
0.168,-12.687377929688,-7.1619873046875,19.063598632812
0.1685,-9.1639404296875,-10.405151367188,18.943481445312
0.169,-4.3592529296875,-14.088745117188,17.862426757812
0.1695,0.2452392578125,-16.691284179688,16.180786132812
0.17,3.3682861328125,-18.332885742188,14.899536132812
0.1705,6.0108642578125,-19.013549804688,13.217895507812
0.171,8.8135986328125,-18.973510742188,10.535278320312
0.1715,12.337036132812,-18.453002929688,6.6915283203125
0.172,15.660278320312,-17.371948242188,2.4473876953125
0.1725,17.982543945312,-15.650268554688,-1.7166748046875
0.173,18.903442382812,-14.088745117188,-4.1190185546875
0.1735,19.263793945312,-11.806518554688,-6.7615966796875
0.174,19.223754882812,-8.5233154296875,-9.9647216796875
0.1745,18.583129882812,-4.5194091796875,-13.328002929688
0.175,17.462036132812,-0.5955810546875,-16.170776367188
0.1755,16.060668945312,2.8077392578125,-18.172729492188
0.176,14.138793945312,5.4102783203125,-18.853393554688
0.1765,11.496215820312,8.1329345703125,-18.933471679688
0.177,7.3721923828125,11.656372070312,-18.613159179688
0.1775,2.6876220703125,15.139770507812,-17.492065429688
0.178,-1.7166748046875,17.462036132812,-15.690307617188
