wavelength,x,y,z
0.0,-4.394287109375,3.573486328125,1.331298828125
0.0005,-4.154052734375,4.334228515625,0.410400390625
0.001,-3.393310546875,4.814697265625,-0.830810546875
0.0015,-2.552490234375,4.974853515625,-1.951904296875
0.002,-1.351318359375,5.014892578125,-2.832763671875
0.0025,-0.590576171875,5.094970703125,-3.593505859375
0.003,0.330322265625,5.094970703125,-4.674560546875
0.0035,1.251220703125,5.175048828125,-5.755615234375
0.004,2.612548828125,3.973876953125,-6.035888671875
0.0045,3.493408203125,2.812744140625,-5.955810546875
0.005,4.093994140625,1.771728515625,-5.795654296875
0.0055,4.454345703125,1.051025390625,-5.675537109375
0.006,5.094970703125,0.210205078125,-5.715576171875
0.0065,5.135009765625,-0.990966796875,-5.195068359375
0.007,4.974853515625,-1.951904296875,-4.154052734375
0.0075,4.494384765625,-3.032958984375,-2.832763671875
0.008,4.134033203125,-3.793701171875,-1.951904296875
0.0085,3.973876953125,-4.594482421875,-1.111083984375
0.009,3.853759765625,-5.475341796875,-0.270263671875
0.0095,2.532470703125,-5.835693359375,1.211181640625
0.01,1.651611328125,-5.795654296875,2.292236328125
0.0105,0.610595703125,-5.715576171875,3.213134765625
0.011,-0.190185546875,-5.795654296875,4.013916015625
0.0115,-1.231201171875,-5.715576171875,5.014892578125
0.012,-2.272216796875,-5.435302734375,5.895751953125
0.0125,-3.393310546875,-4.234130859375,6.095947265625
0.013,-4.234130859375,-2.872802734375,5.775634765625
0.0135,-4.674560546875,-1.951904296875,5.735595703125
0.014,-4.994873046875,-1.391357421875,5.455322265625
0.0145,-5.475341796875,-0.390380859375,5.415283203125
0.015,-5.435302734375,0.930908203125,4.374267578125
0.0155,-5.195068359375,1.931884765625,3.373291015625
0.016,-4.714599609375,2.852783203125,2.252197265625
0.0165,-4.434326171875,3.533447265625,1.371337890625
0.017,-4.114013671875,4.214111328125,0.450439453125
0.0175,-3.873779296875,4.934814453125,-0.590576171875
0.018,-2.632568359375,5.094970703125,-1.871826171875
0.0185,-1.271240234375,5.054931640625,-3.113037109375
0.019,-0.590576171875,5.094970703125,-3.793701171875
0.0195,0.290283203125,5.135009765625,-4.634521484375
0.02,1.331298828125,5.014892578125,-5.675537109375
0.0205,2.612548828125,4.093994140625,-6.196044921875
0.021,3.573486328125,3.012939453125,-6.356201171875
0.0215,4.134033203125,1.651611328125,-5.995849609375
0.022,4.494384765625,0.970947265625,-5.755615234375
0.0225,4.974853515625,0.130126953125,-5.635498046875
0.023,5.335205078125,-0.910888671875,-5.395263671875
0.0235,5.135009765625,-2.112060546875,-4.194091796875
0.024,4.654541015625,-3.233154296875,-2.832763671875
0.0245,4.214111328125,-4.033935546875,-1.831787109375
0.025,3.973876953125,-4.754638671875,-1.031005859375
0.0255,3.573486328125,-5.395263671875,0.090087890625
0.026,2.812744140625,-5.795654296875,1.251220703125
0.0265,1.611572265625,-6.035888671875,2.412353515625
0.027,0.450439453125,-5.755615234375,3.413330078125
0.0275,-0.310302734375,-5.835693359375,4.134033203125
0.028,-1.231201171875,-5.755615234375,5.014892578125
0.0285,-2.192138671875,-5.635498046875,6.015869140625
0.029,-3.553466796875,-4.234130859375,6.256103515625
0.0295,-4.434326171875,-3.072998046875,6.015869140625
0.03,-4.674560546875,-1.911865234375,5.735595703125
0.0305,-5.195068359375,-1.231201171875,5.615478515625
0.031,-5.515380859375,-0.350341796875,5.375244140625
0.0315,-5.715576171875,0.890869140625,4.734619140625
0.032,-5.475341796875,1.971923828125,3.613525390625
0.0325,-4.954833984375,2.972900390625,2.252197265625
0.033,-4.514404296875,3.653564453125,1.291259765625
0.0335,-4.154052734375,4.454345703125,0.530517578125
0.034,-3.873779296875,5.215087890625,-0.390380859375
0.0345,-2.552490234375,5.335205078125,-1.951904296875
0.035,-1.431396484375,5.375244140625,-3.153076171875
0.0355,-0.470458984375,5.215087890625,-3.953857421875
0.036,0.330322265625,5.255126953125,-4.754638671875
0.0365,1.411376953125,4.974853515625,-5.675537109375
0.037,2.532470703125,4.534423828125,-6.476318359375
0.0375,3.853759765625,3.293212890625,-6.756591796875
0.038,4.534423828125,1.771728515625,-6.356201171875
0.0385,4.854736328125,0.890869140625,-5.995849609375
0.039,5.135009765625,0.050048828125,-5.755615234375
0.0395,5.535400390625,-0.950927734375,-5.515380859375
0.04,5.375244140625,-2.392333984375,-4.234130859375
0.0405,5.094970703125,-3.553466796875,-3.072998046875
0.041,4.494384765625,-4.354248046875,-1.831787109375
0.0415,4.013916015625,-4.874755859375,-0.790771484375
0.042,3.573486328125,-5.715576171875,0.090087890625
0.0425,3.093017578125,-6.316162109375,1.291259765625
0.043,1.611572265625,-6.396240234375,2.732666015625
0.0435,0.250244140625,-6.115966796875,3.893798828125
0.044,-0.630615234375,-6.075927734375,4.614501953125
0.0445,-1.431396484375,-5.915771484375,5.415283203125
0.045,-2.632568359375,-5.555419921875,6.376220703125
0.0455,-4.033935546875,-4.434326171875,6.696533203125
0.046,-5.114990234375,-3.153076171875,6.856689453125
0.0465,-5.475341796875,-1.751708984375,6.296142578125
0.047,-5.755615234375,-0.830810546875,5.935791015625
0.0475,-5.915771484375,0.210205078125,5.495361328125
0.048,-6.236083984375,1.291259765625,4.974853515625
0.0485,-5.835693359375,2.692626953125,3.453369140625
0.049,-5.275146484375,3.813720703125,1.931884765625
0.0495,-4.794677734375,4.454345703125,1.051025390625
0.05,-4.154052734375,5.054931640625,0.170166015625
0.0505,-3.553466796875,5.575439453125,-1.151123046875
0.051,-2.312255859375,5.935791015625,-2.632568359375
0.0515,-1.071044921875,5.935791015625,-3.913818359375
0.052,0.290283203125,5.535400390625,-4.794677734375
0.0525,0.970947265625,5.375244140625,-5.435302734375
0.053,1.931884765625,5.014892578125,-6.196044921875
0.0535,3.012939453125,4.614501953125,-7.076904296875
0.054,4.534423828125,3.012939453125,-7.317138671875
0.0545,5.255126953125,1.571533203125,-6.876708984375
0.055,5.535400390625,0.450439453125,-6.356201171875
0.0555,5.655517578125,-0.470458984375,-5.955810546875
0.056,5.815673828125,-1.511474609375,-5.435302734375
0.0565,5.815673828125,-2.832763671875,-4.474365234375
0.057,5.455322265625,-4.073974609375,-3.072998046875
0.0575,4.654541015625,-5.235107421875,-1.631591796875
0.058,4.053955078125,-5.515380859375,-0.550537109375
0.0585,3.533447265625,-6.035888671875,0.490478515625
0.059,3.052978515625,-6.676513671875,1.491455078125
0.0595,1.331298828125,-6.716552734375,3.213134765625
0.06,0.050048828125,-6.516357421875,4.334228515625
0.0605,-0.990966796875,-6.236083984375,5.054931640625
0.061,-1.711669921875,-6.035888671875,5.695556640625
0.0615,-2.872802734375,-5.475341796875,6.576416015625
0.062,-3.953857421875,-4.834716796875,7.257080078125
0.0625,-5.155029296875,-3.353271484375,7.177001953125
0.063,-5.795654296875,-1.791748046875,6.616455078125
0.0635,-6.035888671875,-0.830810546875,6.095947265625
0.064,-6.115966796875,0.090087890625,5.735595703125
0.0645,-6.356201171875,1.051025390625,5.255126953125
0.065,-6.035888671875,2.572509765625,3.773681640625
0.0655,-5.475341796875,3.533447265625,2.292236328125
0.066,-4.874755859375,4.454345703125,1.010986328125
0.0665,-4.394287109375,4.974853515625,0.250244140625
0.067,-3.713623046875,5.495361328125,-0.870849609375
0.0675,-3.072998046875,6.095947265625,-1.991943359375
0.068,-1.471435546875,6.055908203125,-3.553466796875
0.0685,0.050048828125,5.735595703125,-4.634521484375
0.069,0.810791015625,5.495361328125,-5.315185546875
0.0695,1.531494140625,5.335205078125,-5.835693359375
0.07,2.692626953125,4.854736328125,-6.916748046875
0.0705,4.134033203125,3.573486328125,-7.277099609375
0.071,4.974853515625,2.292236328125,-7.156982421875
0.0715,5.455322265625,0.930908203125,-6.596435546875
0.072,5.655517578125,0.010009765625,-6.156005859375
0.0725,5.775634765625,-1.031005859375,-5.715576171875
0.073,6.055908203125,-2.072021484375,-5.275146484375
0.0735,5.695556640625,-3.353271484375,-3.593505859375
0.074,4.974853515625,-4.634521484375,-2.072021484375
0.0745,4.334228515625,-5.275146484375,-0.990966796875
0.075,3.853759765625,-5.795654296875,0.010009765625
0.0755,3.253173828125,-6.396240234375,1.051025390625
0.076,2.092041015625,-6.756591796875,2.532470703125
0.0765,0.730712890625,-6.676513671875,3.813720703125
0.077,-0.630615234375,-6.276123046875,4.734619140625
0.0775,-1.311279296875,-6.115966796875,5.335205078125
0.078,-2.312255859375,-5.835693359375,6.095947265625
0.0785,-3.353271484375,-5.475341796875,7.056884765625
0.079,-4.794677734375,-3.833740234375,7.136962890625
0.0795,-5.595458984375,-2.432373046875,6.776611328125
0.08,-5.915771484375,-1.231201171875,6.296142578125
0.0805,-6.115966796875,-0.470458984375,5.935791015625
0.081,-6.236083984375,0.690673828125,5.415283203125
0.0815,-6.396240234375,1.771728515625,4.414306640625
0.082,-5.915771484375,3.253173828125,3.173095703125
0.0825,-5.155029296875,4.254150390625,1.571533203125
0.083,-4.554443359375,4.814697265625,0.530517578125
0.0835,-4.033935546875,5.375244140625,-0.510498046875
0.084,-3.553466796875,6.055908203125,-1.471435546875
0.0845,-1.951904296875,6.135986328125,-3.193115234375
0.085,-0.590576171875,5.935791015625,-4.394287109375
0.0855,0.570556640625,5.615478515625,-5.074951171875
0.086,1.291259765625,5.495361328125,-5.755615234375
0.0865,2.412353515625,4.974853515625,-6.636474609375
0.087,3.573486328125,4.334228515625,-7.397216796875
0.0875,4.814697265625,2.812744140625,-7.397216796875
0.088,5.495361328125,1.211181640625,-6.836669921875
0.0885,5.735595703125,0.130126953125,-6.396240234375
0.089,5.855712890625,-0.790771484375,-5.955810546875
0.0895,6.216064453125,-1.591552734375,-5.395263671875
0.09,5.815673828125,-3.353271484375,-3.993896484375
0.0905,5.375244140625,-4.514404296875,-2.552490234375
0.091,4.614501953125,-5.275146484375,-1.231201171875
0.0915,4.013916015625,-5.835693359375,-0.270263671875
0.092,3.413330078125,-6.356201171875,0.850830078125
0.0925,2.692626953125,-6.916748046875,2.011962890625
0.093,1.051025390625,-6.836669921875,3.573486328125
0.0935,-0.550537109375,-6.396240234375,4.694580078125
0.094,-1.271240234375,-6.236083984375,5.335205078125
0.0945,-2.072021484375,-5.955810546875,6.015869140625
0.095,-3.273193359375,-5.475341796875,6.896728515625
0.0955,-4.634521484375,-4.154052734375,7.257080078125
0.096,-5.435302734375,-2.872802734375,7.056884765625
0.0965,-5.915771484375,-1.471435546875,6.456298828125
0.097,-6.115966796875,-0.630615234375,6.055908203125
0.0975,-6.356201171875,0.370361328125,5.575439453125
0.098,-6.396240234375,1.411376953125,5.094970703125
0.0985,-5.955810546875,2.852783203125,3.493408203125
0.099,-5.275146484375,3.933837890625,1.931884765625
0.0995,-4.674560546875,4.574462890625,0.890869140625
0.1,-4.194091796875,5.094970703125,0.010009765625
0.1005,-3.593505859375,5.655517578125,-1.111083984375
0.101,-2.432373046875,6.015869140625,-2.512451171875
0.1015,-1.151123046875,5.935791015625,-3.793701171875
0.102,0.250244140625,5.535400390625,-4.714599609375
0.1025,0.930908203125,5.415283203125,-5.315185546875
0.103,1.851806640625,5.135009765625,-6.115966796875
0.1035,2.812744140625,4.894775390625,-7.036865234375
0.104,4.214111328125,3.333251953125,-7.116943359375
0.1045,4.974853515625,1.891845703125,-6.836669921875
0.105,5.375244140625,0.770751953125,-6.396240234375
0.1055,5.535400390625,-0.190185546875,-6.075927734375
0.106,5.735595703125,-1.111083984375,-5.635498046875
0.1065,5.815673828125,-2.272216796875,-4.874755859375
0.107,5.455322265625,-3.473388671875,-3.553466796875
0.1075,4.774658203125,-4.514404296875,-1.991943359375
0.108,4.214111328125,-5.155029296875,-0.950927734375
0.1085,3.813720703125,-5.755615234375,0.010009765625
0.109,3.413330078125,-6.396240234375,0.970947265625
0.1095,1.891845703125,-6.556396484375,2.612548828125
0.11,0.570556640625,-6.396240234375,3.773681640625
0.1105,-0.590576171875,-6.156005859375,4.534423828125
0.111,-1.271240234375,-6.075927734375,5.255126953125
0.1115,-2.312255859375,-5.755615234375,6.095947265625
0.112,-3.393310546875,-5.235107421875,6.896728515625
0.1125,-4.634521484375,-3.833740234375,6.936767578125
0.113,-5.355224609375,-2.272216796875,6.416259765625
0.1135,-5.795654296875,-1.271240234375,6.135986328125
0.114,-5.835693359375,-0.470458984375,5.735595703125
0.1145,-6.115966796875,0.530517578125,5.415283203125
0.115,-5.915771484375,1.931884765625,4.134033203125
0.1155,-5.555419921875,3.052978515625,2.892822265625
0.116,-4.874755859375,3.893798828125,1.571533203125
0.1165,-4.434326171875,4.494384765625,0.650634765625
0.117,-3.873779296875,5.094970703125,-0.390380859375
0.1175,-3.473388671875,5.695556640625,-1.351318359375
0.118,-1.951904296875,5.735595703125,-2.832763671875
0.1185,-0.630615234375,5.415283203125,-3.913818359375
0.119,0.290283203125,5.295166015625,-4.634521484375
0.1195,1.010986328125,5.255126953125,-5.355224609375
0.12,2.052001953125,4.934814453125,-6.276123046875
0.1205,3.373291015625,3.853759765625,-6.756591796875
0.121,4.214111328125,2.692626953125,-6.716552734375
0.1215,4.814697265625,1.251220703125,-6.356201171875
0.122,5.094970703125,0.570556640625,-5.955810546875
0.1225,5.295166015625,-0.390380859375,-5.635498046875
0.123,5.655517578125,-1.231201171875,-5.475341796875
0.1235,5.295166015625,-2.552490234375,-4.033935546875
0.124,4.814697265625,-3.633544921875,-2.672607421875
0.1245,4.294189453125,-4.354248046875,-1.591552734375
0.125,3.973876953125,-4.954833984375,-0.830810546875
0.1255,3.533447265625,-5.635498046875,0.250244140625
0.126,2.692626953125,-6.115966796875,1.411376953125
0.1265,1.571533203125,-6.156005859375,2.572509765625
0.127,0.290283203125,-5.835693359375,3.573486328125
0.1275,-0.510498046875,-5.835693359375,4.294189453125
0.128,-1.351318359375,-5.755615234375,5.094970703125
0.1285,-2.232177734375,-5.755615234375,6.095947265625
0.129,-3.553466796875,-4.434326171875,6.336181640625
0.1295,-4.394287109375,-3.193115234375,6.095947265625
0.13,-4.954833984375,-2.072021484375,5.895751953125
0.1305,-5.195068359375,-1.351318359375,5.735595703125
0.131,-5.515380859375,-0.510498046875,5.455322265625
0.1315,-5.715576171875,0.570556640625,4.974853515625
0.132,-5.515380859375,1.651611328125,3.933837890625
0.1325,-4.954833984375,2.692626953125,2.532470703125
0.133,-4.514404296875,3.493408203125,1.571533203125
0.1335,-4.234130859375,4.134033203125,0.770751953125
0.134,-4.114013671875,4.934814453125,0.010009765625
0.1345,-2.872802734375,5.175048828125,-1.551513671875
0.135,-1.791748046875,5.255126953125,-2.632568359375
0.1355,-0.790771484375,5.094970703125,-3.513427734375
0.136,0.010009765625,5.175048828125,-4.314208984375
0.1365,0.970947265625,5.054931640625,-5.275146484375
0.137,1.931884765625,4.814697265625,-6.156005859375
0.1375,3.213134765625,3.693603515625,-6.396240234375
0.138,3.973876953125,2.252197265625,-6.075927734375
0.1385,4.454345703125,1.331298828125,-5.875732421875
0.139,4.814697265625,0.610595703125,-5.755615234375
0.1395,5.255126953125,-0.310302734375,-5.675537109375
0.14,5.135009765625,-1.551513671875,-4.634521484375
0.1405,4.974853515625,-2.592529296875,-3.633544921875
0.141,4.454345703125,-3.553466796875,-2.432373046875
0.1415,4.134033203125,-4.194091796875,-1.591552734375
0.142,3.853759765625,-4.954833984375,-0.670654296875
0.1425,3.533447265625,-5.675537109375,0.330322265625
0.143,2.292236328125,-5.835693359375,1.611572265625
0.1435,1.051025390625,-5.715576171875,2.732666015625
0.144,0.290283203125,-5.755615234375,3.573486328125
0.1445,-0.550537109375,-5.795654296875,4.334228515625
0.145,-1.591552734375,-5.755615234375,5.375244140625
0.1455,-2.752685546875,-4.874755859375,5.935791015625
0.146,-3.713623046875,-3.873779296875,6.095947265625
0.1465,-4.354248046875,-2.632568359375,5.735595703125
0.147,-4.794677734375,-1.791748046875,5.575439453125
0.1475,-5.155029296875,-1.031005859375,5.455322265625
0.148,-5.595458984375,-0.270263671875,5.415283203125
0.1485,-5.395263671875,1.091064453125,4.254150390625
0.149,-4.994873046875,2.052001953125,3.052978515625
0.1495,-4.634521484375,2.892822265625,2.052001953125
0.15,-4.354248046875,3.613525390625,1.291259765625
0.1505,-4.114013671875,4.374267578125,0.370361328125
0.151,-3.393310546875,4.974853515625,-0.830810546875
0.1515,-2.432373046875,5.135009765625,-1.951904296875
0.152,-1.271240234375,4.974853515625,-2.952880859375
0.1525,-0.510498046875,5.094970703125,-3.793701171875
0.153,0.330322265625,5.094970703125,-4.674560546875
0.1535,1.331298828125,5.215087890625,-5.755615234375
0.154,2.572509765625,3.973876953125,-6.035888671875
0.1545,3.493408203125,2.812744140625,-6.035888671875
0.155,4.093994140625,1.771728515625,-5.795654296875
0.1555,4.494384765625,1.091064453125,-5.755615234375
0.156,4.854736328125,0.210205078125,-5.595458984375
0.1565,5.175048828125,-0.830810546875,-5.195068359375
0.157,5.135009765625,-1.951904296875,-4.314208984375
0.1575,4.534423828125,-2.992919921875,-2.872802734375
0.158,4.134033203125,-3.753662109375,-1.951904296875
0.1585,3.973876953125,-4.514404296875,-1.151123046875
0.159,3.853759765625,-5.315185546875,-0.310302734375
0.1595,2.692626953125,-5.635498046875,1.131103515625
0.16,1.651611328125,-5.755615234375,2.252197265625
0.1605,0.690673828125,-5.715576171875,3.093017578125
0.161,0.010009765625,-5.795654296875,3.893798828125
0.1615,-1.111083984375,-5.715576171875,4.934814453125
0.162,-2.112060546875,-5.515380859375,5.815673828125
0.1625,-3.313232421875,-4.354248046875,6.055908203125
0.163,-4.154052734375,-2.952880859375,5.775634765625
0.1635,-4.634521484375,-2.072021484375,5.655517578125
0.164,-4.994873046875,-1.351318359375,5.535400390625
0.1645,-5.435302734375,-0.550537109375,5.415283203125
0.165,-5.355224609375,0.650634765625,4.414306640625
0.1655,-5.275146484375,1.771728515625,3.573486328125
0.166,-4.794677734375,2.692626953125,2.372314453125
0.1665,-4.474365234375,3.413330078125,1.531494140625
0.167,-4.154052734375,4.134033203125,0.610595703125
0.1675,-3.873779296875,4.934814453125,-0.350341796875
0.168,-2.672607421875,5.094970703125,-1.671630859375
0.1685,-1.431396484375,5.014892578125,-2.832763671875
0.169,-0.670654296875,5.014892578125,-3.593505859375
0.1695,0.130126953125,5.094970703125,-4.394287109375
0.17,1.211181640625,4.974853515625,-5.435302734375
0.1705,2.452392578125,4.214111328125,-6.115966796875
0.171,3.373291015625,3.173095703125,-6.236083984375
0.1715,4.093994140625,1.891845703125,-5.915771484375
0.172,4.494384765625,1.091064453125,-5.755615234375
0.1725,4.854736328125,0.250244140625,-5.595458984375
0.173,5.295166015625,-0.790771484375,-5.635498046875
0.1735,5.094970703125,-1.991943359375,-4.234130859375
0.174,4.734619140625,-3.072998046875,-2.992919921875
0.1745,4.334228515625,-3.833740234375,-1.991943359375
0.175,4.053955078125,-4.554443359375,-1.191162109375
0.1755,3.693603515625,-5.275146484375,-0.270263671875
0.176,2.892822265625,-5.835693359375,1.091064453125
0.1765,1.811767578125,-5.995849609375,2.252197265625
0.177,0.570556640625,-5.795654296875,3.253173828125
0.1775,-0.390380859375,-5.915771484375,4.134033203125
0.178,-1.151123046875,-5.715576171875,4.894775390625
0.1785,-2.112060546875,-5.635498046875,5.935791015625
0.179,-3.553466796875,-4.234130859375,6.256103515625
0.1795,-4.394287109375,-3.072998046875,6.095947265625
0.18,-4.874755859375,-1.991943359375,5.775634765625
0.1805,-5.195068359375,-1.231201171875,5.615478515625
0.181,-5.475341796875,-0.350341796875,5.375244140625
0.1815,-5.715576171875,0.810791015625,4.814697265625
0.182,-5.515380859375,1.971923828125,3.653564453125
0.1825,-4.914794921875,3.052978515625,2.252197265625
0.183,-4.514404296875,3.693603515625,1.331298828125
0.1835,-4.154052734375,4.334228515625,0.490478515625
0.184,-3.833740234375,5.094970703125,-0.510498046875
0.1845,-2.592529296875,5.295166015625,-1.951904296875
0.185,-1.431396484375,5.295166015625,-3.193115234375
0.1855,-0.590576171875,5.054931640625,-3.913818359375
0.186,0.330322265625,5.175048828125,-4.674560546875
0.1865,1.411376953125,4.934814453125,-5.595458984375
0.187,2.492431640625,4.574462890625,-6.436279296875
0.1875,3.693603515625,3.213134765625,-6.596435546875
0.188,4.494384765625,1.811767578125,-6.236083984375
