wavelength,x,y,z
0.0,-4.58447265625,-3.46337890625,6.50634765625
0.0005,-5.42529296875,-2.22216796875,6.42626953125
0.001,-5.94580078125,-1.34130859375,6.42626953125
0.0015,-5.98583984375,-0.54052734375,5.94580078125
0.002,-5.70556640625,0.54052734375,5.02490234375
0.0025,-5.50537109375,1.66162109375,3.98388671875
0.003,-5.38525390625,3.06298828125,2.70263671875
0.0035,-5.10498046875,4.10400390625,1.58154296875
0.004,-4.90478515625,4.86474609375,0.86083984375
0.0045,-4.02392578125,5.10498046875,-0.18017578125
0.005,-2.90283203125,5.18505859375,-1.34130859375
0.0055,-1.82177734375,5.58544921875,-2.74267578125
0.006,-0.62060546875,5.58544921875,-3.98388671875
0.0065,0.22021484375,5.82568359375,-4.94482421875
0.007,0.94091796875,5.70556640625,-5.62548828125
0.0075,1.94189453125,4.82470703125,-5.90576171875
0.008,3.18310546875,3.70361328125,-6.26611328125
0.0085,4.34423828125,2.42236328125,-6.46630859375
0.009,5.06494140625,1.30126953125,-6.38623046875
0.0095,5.46533203125,0.62060546875,-6.38623046875
0.01,5.34521484375,-0.34033203125,-5.74560546875
0.0105,5.10498046875,-1.34130859375,-4.74462890625
0.011,5.02490234375,-2.54248046875,-3.78369140625
0.0115,4.82470703125,-3.78369140625,-2.58251953125
0.012,4.62451171875,-4.74462890625,-1.62158203125
0.0125,4.34423828125,-5.38525390625,-0.90087890625
0.013,3.46337890625,-5.50537109375,0.14013671875
0.0135,2.38232421875,-5.70556640625,1.30126953125
0.014,1.22119140625,-6.02587890625,2.74267578125
0.0145,0.22021484375,-6.10595703125,3.86376953125
0.015,-0.50048828125,-6.38623046875,4.78466796875
0.0155,-1.30126953125,-6.10595703125,5.34521484375
0.016,-2.38232421875,-5.14501953125,5.62548828125
0.0165,-3.54345703125,-4.18408203125,5.98583984375
0.017,-4.58447265625,-3.02294921875,6.14599609375
0.0175,-5.26513671875,-1.94189453125,6.14599609375
0.018,-5.62548828125,-1.30126953125,6.10595703125
0.0185,-5.42529296875,-0.50048828125,5.42529296875
0.019,-5.26513671875,0.62060546875,4.50439453125
0.0195,-5.26513671875,1.90185546875,3.50341796875
0.02,-5.06494140625,3.02294921875,2.42236328125
0.0205,-4.98486328125,3.94384765625,1.62158203125
0.021,-4.50439453125,4.50439453125,0.78076171875
0.0215,-3.62353515625,4.74462890625,-0.30029296875
0.022,-2.66259765625,5.06494140625,-1.50146484375
0.0225,-1.54150390625,5.26513671875,-2.82275390625
0.023,-0.66064453125,5.50537109375,-3.86376953125
0.0235,0.02001953125,5.78564453125,-4.82470703125
0.024,0.98095703125,5.22509765625,-5.26513671875
0.0245,2.10205078125,4.22412109375,-5.62548828125
0.025,3.26318359375,3.22314453125,-6.02587890625
0.0255,4.18408203125,2.18212890625,-6.10595703125
0.026,4.82470703125,1.34130859375,-6.22607421875
0.0265,5.02490234375,0.58056640625,-5.98583984375
0.027,4.94482421875,-0.38037109375,-5.26513671875
0.0275,4.82470703125,-1.42138671875,-4.42431640625
0.028,4.82470703125,-2.70263671875,-3.34326171875
0.0285,4.62451171875,-3.78369140625,-2.38232421875
0.029,4.62451171875,-4.62451171875,-1.66162109375
0.0295,3.98388671875,-4.98486328125,-0.82080078125
0.03,3.06298828125,-5.26513671875,0.34033203125
0.0305,2.14208984375,-5.66552734375,1.58154296875
0.031,1.02099609375,-5.82568359375,2.82275390625
0.0315,0.30029296875,-6.10595703125,3.86376953125
0.032,-0.50048828125,-6.22607421875,4.62451171875
0.0325,-1.46142578125,-5.62548828125,5.06494140625
0.033,-2.54248046875,-4.74462890625,5.46533203125
0.0335,-3.70361328125,-3.66357421875,5.78564453125
0.034,-4.54443359375,-2.58251953125,5.90576171875
0.0345,-5.10498046875,-1.94189453125,6.06591796875
0.035,-5.14501953125,-1.14111328125,5.58544921875
0.0355,-5.06494140625,-0.26025390625,4.86474609375
0.036,-5.10498046875,0.90087890625,4.14404296875
0.0365,-5.06494140625,2.10205078125,3.10302734375
0.037,-4.94482421875,3.14306640625,2.22216796875
0.0375,-4.78466796875,3.94384765625,1.46142578125
0.038,-4.10400390625,4.30419921875,0.58056640625
0.0385,-3.22314453125,4.62451171875,-0.62060546875
0.039,-2.30224609375,5.10498046875,-1.94189453125
0.0395,-1.34130859375,5.26513671875,-3.06298828125
0.04,-0.70068359375,5.70556640625,-4.10400390625
0.0405,0.26025390625,5.38525390625,-4.78466796875
0.041,1.34130859375,4.62451171875,-5.22509765625
0.0415,2.50244140625,3.86376953125,-5.74560546875
0.042,3.58349609375,2.74267578125,-5.94580078125
0.0425,4.38427734375,1.78173828125,-6.06591796875
0.043,4.86474609375,1.10107421875,-6.10595703125
0.0435,4.82470703125,0.26025390625,-5.50537109375
0.044,4.74462890625,-0.82080078125,-4.74462890625
0.0445,4.82470703125,-2.06201171875,-3.86376953125
0.045,4.74462890625,-3.18310546875,-2.86279296875
0.0455,4.62451171875,-4.18408203125,-2.06201171875
0.046,4.22412109375,-4.78466796875,-1.26123046875
0.0465,3.42333984375,-5.06494140625,-0.26025390625
0.047,2.58251953125,-5.46533203125,1.02099609375
0.0475,1.42138671875,-5.74560546875,2.38232421875
0.048,0.62060546875,-6.06591796875,3.46337890625
0.0485,-0.14013671875,-6.38623046875,4.42431640625
0.049,-1.10107421875,-5.82568359375,4.94482421875
0.0495,-2.26220703125,-4.90478515625,5.38525390625
0.05,-3.46337890625,-3.90380859375,5.78564453125
0.0505,-4.38427734375,-2.86279296875,5.90576171875
0.051,-5.10498046875,-2.02197265625,6.06591796875
0.0515,-5.26513671875,-1.26123046875,5.78564453125
0.052,-5.14501953125,-0.38037109375,5.10498046875
0.0525,-5.14501953125,0.74072265625,4.30419921875
0.053,-5.10498046875,2.06201171875,3.18310546875
0.0535,-4.94482421875,3.14306640625,2.18212890625
0.054,-4.86474609375,4.02392578125,1.42138671875
0.0545,-4.18408203125,4.38427734375,0.58056640625
0.055,-3.26318359375,4.62451171875,-0.62060546875
0.0555,-2.34228515625,5.10498046875,-1.94189453125
0.056,-1.26123046875,5.30517578125,-3.14306640625
0.0565,-0.58056640625,5.58544921875,-4.14404296875
0.057,0.30029296875,5.54541015625,-4.98486328125
0.0575,1.34130859375,4.82470703125,-5.38525390625
0.058,2.54248046875,3.86376953125,-5.78564453125
0.0585,3.78369140625,2.70263671875,-6.10595703125
0.059,4.54443359375,1.66162109375,-6.14599609375
0.0595,5.06494140625,0.98095703125,-6.22607421875
0.06,4.98486328125,0.10009765625,-5.62548828125
0.0605,4.86474609375,-0.98095703125,-4.74462890625
0.061,4.86474609375,-2.18212890625,-3.86376953125
0.0615,4.74462890625,-3.38330078125,-2.78271484375
0.062,4.62451171875,-4.42431640625,-1.82177734375
0.0625,4.38427734375,-5.10498046875,-1.10107421875
0.063,3.50341796875,-5.26513671875,0.02001953125
0.0635,2.46240234375,-5.54541015625,1.14111328125
0.064,1.34130859375,-5.90576171875,2.54248046875
0.0645,0.46044921875,-6.10595703125,3.66357421875
0.065,-0.34033203125,-6.38623046875,4.62451171875
0.0655,-1.22119140625,-6.02587890625,5.18505859375
0.066,-2.34228515625,-4.98486328125,5.54541015625
0.0665,-3.54345703125,-4.02392578125,5.94580078125
0.067,-4.62451171875,-2.82275390625,6.10595703125
0.0675,-5.26513671875,-1.86181640625,6.10595703125
0.068,-5.58544921875,-1.18115234375,6.06591796875
0.0685,-5.42529296875,-0.30029296875,5.26513671875
0.069,-5.26513671875,0.90087890625,4.30419921875
0.0695,-5.26513671875,2.22216796875,3.22314453125
0.07,-5.06494140625,3.34326171875,2.18212890625
0.0705,-4.94482421875,4.22412109375,1.34130859375
0.071,-4.34423828125,4.66455078125,0.50048828125
0.0715,-3.38330078125,4.86474609375,-0.62060546875
0.072,-2.30224609375,5.18505859375,-1.94189453125
0.0725,-1.18115234375,5.42529296875,-3.34326171875
0.073,-0.38037109375,5.58544921875,-4.38427734375
0.0735,0.38037109375,5.78564453125,-5.26513671875
0.074,1.42138671875,5.06494140625,-5.66552734375
0.0745,2.70263671875,3.94384765625,-6.02587890625
0.075,3.90380859375,2.82275390625,-6.34619140625
0.0755,4.78466796875,1.66162109375,-6.38623046875
0.076,5.30517578125,0.82080078125,-6.38623046875
0.0765,5.42529296875,0.02001953125,-5.94580078125
0.077,5.14501953125,-1.14111328125,-4.98486328125
0.0775,5.06494140625,-2.30224609375,-3.98388671875
0.078,4.94482421875,-3.70361328125,-2.74267578125
0.0785,4.74462890625,-4.70458984375,-1.66162109375
0.079,4.50439453125,-5.46533203125,-0.98095703125
0.0795,3.66357421875,-5.70556640625,0.14013671875
0.08,2.46240234375,-5.82568359375,1.34130859375
0.0805,1.30126953125,-6.22607421875,2.86279296875
0.081,0.18017578125,-6.30615234375,4.10400390625
0.0815,-0.66064453125,-6.46630859375,5.06494140625
0.082,-1.42138671875,-6.30615234375,5.70556640625
0.0825,-2.62255859375,-5.26513671875,6.02587890625
0.083,-3.90380859375,-4.02392578125,6.38623046875
0.0835,-5.06494140625,-2.74267578125,6.54638671875
0.084,-5.74560546875,-1.58154296875,6.42626953125
0.0845,-6.10595703125,-0.90087890625,6.38623046875
0.085,-5.90576171875,0.18017578125,5.50537109375
0.0855,-5.62548828125,1.38134765625,4.34423828125
0.086,-5.54541015625,2.70263671875,3.18310546875
0.0865,-5.26513671875,3.94384765625,1.94189453125
0.087,-4.98486328125,4.82470703125,0.94091796875
0.0875,-4.50439453125,5.38525390625,0.14013671875
0.088,-3.38330078125,5.42529296875,-1.06103515625
0.0885,-2.02197265625,5.54541015625,-2.50244140625
0.089,-0.78076171875,5.82568359375,-4.02392578125
0.0895,0.30029296875,5.82568359375,-5.06494140625
0.09,0.94091796875,5.98583984375,-5.90576171875
0.0905,1.94189453125,5.26513671875,-6.34619140625
0.091,3.26318359375,3.98388671875,-6.54638671875
0.0915,4.50439453125,2.70263671875,-6.86669921875
0.092,5.38525390625,1.38134765625,-6.78662109375
0.0925,5.90576171875,0.34033203125,-6.58642578125
0.093,5.98583984375,-0.54052734375,-6.26611328125
0.0935,5.62548828125,-1.58154296875,-5.14501953125
0.094,5.30517578125,-2.86279296875,-3.86376953125
0.0945,5.14501953125,-4.26416015625,-2.54248046875
0.095,4.82470703125,-5.26513671875,-1.38134765625
0.0955,4.50439453125,-6.02587890625,-0.58056640625
0.096,3.70361328125,-6.26611328125,0.46044921875
0.0965,2.42236328125,-6.34619140625,1.66162109375
0.097,1.14111328125,-6.46630859375,3.14306640625
0.0975,-0.30029296875,-6.46630859375,4.50439453125
0.098,-1.10107421875,-6.54638671875,5.42529296875
0.0985,-1.78173828125,-6.54638671875,6.14599609375
0.099,-2.86279296875,-5.50537109375,6.42626953125
0.0995,-4.14404296875,-4.14404296875,6.62646484375
0.1,-5.30517578125,-2.86279296875,6.78662109375
0.1005,-6.02587890625,-1.58154296875,6.62646484375
0.101,-6.42626953125,-0.78076171875,6.54638671875
0.1015,-6.30615234375,0.22021484375,5.86572265625
0.102,-5.90576171875,1.30126953125,4.70458984375
0.1025,-5.66552734375,2.58251953125,3.50341796875
0.103,-5.42529296875,3.94384765625,2.10205078125
0.1035,-5.06494140625,4.86474609375,0.98095703125
0.104,-4.74462890625,5.54541015625,0.26025390625
0.1045,-3.70361328125,5.62548828125,-0.86083984375
0.105,-2.34228515625,5.66552734375,-2.22216796875
0.1055,-1.14111328125,5.98583984375,-3.70361328125
0.106,0.18017578125,5.90576171875,-4.86474609375
0.1065,0.82080078125,6.06591796875,-5.74560546875
0.107,1.66162109375,5.70556640625,-6.38623046875
0.1075,2.86279296875,4.54443359375,-6.62646484375
0.108,4.14404296875,3.18310546875,-6.86669921875
0.1085,5.26513671875,1.86181640625,-6.90673828125
0.109,5.82568359375,0.66064453125,-6.70654296875
0.1095,6.10595703125,-0.18017578125,-6.58642578125
0.11,5.82568359375,-1.14111328125,-5.70556640625
0.1105,5.50537109375,-2.34228515625,-4.42431640625
0.111,5.30517578125,-3.70361328125,-3.18310546875
0.1115,5.02490234375,-4.86474609375,-1.90185546875
0.112,4.66455078125,-5.74560546875,-0.90087890625
0.1125,4.14404296875,-6.34619140625,0.02001953125
0.113,3.02294921875,-6.34619140625,1.14111328125
0.1135,1.62158203125,-6.42626953125,2.54248046875
0.114,0.30029296875,-6.54638671875,4.10400390625
0.1145,-0.78076171875,-6.54638671875,5.10498046875
0.115,-1.42138671875,-6.70654296875,5.90576171875
0.1155,-2.38232421875,-6.02587890625,6.38623046875
0.116,-3.66357421875,-4.66455078125,6.54638671875
0.1165,-4.86474609375,-3.46337890625,6.82666015625
0.117,-5.78564453125,-2.06201171875,6.74658203125
0.1175,-6.34619140625,-1.02099609375,6.58642578125
0.118,-6.42626953125,-0.30029296875,6.26611328125
0.1185,-6.10595703125,0.86083984375,5.22509765625
0.119,-5.74560546875,2.10205078125,3.94384765625
0.1195,-5.62548828125,3.54345703125,2.62255859375
0.12,-5.26513671875,4.62451171875,1.42138671875
0.1205,-4.98486328125,5.38525390625,0.50048828125
0.121,-4.14404296875,5.66552734375,-0.54052734375
0.1215,-2.90283203125,5.70556640625,-1.78173828125
0.122,-1.58154296875,5.94580078125,-3.26318359375
0.1225,-0.26025390625,5.98583984375,-4.62451171875
0.123,0.70068359375,6.06591796875,-5.62548828125
0.1235,1.34130859375,6.06591796875,-6.34619140625
0.124,2.54248046875,4.98486328125,-6.66650390625
0.1245,3.90380859375,3.58349609375,-6.90673828125
0.125,5.10498046875,2.26220703125,-7.06689453125
0.1255,5.78564453125,0.98095703125,-6.90673828125
0.126,6.22607421875,0.06005859375,-6.74658203125
0.1265,6.10595703125,-0.98095703125,-6.10595703125
0.127,5.74560546875,-2.10205078125,-4.86474609375
0.1275,5.46533203125,-3.46337890625,-3.54345703125
0.128,5.22509765625,-4.82470703125,-2.18212890625
0.1285,4.82470703125,-5.82568359375,-0.98095703125
0.129,4.50439453125,-6.42626953125,-0.22021484375
0.1295,3.30322265625,-6.50634765625,0.94091796875
0.13,1.94189453125,-6.50634765625,2.34228515625
0.1305,0.54052734375,-6.70654296875,3.90380859375
0.131,-0.74072265625,-6.58642578125,5.06494140625
0.1315,-1.46142578125,-6.66650390625,5.90576171875
0.132,-2.26220703125,-6.30615234375,6.46630859375
0.1325,-3.46337890625,-5.10498046875,6.66650390625
0.133,-4.74462890625,-3.70361328125,6.86669921875
0.1335,-5.74560546875,-2.30224609375,6.90673828125
0.134,-6.34619140625,-1.14111328125,6.62646484375
0.1345,-6.54638671875,-0.42041015625,6.42626953125
0.135,-6.22607421875,0.62060546875,5.50537109375
0.1355,-5.82568359375,1.82177734375,4.26416015625
0.136,-5.62548828125,3.18310546875,2.94287109375
0.1365,-5.30517578125,4.22412109375,1.66162109375
0.137,-4.86474609375,5.10498046875,0.62060546875
0.1375,-4.46435546875,5.62548828125,-0.26025390625
0.138,-3.26318359375,5.66552734375,-1.30126953125
0.1385,-1.94189453125,5.74560546875,-2.66259765625
0.139,-0.66064453125,5.90576171875,-4.14404296875
0.1395,0.46044921875,5.86572265625,-5.10498046875
0.14,1.02099609375,6.06591796875,-5.94580078125
0.1405,1.94189453125,5.38525390625,-6.38623046875
0.141,3.18310546875,4.14404296875,-6.54638671875
0.1415,4.34423828125,2.86279296875,-6.78662109375
0.142,5.26513671875,1.58154296875,-6.78662109375
0.1425,5.78564453125,0.54052734375,-6.58642578125
0.143,5.94580078125,-0.30029296875,-6.34619140625
0.1435,5.58544921875,-1.26123046875,-5.38525390625
0.144,5.30517578125,-2.42236328125,-4.18408203125
0.1445,5.14501953125,-3.82373046875,-2.94287109375
0.145,4.82470703125,-4.86474609375,-1.82177734375
0.1455,4.62451171875,-5.70556640625,-0.98095703125
0.146,3.94384765625,-6.02587890625,0.02001953125
0.1465,2.82275390625,-6.10595703125,1.18115234375
0.147,1.58154296875,-6.30615234375,2.50244140625
0.1475,0.30029296875,-6.34619140625,3.90380859375
0.148,-0.66064453125,-6.46630859375,4.90478515625
0.1485,-1.26123046875,-6.58642578125,5.70556640625
0.149,-2.30224609375,-5.74560546875,6.06591796875
0.1495,-3.54345703125,-4.54443359375,6.34619140625
0.15,-4.74462890625,-3.34326171875,6.58642578125
0.1505,-5.54541015625,-2.10205078125,6.50634765625
0.151,-6.02587890625,-1.26123046875,6.46630859375
0.1515,-6.06591796875,-0.42041015625,5.98583984375
0.152,-5.74560546875,0.66064453125,4.98486328125
0.1525,-5.58544921875,1.82177734375,3.90380859375
0.153,-5.38525390625,3.18310546875,2.62255859375
0.1535,-5.10498046875,4.14404296875,1.50146484375
0.154,-4.86474609375,4.98486328125,0.74072265625
0.1545,-3.98388671875,5.18505859375,-0.30029296875
0.155,-2.78271484375,5.30517578125,-1.54150390625
0.1555,-1.62158203125,5.62548828125,-2.94287109375
0.156,-0.50048828125,5.62548828125,-4.14404296875
0.1565,0.30029296875,5.86572265625,-5.10498046875
0.157,1.06103515625,5.70556640625,-5.74560546875
0.1575,2.18212890625,4.74462890625,-6.02587890625
0.158,3.34326171875,3.58349609375,-6.38623046875
0.1585,4.50439453125,2.30224609375,-6.50634765625
0.159,5.10498046875,1.22119140625,-6.38623046875
0.1595,5.50537109375,0.50048828125,-6.38623046875
0.16,5.42529296875,-0.50048828125,-5.70556640625
0.1605,5.10498046875,-1.58154296875,-4.62451171875
0.161,5.06494140625,-2.82275390625,-3.62353515625
0.1615,4.82470703125,-3.98388671875,-2.50244140625
0.162,4.58447265625,-4.82470703125,-1.50146484375
0.1625,4.30419921875,-5.46533203125,-0.74072265625
0.163,3.34326171875,-5.62548828125,0.30029296875
0.1635,2.26220703125,-5.82568359375,1.46142578125
0.164,1.06103515625,-6.06591796875,2.90283203125
0.1645,0.14013671875,-6.14599609375,3.90380859375
0.165,-0.62060546875,-6.42626953125,4.86474609375
0.1655,-1.42138671875,-6.06591796875,5.42529296875
0.166,-2.54248046875,-5.06494140625,5.70556640625
0.1665,-3.70361328125,-4.06396484375,6.06591796875
0.167,-4.66455078125,-2.86279296875,6.14599609375
0.1675,-5.30517578125,-1.94189453125,6.14599609375
0.168,-5.62548828125,-1.22119140625,6.10595703125
0.1685,-5.46533203125,-0.38037109375,5.38525390625
0.169,-5.30517578125,0.70068359375,4.50439453125
0.1695,-5.26513671875,1.98193359375,3.38330078125
0.17,-5.06494140625,3.06298828125,2.42236328125
0.1705,-4.98486328125,4.02392578125,1.58154296875
0.171,-4.46435546875,4.54443359375,0.70068359375
0.1715,-3.54345703125,4.78466796875,-0.42041015625
0.172,-2.62255859375,5.14501953125,-1.58154296875
0.1725,-1.46142578125,5.34521484375,-2.90283203125
0.173,-0.66064453125,5.58544921875,-3.94384765625
0.1735,0.10009765625,5.78564453125,-4.86474609375
0.174,1.10107421875,5.18505859375,-5.34521484375
0.1745,2.26220703125,4.22412109375,-5.74560546875
0.175,3.42333984375,3.18310546875,-6.10595703125
0.1755,4.26416015625,2.14208984375,-6.14599609375
0.176,4.90478515625,1.30126953125,-6.26611328125
0.1765,5.10498046875,0.46044921875,-5.98583984375
0.177,4.94482421875,-0.58056640625,-5.18505859375
0.1775,4.86474609375,-1.62158203125,-4.42431640625
0.178,4.82470703125,-2.86279296875,-3.26318359375
0.1785,4.62451171875,-3.86376953125,-2.30224609375
0.179,4.62451171875,-4.74462890625,-1.58154296875
0.1795,3.90380859375,-5.06494140625,-0.70068359375
0.18,2.94287109375,-5.34521484375,0.50048828125
0.1805,1.98193359375,-5.74560546875,1.78173828125
0.181,0.94091796875,-5.86572265625,2.98291015625
0.1815,0.26025390625,-6.22607421875,3.98388671875
0.182,-0.62060546875,-6.22607421875,4.78466796875
0.1825,-1.62158203125,-5.46533203125,5.18505859375
0.183,-2.78271484375,-4.58447265625,5.62548828125
0.1835,-3.90380859375,-3.50341796875,5.90576171875
0.184,-4.70458984375,-2.46240234375,5.94580078125
0.1845,-5.18505859375,-1.86181640625,6.10595703125
0.185,-5.22509765625,-0.98095703125,5.54541015625
0.1855,-5.14501953125,0.02001953125,4.74462890625
0.186,-5.18505859375,1.22119140625,3.98388671875
0.1865,-5.06494140625,2.30224609375,2.94287109375
0.187,-4.90478515625,3.34326171875,2.06201171875
0.1875,-4.70458984375,4.06396484375,1.30126953125
0.188,-3.98388671875,4.42431640625,0.38037109375
0.1885,-3.06298828125,4.74462890625,-0.90087890625
0.189,-2.06201171875,5.10498046875,-2.18212890625
0.1895,-1.18115234375,5.30517578125,-3.26318359375
0.19,-0.50048828125,5.70556640625,-4.26416015625
0.1905,0.50048828125,5.38525390625,-4.90478515625
0.191,1.58154296875,4.54443359375,-5.34521484375
0.1915,2.74267578125,3.70361328125,-5.78564453125
0.192,3.74365234375,2.58251953125,-5.94580078125
0.1925,4.50439453125,1.62158203125,-6.10595703125
0.193,4.90478515625,0.90087890625,-6.10595703125
0.1935,4.82470703125,0.06005859375,-5.46533203125
0.194,4.78466796875,-0.98095703125,-4.66455078125
0.1945,4.82470703125,-2.26220703125,-3.70361328125
0.195,4.66455078125,-3.34326171875,-2.78271484375
0.1955,4.66455078125,-4.26416015625,-1.98193359375
0.196,4.18408203125,-4.82470703125,-1.14111328125
0.1965,3.34326171875,-5.14501953125,0.02001953125
0.197,2.46240234375,-5.54541015625,1.18115234375
0.1975,1.30126953125,-5.74560546875,2.50244140625
0.198,0.58056640625,-6.10595703125,3.54345703125
0.1985,-0.26025390625,-6.34619140625,4.50439453125
0.199,-1.18115234375,-5.74560546875,4.98486328125
