wavelength,x,y,z
0.0,-5.2801513671875,4.1690673828125,1.6466064453125
0.0005,-4.9998779296875,4.9298095703125,0.8057861328125
0.001,-4.4393310546875,5.3702392578125,0.0050048828125
0.0015,-3.5184326171875,5.6104736328125,-1.1961669921875
0.002,-2.1971435546875,5.8106689453125,-2.5975341796875
0.0025,-0.7557373046875,5.8507080078125,-4.1190185546875
0.003,0.2452392578125,5.8907470703125,-5.0799560546875
0.0035,0.8458251953125,6.0108642578125,-5.8406982421875
0.004,1.8067626953125,5.4903564453125,-6.4012451171875
0.0045,3.0880126953125,4.3292236328125,-6.7615966796875
0.005,4.4093017578125,2.8477783203125,-6.8817138671875
0.0055,5.2901611328125,1.4464111328125,-6.7215576171875
0.006,5.7305908203125,0.6055908203125,-6.6014404296875
0.0065,5.8106689453125,-0.2752685546875,-6.2811279296875
0.007,5.7305908203125,-1.2362060546875,-5.5203857421875
0.0075,5.4503173828125,-2.4373779296875,-4.3192138671875
0.008,5.1700439453125,-3.8387451171875,-2.8778076171875
0.0085,4.8497314453125,-4.9197998046875,-1.7567138671875
0.009,4.6094970703125,-5.6805419921875,-0.9559326171875
0.0095,3.9288330078125,-6.1209716796875,0.0850830078125
0.01,2.8477783203125,-6.2811279296875,1.3262939453125
0.0105,1.5264892578125,-6.4813232421875,2.8477783203125
0.011,0.1651611328125,-6.4813232421875,4.1690673828125
0.0115,-0.6356201171875,-6.6414794921875,5.0899658203125
0.012,-1.3563232421875,-6.5614013671875,5.8106689453125
0.0125,-2.4774169921875,-5.8006591796875,6.3712158203125
0.013,-3.8387451171875,-4.5194091796875,6.6114501953125
0.0135,-5.0399169921875,-3.0379638671875,6.6514892578125
0.014,-5.7606201171875,-1.7967529296875,6.4512939453125
0.0145,-6.0408935546875,-1.0760498046875,6.3712158203125
0.015,-6.0408935546875,-0.3153076171875,5.8507080078125
0.0155,-5.8006591796875,0.8858642578125,4.8497314453125
0.016,-5.6004638671875,2.1270751953125,3.6485595703125
0.0165,-5.2801513671875,3.3682861328125,2.2872314453125
0.017,-5.0399169921875,4.2891845703125,1.3262939453125
0.0175,-4.7196044921875,4.8497314453125,0.5655517578125
0.018,-3.9989013671875,5.2501220703125,-0.4354248046875
0.0185,-2.8377685546875,5.4102783203125,-1.6766357421875
0.019,-1.4764404296875,5.6104736328125,-3.1981201171875
0.0195,-0.4354248046875,5.6505126953125,-4.3192138671875
0.02,0.2852783203125,5.8106689453125,-5.1600341796875
0.0205,1.1260986328125,5.6104736328125,-5.8006591796875
0.021,2.2872314453125,4.6895751953125,-6.2811279296875
0.0215,3.5284423828125,3.4884033203125,-6.4813232421875
0.022,4.6094970703125,2.0469970703125,-6.4813232421875
0.0225,5.1700439453125,1.1260986328125,-6.4012451171875
0.023,5.4503173828125,0.4454345703125,-6.3211669921875
0.0235,5.4503173828125,-0.4754638671875,-5.8006591796875
0.024,5.2100830078125,-1.5164794921875,-4.8397216796875
0.0245,5.0499267578125,-2.8778076171875,-3.5584716796875
0.025,4.8096923828125,-3.9989013671875,-2.4373779296875
0.0255,4.6094970703125,-4.9197998046875,-1.5965576171875
0.026,4.2091064453125,-5.4403076171875,-0.7957763671875
0.0265,3.4483642578125,-5.7606201171875,0.3253173828125
0.027,2.3673095703125,-6.0408935546875,1.6065673828125
0.0275,1.0059814453125,-6.1610107421875,3.0479736328125
0.028,0.2052001953125,-6.3612060546875,4.0889892578125
0.0285,-0.5955810546875,-6.5213623046875,4.9698486328125
0.029,-1.4764404296875,-6.1610107421875,5.6104736328125
0.0295,-2.7576904296875,-5.2000732421875,6.0509033203125
0.03,-3.9588623046875,-3.9188232421875,6.2510986328125
0.0305,-4.9197998046875,-2.5975341796875,6.2110595703125
0.031,-5.4403076171875,-1.7967529296875,6.2110595703125
0.0315,-5.6405029296875,-1.1561279296875,6.0108642578125
0.032,-5.6405029296875,-0.2752685546875,5.4102783203125
0.0325,-5.4403076171875,0.8858642578125,4.4893798828125
0.033,-5.2801513671875,2.2071533203125,3.2081298828125
0.0335,-5.1199951171875,3.2481689453125,2.1671142578125
0.034,-4.9598388671875,4.0889892578125,1.4063720703125
0.0345,-4.4793701171875,4.6094970703125,0.6055908203125
0.035,-3.5584716796875,4.9298095703125,-0.5955810546875
0.0355,-2.4774169921875,5.2501220703125,-1.9569091796875
0.036,-1.3162841796875,5.4102783203125,-3.2381591796875
0.0365,-0.6356201171875,5.6505126953125,-4.1990966796875
0.037,0.2452392578125,5.7305908203125,-4.9998779296875
0.0375,1.2061767578125,5.2501220703125,-5.6405029296875
0.038,2.4073486328125,4.2091064453125,-6.0008544921875
0.0385,3.6485595703125,2.8878173828125,-6.1610107421875
0.039,4.4893798828125,1.7667236328125,-6.1610107421875
0.0395,4.9298095703125,1.1260986328125,-6.2811279296875
0.04,5.0899658203125,0.3653564453125,-5.9207763671875
0.0405,5.0098876953125,-0.6756591796875,-5.2801513671875
0.041,4.9298095703125,-1.7967529296875,-4.2791748046875
0.0415,4.7696533203125,-3.0780029296875,-3.1580810546875
0.042,4.6094970703125,-3.9989013671875,-2.2371826171875
0.0425,4.4893798828125,-4.7996826171875,-1.4764404296875
0.043,3.9288330078125,-5.2801513671875,-0.5955810546875
0.0435,3.0079345703125,-5.6405029296875,0.6856689453125
0.044,1.8468017578125,-5.9207763671875,2.0870361328125
0.0445,0.8858642578125,-6.1209716796875,3.2481689453125
0.045,0.2452392578125,-6.4012451171875,4.1690673828125
0.0455,-0.7156982421875,-6.2811279296875,4.9698486328125
0.046,-1.8768310546875,-5.6004638671875,5.5303955078125
0.0465,-3.0780029296875,-4.5194091796875,5.8907470703125
0.047,-4.2391357421875,-3.1981201171875,5.9708251953125
0.0475,-4.9197998046875,-2.2772216796875,6.0108642578125
0.048,-5.2801513671875,-1.6365966796875,6.0509033203125
0.0485,-5.4403076171875,-0.9559326171875,5.6905517578125
0.049,-5.2801513671875,0.1651611328125,4.8096923828125
0.0495,-5.2801513671875,1.4063720703125,3.7686767578125
0.05,-5.1199951171875,2.6075439453125,2.6876220703125
0.0505,-4.9998779296875,3.5284423828125,1.9268798828125
0.051,-4.6795654296875,4.1290283203125,1.1260986328125
0.0515,-3.9989013671875,4.6094970703125,0.1251220703125
0.052,-3.0780029296875,5.0098876953125,-1.1961669921875
0.0525,-1.9168701171875,5.2501220703125,-2.5574951171875
0.053,-1.1160888671875,5.4903564453125,-3.5985107421875
0.0535,-0.4354248046875,5.7305908203125,-4.5194091796875
0.054,0.6055908203125,5.4503173828125,-5.2401123046875
0.0545,1.8468017578125,4.5694580078125,-5.7205810546875
0.055,3.0880126953125,3.4083251953125,-6.0408935546875
0.0555,4.1290283203125,2.1671142578125,-6.0408935546875
0.056,4.6495361328125,1.4464111328125,-6.1610107421875
0.0565,4.9298095703125,0.6856689453125,-6.0408935546875
0.057,4.9698486328125,-0.2752685546875,-5.5203857421875
0.0575,4.9298095703125,-1.3162841796875,-4.6795654296875
0.058,4.8497314453125,-2.5574951171875,-3.5584716796875
0.0585,4.7296142578125,-3.6385498046875,-2.5574951171875
0.059,4.6094970703125,-4.5194091796875,-1.7967529296875
0.0595,4.1290283203125,-5.0399169921875,-0.9559326171875
0.06,3.2882080078125,-5.4403076171875,0.2852783203125
0.0605,2.2471923828125,-5.8406982421875,1.6466064453125
0.061,1.1260986328125,-6.0408935546875,2.9278564453125
0.0615,0.4454345703125,-6.3211669921875,3.9288330078125
0.062,-0.4754638671875,-6.4012451171875,4.8096923828125
0.0625,-1.4764404296875,-5.8406982421875,5.4102783203125
0.063,-2.7576904296875,-4.8397216796875,5.8106689453125
0.0635,-3.9989013671875,-3.5184326171875,6.0108642578125
0.064,-4.8397216796875,-2.4373779296875,6.0509033203125
0.0645,-5.2801513671875,-1.7967529296875,6.0509033203125
0.065,-5.4403076171875,-1.0360107421875,5.7305908203125
0.0655,-5.3602294921875,0.0450439453125,4.9698486328125
0.066,-5.2801513671875,1.2462158203125,4.0089111328125
0.0665,-5.1199951171875,2.5274658203125,2.8477783203125
0.067,-4.9998779296875,3.4483642578125,1.9669189453125
0.0675,-4.7996826171875,4.1290283203125,1.2061767578125
0.068,-4.1590576171875,4.6094970703125,0.2852783203125
0.0685,-3.1981201171875,4.9698486328125,-0.9959716796875
0.069,-1.9969482421875,5.2501220703125,-2.4373779296875
0.0695,-1.0360107421875,5.4503173828125,-3.5985107421875
0.07,-0.3953857421875,5.7305908203125,-4.5194091796875
0.0705,0.5655517578125,5.5704345703125,-5.2801513671875
0.071,1.7266845703125,4.7696533203125,-5.8006591796875
0.0715,3.0079345703125,3.6485595703125,-6.1209716796875
0.072,4.1290283203125,2.2471923828125,-6.2010498046875
0.0725,4.8096923828125,1.3262939453125,-6.2811279296875
0.073,5.1300048828125,0.6055908203125,-6.2010498046875
0.0735,5.1300048828125,-0.3153076171875,-5.7205810546875
0.074,5.0499267578125,-1.3162841796875,-4.7596435546875
0.0745,4.9698486328125,-2.6375732421875,-3.5584716796875
0.075,4.8096923828125,-3.8387451171875,-2.4373779296875
0.0755,4.6094970703125,-4.6795654296875,-1.6365966796875
0.076,4.2091064453125,-5.2801513671875,-0.7957763671875
0.0765,3.4083251953125,-5.6405029296875,0.3253173828125
0.077,2.2872314453125,-5.9608154296875,1.7266845703125
0.0775,1.0059814453125,-6.1209716796875,3.1280517578125
0.078,0.2452392578125,-6.3612060546875,4.1290283203125
0.0785,-0.5955810546875,-6.4813232421875,5.0098876953125
0.079,-1.5965576171875,-6.0408935546875,5.6905517578125
0.0795,-2.9178466796875,-4.8797607421875,6.0909423828125
0.08,-4.1990966796875,-3.5584716796875,6.2911376953125
0.0805,-5.1199951171875,-2.3172607421875,6.2110595703125
0.081,-5.6004638671875,-1.5565185546875,6.2110595703125
0.0815,-5.7205810546875,-0.7957763671875,5.8907470703125
0.082,-5.6405029296875,0.2852783203125,5.0899658203125
0.0825,-5.4403076171875,1.4464111328125,4.0089111328125
0.083,-5.2801513671875,2.8477783203125,2.7276611328125
0.0835,-5.0799560546875,3.8487548828125,1.6866455078125
0.084,-4.8397216796875,4.5294189453125,0.9259033203125
0.0845,-4.1590576171875,4.9698486328125,0.0450439453125
0.085,-3.1580810546875,5.1700439453125,-1.2762451171875
0.0855,-1.9168701171875,5.4903564453125,-2.7176513671875
0.086,-0.7957763671875,5.6104736328125,-3.9588623046875
0.0865,0.0050048828125,5.7706298828125,-4.8797607421875
0.087,0.8057861328125,5.6905517578125,-5.6405029296875
0.0875,1.9268798828125,4.9298095703125,-6.1610107421875
0.088,3.2481689453125,3.6485595703125,-6.4412841796875
0.0885,4.4893798828125,2.1671142578125,-6.5213623046875
0.089,5.1700439453125,1.0860595703125,-6.4412841796875
0.0895,5.4903564453125,0.4454345703125,-6.3612060546875
0.09,5.4903564453125,-0.5155029296875,-5.8406982421875
0.0905,5.3302001953125,-1.5565185546875,-4.8397216796875
0.091,5.1700439453125,-2.9178466796875,-3.5985107421875
0.0915,4.9298095703125,-4.1990966796875,-2.3172607421875
0.092,4.6895751953125,-5.0799560546875,-1.3963623046875
0.0925,4.3292236328125,-5.7205810546875,-0.5955810546875
0.093,3.4884033203125,-6.0408935546875,0.5655517578125
0.0935,2.2071533203125,-6.2811279296875,1.9669189453125
0.094,0.8057861328125,-6.4412841796875,3.5284423828125
0.0945,-0.2352294921875,-6.5614013671875,4.6094970703125
0.095,-0.9158935546875,-6.7215576171875,5.4503173828125
0.0955,-1.8768310546875,-6.2410888671875,6.1309814453125
0.096,-3.2381591796875,-5.0799560546875,6.5313720703125
0.0965,-4.5994873046875,-3.7186279296875,6.7315673828125
0.097,-5.6405029296875,-2.2371826171875,6.6514892578125
0.0975,-6.1209716796875,-1.2362060546875,6.4512939453125
0.098,-6.2410888671875,-0.4754638671875,6.1710205078125
0.0985,-6.1209716796875,0.6055908203125,5.4102783203125
0.099,-5.7606201171875,1.8468017578125,4.0889892578125
0.0995,-5.5604248046875,3.2882080078125,2.6876220703125
0.1,-5.2401123046875,4.4093017578125,1.4464111328125
0.1005,-4.9197998046875,5.0899658203125,0.6055908203125
0.101,-4.1990966796875,5.4503173828125,-0.3953857421875
0.1015,-3.0780029296875,5.6905517578125,-1.6365966796875
0.102,-1.7166748046875,5.8907470703125,-3.1981201171875
0.1025,-0.3953857421875,5.8907470703125,-4.5994873046875
0.103,0.4854736328125,6.0108642578125,-5.4803466796875
0.1035,1.2462158203125,5.8907470703125,-6.2010498046875
0.104,2.3673095703125,5.0899658203125,-6.7215576171875
0.1045,3.7686767578125,3.6885986328125,-7.0018310546875
0.105,4.9698486328125,2.1671142578125,-7.0819091796875
0.1055,5.7305908203125,0.8057861328125,-6.7615966796875
0.106,6.0108642578125,0.0050048828125,-6.6014404296875
0.1065,5.9708251953125,-0.8758544921875,-6.0408935546875
0.107,5.7305908203125,-1.9569091796875,-4.9998779296875
0.1075,5.4102783203125,-3.2781982421875,-3.5985107421875
0.108,5.0899658203125,-4.6795654296875,-2.1170654296875
0.1085,4.7696533203125,-5.6405029296875,-1.0360107421875
0.109,4.3292236328125,-6.2010498046875,-0.2752685546875
0.1095,3.4884033203125,-6.4813232421875,0.8458251953125
0.11,2.1270751953125,-6.6014404296875,2.2471923828125
0.1105,0.6456298828125,-6.7215576171875,3.8487548828125
0.111,-0.6356201171875,-6.6815185546875,5.0499267578125
0.1115,-1.2762451171875,-6.7215576171875,5.8507080078125
0.112,-2.1571044921875,-6.4012451171875,6.4913330078125
0.1125,-3.3983154296875,-5.3602294921875,6.8917236328125
0.113,-4.7596435546875,-3.8787841796875,7.0518798828125
0.1135,-5.8807373046875,-2.2772216796875,6.9317626953125
0.114,-6.4012451171875,-1.1160888671875,6.6915283203125
0.1145,-6.5213623046875,-0.3553466796875,6.3712158203125
0.115,-6.4012451171875,0.6055908203125,5.6505126953125
0.1155,-6.0408935546875,1.8468017578125,4.3692626953125
0.116,-5.7205810546875,3.1680908203125,2.9678955078125
0.1165,-5.3602294921875,4.4493408203125,1.5665283203125
0.117,-4.9998779296875,5.1700439453125,0.6055908203125
0.1175,-4.4393310546875,5.6104736328125,-0.3153076171875
0.118,-3.4783935546875,5.8106689453125,-1.3162841796875
0.1185,-2.0369873046875,5.9307861328125,-2.8778076171875
0.119,-0.5955810546875,6.0108642578125,-4.3992919921875
0.1195,0.4854736328125,6.0108642578125,-5.4002685546875
0.12,1.0860595703125,6.0509033203125,-6.1209716796875
0.1205,2.0469970703125,5.4503173828125,-6.6815185546875
0.121,3.4083251953125,4.1290283203125,-7.0018310546875
0.1215,4.6495361328125,2.7677001953125,-7.0819091796875
0.122,5.6104736328125,1.2462158203125,-6.9217529296875
0.1225,6.0509033203125,0.2852783203125,-6.7215576171875
0.123,6.0909423828125,-0.5555419921875,-6.3612060546875
0.1235,5.8907470703125,-1.4764404296875,-5.5604248046875
0.124,5.5704345703125,-2.7576904296875,-4.1990966796875
0.1245,5.2501220703125,-4.1990966796875,-2.7176513671875
0.125,4.9298095703125,-5.2401123046875,-1.5164794921875
0.1255,4.6094970703125,-5.9608154296875,-0.6356201171875
0.126,3.8887939453125,-6.3211669921875,0.3253173828125
0.1265,2.7677001953125,-6.5213623046875,1.5665283203125
0.127,1.3262939453125,-6.6815185546875,3.1280517578125
0.1275,-0.1551513671875,-6.6815185546875,4.5294189453125
0.128,-0.9158935546875,-6.7615966796875,5.4503173828125
0.1285,-1.6365966796875,-6.7215576171875,6.1710205078125
0.129,-2.7576904296875,-5.9608154296875,6.7315673828125
0.1295,-4.1590576171875,-4.5194091796875,6.9718017578125
0.13,-5.4403076171875,-2.9578857421875,7.0118408203125
0.1305,-6.2010498046875,-1.5965576171875,6.7315673828125
0.131,-6.4813232421875,-0.7957763671875,6.5714111328125
0.1315,-6.4412841796875,0.1651611328125,6.0509033203125
0.132,-6.1610107421875,1.2462158203125,4.9698486328125
0.1325,-5.8807373046875,2.5675048828125,3.6485595703125
0.133,-5.5604248046875,3.9688720703125,2.0870361328125
0.1335,-5.2000732421875,4.9298095703125,1.0460205078125
0.134,-4.7996826171875,5.4903564453125,0.2052001953125
0.1345,-3.9588623046875,5.7706298828125,-0.8758544921875
0.135,-2.5975341796875,5.9307861328125,-2.2772216796875
0.1355,-1.1561279296875,6.0909423828125,-3.9188232421875
0.136,0.1651611328125,6.0509033203125,-5.1199951171875
0.1365,0.8458251953125,6.1309814453125,-5.9608154296875
0.137,1.7266845703125,5.7706298828125,-6.6014404296875
0.1375,2.9678955078125,4.8096923828125,-7.0418701171875
0.138,4.3292236328125,3.2481689453125,-7.2020263671875
0.1385,5.4903564453125,1.6466064453125,-7.0819091796875
0.139,6.0909423828125,0.4854736328125,-6.8817138671875
0.1395,6.2510986328125,-0.3953857421875,-6.6014404296875
0.14,6.0909423828125,-1.3162841796875,-5.8406982421875
0.1405,5.7706298828125,-2.5574951171875,-4.5594482421875
0.141,5.4503173828125,-3.9989013671875,-3.0780029296875
0.1415,5.0899658203125,-5.2401123046875,-1.6766357421875
0.142,4.7296142578125,-6.0408935546875,-0.7156982421875
0.1425,4.1290283203125,-6.4813232421875,0.2452392578125
0.143,3.0880126953125,-6.6815185546875,1.4063720703125
0.1435,1.5665283203125,-6.8016357421875,2.9678955078125
0.144,0.0050048828125,-6.7615966796875,4.5294189453125
0.1445,-0.9959716796875,-6.8016357421875,5.4903564453125
0.145,-1.5965576171875,-6.8016357421875,6.2110595703125
0.1455,-2.7176513671875,-6.1209716796875,6.7716064453125
0.146,-4.0389404296875,-4.7596435546875,7.0518798828125
0.1465,-5.2801513671875,-3.2381591796875,7.0919189453125
0.147,-6.1610107421875,-1.7567138671875,6.8516845703125
0.1475,-6.5213623046875,-0.7957763671875,6.5714111328125
0.148,-6.5213623046875,0.1251220703125,6.1309814453125
0.1485,-6.2811279296875,1.0460205078125,5.2501220703125
0.149,-5.9207763671875,2.3272705078125,3.8887939453125
0.1495,-5.6004638671875,3.7286376953125,2.4073486328125
0.15,-5.2000732421875,4.7696533203125,1.1661376953125
0.1505,-4.8397216796875,5.4102783203125,0.3253173828125
0.151,-4.1190185546875,5.6905517578125,-0.6356201171875
0.1515,-2.9578857421875,5.8106689453125,-1.7967529296875
0.152,-1.5565185546875,5.9708251953125,-3.3582763671875
0.1525,-0.1951904296875,5.8907470703125,-4.6795654296875
0.153,0.6456298828125,5.9307861328125,-5.5203857421875
0.1535,1.2862548828125,5.8907470703125,-6.2410888671875
0.154,2.3272705078125,5.1700439453125,-6.6815185546875
0.1545,3.6485595703125,3.8487548828125,-6.9217529296875
0.155,4.8497314453125,2.2872314453125,-6.9217529296875
0.1555,5.6104736328125,1.0059814453125,-6.7215576171875
0.156,5.8907470703125,0.2852783203125,-6.5614013671875
0.1565,5.8907470703125,-0.6356201171875,-6.1209716796875
0.157,5.6905517578125,-1.6365966796875,-5.1600341796875
0.1575,5.3702392578125,-2.8778076171875,-3.9188232421875
0.158,5.0899658203125,-4.1990966796875,-2.5174560546875
0.1585,4.7696533203125,-5.1600341796875,-1.4364013671875
0.159,4.4893798828125,-5.8406982421875,-0.6356201171875
0.1595,3.7686767578125,-6.2010498046875,0.3653564453125
0.16,2.5274658203125,-6.3612060546875,1.6466064453125
0.1605,1.1260986328125,-6.6014404296875,3.2081298828125
0.161,-0.1551513671875,-6.5614013671875,4.4493408203125
0.1615,-0.7957763671875,-6.7215576171875,5.2901611328125
0.162,-1.5965576171875,-6.4813232421875,6.0108642578125
0.1625,-2.8377685546875,-5.5604248046875,6.4512939453125
0.163,-4.1590576171875,-4.2391357421875,6.6915283203125
0.1635,-5.2801513671875,-2.7576904296875,6.6514892578125
0.164,-5.9207763671875,-1.6365966796875,6.4913330078125
0.1645,-6.1209716796875,-0.9559326171875,6.3712158203125
0.165,-6.0809326171875,0.0050048828125,5.7706298828125
0.1655,-5.8006591796875,1.0860595703125,4.7296142578125
0.166,-5.6405029296875,2.4073486328125,3.4483642578125
0.1665,-5.2801513671875,3.6485595703125,2.0870361328125
0.167,-5.0799560546875,4.4893798828125,1.2462158203125
0.1675,-4.5994873046875,5.0499267578125,0.3653564453125
0.168,-3.7987060546875,5.3302001953125,-0.6756591796875
0.1685,-2.5574951171875,5.4903564453125,-2.0369873046875
0.169,-1.1961669921875,5.6104736328125,-3.5584716796875
0.1695,-0.2752685546875,5.7305908203125,-4.5594482421875
0.17,0.4454345703125,5.8907470703125,-5.4002685546875
0.1705,1.3663330078125,5.4903564453125,-6.0408935546875
0.171,2.6075439453125,4.4893798828125,-6.4012451171875
0.1715,3.8487548828125,3.1680908203125,-6.5614013671875
0.172,4.8096923828125,1.7667236328125,-6.4813232421875
0.1725,5.3302001953125,0.9259033203125,-6.4412841796875
0.173,5.4903564453125,0.2052001953125,-6.2410888671875
0.1735,5.4503173828125,-0.7557373046875,-5.6004638671875
0.174,5.2100830078125,-1.8367919921875,-4.5594482421875
0.1745,5.0098876953125,-3.1981201171875,-3.1981201171875
0.175,4.7696533203125,-4.2791748046875,-2.1170654296875
0.1755,4.6094970703125,-5.1199951171875,-1.3162841796875
0.176,4.0889892578125,-5.5604248046875,-0.5155029296875
0.1765,3.1680908203125,-5.9207763671875,0.6856689453125
0.177,1.9669189453125,-6.1610107421875,2.0870361328125
0.1775,0.6856689453125,-6.2010498046875,3.4483642578125
0.178,0.0050048828125,-6.4012451171875,4.4093017578125
