wavelength,x,y,z
0.0,2.2421875,1.44140625,-3.68359375
0.0005,1.5615234375,2.0419921875,-3.5634765625
0.001,0.8408203125,2.482421875,-3.36328125
0.0015,0.240234375,3.04296875,-3.36328125
0.002,-0.5205078125,3.3232421875,-2.8427734375
0.0025,-1.12109375,3.6435546875,-2.5625
0.003,-1.521484375,3.5634765625,-2.1220703125
0.0035,-1.9619140625,3.5634765625,-1.7216796875
0.004,-2.322265625,3.2431640625,-1.041015625
0.0045,-2.8828125,3.123046875,-0.400390625
0.005,-3.04296875,2.40234375,0.4404296875
0.0055,-3.3232421875,2.2021484375,0.9609375
0.006,-3.2431640625,1.4814453125,1.5615234375
0.0065,-3.1630859375,1.0009765625,1.9619140625
0.007,-3.0830078125,0.2802734375,2.5625
0.0075,-2.802734375,-0.3603515625,3.0029296875
0.008,-2.4423828125,-1.041015625,3.3232421875
0.0085,-1.921875,-1.6015625,3.3232421875
0.009,-1.3212890625,-2.2021484375,3.3232421875
0.0095,-0.640625,-2.642578125,3.0830078125
0.01,-0.0400390625,-3.203125,3.1630859375
0.0105,0.7607421875,-3.4033203125,2.6025390625
0.011,1.201171875,-3.7236328125,2.5224609375
0.0115,1.6416015625,-3.6435546875,1.9619140625
0.012,1.9619140625,-3.5634765625,1.5615234375
0.0125,2.5224609375,-3.36328125,0.880859375
0.013,2.8828125,-3.04296875,0.240234375
0.0135,3.1630859375,-2.5625,-0.5205078125
0.014,3.36328125,-2.2021484375,-1.041015625
0.0145,3.4033203125,-1.6416015625,-1.6416015625
0.015,3.283203125,-1.041015625,-2.162109375
0.0155,3.3232421875,-0.400390625,-2.8427734375
0.016,2.9228515625,0.3603515625,-3.203125
0.0165,2.6826171875,0.9609375,-3.603515625
0.017,2.001953125,1.521484375,-3.5634765625
0.0175,1.4013671875,2.0419921875,-3.5634765625
0.018,0.640625,2.642578125,-3.3232421875
0.0185,0.0400390625,3.1630859375,-3.2431640625
0.019,-0.720703125,3.443359375,-2.7626953125
0.0195,-1.12109375,3.6435546875,-2.5625
0.02,-1.6416015625,3.603515625,-2.0419921875
0.0205,-2.0419921875,3.443359375,-1.521484375
0.021,-2.642578125,3.283203125,-0.8408203125
0.0215,-2.9228515625,2.72265625,0.0
0.022,-3.283203125,2.40234375,0.6806640625
0.0225,-3.283203125,1.841796875,1.2412109375
0.023,-3.3232421875,1.28125,1.8017578125
0.0235,-3.0830078125,0.560546875,2.3623046875
0.024,-3.0830078125,-0.0400390625,2.9228515625
0.0245,-2.5625,-0.9208984375,3.2431640625
0.025,-2.162109375,-1.4814453125,3.4833984375
0.0255,-1.44140625,-2.08203125,3.3232421875
0.026,-0.80078125,-2.5625,3.2431640625
0.0265,-0.1201171875,-3.0830078125,3.123046875
0.027,0.6005859375,-3.443359375,2.802734375
0.0275,1.28125,-3.7236328125,2.4423828125
0.028,1.6416015625,-3.68359375,2.0419921875
0.0285,2.162109375,-3.7236328125,1.5615234375
0.029,2.4423828125,-3.3232421875,0.880859375
0.0295,2.962890625,-3.203125,0.2802734375
0.03,3.1630859375,-2.482421875,-0.6005859375
0.0305,3.4833984375,-2.2021484375,-1.1611328125
0.031,3.3232421875,-1.5615234375,-1.681640625
0.0315,3.36328125,-1.0810546875,-2.2421875
0.032,3.1630859375,-0.3203125,-2.7626953125
0.0325,3.0029296875,0.2802734375,-3.2431640625
0.033,2.5224609375,1.0810546875,-3.603515625
0.0335,1.9619140625,1.5615234375,-3.603515625
0.034,1.3212890625,2.2021484375,-3.5634765625
0.0345,0.640625,2.642578125,-3.283203125
0.035,0.0,3.1630859375,-3.2431640625
0.0355,-0.720703125,3.4033203125,-2.72265625
0.036,-1.28125,3.68359375,-2.482421875
0.0365,-1.6416015625,3.5234375,-1.9619140625
0.037,-2.1220703125,3.5634765625,-1.6015625
0.0375,-2.5224609375,3.1630859375,-0.80078125
0.038,-2.962890625,2.962890625,-0.16015625
0.0385,-3.203125,2.2822265625,0.720703125
0.039,-3.36328125,1.9619140625,1.2412109375
0.0395,-3.283203125,1.28125,1.841796875
0.04,-3.203125,0.6806640625,2.2822265625
0.0405,-3.04296875,0.0,2.8427734375
0.041,-2.642578125,-0.7607421875,3.203125
0.0415,-2.2822265625,-1.4814453125,3.5234375
0.042,-1.6015625,-1.9619140625,3.4033203125
0.0425,-1.0009765625,-2.6025390625,3.443359375
0.043,-0.2001953125,-2.962890625,3.1630859375
0.0435,0.400390625,-3.5234375,3.04296875
0.044,1.2412109375,-3.7236328125,2.40234375
0.0445,1.681640625,-3.8837890625,2.2021484375
0.045,2.1220703125,-3.7236328125,1.5615234375
0.0455,2.5224609375,-3.5634765625,1.12109375
0.046,2.9228515625,-3.203125,0.3203125
0.0465,3.2431640625,-2.7626953125,-0.400390625
0.047,3.5234375,-2.2021484375,-1.2412109375
0.0475,3.5234375,-1.7216796875,-1.7216796875
0.048,3.4833984375,-1.041015625,-2.322265625
0.0485,3.283203125,-0.400390625,-2.802734375
0.049,3.1630859375,0.240234375,-3.36328125
0.0495,2.5625,1.0810546875,-3.7236328125
0.05,2.162109375,1.76171875,-3.84375
0.0505,1.361328125,2.2421875,-3.5634765625
0.051,0.720703125,2.802734375,-3.5634765625
0.0515,-0.0400390625,3.1630859375,-3.203125
0.052,-0.6806640625,3.5634765625,-2.9228515625
0.0525,-1.521484375,3.8037109375,-2.3623046875
0.053,-1.8818359375,3.68359375,-1.9619140625
0.0535,-2.322265625,3.603515625,-1.4013671875
0.054,-2.642578125,3.283203125,-0.80078125
0.0545,-3.0830078125,3.0029296875,-0.0400390625
0.055,-3.283203125,2.322265625,0.7607421875
0.0555,-3.5634765625,1.841796875,1.44140625
0.056,-3.283203125,1.201171875,1.921875
0.0565,-3.3232421875,0.640625,2.482421875
0.057,-2.962890625,-0.080078125,2.8427734375
0.0575,-2.7626953125,-0.720703125,3.283203125
0.058,-2.162109375,-1.5615234375,3.5634765625
0.0585,-1.6416015625,-2.0419921875,3.5634765625
0.059,-0.9208984375,-2.6025390625,3.3232421875
0.0595,-0.2802734375,-3.04296875,3.203125
0.06,0.400390625,-3.4033203125,2.962890625
0.0605,1.12109375,-3.68359375,2.5224609375
0.061,1.76171875,-3.923828125,2.1220703125
0.0615,2.0419921875,-3.68359375,1.681640625
0.062,2.5224609375,-3.7236328125,1.201171875
0.0625,2.802734375,-3.203125,0.48046875
0.063,3.2431640625,-2.962890625,-0.16015625
0.0635,3.4033203125,-2.2822265625,-1.041015625
0.064,3.5634765625,-1.9619140625,-1.5615234375
0.0645,3.36328125,-1.28125,-2.0419921875
0.065,3.443359375,-0.80078125,-2.6025390625
0.0655,3.123046875,0.0,-3.0830078125
0.066,2.8828125,0.6806640625,-3.5234375
0.0665,2.40234375,1.44140625,-3.8037109375
0.067,1.76171875,1.921875,-3.6435546875
0.0675,1.0810546875,2.5224609375,-3.603515625
0.068,0.3203125,2.962890625,-3.3232421875
0.0685,-0.3203125,3.4033203125,-3.1630859375
0.069,-1.041015625,3.6435546875,-2.642578125
0.0695,-1.6015625,3.84375,-2.322265625
0.07,-1.9619140625,3.5634765625,-1.7216796875
0.0705,-2.482421875,3.6435546875,-1.28125
0.071,-2.8427734375,3.123046875,-0.4404296875
0.0715,-3.2431640625,2.802734375,0.240234375
0.072,-3.4833984375,2.08203125,1.12109375
0.0725,-3.4833984375,1.6015625,1.6015625
0.073,-3.283203125,0.9208984375,2.2021484375
0.0735,-3.203125,0.2802734375,2.6826171875
0.074,-2.9228515625,-0.400390625,3.1630859375
0.0745,-2.482421875,-1.1611328125,3.5234375
0.075,-1.9619140625,-1.921875,3.7236328125
0.0755,-1.201171875,-2.322265625,3.443359375
0.076,-0.6005859375,-2.962890625,3.4833984375
0.0765,0.2001953125,-3.36328125,3.04296875
0.077,0.880859375,-3.763671875,2.8427734375
0.0775,1.7216796875,-3.9638671875,2.2421875
0.078,2.162109375,-3.9638671875,1.841796875
0.0785,2.5224609375,-3.7236328125,1.201171875
0.079,2.962890625,-3.5634765625,0.640625
0.0795,3.2431640625,-2.962890625,-0.16015625
0.08,3.5634765625,-2.5625,-0.9609375
0.0805,3.763671875,-1.8818359375,-1.841796875
0.081,3.5234375,-1.28125,-2.2421875
0.0815,3.5234375,-0.640625,-2.8828125
0.082,3.2431640625,0.080078125,-3.2431640625
0.0825,2.9228515625,0.8408203125,-3.7236328125
0.083,2.3623046875,1.6416015625,-3.9638671875
0.0835,1.76171875,2.2822265625,-4.00390625
0.084,0.9208984375,2.6826171875,-3.603515625
0.0845,0.240234375,3.3232421875,-3.5634765625
0.085,-0.640625,3.5634765625,-3.04296875
0.0855,-1.28125,3.8837890625,-2.6826171875
0.086,-2.08203125,4.083984375,-2.08203125
0.0865,-2.4423828125,3.84375,-1.4814453125
0.087,-2.8828125,3.6435546875,-0.9208984375
0.0875,-3.203125,3.283203125,-0.2001953125
0.088,-3.5234375,2.6826171875,0.6005859375
0.0885,-3.7236328125,2.0419921875,1.4013671875
0.089,-3.84375,1.4013671875,2.2021484375
0.0895,-3.4033203125,0.6005859375,2.5224609375
0.09,-3.443359375,0.080078125,3.1630859375
0.0905,-2.9228515625,-0.720703125,3.4833984375
0.091,-2.5625,-1.44140625,3.84375
0.0915,-1.8017578125,-2.2822265625,3.9638671875
0.092,-1.12109375,-2.8427734375,3.8037109375
0.0925,-0.2802734375,-3.2431640625,3.4833984375
0.093,0.3603515625,-3.8037109375,3.3232421875
0.0935,1.28125,-4.00390625,2.6826171875
0.094,1.921875,-4.244140625,2.2822265625
0.0945,2.642578125,-4.32421875,1.681640625
0.095,2.9228515625,-3.8837890625,1.0009765625
0.0955,3.4033203125,-3.8037109375,0.4404296875
0.096,3.68359375,-3.123046875,-0.400390625
0.0965,3.8837890625,-2.6025390625,-1.2412109375
0.097,4.00390625,-1.921875,-2.0419921875
0.0975,4.00390625,-1.28125,-2.7626953125
0.098,3.5634765625,-0.3603515625,-3.0830078125
0.0985,3.5634765625,0.16015625,-3.68359375
0.099,2.9228515625,1.12109375,-4.00390625
0.0995,2.482421875,1.8818359375,-4.244140625
0.1,1.7216796875,2.6826171875,-4.3642578125
0.1005,0.8408203125,3.123046875,-3.9638671875
0.101,0.0400390625,3.5634765625,-3.7236328125
0.1015,-0.80078125,4.00390625,-3.283203125
0.102,-1.6416015625,4.2041015625,-2.6025390625
0.1025,-2.2822265625,4.244140625,-2.1220703125
0.103,-2.9228515625,4.2841796875,-1.4814453125
0.1035,-3.1630859375,3.68359375,-0.720703125
0.104,-3.68359375,3.6435546875,-0.16015625
0.1045,-3.84375,2.6826171875,0.880859375
0.105,-4.0439453125,2.2021484375,1.5615234375
0.1055,-4.0439453125,1.3212890625,2.40234375
0.106,-3.84375,0.640625,2.962890625
0.1065,-3.4033203125,-0.1201171875,3.3232421875
0.107,-3.2431640625,-0.80078125,3.84375
0.1075,-2.4423828125,-1.76171875,4.083984375
0.108,-1.9619140625,-2.40234375,4.1640625
0.1085,-1.12109375,-3.1630859375,4.1640625
0.109,-0.2001953125,-3.5234375,3.6435546875
0.1095,0.4404296875,-4.00390625,3.4833984375
0.11,1.4013671875,-4.2841796875,2.8427734375
0.1105,2.162109375,-4.4443359375,2.2822265625
0.111,2.6826171875,-4.404296875,1.7216796875
0.1115,3.2431640625,-4.2841796875,1.0810546875
0.112,3.443359375,-3.68359375,0.3203125
0.1125,3.8837890625,-3.603515625,-0.2802734375
0.113,3.9638671875,-2.6025390625,-1.3212890625
0.1135,4.1640625,-2.162109375,-1.9619140625
0.114,4.1240234375,-1.28125,-2.72265625
0.1145,3.8037109375,-0.560546875,-3.1630859375
0.115,3.5234375,0.1201171875,-3.603515625
0.1155,3.1630859375,0.9208984375,-4.00390625
0.116,2.5224609375,1.841796875,-4.2841796875
0.1165,1.9619140625,2.40234375,-4.32421875
0.117,1.201171875,3.04296875,-4.244140625
0.1175,0.2802734375,3.36328125,-3.68359375
0.118,-0.3603515625,3.923828125,-3.603515625
0.1185,-1.361328125,4.1240234375,-2.802734375
0.119,-1.9619140625,4.32421875,-2.4423828125
0.1195,-2.5625,4.1640625,-1.8017578125
0.12,-2.962890625,3.9638671875,-1.1611328125
0.1205,-3.2431640625,3.4833984375,-0.4404296875
0.121,-3.7236328125,3.2431640625,0.2001953125
0.1215,-3.84375,2.2822265625,1.201171875
0.122,-4.00390625,1.921875,1.841796875
0.1225,-3.923828125,1.12109375,2.5625
0.123,-3.5634765625,0.3203125,2.962890625
0.1235,-3.36328125,-0.2802734375,3.5234375
0.124,-2.8427734375,-1.1611328125,3.84375
0.1245,-2.322265625,-1.9619140625,4.1240234375
0.125,-1.6015625,-2.5625,4.083984375
0.1255,-0.8408203125,-3.203125,3.9638671875
0.126,0.0,-3.5634765625,3.443359375
0.1265,0.640625,-4.1240234375,3.4033203125
0.127,1.681640625,-4.244140625,2.5224609375
0.1275,2.2021484375,-4.404296875,2.2421875
0.128,2.802734375,-4.2841796875,1.521484375
0.1285,3.1630859375,-3.9638671875,0.8408203125
0.129,3.5234375,-3.603515625,0.1201171875
0.1295,3.84375,-3.1630859375,-0.6806640625
0.13,4.00390625,-2.322265625,-1.6015625
0.1305,4.083984375,-1.8017578125,-2.162109375
0.131,4.00390625,-1.041015625,-2.8828125
0.1315,3.5634765625,-0.240234375,-3.203125
0.132,3.5234375,0.400390625,-3.84375
0.1325,2.802734375,1.4013671875,-4.1240234375
0.133,2.2822265625,2.08203125,-4.3642578125
0.1335,1.4814453125,2.6826171875,-4.1640625
0.134,0.720703125,3.2431640625,-3.9638671875
0.1345,-0.16015625,3.5634765625,-3.4833984375
0.135,-0.8408203125,4.083984375,-3.283203125
0.1355,-1.8017578125,4.1640625,-2.4423828125
0.136,-2.2421875,4.2041015625,-2.08203125
0.1365,-2.8427734375,4.083984375,-1.4013671875
0.137,-3.0830078125,3.603515625,-0.720703125
0.1375,-3.5634765625,3.36328125,-0.080078125
0.138,-3.763671875,2.6025390625,0.880859375
0.1385,-3.923828125,2.0419921875,1.6416015625
0.139,-3.84375,1.361328125,2.2421875
0.1395,-3.7236328125,0.640625,2.8427734375
0.14,-3.2431640625,-0.080078125,3.1630859375
0.1405,-3.203125,-0.720703125,3.7236328125
0.141,-2.322265625,-1.76171875,3.923828125
0.1415,-1.921875,-2.322265625,4.083984375
0.142,-1.0810546875,-2.9228515625,3.8837890625
0.1425,-0.3203125,-3.36328125,3.603515625
0.143,0.4404296875,-3.8037109375,3.283203125
0.1435,1.2412109375,-4.1640625,2.8427734375
0.144,2.0419921875,-4.32421875,2.2421875
0.1445,2.40234375,-4.244140625,1.841796875
0.145,3.0029296875,-4.1640625,1.201171875
0.1455,3.203125,-3.603515625,0.4404296875
0.146,3.7236328125,-3.4033203125,-0.2001953125
0.1465,3.84375,-2.5224609375,-1.2412109375
0.147,4.00390625,-2.08203125,-1.841796875
0.1475,3.84375,-1.3212890625,-2.4423828125
0.148,3.763671875,-0.6806640625,-2.962890625
0.1485,3.36328125,0.1201171875,-3.36328125
0.149,3.1630859375,0.80078125,-3.8837890625
0.1495,2.482421875,1.76171875,-4.1640625
0.15,1.9619140625,2.2421875,-4.1640625
0.1505,1.12109375,2.8828125,-4.0439453125
0.151,0.2802734375,3.283203125,-3.603515625
0.1515,-0.3603515625,3.8037109375,-3.4833984375
0.152,-1.28125,4.00390625,-2.802734375
0.1525,-1.9619140625,4.1640625,-2.3623046875
0.153,-2.322265625,3.9638671875,-1.8017578125
0.1535,-2.8828125,3.84375,-1.2412109375
0.154,-3.1630859375,3.36328125,-0.400390625
0.1545,-3.6435546875,3.1630859375,0.240234375
0.155,-3.7236328125,2.2421875,1.28125
0.1555,-3.923828125,1.8818359375,1.841796875
0.156,-3.68359375,1.0009765625,2.482421875
0.1565,-3.4833984375,0.3603515625,2.8828125
0.157,-3.203125,-0.3603515625,3.36328125
0.1575,-2.7626953125,-1.1611328125,3.763671875
0.158,-2.162109375,-2.001953125,3.9638671875
0.1585,-1.4814453125,-2.4423828125,3.8037109375
0.159,-0.720703125,-3.0830078125,3.7236328125
0.1595,0.080078125,-3.4033203125,3.283203125
0.16,0.6806640625,-3.923828125,3.203125
0.1605,1.6015625,-4.083984375,2.40234375
0.161,2.1220703125,-4.244140625,2.1220703125
0.1615,2.5224609375,-3.9638671875,1.4013671875
0.162,2.8828125,-3.8037109375,0.9208984375
0.1625,3.203125,-3.283203125,0.16015625
0.163,3.5634765625,-2.962890625,-0.5205078125
0.1635,3.68359375,-2.2021484375,-1.4013671875
0.164,3.763671875,-1.8017578125,-1.8818359375
0.1645,3.6435546875,-1.041015625,-2.5224609375
0.165,3.4033203125,-0.400390625,-2.8828125
0.1655,3.2431640625,0.240234375,-3.443359375
0.166,2.6826171875,1.0810546875,-3.7236328125
0.1665,2.3623046875,1.681640625,-4.00390625
0.167,1.5615234375,2.162109375,-3.7236328125
0.1675,0.9609375,2.6826171875,-3.7236328125
0.168,0.16015625,3.123046875,-3.283203125
0.1685,-0.400390625,3.5634765625,-3.203125
0.169,-1.2412109375,3.68359375,-2.6025390625
0.1695,-1.6015625,3.8037109375,-2.40234375
0.17,-2.08203125,3.7236328125,-1.76171875
0.1705,-2.4423828125,3.5234375,-1.2412109375
0.171,-2.962890625,3.2431640625,-0.5205078125
0.1715,-3.203125,2.72265625,0.2802734375
0.172,-3.5234375,2.322265625,0.9609375
0.1725,-3.4833984375,1.76171875,1.4814453125
0.173,-3.4833984375,1.2412109375,2.08203125
0.1735,-3.203125,0.4404296875,2.5625
0.174,-3.1630859375,-0.2001953125,3.1630859375
0.1745,-2.5625,-1.041015625,3.443359375
0.175,-2.2421875,-1.6015625,3.68359375
0.1755,-1.44140625,-2.2021484375,3.5234375
0.176,-0.80078125,-2.72265625,3.4833984375
0.1765,-0.0400390625,-3.283203125,3.2431640625
0.177,0.6005859375,-3.7236328125,2.962890625
0.1775,1.3212890625,-4.00390625,2.5224609375
0.178,1.7216796875,-3.8837890625,2.2021484375
0.1785,2.2822265625,-3.8837890625,1.6015625
0.179,2.6025390625,-3.5234375,0.9609375
0.1795,3.1630859375,-3.36328125,0.240234375
0.18,3.36328125,-2.642578125,-0.640625
0.1805,3.68359375,-2.322265625,-1.28125
0.181,3.5234375,-1.6015625,-1.8017578125
0.1815,3.603515625,-1.041015625,-2.4423828125
0.182,3.3232421875,-0.240234375,-2.962890625
0.1825,3.1630859375,0.4404296875,-3.5234375
0.183,2.5625,1.28125,-3.84375
0.1835,2.0419921875,1.8017578125,-3.84375
0.184,1.28125,2.40234375,-3.7236328125
0.1845,0.5205078125,2.8427734375,-3.4833984375
0.185,-0.16015625,3.36328125,-3.283203125
0.1855,-1.0009765625,3.603515625,-2.802734375
0.186,-1.5615234375,3.8837890625,-2.4423828125
0.1865,-1.921875,3.68359375,-1.8818359375
0.187,-2.4423828125,3.68359375,-1.361328125
0.1875,-2.7626953125,3.203125,-0.640625
0.188,-3.203125,2.962890625,0.080078125
0.1885,-3.36328125,2.162109375,0.9609375
0.189,-3.5634765625,1.841796875,1.4814453125
0.1895,-3.283203125,1.041015625,2.0419921875
0.19,-3.203125,0.5205078125,2.5224609375
0.1905,-2.962890625,-0.240234375,3.04296875
0.191,-2.6025390625,-0.9609375,3.36328125
0.1915,-2.1220703125,-1.6416015625,3.6435546875
0.192,-1.4814453125,-2.08203125,3.443359375
0.1925,-0.8408203125,-2.72265625,3.443359375
0.193,-0.080078125,-3.0830078125,3.123046875
0.1935,0.48046875,-3.603515625,3.0029296875
0.194,1.28125,-3.7236328125,2.40234375
0.1945,1.681640625,-3.8837890625,2.2021484375
0.195,2.0419921875,-3.6435546875,1.5615234375
0.1955,2.5224609375,-3.603515625,1.12109375
0.196,2.8427734375,-3.203125,0.3203125
0.1965,3.2431640625,-2.8828125,-0.3203125
0.197,3.4833984375,-2.2822265625,-1.12109375
0.1975,3.5234375,-1.921875,-1.521484375
0.198,3.4833984375,-1.2412109375,-2.162109375
0.1985,3.3232421875,-0.6005859375,-2.642578125
0.199,3.203125,0.080078125,-3.203125
0.1995,2.72265625,0.880859375,-3.5634765625
0.2,2.40234375,1.44140625,-3.84375
0.2005,1.6015625,1.921875,-3.5634765625
0.201,1.041015625,2.5224609375,-3.6435546875
0.2015,0.240234375,2.962890625,-3.3232421875
0.202,-0.3203125,3.443359375,-3.1630859375
0.2025,-1.12109375,3.68359375,-2.6025390625
0.203,-1.44140625,3.7236328125,-2.3623046875
0.2035,-1.9619140625,3.6435546875,-1.76171875
0.204,-2.40234375,3.4833984375,-1.201171875
0.2045,-2.8828125,3.123046875,-0.400390625
0.205,-3.203125,2.6025390625,0.3603515625
0.2055,-3.4833984375,2.2021484375,1.0810546875
0.206,-3.36328125,1.5615234375,1.5615234375
0.2065,-3.4033203125,1.0009765625,2.2021484375
0.207,-3.123046875,0.240234375,2.6826171875
0.2075,-2.962890625,-0.4404296875,3.203125
0.208,-2.4423828125,-1.28125,3.5234375
0.2085,-1.921875,-1.8818359375,3.603515625
0.209,-1.1611328125,-2.40234375,3.36328125
0.2095,-0.5205078125,-3.0029296875,3.3232421875
0.21,0.240234375,-3.36328125,3.04296875
0.2105,0.9208984375,-3.7236328125,2.6826171875
0.211,1.6015625,-3.923828125,2.2421875
0.2115,1.921875,-3.7236328125,1.8017578125
0.212,2.482421875,-3.7236328125,1.28125
0.2125,2.802734375,-3.283203125,0.560546875
0.213,3.203125,-3.0029296875,-0.16015625
0.2135,3.4033203125,-2.322265625,-1.0009765625
0.214,3.603515625,-1.9619140625,-1.5615234375
0.2145,3.3232421875,-1.2412109375,-2.0419921875
0.215,3.443359375,-0.720703125,-2.6025390625
0.2155,3.123046875,0.0400390625,-3.0830078125
0.216,2.8427734375,0.720703125,-3.5234375
0.2165,2.322265625,1.44140625,-3.8037109375
0.217,1.7216796875,1.921875,-3.6435546875
0.2175,1.0009765625,2.482421875,-3.5634765625
0.218,0.3203125,2.9228515625,-3.283203125
0.2185,-0.3203125,3.3232421875,-3.0830078125
0.219,-1.041015625,3.5634765625,-2.6025390625
0.2195,-1.6015625,3.763671875,-2.2822265625
0.22,-1.8818359375,3.4833984375,-1.7216796875
0.2205,-2.40234375,3.5234375,-1.28125
0.221,-2.6826171875,3.04296875,-0.5205078125
0.2215,-3.123046875,2.7626953125,0.1201171875
0.222,-3.283203125,2.08203125,1.0009765625
0.2225,-3.36328125,1.76171875,1.4013671875
0.223,-3.203125,1.041015625,1.921875
0.2235,-3.1630859375,0.5205078125,2.482421875
0.224,-2.8828125,-0.2001953125,2.9228515625
0.2245,-2.5625,-0.9208984375,3.283203125
0.225,-2.1220703125,-1.5615234375,3.4833984375
0.2255,-1.4814453125,-2.001953125,3.3232421875
0.226,-0.880859375,-2.6025390625,3.36328125
0.2265,-0.16015625,-3.04296875,3.0830078125
0.227,0.4404296875,-3.4833984375,2.9228515625
0.2275,1.1611328125,-3.68359375,2.482421875
0.228,1.521484375,-3.8037109375,2.2421875
0.2285,1.921875,-3.5634765625,1.6416015625
