wavelength,x,y,z
0.0,-9.5743408203125,-11.936645507812,20.735229492188
0.0005,-4.4493408203125,-15.900512695312,19.734252929688
0.001,0.5955810546875,-18.663208007812,17.772338867188
0.0015,4.0789794921875,-20.104614257812,15.930541992188
0.002,7.3221435546875,-20.945434570312,13.888549804688
0.0025,10.445190429688,-20.825317382812,10.805541992188
0.003,14.369018554688,-20.024536132812,6.3211669921875
0.0035,17.612182617188,-19.023559570312,2.2371826171875
0.004,20.094604492188,-17.021606445312,-2.2872314453125
0.0045,21.255737304688,-14.899536132812,-5.4903564453125
0.005,21.415893554688,-11.936645507812,-8.6134033203125
0.0055,21.455932617188,-8.8135986328125,-11.736450195312
0.006,20.775268554688,-4.2091064453125,-15.700317382812
0.0065,19.333862304688,0.1551513671875,-18.583129882812
0.007,17.411987304688,3.7186279296875,-20.264770507812
0.0075,15.289916992188,7.0018310546875,-21.465942382812
0.008,11.766479492188,10.044799804688,-21.105590820312
0.0085,7.3621826171875,13.768432617188,-20.585083007812
0.009,2.8377685546875,17.131713867188,-19.624145507812
0.0095,-2.2872314453125,19.574096679688,-17.381958007812
0.01,-5.5303955078125,20.655151367188,-15.420043945312
0.0105,-8.6934814453125,21.095581054688,-12.897583007812
0.011,-11.856567382812,20.975463867188,-9.8145751953125
0.0115,-15.980590820312,19.974487304688,-4.8497314453125
0.012,-19.023559570312,18.412963867188,-0.3653564453125
0.0125,-20.985473632812,16.370971679688,3.5584716796875
0.013,-21.906372070312,14.048706054688,6.7615966796875
0.0135,-20.505004882812,10.685424804688,10.044799804688
0.014,-21.586059570312,7.0819091796875,13.408081054688
0.0145,-20.905395507812,2.8377685546875,17.011596679688
0.015,-19.103637695312,-1.7266845703125,19.774291992188
0.0155,-16.861450195312,-3.8487548828125,21.015502929688
0.016,-14.579223632812,-8.2130126953125,23.057495117188
0.0165,-10.935668945312,-11.416137695312,21.536010742188
0.017,-5.7305908203125,-15.420043945312,20.454956054688
0.0175,-1.1661376953125,-18.463012695312,19.133666992188
0.018,3.5184326171875,-19.223754882812,16.931518554688
0.0185,6.6815185546875,-21.305786132812,14.769409179688
0.019,9.9647216796875,-21.305786132812,11.686401367188
0.0195,13.328002929688,-21.105590820312,8.3231201171875
0.02,17.131713867188,-19.944458007812,3.5985107421875
0.0205,19.974487304688,-17.902465820312,-1.2462158203125
0.021,21.455932617188,-15.860473632812,-4.6895751953125
0.0215,22.096557617188,-13.338012695312,-7.8526611328125
0.022,21.896362304688,-9.8546142578125,-11.135864257812
0.0225,21.295776367188,-5.5303955078125,-14.819458007812
0.023,20.454956054688,-1.5665283203125,-17.982543945312
0.0235,18.533081054688,2.9178466796875,-19.223754882812
0.024,15.970581054688,6.1209716796875,-21.385864257812
0.0245,13.207885742188,9.2039794921875,-21.666137695312
0.025,9.4041748046875,12.647338867188,-21.505981445312
0.0255,4.1190185546875,16.451049804688,-20.224731445312
0.026,-0.8057861328125,19.173706054688,-18.302856445312
0.0265,-4.5694580078125,20.815307617188,-16.421020507812
0.027,-7.7325439453125,21.415893554688,-14.138793945312
0.0275,-11.095825195312,21.135620117188,-10.735473632812
0.028,-14.779418945312,20.575073242188,-6.6915283203125
0.0285,-18.262817382812,19.373901367188,-2.1270751953125
0.029,-20.785278320312,17.131713867188,2.5975341796875
0.0295,-20.505004882812,14.889526367188,5.7606201171875
0.03,-22.226684570312,12.126831054688,9.0037841796875
0.0305,-21.986450195312,8.4832763671875,12.367065429688
0.031,-21.185668945312,3.9989013671875,16.130737304688
0.0315,-19.904418945312,-0.1651611328125,18.933471679688
0.032,-18.022583007812,-4.1290283203125,21.095581054688
0.0325,-15.460083007812,-7.2120361328125,21.696166992188
0.033,-12.136840820312,-10.335083007812,21.616088867188
0.0335,-7.9727783203125,-14.058715820312,21.175659179688
0.034,-2.7677001953125,-17.502075195312,19.854370117188
0.0345,2.1571044921875,-19.864379882812,17.572143554688
0.035,5.4002685546875,-21.025512695312,15.690307617188
0.0355,8.6033935546875,-21.505981445312,13.247924804688
0.036,11.966674804688,-21.105590820312,9.6444091796875
0.0365,15.690307617188,-20.264770507812,5.2801513671875
0.037,18.853393554688,-18.783325195312,0.8358154296875
0.0375,21.015502929688,-16.621215820312,-3.5684814453125
0.038,21.616088867188,-14.218872070312,-6.4512939453125
0.0385,21.856323242188,-11.175903320312,-9.7745361328125
0.039,21.495971679688,-7.3721923828125,-13.217895507812
0.0395,20.775268554688,-3.0880126953125,-16.781372070312
0.04,18.973510742188,1.2362060546875,-19.303833007812
0.0405,17.131713867188,4.7596435546875,-20.985473632812
0.041,14.489135742188,7.7625732421875,-21.505981445312
0.0415,10.805541992188,11.005737304688,-21.225708007812
0.042,6.3211669921875,14.729370117188,-20.585083007812
0.0425,1.4364013671875,18.052612304688,-19.263793945312
0.043,-3.2081298828125,20.134643554688,-16.981567382812
0.0435,-6.2510986328125,20.855346679688,-14.899536132812
0.044,-9.4542236328125,21.215698242188,-12.296997070312
0.0445,-13.097778320312,20.695190429688,-8.3331298828125
0.045,-15.380004882812,19.694213867188,-3.9688720703125
0.0455,-19.544067382812,17.972534179688,0.5955810546875
0.046,-21.425903320312,15.850463867188,4.4793701171875
0.0465,-20.505004882812,13.247924804688,7.4422607421875
0.047,-21.946411132812,9.9246826171875,10.845581054688
0.0475,-21.425903320312,5.8406982421875,14.529174804688
0.048,-20.585083007812,1.6365966796875,19.213745117188
0.0485,-18.583129882812,-2.6876220703125,20.174682617188
0.049,-16.501098632812,-5.8907470703125,21.335815429688
0.0495,-13.858520507812,-9.0137939453125,21.856323242188
0.05,-9.4942626953125,-12.617309570312,21.335815429688
0.0505,-4.8096923828125,-16.100708007812,20.334838867188
0.051,0.1551513671875,-19.103637695312,18.613159179688
0.0515,4.4393310546875,-20.865356445312,16.531127929688
0.052,7.3221435546875,-21.265747070312,14.168823242188
0.0525,10.565307617188,-21.465942382812,11.366088867188
0.053,14.569213867188,-20.785278320312,6.8817138671875
0.0535,19.213745117188,-19.584106445312,2.3973388671875
0.054,20.334838867188,-17.502075195312,-1.9669189453125
0.0545,23.057495117188,-15.339965820312,-5.4903564453125
0.055,22.056518554688,-12.537231445312,-8.5733642578125
0.0555,21.936401367188,-8.7735595703125,-12.216918945312
0.056,21.255737304688,-4.6495361328125,-15.700317382812
0.0565,20.134643554688,-0.3653564453125,-18.903442382812
0.057,19.213745117188,5.1199951171875,-20.945434570312
0.0575,15.450073242188,6.8416748046875,-21.586059570312
0.058,12.687377929688,10.044799804688,-22.026489257812
0.0585,7.7225341796875,14.128784179688,-21.265747070312
0.059,3.0780029296875,17.331909179688,-20.064575195312
0.0595,-1.7667236328125,19.814331054688,-17.982543945312
0.06,-5.5704345703125,21.415893554688,-16.060668945312
0.0605,-8.5333251953125,21.455932617188,-13.378051757812
0.061,-11.896606445312,21.375854492188,-10.174926757812
0.0615,-15.900512695312,20.575073242188,-5.5704345703125
0.062,-19.183715820312,18.933471679688,-0.8057861328125
0.0625,-21.185668945312,16.771362304688,3.4383544921875
0.063,-22.146606445312,14.369018554688,6.6815185546875
0.0635,-22.386840820312,11.406127929688,9.9246826171875
0.064,-22.066528320312,7.0819091796875,13.848510742188
0.0645,-21.185668945312,3.0780029296875,17.091674804688
0.065,-19.664184570312,-0.0050048828125,19.854370117188
0.0655,-17.542114257812,-5.2901611328125,21.656127929688
0.066,-14.659301757812,-8.0928955078125,23.057495117188
0.0665,-11.576293945312,-11.255981445312,22.016479492188
0.067,-6.3311767578125,-15.420043945312,21.095581054688
0.0675,-1.3262939453125,-18.543090820312,19.494018554688
0.068,3.0379638671875,-20.464965820312,17.291870117188
0.0685,6.5213623046875,-21.666137695312,15.289916992188
0.069,9.6844482421875,-21.626098632812,12.367065429688
0.0695,13.287963867188,-21.145629882812,8.4432373046875
0.07,16.891479492188,-20.344848632812,4.2391357421875
0.0705,19.934448242188,-18.463012695312,-0.6456298828125
0.071,21.656127929688,-16.220825195312,-4.5294189453125
0.0715,22.056518554688,-13.618286132812,-7.5323486328125
0.072,22.336791992188,-10.655395507812,-10.735473632812
0.0725,21.736206054688,-5.9307861328125,-14.899536132812
0.073,20.735229492188,-1.9268798828125,-17.982543945312
0.0735,18.853393554688,2.2371826171875,-20.224731445312
0.074,16.771362304688,5.9207763671875,-21.906372070312
0.0745,13.568237304688,8.9237060546875,-20.505004882812
0.075,9.8846435546875,12.367065429688,-21.666137695312
0.0755,5.0399169921875,16.170776367188,-20.785278320312
0.076,-0.2852783203125,20.494995117188,-18.863403320312
0.0765,-4.2091064453125,20.775268554688,-16.701293945312
0.077,-7.3721923828125,21.495971679688,-14.499145507812
0.0775,-10.575317382812,21.576049804688,-11.616333007812
0.078,-14.699340820312,20.655151367188,-6.8116455078125
0.0785,-16.661254882812,19.654174804688,-2.6876220703125
0.079,-19.223754882812,17.612182617188,1.8367919921875
0.0795,-21.986450195312,15.410034179688,5.5604248046875
0.08,-22.066528320312,12.447143554688,8.4832763671875
0.0805,-22.186645507812,9.2440185546875,11.846557617188
0.081,-21.546020507812,4.5994873046875,15.850463867188
0.0815,-20.264770507812,0.2352294921875,18.933471679688
0.082,-18.142700195312,-3.6085205078125,20.695190429688
0.0825,-16.100708007812,-6.8116455078125,21.936401367188
0.083,-12.897583007812,-9.8946533203125,21.896362304688
0.0835,-8.0528564453125,-13.818481445312,21.175659179688
0.084,-3.6885986328125,-17.061645507812,20.214721679688
0.0845,1.4364013671875,-19.744262695312,18.092651367188
0.085,5.2000732421875,-21.105590820312,15.970581054688
0.0855,8.1629638671875,-21.265747070312,13.408081054688
0.086,11.366088867188,-21.425903320312,10.605346679688
0.0865,15.570190429688,-20.424926757812,5.6004638671875
0.087,18.653198242188,-18.943481445312,1.1160888671875
0.0875,20.615112304688,-16.941528320312,-2.7677001953125
0.088,23.057495117188,-14.699340820312,-6.1309814453125
0.0885,21.696166992188,-11.576293945312,-9.2139892578125
0.089,21.495971679688,-7.8126220703125,-11.536254882812
0.0895,20.935424804688,-3.8087158203125,-16.300903320312
0.09,19.453979492188,0.7557373046875,-17.942504882812
0.0905,17.211791992188,4.3992919921875,-20.665161132812
0.091,14.729370117188,7.3621826171875,-21.305786132812
0.0915,11.806518554688,10.405151367188,-21.505981445312
0.092,6.3612060546875,14.689331054688,-19.223754882812
0.0925,2.0369873046875,17.572143554688,-19.263793945312
0.093,-2.4473876953125,19.694213867188,-17.301879882812
0.0935,-5.9307861328125,20.935424804688,-15.259887695312
0.094,-7.6925048828125,20.775268554688,-12.296997070312
0.0945,-12.256958007812,20.695190429688,-9.1339111328125
0.095,-16.220825195312,19.854370117188,-4.5294189453125
0.0955,-17.942504882812,17.892456054688,0.3553466796875
0.096,-20.745239257812,15.850463867188,5.1199951171875
0.0965,-21.546020507812,13.528198242188,6.9617919921875
0.097,-21.586059570312,10.565307617188,9.9246826171875
0.0975,-21.145629882812,6.0408935546875,14.008666992188
0.098,-20.384887695312,2.3172607421875,17.011596679688
0.0985,-18.783325195312,-1.8868408203125,19.574096679688
0.099,-16.621215820312,-5.4102783203125,20.975463867188
0.0995,-13.738403320312,-8.2130126953125,21.015502929688
0.1,-10.615356445312,-11.456176757812,21.215698242188
0.1005,-3.8487548828125,-15.580200195312,20.054565429688
0.101,-0.3253173828125,-18.342895507812,18.292846679688
0.1015,3.3983154296875,-19.944458007812,16.491088867188
0.102,6.6815185546875,-20.945434570312,14.449096679688
0.1025,9.7244873046875,-20.665161132812,11.406127929688
0.103,13.408081054688,-20.144653320312,7.3621826171875
0.1035,16.811401367188,-19.303833007812,3.2781982421875
0.104,19.494018554688,-17.341918945312,-1.3663330078125
0.1045,20.655151367188,-15.299926757812,-4.5294189453125
0.105,21.055541992188,-12.697387695312,-7.5323486328125
0.1055,21.135620117188,-9.8145751953125,-10.535278320312
0.106,20.575073242188,-5.0899658203125,-14.619262695312
0.1065,19.413940429688,-1.0860595703125,-17.502075195312
0.107,17.772338867188,2.6375732421875,-19.504028320312
0.1075,15.690307617188,5.9608154296875,-20.825317382812
0.108,12.447143554688,8.8436279296875,-20.545043945312
0.1085,8.6033935546875,12.407104492188,-20.384887695312
0.109,3.9588623046875,15.970581054688,-19.584106445312
0.1095,-1.0059814453125,18.533081054688,-17.381958007812
0.11,-4.2491455078125,19.734252929688,-15.620239257812
0.1105,-7.3321533203125,20.414916992188,-13.458129882812
0.111,-10.375122070312,20.334838867188,-10.575317382812
0.1115,-14.379028320312,19.494018554688,-5.8507080078125
0.112,-17.421997070312,18.292846679688,-1.8067626953125
0.1125,-19.544067382812,16.370971679688,2.2371826171875
0.113,-20.585083007812,14.248901367188,5.3201904296875
0.1135,-20.705200195312,11.286010742188,8.3231201171875
0.114,-20.745239257812,8.1229248046875,12.807495117188
0.1145,-20.224731445312,3.9188232421875,15.289916992188
0.115,-18.743286132812,-0.4053955078125,18.052612304688
0.1155,-16.821411132812,-3.6885986328125,19.494018554688
0.116,-14.899536132812,-6.6114501953125,20.575073242188
0.1165,-11.576293945312,-9.5343017578125,20.414916992188
0.117,-6.8917236328125,-13.458129882812,19.654174804688
0.1175,-2.6075439453125,-16.581176757812,18.693237304688
0.118,2.0369873046875,-18.783325195312,17.932495117188
0.1185,5.0799560546875,-19.744262695312,14.729370117188
0.119,8.1229248046875,-20.024536132812,12.166870117188
0.1195,11.245971679688,-20.024536132812,9.2440185546875
0.12,15.089721679688,-19.103637695312,4.7196044921875
0.1205,19.213745117188,-17.582153320312,0.3953857421875
0.121,19.574096679688,-15.740356445312,-3.0079345703125
0.1215,20.374877929688,-13.618286132812,-5.9708251953125
0.122,20.334838867188,-10.575317382812,-8.9337158203125
0.1225,20.054565429688,-6.6915283203125,-12.537231445312
0.123,19.574096679688,-2.9278564453125,-15.820434570312
0.1235,17.972534179688,2.5574951171875,-18.422973632812
0.124,15.930541992188,4.4393310546875,-19.544067382812
0.1245,13.608276367188,7.2821044921875,-20.144653320312
0.125,10.325073242188,10.445190429688,-20.184692382812
0.1255,5.3201904296875,14.328979492188,-17.942504882812
0.126,0.9559326171875,17.131713867188,-17.862426757812
0.1265,-2.8878173828125,18.933471679688,-16.140747070312
0.127,-5.9307861328125,19.774291992188,-14.178833007812
0.1275,-7.6925048828125,19.734252929688,-11.255981445312
0.128,-12.537231445312,19.494018554688,-7.7325439453125
0.1285,-16.020629882812,18.573120117188,-3.4884033203125
0.129,-18.583129882812,17.932495117188,0.9959716796875
0.1295,-19.864379882812,14.769409179688,3.9989013671875
0.13,-20.464965820312,12.487182617188,6.9617919921875
0.1305,-20.464965820312,9.4041748046875,10.084838867188
0.131,-19.904418945312,6.4012451171875,13.768432617188
0.1315,-19.063598632812,1.3162841796875,16.691284179688
0.132,-17.462036132812,-2.5274658203125,18.933471679688
0.1325,-15.339965820312,-5.4503173828125,19.854370117188
0.133,-12.497192382812,-8.3331298828125,19.974487304688
0.1335,-8.8536376953125,-11.816528320312,19.934448242188
0.134,-3.9288330078125,-15.420043945312,18.853393554688
0.1345,0.6756591796875,-17.822387695312,16.931518554688
0.135,5.1199951171875,-17.942504882812,15.329956054688
0.1355,6.8016357421875,-19.864379882812,13.287963867188
0.136,9.8446044921875,-19.624145507812,10.204956054688
0.1365,13.488159179688,-19.103637695312,6.2010498046875
0.137,17.932495117188,-18.022583007812,2.1170654296875
0.1375,18.853393554688,-16.100708007812,-2.0870361328125
0.138,19.654174804688,-14.058715820312,-4.7696533203125
0.1385,19.974487304688,-11.416137695312,-7.7325439453125
0.139,19.974487304688,-8.2130126953125,-10.895629882812
0.1395,19.373901367188,-4.1690673828125,-14.419067382812
0.14,18.052612304688,-0.2452392578125,-17.061645507812
0.1405,16.491088867188,3.1580810546875,-18.783325195312
0.141,14.288940429688,6.0408935546875,-19.544067382812
0.1415,11.205932617188,8.8836669921875,-19.463989257812
0.142,7.1619873046875,12.487182617188,-19.103637695312
0.1425,2.6776123046875,15.730346679688,-18.142700195312
0.143,-1.7667236328125,17.892456054688,-16.100708007812
0.1435,-4.5294189453125,18.773315429688,-14.459106445312
0.144,-7.4122314453125,19.293823242188,-12.337036132812
0.1445,-10.575317382812,19.053588867188,-9.0938720703125
0.145,-12.817504882812,18.292846679688,-4.9698486328125
0.1455,-16.981567382812,16.931518554688,-0.9659423828125
0.146,-18.863403320312,15.169799804688,2.7176513671875
0.1465,-19.463989257812,13.087768554688,5.4002685546875
0.147,-19.624145507812,10.285034179688,8.3231201171875
0.1475,-19.423950195312,6.7615966796875,11.646362304688
0.148,-18.943481445312,2.9979248046875,14.929565429688
0.1485,-17.341918945312,-0.9659423828125,17.291870117188
0.149,-15.700317382812,-3.8087158203125,18.533081054688
0.1495,-13.618286132812,-6.5714111328125,19.253784179688
0.15,-10.295043945312,-9.5743408203125,19.053588867188
0.1505,-5.8907470703125,-13.097778320312,18.372924804688
0.151,-1.6065673828125,-16.020629882812,17.211791992188
0.1515,2.3973388671875,-16.661254882812,15.450073242188
0.152,4.9598388671875,-18.583129882812,13.688354492188
0.1525,7.8026123046875,-18.943481445312,11.366088867188
0.153,11.245971679688,-18.663208007812,7.9227294921875
0.1535,14.449096679688,-16.661254882812,3.9588623046875
0.154,16.971557617188,-16.300903320312,0.0350341796875
0.1545,18.493041992188,-14.659301757812,-3.0479736328125
0.155,19.013549804688,-12.497192382812,-5.7305908203125
0.1555,19.093627929688,-9.5343017578125,-8.7335205078125
0.156,18.733276367188,-5.8507080078125,-12.096801757812
0.1565,18.172729492188,-2.2071533203125,-15.179809570312
0.157,16.611206054688,1.5565185546875,-17.341918945312
0.1575,14.809448242188,4.1590576171875,-18.222778320312
0.158,12.607299804688,6.9617919921875,-18.863403320312
0.1585,8.8035888671875,10.445190429688,-18.623168945312
0.159,4.5594482421875,13.728393554688,-17.902465820312
0.1595,0.4354248046875,16.210815429688,-16.421020507812
0.16,-3.0479736328125,19.213745117188,-14.899536132812
0.1605,-5.6505126953125,18.412963867188,-13.057739257812
0.161,-8.6134033203125,18.533081054688,-10.455200195312
0.1615,-12.256958007812,18.212768554688,-6.7315673828125
0.162,-14.098754882812,17.251831054688,-2.6876220703125
0.1625,-17.582153320312,15.530151367188,1.1961669921875
0.163,-18.583129882812,13.768432617188,3.8787841796875
0.1635,-19.103637695312,11.446166992188,6.6815185546875
0.164,-19.103637695312,8.1229248046875,10.044799804688
0.1645,-18.703247070312,4.4793701171875,13.287963867188
0.165,-17.742309570312,0.7557373046875,16.050659179688
0.1655,-16.180786132812,-2.8077392578125,18.052612304688
0.166,-14.138793945312,-5.3302001953125,18.613159179688
0.1665,-11.616333007812,-8.1329345703125,18.933471679688
0.167,-7.4122314453125,-11.856567382812,18.613159179688
0.1675,-3.0079345703125,-15.099731445312,17.612182617188
0.168,1.0760498046875,-17.141723632812,15.890502929688
0.1685,3.9989013671875,-18.463012695312,14.409057617188
0.169,6.8416748046875,-18.903442382812,12.246948242188
0.1695,9.9647216796875,-18.743286132812,9.0838623046875
0.17,13.408081054688,-18.262817382812,5.4002685546875
0.1705,16.330932617188,-16.941528320312,2.5574951171875
0.171,18.332885742188,-15.219848632812,-2.4073486328125
0.1715,18.893432617188,-13.177856445312,-4.9698486328125
0.172,19.253784179688,-10.655395507812,-7.7725830078125
0.1725,19.093627929688,-6.8516845703125,-11.416137695312
0.173,18.533081054688,-3.2081298828125,-14.579223632812
0.1735,17.131713867188,0.5555419921875,-16.861450195312
0.174,15.610229492188,3.7586669921875,-18.583129882812
0.1745,13.207885742188,7.6824951171875,-18.903442382812
0.175,10.124877929688,9.4442138671875,-18.943481445312
0.1755,5.9608154296875,12.927612304688,-18.463012695312
0.176,1.3963623046875,15.970581054688,-17.181762695312
0.1765,-2.3673095703125,17.772338867188,-15.420043945312
0.177,-5.0098876953125,18.533081054688,-13.778442382812
0.1775,-7.8927001953125,18.893432617188,-10.255004882812
0.178,-10.255004882812,18.493041992188,-7.6124267578125
