wavelength,x,y,z
0.0,-5.86572265625,-1.62158203125,6.54638671875
0.0005,-6.10595703125,-0.90087890625,6.34619140625
0.001,-6.02587890625,0.14013671875,5.62548828125
0.0015,-5.74560546875,1.30126953125,4.46435546875
0.002,-5.62548828125,2.70263671875,3.22314453125
0.0025,-5.42529296875,3.98388671875,1.94189453125
0.003,-5.14501953125,4.86474609375,1.02099609375
0.0035,-4.54443359375,5.30517578125,0.18017578125
0.004,-3.54345703125,5.46533203125,-0.98095703125
0.0045,-2.18212890625,5.62548828125,-2.42236328125
0.005,-0.90087890625,5.86572265625,-3.98388671875
0.0055,0.22021484375,5.90576171875,-5.10498046875
0.006,0.90087890625,5.94580078125,-5.86572265625
0.0065,1.86181640625,5.42529296875,-6.38623046875
0.007,3.18310546875,4.10400390625,-6.66650390625
0.0075,4.50439453125,2.78271484375,-6.90673828125
0.008,5.50537109375,1.42138671875,-6.90673828125
0.0085,6.02587890625,0.34033203125,-6.74658203125
0.009,6.06591796875,-0.58056640625,-6.26611328125
0.0095,5.74560546875,-1.58154296875,-5.38525390625
0.01,5.42529296875,-2.82275390625,-4.02392578125
0.0105,5.26513671875,-4.22412109375,-2.66259765625
0.011,4.98486328125,-5.30517578125,-1.46142578125
0.0115,4.62451171875,-6.06591796875,-0.62060546875
0.012,3.86376953125,-6.30615234375,0.38037109375
0.0125,2.58251953125,-6.38623046875,1.58154296875
0.013,1.18115234375,-6.54638671875,3.18310546875
0.0135,-0.26025390625,-6.58642578125,4.62451171875
0.014,-1.10107421875,-6.62646484375,5.54541015625
0.0145,-1.74169921875,-6.46630859375,6.14599609375
0.015,-2.82275390625,-5.66552734375,6.54638671875
0.0155,-4.14404296875,-4.26416015625,6.74658203125
0.016,-5.38525390625,-2.90283203125,6.94677734375
0.0165,-6.14599609375,-1.62158203125,6.78662109375
0.017,-6.46630859375,-0.74072265625,6.54638671875
0.0175,-6.38623046875,0.18017578125,5.90576171875
0.018,-6.02587890625,1.30126953125,4.82470703125
0.0185,-5.74560546875,2.58251953125,3.54345703125
0.019,-5.54541015625,3.98388671875,2.18212890625
0.0195,-5.22509765625,4.98486328125,1.10107421875
0.02,-4.78466796875,5.50537109375,0.26025390625
0.0205,-3.86376953125,5.70556640625,-0.78076171875
0.021,-2.50244140625,5.74560546875,-2.10205078125
0.0215,-1.14111328125,5.98583984375,-3.70361328125
0.022,0.14013671875,5.98583984375,-4.94482421875
0.0225,0.82080078125,6.10595703125,-5.82568359375
0.023,1.62158203125,5.74560546875,-6.38623046875
0.0235,2.82275390625,4.66455078125,-6.70654296875
0.024,4.14404296875,3.26318359375,-6.94677734375
0.0245,5.30517578125,1.86181640625,-7.06689453125
0.025,5.94580078125,0.66064453125,-6.86669921875
0.0255,6.14599609375,-0.26025390625,-6.58642578125
0.026,5.94580078125,-1.10107421875,-5.82568359375
0.0265,5.58544921875,-2.26220703125,-4.58447265625
0.027,5.42529296875,-3.70361328125,-3.26318359375
0.0275,5.14501953125,-4.94482421875,-1.98193359375
0.028,4.86474609375,-5.82568359375,-0.98095703125
0.0285,4.26416015625,-6.26611328125,0.02001953125
0.029,3.18310546875,-6.38623046875,1.02099609375
0.0295,1.78173828125,-6.46630859375,2.50244140625
0.03,0.38037109375,-6.66650390625,4.10400390625
0.0305,-0.78076171875,-6.66650390625,5.18505859375
0.031,-1.42138671875,-6.70654296875,5.98583984375
0.0315,-2.30224609375,-6.10595703125,6.46630859375
0.032,-3.62353515625,-4.82470703125,6.70654296875
0.0325,-4.90478515625,-3.54345703125,6.90673828125
0.033,-5.90576171875,-2.14208984375,6.90673828125
0.0335,-6.46630859375,-1.10107421875,6.70654296875
0.034,-6.42626953125,-0.22021484375,6.30615234375
0.0345,-6.18603515625,0.82080078125,5.34521484375
0.035,-5.86572265625,2.06201171875,4.10400390625
0.0355,-5.70556640625,3.54345703125,2.70263671875
0.036,-5.42529296875,4.66455078125,1.46142578125
0.0365,-5.02490234375,5.42529296875,0.54052734375
0.037,-4.26416015625,5.70556640625,-0.46044921875
0.0375,-3.06298828125,5.74560546875,-1.62158203125
0.038,-1.62158203125,5.94580078125,-3.18310546875
0.0385,-0.30029296875,6.06591796875,-4.66455078125
0.039,0.66064453125,6.10595703125,-5.66552734375
0.0395,1.34130859375,5.98583984375,-6.34619140625
0.04,2.42236328125,5.10498046875,-6.70654296875
0.0405,3.86376953125,3.70361328125,-6.98681640625
0.041,5.10498046875,2.30224609375,-7.18701171875
0.0415,5.90576171875,0.98095703125,-7.02685546875
0.042,6.22607421875,0.06005859375,-6.78662109375
0.0425,6.14599609375,-0.90087890625,-6.14599609375
0.043,5.78564453125,-1.98193359375,-5.02490234375
0.0435,5.50537109375,-3.34326171875,-3.66357421875
0.044,5.26513671875,-4.74462890625,-2.26220703125
0.0445,4.94482421875,-5.74560546875,-1.14111328125
0.045,4.50439453125,-6.26611328125,-0.30029296875
0.0455,3.50341796875,-6.42626953125,0.78076171875
0.046,2.14208984375,-6.46630859375,2.14208984375
0.0465,0.70068359375,-6.66650390625,3.74365234375
0.047,-0.62060546875,-6.66650390625,4.98486328125
0.0475,-1.30126953125,-6.70654296875,5.82568359375
0.048,-2.06201171875,-6.34619140625,6.38623046875
0.0485,-3.22314453125,-5.30517578125,6.62646484375
0.049,-4.50439453125,-3.90380859375,6.82666015625
0.0495,-5.70556640625,-2.54248046875,6.90673828125
0.05,-6.26611328125,-1.30126953125,6.70654296875
0.0505,-6.42626953125,-0.50048828125,6.42626953125
0.051,-6.22607421875,0.46044921875,5.62548828125
0.0515,-5.82568359375,1.54150390625,4.50439453125
0.052,-5.62548828125,2.86279296875,3.18310546875
0.0525,-5.42529296875,4.14404296875,1.94189453125
0.053,-5.10498046875,4.98486328125,0.94091796875
0.0535,-4.54443359375,5.42529296875,0.14013671875
0.054,-3.54345703125,5.50537109375,-0.94091796875
0.0545,-2.26220703125,5.62548828125,-2.30224609375
0.055,-0.98095703125,5.82568359375,-3.82373046875
0.0555,0.18017578125,5.90576171875,-4.94482421875
0.056,0.82080078125,5.94580078125,-5.74560546875
0.0565,1.66162109375,5.46533203125,-6.22607421875
0.057,2.86279296875,4.34423828125,-6.46630859375
0.0575,4.14404296875,3.06298828125,-6.78662109375
0.058,5.14501953125,1.78173828125,-6.78662109375
0.0585,5.74560546875,0.78076171875,-6.70654296875
0.059,5.82568359375,0.02001953125,-6.38623046875
0.0595,5.66552734375,-0.98095703125,-5.58544921875
0.06,5.38525390625,-2.14208984375,-4.46435546875
0.0605,5.26513671875,-3.54345703125,-3.18310546875
0.061,4.98486328125,-4.66455078125,-2.02197265625
0.0615,4.78466796875,-5.50537109375,-1.14111328125
0.062,4.14404296875,-5.90576171875,-0.30029296875
0.0625,3.06298828125,-6.02587890625,0.94091796875
0.063,1.82177734375,-6.26611328125,2.34228515625
0.0635,0.50048828125,-6.38623046875,3.86376953125
0.064,-0.50048828125,-6.54638671875,4.86474609375
0.0645,-1.14111328125,-6.58642578125,5.62548828125
0.065,-2.10205078125,-5.90576171875,6.06591796875
0.0655,-3.46337890625,-4.74462890625,6.34619140625
0.066,-4.62451171875,-3.46337890625,6.58642578125
0.0665,-5.54541015625,-2.18212890625,6.54638671875
0.067,-6.02587890625,-1.30126953125,6.46630859375
0.0675,-6.02587890625,-0.50048828125,5.98583984375
0.068,-5.74560546875,0.62060546875,5.06494140625
0.0685,-5.62548828125,1.78173828125,3.94384765625
0.069,-5.42529296875,3.18310546875,2.70263671875
0.0695,-5.22509765625,4.18408203125,1.62158203125
0.07,-4.86474609375,4.86474609375,0.82080078125
0.0705,-4.14404296875,5.14501953125,-0.18017578125
0.071,-2.94287109375,5.26513671875,-1.38134765625
0.0715,-1.74169921875,5.58544921875,-2.86279296875
0.072,-0.58056640625,5.66552734375,-4.14404296875
0.0725,0.26025390625,5.82568359375,-5.06494140625
0.073,0.98095703125,5.66552734375,-5.70556640625
0.0735,2.06201171875,4.82470703125,-6.10595703125
0.074,3.34326171875,3.66357421875,-6.38623046875
0.0745,4.50439453125,2.34228515625,-6.54638671875
0.075,5.18505859375,1.26123046875,-6.46630859375
0.0755,5.50537109375,0.50048828125,-6.34619140625
0.076,5.42529296875,-0.38037109375,-5.78564453125
0.0765,5.18505859375,-1.42138671875,-4.82470703125
0.077,5.10498046875,-2.70263671875,-3.70361328125
0.0775,4.90478515625,-3.90380859375,-2.54248046875
0.078,4.70458984375,-4.82470703125,-1.58154296875
0.0785,4.34423828125,-5.42529296875,-0.78076171875
0.079,3.50341796875,-5.62548828125,0.22021484375
0.0795,2.38232421875,-5.78564453125,1.42138671875
0.08,1.14111328125,-6.06591796875,2.90283203125
0.0805,0.18017578125,-6.26611328125,3.98388671875
0.081,-0.58056640625,-6.42626953125,4.86474609375
0.0815,-1.38134765625,-6.14599609375,5.42529296875
0.082,-2.50244140625,-5.14501953125,5.78564453125
0.0825,-3.70361328125,-4.10400390625,6.14599609375
0.083,-4.74462890625,-2.86279296875,6.26611328125
0.0835,-5.38525390625,-1.94189453125,6.26611328125
0.084,-5.62548828125,-1.22119140625,6.06591796875
0.0845,-5.50537109375,-0.38037109375,5.42529296875
0.085,-5.34521484375,0.70068359375,4.54443359375
0.0855,-5.30517578125,1.98193359375,3.50341796875
0.086,-5.18505859375,3.14306640625,2.42236328125
0.0865,-4.98486328125,3.98388671875,1.62158203125
0.087,-4.54443359375,4.50439453125,0.82080078125
0.0875,-3.70361328125,4.74462890625,-0.26025390625
0.088,-2.66259765625,5.10498046875,-1.54150390625
0.0885,-1.54150390625,5.30517578125,-2.90283203125
0.089,-0.70068359375,5.58544921875,-3.98388671875
0.0895,0.02001953125,5.70556640625,-4.82470703125
0.09,0.98095703125,5.30517578125,-5.38525390625
0.0905,2.14208984375,4.34423828125,-5.74560546875
0.091,3.38330078125,3.22314453125,-6.14599609375
0.0915,4.34423828125,2.10205078125,-6.22607421875
0.092,4.86474609375,1.30126953125,-6.26611328125
0.0925,5.10498046875,0.58056640625,-6.02587890625
0.093,4.98486328125,-0.38037109375,-5.34521484375
0.0935,4.94482421875,-1.46142578125,-4.46435546875
0.094,4.86474609375,-2.74267578125,-3.38330078125
0.0945,4.78466796875,-3.82373046875,-2.42236328125
0.095,4.62451171875,-4.62451171875,-1.66162109375
0.0955,4.02392578125,-5.06494140625,-0.82080078125
0.096,3.14306640625,-5.30517578125,0.34033203125
0.0965,2.10205078125,-5.74560546875,1.70166015625
0.097,1.06103515625,-5.94580078125,2.90283203125
0.0975,0.30029296875,-6.26611328125,3.90380859375
0.098,-0.46044921875,-6.26611328125,4.74462890625
0.0985,-1.46142578125,-5.62548828125,5.14501953125
0.099,-2.66259765625,-4.70458984375,5.62548828125
0.0995,-3.86376953125,-3.58349609375,5.90576171875
0.1,-4.70458984375,-2.54248046875,6.02587890625
0.1005,-5.14501953125,-1.86181640625,6.02587890625
0.101,-5.26513671875,-1.10107421875,5.62548828125
0.1015,-5.14501953125,-0.18017578125,4.90478515625
0.102,-5.14501953125,1.06103515625,4.06396484375
0.1025,-5.10498046875,2.26220703125,3.06298828125
0.103,-5.06494140625,3.26318359375,2.22216796875
0.1035,-4.82470703125,3.94384765625,1.42138671875
0.104,-4.14404296875,4.34423828125,0.58056640625
0.1045,-3.22314453125,4.66455078125,-0.70068359375
0.105,-2.22216796875,5.06494140625,-2.06201171875
0.1055,-1.34130859375,5.30517578125,-3.22314453125
0.106,-0.62060546875,5.66552734375,-4.18408203125
0.1065,0.30029296875,5.46533203125,-4.86474609375
0.107,1.42138671875,4.70458984375,-5.38525390625
0.1075,2.66259765625,3.78369140625,-5.82568359375
0.108,3.78369140625,2.62255859375,-6.06591796875
0.1085,4.50439453125,1.74169921875,-6.14599609375
0.109,4.86474609375,1.02099609375,-6.10595703125
0.1095,4.86474609375,0.22021484375,-5.58544921875
0.11,4.82470703125,-0.94091796875,-4.82470703125
0.1105,4.86474609375,-2.18212890625,-3.82373046875
0.111,4.78466796875,-3.34326171875,-2.82275390625
0.1115,4.70458984375,-4.26416015625,-1.98193359375
0.112,4.30419921875,-4.82470703125,-1.22119140625
0.1125,3.46337890625,-5.14501953125,-0.18017578125
0.113,2.50244140625,-5.62548828125,1.18115234375
0.1135,1.42138671875,-5.90576171875,2.54248046875
0.114,0.62060546875,-6.14599609375,3.58349609375
0.1145,-0.18017578125,-6.26611328125,4.50439453125
0.115,-1.14111328125,-5.86572265625,5.06494140625
0.1155,-2.30224609375,-4.98486328125,5.50537109375
0.116,-3.54345703125,-3.86376953125,5.90576171875
0.1165,-4.50439453125,-2.74267578125,5.98583984375
0.117,-5.10498046875,-1.98193359375,6.06591796875
0.1175,-5.26513671875,-1.26123046875,5.78564453125
0.118,-5.18505859375,-0.34033203125,5.10498046875
0.1185,-5.18505859375,0.82080078125,4.30419921875
0.119,-5.14501953125,2.10205078125,3.18310546875
0.1195,-5.10498046875,3.18310546875,2.26220703125
0.12,-4.90478515625,3.94384765625,1.54150390625
0.1205,-4.34423828125,4.34423828125,0.66064453125
0.121,-3.34326171875,4.62451171875,-0.58056640625
0.1215,-2.42236328125,5.06494140625,-1.94189453125
0.122,-1.34130859375,5.30517578125,-3.18310546875
0.1225,-0.62060546875,5.62548828125,-4.14404296875
0.123,0.26025390625,5.58544921875,-4.94482421875
0.1235,1.30126953125,4.86474609375,-5.38525390625
0.124,2.58251953125,3.90380859375,-5.82568359375
0.1245,3.78369140625,2.70263671875,-6.10595703125
0.125,4.54443359375,1.70166015625,-6.22607421875
0.1255,4.98486328125,0.98095703125,-6.14599609375
0.126,5.02490234375,0.18017578125,-5.74560546875
0.1265,4.90478515625,-0.90087890625,-4.90478515625
0.127,4.90478515625,-2.10205078125,-3.90380859375
0.1275,4.82470703125,-3.34326171875,-2.86279296875
0.128,4.74462890625,-4.34423828125,-1.94189453125
0.1285,4.42431640625,-4.98486328125,-1.22119140625
0.129,3.58349609375,-5.30517578125,-0.30029296875
0.1295,2.54248046875,-5.62548828125,1.06103515625
0.13,1.46142578125,-5.90576171875,2.54248046875
0.1305,0.54052734375,-6.10595703125,3.66357421875
0.131,-0.26025390625,-6.34619140625,4.54443359375
0.1315,-1.10107421875,-6.06591796875,5.18505859375
0.132,-2.30224609375,-5.10498046875,5.58544921875
0.1325,-3.54345703125,-4.02392578125,6.02587890625
0.133,-4.62451171875,-2.82275390625,6.14599609375
0.1335,-5.30517578125,-1.90185546875,6.22607421875
0.134,-5.50537109375,-1.18115234375,6.02587890625
0.1345,-5.46533203125,-0.30029296875,5.34521484375
0.135,-5.30517578125,0.90087890625,4.38427734375
0.1355,-5.30517578125,2.22216796875,3.30322265625
0.136,-5.18505859375,3.38330078125,2.22216796875
0.1365,-4.98486328125,4.18408203125,1.42138671875
0.137,-4.46435546875,4.62451171875,0.58056640625
0.1375,-3.50341796875,4.82470703125,-0.62060546875
0.138,-2.38232421875,5.22509765625,-1.98193359375
0.1385,-1.22119140625,5.46533203125,-3.38330078125
0.139,-0.42041015625,5.74560546875,-4.46435546875
0.1395,0.42041015625,5.74560546875,-5.22509765625
0.14,1.42138671875,5.10498046875,-5.74560546875
0.1405,2.74267578125,3.98388671875,-6.10595703125
0.141,3.98388671875,2.78271484375,-6.42626953125
0.1415,4.86474609375,1.58154296875,-6.42626953125
0.142,5.34521484375,0.78076171875,-6.38623046875
0.1425,5.42529296875,0.02001953125,-5.94580078125
0.143,5.22509765625,-1.14111328125,-5.06494140625
0.1435,5.10498046875,-2.42236328125,-3.94384765625
0.144,5.02490234375,-3.78369140625,-2.74267578125
0.1445,4.82470703125,-4.82470703125,-1.70166015625
0.145,4.50439453125,-5.46533203125,-0.94091796875
0.1455,3.70361328125,-5.74560546875,0.06005859375
0.146,2.50244140625,-5.90576171875,1.38134765625
0.1465,1.26123046875,-6.22607421875,2.90283203125
0.147,0.18017578125,-6.34619140625,4.14404296875
0.1475,-0.62060546875,-6.50634765625,5.10498046875
0.148,-1.46142578125,-6.26611328125,5.74560546875
0.1485,-2.62255859375,-5.26513671875,6.10595703125
0.149,-3.98388671875,-4.02392578125,6.42626953125
0.1495,-5.10498046875,-2.70263671875,6.58642578125
0.15,-5.82568359375,-1.58154296875,6.46630859375
0.1505,-6.06591796875,-0.82080078125,6.26611328125
0.151,-5.90576171875,0.14013671875,5.58544921875
0.1515,-5.66552734375,1.30126953125,4.42431640625
0.152,-5.54541015625,2.70263671875,3.18310546875
0.1525,-5.34521484375,3.90380859375,1.94189453125
0.153,-5.10498046875,4.78466796875,1.02099609375
0.1535,-4.50439453125,5.22509765625,0.18017578125
0.154,-3.54345703125,5.38525390625,-0.98095703125
0.1545,-2.14208984375,5.58544921875,-2.42236328125
0.155,-0.90087890625,5.82568359375,-3.94384765625
0.1555,0.18017578125,5.90576171875,-4.98486328125
0.156,0.82080078125,5.94580078125,-5.78564453125
0.1565,1.82177734375,5.34521484375,-6.34619140625
0.157,3.18310546875,4.02392578125,-6.58642578125
0.1575,4.50439453125,2.74267578125,-6.86669921875
0.158,5.42529296875,1.42138671875,-6.82666015625
0.1585,5.90576171875,0.46044921875,-6.70654296875
0.159,5.94580078125,-0.50048828125,-6.26611328125
0.1595,5.66552734375,-1.46142578125,-5.30517578125
0.16,5.42529296875,-2.78271484375,-3.98388671875
0.1605,5.22509765625,-4.22412109375,-2.66259765625
0.161,4.94482421875,-5.30517578125,-1.46142578125
0.1615,4.54443359375,-6.02587890625,-0.62060546875
0.162,3.82373046875,-6.22607421875,0.38037109375
0.1625,2.54248046875,-6.26611328125,1.58154296875
0.163,1.14111328125,-6.46630859375,3.18310546875
0.1635,-0.26025390625,-6.54638671875,4.54443359375
0.164,-1.02099609375,-6.62646484375,5.46533203125
0.1645,-1.70166015625,-6.46630859375,6.10595703125
0.165,-2.82275390625,-5.58544921875,6.46630859375
0.1655,-4.18408203125,-4.18408203125,6.70654296875
0.166,-5.42529296875,-2.82275390625,6.90673828125
0.1665,-6.14599609375,-1.50146484375,6.70654296875
0.167,-6.42626953125,-0.66064453125,6.50634765625
0.1675,-6.30615234375,0.26025390625,5.86572265625
0.168,-5.94580078125,1.38134765625,4.70458984375
0.1685,-5.74560546875,2.66259765625,3.38330078125
0.169,-5.50537109375,3.98388671875,2.06201171875
0.1695,-5.18505859375,4.98486328125,0.98095703125
0.17,-4.70458984375,5.50537109375,0.18017578125
0.1705,-3.78369140625,5.70556640625,-0.90087890625
0.171,-2.38232421875,5.74560546875,-2.26220703125
0.1715,-1.02099609375,5.94580078125,-3.86376953125
0.172,0.22021484375,5.98583984375,-5.06494140625
0.1725,0.94091796875,6.06591796875,-5.90576171875
0.173,1.74169921875,5.70556640625,-6.42626953125
0.1735,2.94287109375,4.50439453125,-6.70654296875
0.174,4.30419921875,3.14306640625,-6.98681640625
0.1745,5.42529296875,1.74169921875,-7.06689453125
0.175,6.02587890625,0.58056640625,-6.78662109375
0.1755,6.10595703125,-0.34033203125,-6.50634765625
0.176,5.90576171875,-1.22119140625,-5.74560546875
0.1765,5.54541015625,-2.50244140625,-4.42431640625
0.177,5.34521484375,-3.86376953125,-3.06298828125
0.1775,5.06494140625,-5.10498046875,-1.82177734375
0.178,4.74462890625,-5.86572265625,-0.82080078125
0.1785,4.14404296875,-6.26611328125,0.10009765625
0.179,3.02294921875,-6.34619140625,1.14111328125
0.1795,1.62158203125,-6.42626953125,2.62255859375
0.18,0.22021484375,-6.58642578125,4.18408203125
0.1805,-0.82080078125,-6.58642578125,5.22509765625
0.181,-1.46142578125,-6.62646484375,5.94580078125
0.1815,-2.38232421875,-6.02587890625,6.42626953125
0.182,-3.70361328125,-4.70458984375,6.66650390625
0.1825,-4.98486328125,-3.38330078125,6.90673828125
0.183,-5.90576171875,-2.02197265625,6.78662109375
0.1835,-6.38623046875,-1.02099609375,6.66650390625
0.184,-6.38623046875,-0.22021484375,6.18603515625
0.1845,-6.10595703125,0.78076171875,5.22509765625
0.185,-5.82568359375,2.06201171875,3.98388671875
0.1855,-5.66552734375,3.50341796875,2.58251953125
0.186,-5.34521484375,4.62451171875,1.46142578125
0.1865,-4.98486328125,5.34521484375,0.58056640625
0.187,-4.22412109375,5.62548828125,-0.38037109375
0.1875,-2.98291015625,5.66552734375,-1.62158203125
0.188,-1.62158203125,5.90576171875,-3.18310546875
0.1885,-0.30029296875,5.98583984375,-4.62451171875
0.189,0.62060546875,6.06591796875,-5.54541015625
0.1895,1.30126953125,5.94580078125,-6.26611328125
0.19,2.42236328125,5.06494140625,-6.62646484375
0.1905,3.82373046875,3.70361328125,-6.90673828125
0.191,5.06494140625,2.30224609375,-7.06689453125
0.1915,5.82568359375,0.98095703125,-6.94677734375
0.192,6.14599609375,0.10009765625,-6.74658203125
0.1925,6.06591796875,-0.90087890625,-6.10595703125
0.193,5.74560546875,-2.02197265625,-4.98486328125
0.1935,5.46533203125,-3.38330078125,-3.66357421875
0.194,5.26513671875,-4.74462890625,-2.26220703125
0.1945,4.98486328125,-5.74560546875,-1.14111328125
0.195,4.50439453125,-6.26611328125,-0.30029296875
0.1955,3.46337890625,-6.42626953125,0.82080078125
0.196,2.06201171875,-6.50634765625,2.22216796875
0.1965,0.62060546875,-6.70654296875,3.86376953125
0.197,-0.62060546875,-6.66650390625,5.06494140625
0.1975,-1.34130859375,-6.70654296875,5.90576171875
0.198,-2.18212890625,-6.34619140625,6.42626953125
0.1985,-3.42333984375,-5.10498046875,6.70654296875
0.199,-4.74462890625,-3.74365234375,6.94677734375
