wavelength,x,y,z
0.0,13.938598632812,-23.618041992188,9.7745361328125
0.0005,17.942504882812,-22.777221679688,4.8497314453125
0.001,19.984497070312,-21.135620117188,1.1260986328125
0.0015,22.426879882812,-18.773315429688,-3.7586669921875
0.002,23.948364257812,-15.690307617188,-8.3231201171875
0.0025,23.748168945312,-11.766479492188,-12.046752929688
0.003,24.068481445312,-8.7235107421875,-15.490112304688
0.0035,22.146606445312,-4.0389404296875,-18.252807617188
0.004,20.384887695312,0.5655517578125,-21.015502929688
0.0045,17.902465820312,4.6094970703125,-22.577026367188
0.005,14.619262695312,9.8546142578125,-24.538940429688
0.0055,10.935668945312,12.817504882812,-23.858276367188
0.006,6.5714111328125,16.661254882812,-23.377807617188
0.0065,2.5675048828125,18.503051757812,-21.295776367188
0.007,-2.6776123046875,21.305786132812,-19.093627929688
0.0075,-6.9217529296875,22.346801757812,-15.890502929688
0.008,-11.646362304688,23.347778320312,-12.206909179688
0.0085,-14.769409179688,23.027465820312,-8.8836669921875
0.009,-18.132690429688,21.906372070312,-4.3592529296875
0.0095,-20.254760742188,19.904418945312,-0.1951904296875
0.01,-22.096557617188,17.622192382812,3.9688720703125
0.0105,-23.578002929688,14.338989257812,8.8135986328125
0.011,-23.177612304688,10.535278320312,12.216918945312
0.0115,-23.257690429688,7.1719970703125,15.700317382812
0.012,-21.335815429688,2.8878173828125,18.102661132812
0.0125,-19.694213867188,-1.6365966796875,20.945434570312
0.013,-16.851440429688,-5.6004638671875,22.066528320312
0.0135,-13.608276367188,-10.525268554688,23.748168945312
0.014,-9.9647216796875,-13.408081054688,23.067504882812
0.0145,-5.4403076171875,-16.971557617188,22.106567382812
0.015,-1.2762451171875,-18.693237304688,19.744262695312
0.0155,3.3282470703125,-21.215698242188,17.862426757812
0.016,8.0128173828125,-22.176635742188,14.218872070312
0.0165,11.856567382812,-22.737182617188,10.855590820312
0.017,15.339965820312,-22.577026367188,7.3321533203125
0.0175,18.222778320312,-21.095581054688,2.8477783203125
0.018,20.505004882812,-18.973510742188,-1.5965576171875
0.0185,21.826293945312,-16.611206054688,-5.2801513671875
0.019,23.307739257812,-13.448120117188,-9.9246826171875
0.0195,22.627075195312,-9.6043701171875,-13.127807617188
0.02,22.466918945312,-6.1610107421875,-16.411010742188
0.0205,20.224731445312,-1.7567138671875,-18.573120117188
0.021,18.783325195312,2.6075439453125,-21.415893554688
0.0215,15.380004882812,6.7716064453125,-22.176635742188
0.022,12.337036132812,11.015747070312,-23.497924804688
0.0225,8.5333251953125,14.138793945312,-22.777221679688
0.023,4.0489501953125,17.261840820312,-21.495971679688
0.0235,-0.3953857421875,19.103637695312,-19.053588867188
0.024,-4.4393310546875,21.145629882812,-17.171752929688
0.0245,-9.4041748046875,22.266723632812,-13.368041992188
0.025,-12.807495117188,22.066528320312,-9.8045654296875
0.0255,-16.050659179688,22.066528320312,-6.6414794921875
0.026,-18.613159179688,20.104614257812,-1.9969482421875
0.0265,-20.935424804688,18.182739257812,2.2872314453125
0.027,-21.776245117188,15.219848632812,6.1309814453125
0.0275,-23.097534179688,12.296997070312,10.455200195312
0.028,-22.256713867188,8.1329345703125,13.738403320312
0.0285,-21.816284179688,4.6895751953125,16.781372070312
0.029,-19.534057617188,0.2852783203125,18.903442382812
0.0295,-18.012573242188,-3.9188232421875,21.505981445312
0.03,-14.369018554688,-8.2430419921875,22.186645507812
0.0305,-11.245971679688,-12.046752929688,22.907348632812
0.031,-7.4822998046875,-14.969604492188,22.146606445312
0.0315,-2.5975341796875,-17.812377929688,20.184692382812
0.032,1.7667236328125,-19.734252929688,17.942504882812
0.0325,5.8907470703125,-21.215698242188,15.299926757812
0.033,10.255004882812,-22.456909179688,12.176879882812
0.0335,13.818481445312,-21.696166992188,7.8526611328125
0.034,16.661254882812,-21.576049804688,5.0098876953125
0.0345,19.183715820312,-19.213745117188,0.0450439453125
0.035,21.385864257812,-17.331909179688,-4.0789794921875
0.0355,21.706176757812,-13.968627929688,-7.8026123046875
0.036,22.907348632812,-11.366088867188,-11.606323242188
0.0365,21.826293945312,-7.2821044921875,-14.689331054688
0.037,20.865356445312,-3.3582763671875,-17.652221679688
0.0375,18.623168945312,0.9259033203125,-19.574096679688
0.038,16.501098632812,5.2100830078125,-21.776245117188
0.0385,13.137817382812,9.1739501953125,-22.456909179688
0.039,9.4942626953125,12.777465820312,-22.416870117188
0.0395,6.2510986328125,15.380004882812,-21.776245117188
0.04,1.1661376953125,17.982543945312,-19.373901367188
0.0405,-2.8377685546875,19.904418945312,-17.572143554688
0.041,-7.2420654296875,20.825317382812,-14.128784179688
0.0415,-10.885620117188,22.146606445312,-11.846557617188
0.042,-14.409057617188,20.985473632812,-7.0819091796875
0.0425,-16.971557617188,20.625122070312,-4.1590576171875
0.043,-19.133666992188,18.222778320312,0.4454345703125
0.0435,-21.175659179688,16.220825195312,4.5294189453125
0.044,-21.175659179688,12.617309570312,8.1729736328125
0.0445,-22.096557617188,9.8546142578125,11.896606445312
0.045,-21.175659179688,6.4112548828125,14.419067382812
0.0455,-19.774291992188,2.0870361328125,17.341918945312
0.046,-17.972534179688,-1.6365966796875,19.223754882812
0.0465,-15.249877929688,-6.0408935546875,20.905395507812
0.047,-12.687377929688,-9.5643310546875,21.906372070312
0.0475,-8.2830810546875,-13.127807617188,21.105590820312
0.048,-5.4002685546875,-15.329956054688,20.464965820312
0.0485,-0.4754638671875,-17.772338867188,17.982543945312
0.049,3.4083251953125,-19.854370117188,16.300903320312
0.0495,7.6925048828125,-20.254760742188,12.497192382812
0.05,11.015747070312,-21.415893554688,10.455200195312
0.0505,14.338989257812,-20.374877929688,6.1309814453125
0.051,16.941528320312,-19.494018554688,2.5675048828125
0.0515,18.783325195312,-17.452026367188,-1.3162841796875
0.052,20.785278320312,-15.249877929688,-5.5203857421875
0.0525,20.905395507812,-12.206909179688,-8.7235107421875
0.053,21.185668945312,-8.7235107421875,-12.567260742188
0.0535,20.545043945312,-5.9207763671875,-14.769409179688
0.054,18.823364257812,-1.2762451171875,-17.652221679688
0.0545,17.141723632812,2.4073486328125,-19.574096679688
0.055,13.938598632812,6.7315673828125,-20.735229492188
0.0555,11.856567382812,9.9747314453125,-21.976440429688
0.056,7.0518798828125,13.498168945312,-20.735229492188
0.0565,4.0089111328125,15.660278320312,-19.894409179688
0.057,-0.5955810546875,17.942504882812,-17.772338867188
0.0575,-4.8397216796875,20.024536132812,-15.690307617188
0.058,-8.7235107421875,20.304809570312,-12.046752929688
0.0585,-12.327026367188,21.025512695312,-9.2440185546875
0.059,-14.969604492188,20.264770507812,-5.8406982421875
0.0595,-17.772338867188,18.823364257812,-1.5565185546875
0.06,-19.293823242188,16.741333007812,2.0870361328125
0.0605,-20.975463867188,13.898559570312,6.6114501953125
0.061,-21.335815429688,11.215942382812,9.7344970703125
0.0615,-21.015502929688,7.0518798828125,13.618286132812
0.062,-20.214721679688,4.1690673828125,15.700317382812
0.0625,-18.453002929688,-0.4354248046875,18.543090820312
0.063,-16.370971679688,-4.5194091796875,20.464965820312
0.0635,-12.807495117188,-8.6434326171875,21.065551757812
0.064,-10.565307617188,-11.806518554688,22.026489257812
0.0645,-5.7606201171875,-14.969604492188,20.464965820312
0.065,-1.8768310546875,-17.331909179688,18.903442382812
0.0655,2.2071533203125,-19.213745117188,16.901489257812
0.066,7.0919189453125,-21.135620117188,14.018676757812
0.0665,10.255004882812,-21.015502929688,10.775512695312
0.067,14.338989257812,-21.215698242188,6.9718017578125
0.0675,16.621215820312,-20.094604492188,3.5684814453125
0.068,19.504028320312,-18.252807617188,-1.2762451171875
0.0685,20.665161132812,-15.970581054688,-4.8397216796875
0.069,21.786254882812,-12.767456054688,-9.1239013671875
0.0695,22.066528320312,-10.084838867188,-12.126831054688
0.07,21.105590820312,-5.6004638671875,-15.650268554688
0.0705,19.704223632812,-1.9969482421875,-17.812377929688
0.071,17.902465820312,2.2872314453125,-20.254760742188
0.0715,15.059692382812,6.8516845703125,-21.976440429688
0.072,11.496215820312,10.455200195312,-22.056518554688
0.0725,8.4532470703125,13.818481445312,-22.456909179688
0.073,3.8887939453125,16.501098632812,-20.655151367188
0.0735,-0.7557373046875,19.023559570312,-18.653198242188
0.074,-4.3192138671875,20.304809570312,-16.411010742188
0.0745,-9.4442138671875,22.026489257812,-13.087768554688
0.075,-12.286987304688,21.505981445312,-9.8045654296875
0.0755,-16.290893554688,21.425903320312,-5.7205810546875
0.076,-18.292846679688,19.704223632812,-1.9569091796875
0.0765,-20.815307617188,17.782348632812,2.5675048828125
0.077,-21.656127929688,14.859497070312,6.4112548828125
0.0775,-22.296752929688,11.456176757812,10.455200195312
0.078,-22.416870117188,8.4132080078125,13.618286132812
0.0785,-21.135620117188,3.9288330078125,16.821411132812
0.079,-19.293823242188,-0.1951904296875,19.103637695312
0.0795,-17.371948242188,-3.9989013671875,20.985473632812
0.08,-14.288940429688,-8.7635498046875,22.707153320312
0.0805,-10.605346679688,-11.926635742188,22.186645507812
0.081,-6.9217529296875,-15.530151367188,22.146606445312
0.0815,-2.3172607421875,-17.812377929688,19.864379882812
0.082,2.4874267578125,-20.374877929688,17.862426757812
0.0825,6.1309814453125,-21.055541992188,14.899536132812
0.083,10.855590820312,-22.577026367188,11.816528320312
0.0835,13.898559570312,-21.776245117188,7.9727783203125
0.084,17.502075195312,-21.415893554688,3.9688720703125
0.0845,19.544067382812,-19.173706054688,-0.4354248046875
0.085,21.706176757812,-17.171752929688,-4.5194091796875
0.0855,22.386840820312,-13.968627929688,-8.4832763671875
0.086,22.627075195312,-10.565307617188,-12.166870117188
0.0865,22.466918945312,-7.2420654296875,-15.329956054688
0.087,20.705200195312,-2.4774169921875,-18.332885742188
0.0875,18.823364257812,1.8468017578125,-20.695190429688
0.088,16.180786132812,5.7305908203125,-21.976440429688
0.0885,13.137817382812,10.295043945312,-23.658081054688
0.089,9.0538330078125,13.418090820312,-22.617065429688
0.0895,5.2501220703125,16.781372070312,-22.216674804688
0.09,0.3253173828125,18.983520507812,-19.574096679688
0.0905,-4.1590576171875,21.546020507812,-17.812377929688
0.091,-8.3231201171875,21.786254882812,-13.968627929688
0.0915,-12.367065429688,23.027465820312,-11.165893554688
0.092,-15.650268554688,22.026489257812,-6.9217529296875
0.0925,-18.893432617188,21.145629882812,-2.8377685546875
0.093,-20.855346679688,18.623168945312,1.7667236328125
0.0935,-22.577026367188,16.260864257812,5.9307861328125
0.094,-23.057495117188,12.737426757812,9.9346923828125
0.0945,-22.857299804688,8.8135986328125,13.658325195312
0.095,-22.496948242188,5.6905517578125,16.501098632812
0.0955,-20.334838867188,0.5655517578125,19.383911132812
0.096,-18.533081054688,-3.6785888671875,21.786254882812
0.0965,-15.049682617188,-7.8826904296875,22.546997070312
0.097,-12.447143554688,-11.886596679688,23.948364257812
0.0975,-7.5623779296875,-15.169799804688,22.466918945312
0.098,-3.6785888671875,-18.172729492188,21.626098632812
0.0985,1.5665283203125,-20.214721679688,18.543090820312
0.099,5.8907470703125,-22.536987304688,16.701293945312
0.0995,10.174926757812,-22.456909179688,12.337036132812
0.1,13.858520507812,-23.137573242188,9.3341064453125
0.1005,17.021606445312,-22.216674804688,5.2501220703125
0.101,20.144653320312,-20.575073242188,0.4854736328125
0.1015,21.986450195312,-18.012573242188,-3.9588623046875
0.102,23.347778320312,-15.209838867188,-8.2030029296875
0.1025,23.708129882812,-12.126831054688,-11.726440429688
0.103,22.907348632812,-7.5623779296875,-15.450073242188
0.1035,22.346801757812,-4.3992919921875,-18.012573242188
0.104,19.704223632812,1.0059814453125,-20.815307617188
0.1045,17.742309570312,5.2901611328125,-23.137573242188
0.105,13.578247070312,9.5343017578125,-23.297729492188
0.1055,11.175903320312,13.097778320312,-24.418823242188
0.106,6.0509033203125,16.380981445312,-22.617065429688
0.1065,1.8868408203125,19.223754882812,-21.335815429688
0.107,-3.1580810546875,21.105590820312,-18.412963867188
0.1075,-7.7625732421875,23.187622070312,-15.930541992188
0.108,-11.726440429688,22.987426757812,-11.806518554688
0.1085,-15.530151367188,22.987426757812,-8.0028076171875
0.109,-18.252807617188,22.146606445312,-4.5194091796875
0.1095,-21.175659179688,19.944458007812,0.7657470703125
0.11,-22.697143554688,17.341918945312,4.9298095703125
0.1105,-23.578002929688,13.738403320312,9.4141845703125
0.111,-24.098510742188,11.055786132812,12.657348632812
0.1115,-22.697143554688,5.9307861328125,16.421020507812
0.112,-21.936401367188,2.6876220703125,18.903442382812
0.1125,-19.413940429688,-2.4373779296875,21.465942382812
0.113,-17.051635742188,-7.0418701171875,23.668090820312
0.1135,-12.727416992188,-11.165893554688,23.467895507812
0.114,-9.9246826171875,-14.569213867188,24.148559570312
0.1145,-4.8797607421875,-17.492065429688,22.146606445312
0.115,0.0050048828125,-20.334838867188,20.224731445312
0.1155,4.3292236328125,-21.856323242188,17.542114257812
0.116,9.4542236328125,-23.658081054688,14.218872070312
0.1165,12.657348632812,-23.377807617188,10.815551757812
0.117,16.941528320312,-22.777221679688,5.9307861328125
0.1175,19.223754882812,-21.816284179688,2.6475830078125
0.118,22.066528320312,-19.333862304688,-2.7176513671875
0.1185,23.467895507812,-16.651245117188,-6.8817138671875
0.119,23.788208007812,-12.727416992188,-11.165893554688
0.1195,24.348754882812,-10.084838867188,-14.369018554688
0.12,22.546997070312,-4.8397216796875,-17.812377929688
0.1205,21.105590820312,-0.9158935546875,-20.374877929688
0.121,18.703247070312,3.6485595703125,-22.456909179688
0.1215,15.740356445312,8.7335205078125,-24.619018554688
0.122,11.656372070312,12.256958007812,-23.978393554688
0.1225,7.9727783203125,16.020629882812,-24.098510742188
0.123,3.4483642578125,18.503051757812,-22.176635742188
0.1235,-1.9569091796875,21.465942382812,-19.894409179688
0.124,-5.8807373046875,22.546997070312,-17.131713867188
0.1245,-11.366088867188,24.028442382812,-13.207885742188
0.125,-14.208862304688,23.668090820312,-10.004760742188
0.1255,-18.453002929688,22.787231445312,-4.8397216796875
0.126,-20.494995117188,21.145629882812,-1.1961669921875
0.1265,-22.937377929688,18.743286132812,3.8087158203125
0.127,-24.218627929688,15.540161132812,8.2930908203125
0.1275,-24.098510742188,11.336059570312,12.337036132812
0.128,-24.378784179688,8.2530517578125,15.740356445312
0.1285,-22.536987304688,3.0880126953125,18.863403320312
0.129,-20.695190429688,-1.3563232421875,21.586059570312
0.1295,-18.092651367188,-5.3602294921875,22.987426757812
0.13,-14.729370117188,-10.645385742188,25.029418945312
0.1305,-10.645385742188,-13.728393554688,24.028442382812
0.131,-6.2811279296875,-17.612182617188,23.588012695312
0.1315,-1.6365966796875,-19.734252929688,21.185668945312
0.132,3.6485595703125,-22.577026367188,18.903442382812
0.1325,7.7325439453125,-23.217651367188,15.540161132812
0.133,12.817504882812,-24.378784179688,11.656372070312
0.1335,15.820434570312,-23.698120117188,8.0128173828125
0.134,19.784301757812,-22.617065429688,2.9678955078125
0.1345,21.866333007812,-20.374877929688,-1.4364013671875
0.135,23.788208007812,-17.972534179688,-5.8006591796875
0.1355,24.909301757812,-14.569213867188,-10.405151367188
0.136,24.388793945312,-10.405151367188,-14.088745117188
0.1365,24.268676757812,-7.0819091796875,-17.572143554688
0.137,22.026489257812,-1.6766357421875,-20.454956054688
0.1375,20.104614257812,3.0079345703125,-23.137573242188
0.138,16.901489257812,7.0518798828125,-24.018432617188
0.1385,13.538208007812,12.136840820312,-25.740112304688
0.139,9.0538330078125,15.179809570312,-24.378784179688
0.1395,4.4893798828125,18.943481445312,-23.658081054688
0.14,-0.5155029296875,20.905395507812,-20.775268554688
0.1405,-5.2801513671875,23.547973632812,-18.733276367188
0.141,-9.7645263671875,23.828247070312,-14.529174804688
0.1415,-14.128784179688,24.588989257812,-11.005737304688
0.142,-17.371948242188,23.668090820312,-6.8817138671875
0.1425,-20.855346679688,22.186645507812,-1.8768310546875
0.143,-22.897338867188,19.664184570312,2.8077392578125
0.1435,-24.298706054688,16.821411132812,7.0518798828125
0.144,-25.179565429688,13.217895507812,11.576293945312
0.1445,-24.418823242188,8.6934814453125,15.099731445312
0.145,-24.058471679688,5.2501220703125,18.382934570312
0.1455,-21.375854492188,-0.1951904296875,21.105590820312
0.146,-19.614135742188,-4.5194091796875,23.748168945312
0.1465,-15.690307617188,-8.8035888671875,24.028442382812
0.147,-12.687377929688,-13.247924804688,25.589965820312
0.1475,-7.7225341796875,-16.370971679688,23.828247070312
0.148,-3.0780029296875,-19.774291992188,22.627075195312
0.1485,2.0870361328125,-21.656127929688,19.504028320312
0.149,6.5714111328125,-23.978393554688,17.381958007812
0.1495,11.175903320312,-24.058471679688,12.857543945312
0.15,14.979614257812,-24.218627929688,9.2540283203125
0.1505,18.222778320312,-23.457885742188,5.3702392578125
0.151,21.465942382812,-21.335815429688,0.0050048828125
0.1515,23.427856445312,-18.853393554688,-4.5594482421875
0.152,24.388793945312,-15.730346679688,-8.7235107421875
0.1525,25.229614257812,-12.567260742188,-12.767456054688
0.153,23.908325195312,-7.7225341796875,-16.370971679688
0.1535,23.347778320312,-4.1590576171875,-19.253784179688
0.154,20.464965820312,1.3663330078125,-21.816284179688
0.1545,18.623168945312,5.7305908203125,-24.418823242188
0.155,14.218872070312,10.054809570312,-24.298706054688
0.1555,11.376098632812,13.978637695312,-25.499877929688
0.156,6.4112548828125,17.141723632812,-23.698120117188
0.1565,1.5665283203125,20.344848632812,-22.096557617188
0.157,-3.4783935546875,22.146606445312,-19.093627929688
0.1575,-8.2030029296875,24.148559570312,-16.451049804688
0.158,-12.487182617188,24.308715820312,-12.407104492188
0.1585,-16.370971679688,23.828247070312,-8.0028076171875
0.159,-19.133666992188,23.267700195312,-4.7196044921875
0.1595,-22.136596679688,20.665161132812,1.0059814453125
0.16,-23.978393554688,18.102661132812,5.4102783203125
0.1605,-24.458862304688,14.218872070312,9.8145751953125
0.161,-25.379760742188,11.456176757812,13.538208007812
0.1615,-23.698120117188,6.0909423828125,17.221801757812
0.162,-22.897338867188,2.4874267578125,20.104614257812
0.1625,-20.054565429688,-2.8377685546875,22.466918945312
0.163,-17.812377929688,-7.5623779296875,24.989379882812
0.1635,-13.167846679688,-11.766479492188,24.588989257812
0.164,-9.8846435546875,-15.650268554688,25.189575195312
0.1645,-5.1199951171875,-18.453002929688,23.307739257812
0.165,0.4454345703125,-21.576049804688,21.065551757812
0.1655,5.0499267578125,-23.177612304688,18.182739257812
0.166,10.295043945312,-24.779174804688,14.539184570312
0.1665,13.818481445312,-24.859252929688,11.215942382812
0.167,18.222778320312,-23.858276367188,5.7706298828125
0.1675,20.585083007812,-22.897338867188,2.4073486328125
0.168,23.547973632812,-20.054565429688,-3.4383544921875
0.1685,25.229614257812,-17.291870117188,-8.0028076171875
0.169,25.149536132812,-13.007690429688,-12.246948242188
0.1695,25.870239257812,-10.244995117188,-15.770385742188
0.17,23.788208007812,-4.7596435546875,-19.093627929688
0.1705,22.266723632812,-0.3153076171875,-22.056518554688
0.171,19.343872070312,4.6094970703125,-24.018432617188
0.1715,16.260864257812,9.9747314453125,-26.300659179688
0.172,11.776489257812,13.578247070312,-25.499877929688
0.1725,7.6925048828125,17.582153320312,-25.379760742188
0.173,3.0880126953125,19.984497070312,-23.337768554688
0.1735,-2.8778076171875,23.147583007812,-20.735229492188
0.174,-7.1619873046875,24.308715820312,-17.652221679688
0.1745,-12.727416992188,25.509887695312,-13.328002929688
0.175,-15.690307617188,25.229614257812,-10.164916992188
0.1755,-20.014526367188,23.908325195312,-4.4793701171875
0.176,-22.176635742188,22.186645507812,-0.5555419921875
0.1765,-24.619018554688,19.343872070312,4.7696533203125
0.177,-26.060424804688,15.980590820312,9.6544189453125
0.1775,-25.499877929688,11.376098632812,13.738403320312
0.178,-25.780151367188,8.1729736328125,17.301879882812
