wavelength,x,y,z
0.0,-18.63818359375,0.38037109375,17.43701171875
0.0005,-16.67626953125,-3.26318359375,19.15869140625
0.001,-14.75439453125,-6.62646484375,20.56005859375
0.0015,-11.27099609375,-9.82958984375,20.35986328125
0.002,-7.02685546875,-13.51318359375,19.91943359375
0.0025,-3.02294921875,-16.55615234375,19.11865234375
0.003,1.78173828125,-18.95849609375,17.03662109375
0.0035,5.38525390625,-20.31982421875,15.07470703125
0.004,8.50830078125,-20.64013671875,12.51220703125
0.0045,11.59130859375,-20.72021484375,9.66943359375
0.005,15.39501953125,-19.87939453125,5.26513671875
0.0055,17.99755859375,-18.55810546875,1.42138671875
0.006,19.83935546875,-16.63623046875,-2.30224609375
0.0065,21.00048828125,-14.39404296875,-5.74560546875
0.007,20.76025390625,-10.87060546875,-9.02880859375
0.0075,20.56005859375,-7.10693359375,-12.67236328125
0.008,19.99951171875,-3.26318359375,-15.95556640625
0.0085,18.43798828125,0.94091796875,-18.55810546875
0.009,16.15576171875,4.62451171875,-19.99951171875
0.0095,13.63330078125,7.86767578125,-20.84033203125
0.01,10.18994140625,11.23095703125,-20.80029296875
0.0105,5.10498046875,15.27490234375,-19.87939453125
0.011,1.02099609375,17.95751953125,-18.63818359375
0.0115,-3.34326171875,19.95947265625,-16.63623046875
0.012,-6.78662109375,21.08056640625,-14.51416015625
0.0125,-10.18994140625,20.84033203125,-11.23095703125
0.013,-13.19287109375,20.68017578125,-8.18798828125
0.0135,-16.67626953125,19.79931640625,-3.94384765625
0.014,-19.19873046875,17.83740234375,0.50048828125
0.0145,-20.56005859375,15.67529296875,3.90380859375
0.015,-21.36083984375,13.11279296875,7.30712890625
0.0155,-21.00048828125,9.54931640625,10.55029296875
0.016,-20.47998046875,5.22509765625,14.39404296875
0.0165,-19.59912109375,1.58154296875,17.15673828125
0.017,-17.79736328125,-2.58251953125,19.51904296875
0.0175,-15.47509765625,-6.14599609375,20.76025390625
0.018,-12.31201171875,-9.30908203125,20.92041015625
0.0185,-8.94873046875,-12.63232421875,20.88037109375
0.019,-3.78369140625,-16.39599609375,19.71923828125
0.0195,0.82080078125,-18.83837890625,17.79736328125
0.02,4.54443359375,-20.39990234375,15.87548828125
0.0205,7.90771484375,-21.28076171875,13.63330078125
0.021,11.23095703125,-20.84033203125,10.10986328125
0.0215,14.55419921875,-20.35986328125,6.54638671875
0.022,17.47705078125,-19.39892578125,2.78271484375
0.0225,19.75927734375,-17.27685546875,-1.62158203125
0.023,20.76025390625,-15.03466796875,-4.82470703125
0.0235,21.08056640625,-12.03173828125,-8.18798828125
0.024,20.80029296875,-8.58837890625,-11.39111328125
0.0245,20.11962890625,-4.26416015625,-15.07470703125
0.025,18.79833984375,-0.50048828125,-17.63720703125
0.0255,16.95654296875,3.34326171875,-19.55908203125
0.026,14.63427734375,6.78662109375,-20.64013671875
0.0265,10.91064453125,10.10986328125,-20.39990234375
0.027,7.14697265625,13.63330078125,-20.19970703125
0.0275,2.62255859375,16.95654296875,-19.23876953125
0.028,-2.22216796875,19.23876953125,-16.91650390625
0.0285,-5.42529296875,20.35986328125,-15.07470703125
0.029,-8.62841796875,20.96044921875,-12.71240234375
0.0295,-11.83154296875,20.56005859375,-9.30908203125
0.03,-15.23486328125,19.79931640625,-5.30517578125
0.0305,-17.91748046875,18.55810546875,-1.54150390625
0.031,-19.87939453125,16.43603515625,2.54248046875
0.0315,-20.68017578125,14.11376953125,5.62548828125
0.032,-20.64013671875,10.75048828125,9.02880859375
0.0325,-20.43994140625,7.10693359375,12.35205078125
0.033,-19.79931640625,3.10302734375,15.83544921875
0.0335,-18.07763671875,-0.98095703125,18.19775390625
0.034,-16.15576171875,-4.46435546875,19.79931640625
0.0345,-13.87353515625,-7.70751953125,20.80029296875
0.035,-10.02978515625,-11.03076171875,20.35986328125
0.0355,-5.70556640625,-14.59423828125,19.79931640625
0.036,-1.42138671875,-17.63720703125,18.63818359375
0.0365,3.22314453125,-19.71923828125,16.43603515625
0.037,6.26611328125,-20.56005859375,14.43408203125
0.0375,9.62939453125,-20.84033203125,11.59130859375
0.038,12.95263671875,-20.52001953125,8.22802734375
0.0385,16.23583984375,-19.63916015625,4.22412109375
0.039,18.71826171875,-17.99755859375,0.18017578125
0.0395,20.43994140625,-15.95556640625,-3.58349609375
0.04,21.00048828125,-13.31298828125,-6.78662109375
0.0405,20.76025390625,-9.74951171875,-10.27001953125
0.041,20.35986328125,-5.82568359375,-13.79345703125
0.0415,19.67919921875,-1.98193359375,-16.95654296875
0.042,17.71728515625,2.30224609375,-19.19873046875
0.0425,15.43505859375,5.70556640625,-20.39990234375
0.043,12.67236328125,9.06884765625,-21.08056640625
0.0435,8.54833984375,12.75244140625,-20.68017578125
0.044,3.94384765625,16.23583984375,-19.71923828125
0.0445,-0.58056640625,18.87841796875,-18.15771484375
0.045,-4.82470703125,20.80029296875,-16.07568359375
0.0455,-7.86767578125,21.28076171875,-13.75341796875
0.046,-11.39111328125,21.20068359375,-10.39013671875
0.0465,-14.87451171875,20.76025390625,-6.74658203125
0.047,-17.95751953125,19.55908203125,-2.54248046875
0.0475,-20.19970703125,17.43701171875,1.86181640625
0.048,-21.52099609375,15.19482421875,5.34521484375
0.0485,-21.84130859375,12.11181640625,8.82861328125
0.049,-21.48095703125,7.98779296875,12.51220703125
0.0495,-20.68017578125,3.94384765625,15.83544921875
0.05,-19.51904296875,0.02001953125,18.71826171875
0.0505,-17.35693359375,-4.34423828125,20.84033203125
0.051,-14.79443359375,-7.50732421875,21.48095703125
0.0515,-11.51123046875,-10.91064453125,21.72119140625
0.052,-6.94677734375,-14.75439453125,21.12060546875
0.0525,-2.22216796875,-17.95751953125,19.71923828125
0.053,2.42236328125,-20.07958984375,17.55712890625
0.0535,6.26611328125,-21.64111328125,15.51513671875
0.054,9.46923828125,-21.80126953125,12.75244140625
0.0545,12.99267578125,-21.40087890625,9.06884765625
0.055,16.27587890625,-20.76025390625,5.26513671875
0.0555,19.15869140625,-19.19873046875,0.98095703125
0.056,21.12060546875,-16.83642578125,-3.34326171875
0.0565,21.72119140625,-14.39404296875,-6.46630859375
0.057,21.88134765625,-11.03076171875,-10.02978515625
0.0575,21.32080078125,-6.66650390625,-13.79345703125
0.058,20.43994140625,-2.78271484375,-16.79638671875
0.0585,18.75830078125,1.30126953125,-19.19873046875
0.059,16.63623046875,5.34521484375,-21.16064453125
0.0595,13.59326171875,8.46826171875,-21.36083984375
0.06,9.94970703125,11.99169921875,-21.28076171875
0.0605,5.46533203125,15.67529296875,-20.64013671875
0.061,0.70068359375,18.71826171875,-19.11865234375
0.0615,-3.70361328125,20.47998046875,-16.79638671875
0.062,-7.02685546875,21.56103515625,-14.75439453125
0.0625,-10.31005859375,21.64111328125,-11.79150390625
0.063,-13.87353515625,20.96044921875,-7.78759765625
0.0635,-16.83642578125,20.15966796875,-4.18408203125
0.064,-19.47900390625,18.35791015625,0.18017578125
0.0645,-21.32080078125,15.99560546875,4.34423828125
0.065,-21.48095703125,13.11279296875,7.38720703125
0.0655,-21.56103515625,9.74951171875,10.87060546875
0.066,-20.96044921875,5.38525390625,14.67431640625
0.0665,-19.99951171875,1.46142578125,17.67724609375
0.067,-17.95751953125,-2.54248046875,19.67919921875
0.0675,-15.99560546875,-6.18603515625,21.32080078125
0.068,-12.75244140625,-9.34912109375,21.48095703125
0.0685,-8.66845703125,-13.03271484375,21.04052734375
0.069,-4.46435546875,-16.35595703125,20.31982421875
0.0695,0.54052734375,-19.23876953125,18.47802734375
0.07,4.78466796875,-20.96044921875,16.23583984375
0.0705,7.82763671875,-21.48095703125,13.95361328125
0.071,11.19091796875,-21.64111328125,10.95068359375
0.0715,15.03466796875,-20.84033203125,6.58642578125
0.072,17.79736328125,-19.83935546875,2.86279296875
0.0725,19.99951171875,-17.95751953125,-1.26123046875
0.073,21.68115234375,-15.67529296875,-5.14501953125
0.0735,21.60107421875,-12.35205078125,-8.30810546875
0.074,21.44091796875,-8.62841796875,-12.03173828125
0.0745,20.80029296875,-4.54443359375,-15.39501953125
0.075,19.59912109375,-0.38037109375,-18.43798828125
0.0755,17.31689453125,3.70361328125,-20.19970703125
0.076,15.03466796875,7.02685546875,-21.28076171875
0.0765,11.71142578125,10.39013671875,-21.52099609375
0.077,6.82666015625,14.47412109375,-20.76025390625
0.0775,2.82275390625,17.35693359375,-19.79931640625
0.078,-1.94189453125,19.83935546875,-17.75732421875
0.0785,-5.90576171875,21.44091796875,-15.63525390625
0.079,-8.94873046875,21.40087890625,-12.79248046875
0.0795,-12.23193359375,21.36083984375,-9.78955078125
0.08,-15.99560546875,20.60009765625,-5.42529296875
0.0805,-18.71826171875,19.03857421875,-1.30126953125
0.081,-20.47998046875,16.87646484375,2.66259765625
0.0815,-21.72119140625,14.59423828125,6.18603515625
0.082,-21.64111328125,11.03076171875,9.46923828125
0.0825,-21.16064453125,6.82666015625,13.43310546875
0.083,-20.47998046875,3.18310546875,16.35595703125
0.0835,-18.91845703125,-1.10107421875,19.11865234375
0.084,-16.63623046875,-5.06494140625,20.88037109375
0.0845,-13.95361328125,-8.06787109375,21.20068359375
0.085,-10.75048828125,-11.43115234375,21.44091796875
0.0855,-5.50537109375,-15.51513671875,20.47998046875
0.086,-1.18115234375,-18.19775390625,19.03857421875
0.0865,3.06298828125,-20.11962890625,16.95654296875
0.087,6.78662109375,-21.52099609375,14.91455078125
0.0875,9.98974609375,-21.20068359375,11.67138671875
0.088,13.31298828125,-20.96044921875,8.30810546875
0.0885,16.59619140625,-20.23974609375,4.50439453125
0.089,19.23876953125,-18.47802734375,0.10009765625
0.0895,20.80029296875,-16.15576171875,-3.70361328125
0.09,21.28076171875,-13.51318359375,-6.90673828125
0.0905,21.28076171875,-10.22998046875,-10.18994140625
0.091,20.64013671875,-5.62548828125,-14.23388671875
0.0915,19.75927734375,-2.10205078125,-16.91650390625
0.092,18.07763671875,1.94189453125,-19.15869140625
0.0925,15.87548828125,5.78564453125,-20.84033203125
0.093,12.47216796875,8.90869140625,-20.64013671875
0.0935,9.10888671875,12.27197265625,-20.80029296875
0.094,4.38427734375,16.03564453125,-19.91943359375
0.0945,-0.42041015625,18.67822265625,-18.07763671875
0.095,-4.14404296875,20.19970703125,-16.07568359375
0.0955,-7.46728515625,21.16064453125,-13.99365234375
0.096,-10.67041015625,20.80029296875,-10.91064453125
0.0965,-14.19384765625,20.23974609375,-6.78662109375
0.097,-16.95654296875,19.39892578125,-3.34326171875
0.0975,-19.31884765625,17.47705078125,0.98095703125
0.098,-20.76025390625,15.23486328125,4.62451171875
0.0985,-20.84033203125,12.19189453125,7.70751953125
0.099,-20.88037109375,8.94873046875,11.03076171875
0.0995,-20.23974609375,4.50439453125,14.87451171875
0.1,-19.03857421875,0.66064453125,17.55712890625
0.1005,-17.11669921875,-3.06298828125,19.35888671875
0.101,-15.15478515625,-6.54638671875,20.92041015625
0.1015,-11.59130859375,-9.74951171875,20.64013671875
0.102,-7.54736328125,-13.39306640625,20.31982421875
0.1025,-3.38330078125,-16.59619140625,19.51904296875
0.103,1.50146484375,-19.03857421875,17.35693359375
0.1035,5.06494140625,-20.35986328125,15.39501953125
0.104,8.18798828125,-20.96044921875,12.91259765625
0.1045,11.39111328125,-20.92041015625,10.06982421875
0.105,15.11474609375,-20.15966796875,5.70556640625
0.1055,17.75732421875,-18.83837890625,1.90185546875
0.106,19.75927734375,-16.91650390625,-1.98193359375
0.1065,20.96044921875,-14.59423828125,-5.42529296875
0.107,20.72021484375,-11.15087890625,-8.66845703125
0.1075,20.64013671875,-7.58740234375,-12.23193359375
0.108,20.11962890625,-3.62353515625,-15.63525390625
0.1085,18.55810546875,0.58056640625,-18.27783203125
0.109,16.43603515625,4.26416015625,-19.83935546875
0.1095,14.03369140625,7.54736328125,-20.84033203125
0.11,10.51025390625,10.95068359375,-20.80029296875
0.1105,5.62548828125,14.95458984375,-19.99951171875
0.111,1.58154296875,17.75732421875,-18.95849609375
0.1115,-2.94287109375,19.91943359375,-16.83642578125
0.112,-6.50634765625,21.00048828125,-14.75439453125
0.1125,-9.78955078125,20.96044921875,-11.67138671875
0.113,-12.87255859375,21.00048828125,-8.66845703125
0.1135,-16.51611328125,19.95947265625,-4.34423828125
0.114,-19.07861328125,18.11767578125,0.06005859375
0.1145,-20.64013671875,16.07568359375,3.62353515625
0.115,-21.52099609375,13.51318359375,7.02685546875
0.1155,-21.16064453125,9.86962890625,10.39013671875
0.116,-20.68017578125,5.62548828125,14.19384765625
0.1165,-19.99951171875,1.94189453125,17.23681640625
0.117,-18.19775390625,-2.30224609375,19.71923828125
0.1175,-15.87548828125,-5.94580078125,21.00048828125
0.118,-12.87255859375,-9.26904296875,21.36083984375
0.1185,-9.26904296875,-12.71240234375,21.28076171875
0.119,-4.06396484375,-16.55615234375,20.11962890625
0.1195,0.50048828125,-19.19873046875,18.31787109375
0.12,4.50439453125,-20.84033203125,16.39599609375
0.1205,7.86767578125,-21.76123046875,14.11376953125
0.121,11.47119140625,-21.32080078125,10.39013671875
0.1215,14.71435546875,-20.92041015625,6.94677734375
0.122,17.79736328125,-19.87939453125,2.98291015625
0.1225,20.19970703125,-17.67724609375,-1.62158203125
0.123,21.32080078125,-15.43505859375,-4.94482421875
0.1235,21.72119140625,-12.43212890625,-8.30810546875
0.124,21.32080078125,-8.78857421875,-11.67138671875
0.1245,20.56005859375,-4.34423828125,-15.39501953125
0.125,19.35888671875,-0.50048828125,-18.07763671875
0.1255,17.47705078125,3.54345703125,-20.23974609375
0.126,14.95458984375,7.06689453125,-21.24072265625
0.1265,11.23095703125,10.51025390625,-21.08056640625
0.127,7.42724609375,14.07373046875,-20.92041015625
0.1275,2.70263671875,17.47705078125,-19.75927734375
0.128,-2.22216796875,19.71923828125,-17.43701171875
0.1285,-5.62548828125,21.00048828125,-15.47509765625
0.129,-8.94873046875,21.52099609375,-13.07275390625
0.1295,-12.23193359375,21.08056640625,-9.42919921875
0.13,-15.63525390625,20.31982421875,-5.46533203125
0.1305,-18.39794921875,19.03857421875,-1.58154296875
0.131,-20.47998046875,16.71630859375,2.82275390625
0.1315,-21.20068359375,14.31396484375,5.90576171875
0.132,-21.28076171875,10.87060546875,9.42919921875
0.1325,-21.00048828125,7.30712890625,12.79248046875
0.133,-20.23974609375,3.06298828125,16.27587890625
0.1335,-18.55810546875,-0.98095703125,18.67822265625
0.134,-16.59619140625,-4.66455078125,20.39990234375
0.1345,-14.11376953125,-7.98779296875,21.28076171875
0.135,-10.18994140625,-11.35107421875,20.84033203125
0.1355,-6.02587890625,-14.91455078125,20.31982421875
0.136,-1.46142578125,-17.99755859375,19.11865234375
0.1365,3.26318359375,-20.07958984375,16.71630859375
0.137,6.38623046875,-21.00048828125,14.67431640625
0.1375,9.74951171875,-21.28076171875,11.87158203125
0.138,13.07275390625,-20.84033203125,8.38818359375
0.1385,16.35595703125,-19.91943359375,4.42431640625
0.139,18.87841796875,-18.27783203125,0.38037109375
0.1395,20.68017578125,-16.19580078125,-3.62353515625
0.14,21.16064453125,-13.51318359375,-6.70654296875
0.1405,21.00048828125,-9.94970703125,-10.22998046875
0.141,20.56005859375,-6.10595703125,-13.71337890625
0.1415,19.87939453125,-2.26220703125,-16.95654296875
0.142,17.91748046875,2.06201171875,-19.15869140625
0.1425,15.71533203125,5.46533203125,-20.47998046875
0.143,12.95263671875,8.86865234375,-21.12060546875
0.1435,8.82861328125,12.47216796875,-20.68017578125
0.144,4.38427734375,15.87548828125,-19.83935546875
0.1445,0.02001953125,18.55810546875,-18.31787109375
0.145,-4.42431640625,20.47998046875,-16.19580078125
0.1455,-7.42724609375,21.04052734375,-13.91357421875
0.146,-10.83056640625,21.08056640625,-10.75048828125
0.1465,-14.23388671875,20.60009765625,-7.10693359375
0.147,-17.31689453125,19.51904296875,-3.10302734375
0.1475,-19.55908203125,17.51708984375,1.18115234375
0.148,-21.04052734375,15.39501953125,4.74462890625
0.1485,-21.40087890625,12.43212890625,8.02783203125
0.149,-21.08056640625,8.54833984375,11.63134765625
0.1495,-20.52001953125,4.58447265625,15.03466796875
0.15,-19.39892578125,0.66064453125,17.95751953125
0.1505,-17.35693359375,-3.58349609375,20.11962890625
0.151,-14.95458984375,-6.70654296875,20.84033203125
0.1515,-11.87158203125,-10.10986328125,21.24072265625
0.152,-7.50732421875,-13.87353515625,20.76025390625
0.1525,-2.94287109375,-17.07666015625,19.51904296875
0.153,1.54150390625,-19.27880859375,17.55712890625
0.1535,5.46533203125,-20.96044921875,15.59521484375
0.154,8.58837890625,-21.20068359375,12.95263671875
0.1545,11.91162109375,-21.00048828125,9.62939453125
0.155,15.39501953125,-20.43994140625,5.86572265625
0.1555,18.23779296875,-19.07861328125,1.70166015625
0.156,20.31982421875,-16.87646484375,-2.54248046875
0.1565,21.16064453125,-14.59423828125,-5.70556640625
0.157,21.40087890625,-11.39111328125,-9.14892578125
0.1575,20.96044921875,-7.22705078125,-12.87255859375
0.158,20.19970703125,-3.46337890625,-15.95556640625
0.1585,18.75830078125,0.62060546875,-18.43798828125
0.159,16.67626953125,4.66455078125,-20.52001953125
0.1595,13.83349609375,7.74755859375,-20.88037109375
0.16,10.43017578125,11.11083984375,-20.96044921875
0.1605,5.94580078125,14.91455078125,-20.39990234375
0.161,1.34130859375,17.91748046875,-19.03857421875
0.1615,-3.02294921875,19.83935546875,-16.79638671875
0.162,-6.42626953125,21.12060546875,-14.87451171875
0.1625,-9.66943359375,21.20068359375,-12.03173828125
0.163,-13.11279296875,20.68017578125,-8.26806640625
0.1635,-16.19580078125,19.99951171875,-4.66455078125
0.164,-18.91845703125,18.31787109375,-0.42041015625
0.1645,-20.80029296875,16.03564453125,3.82373046875
0.165,-21.16064453125,13.39306640625,6.78662109375
0.1655,-21.28076171875,10.10986328125,10.22998046875
0.166,-20.76025390625,5.74560546875,14.11376953125
0.1665,-19.87939453125,1.94189453125,17.11669921875
0.167,-17.99755859375,-1.98193359375,19.15869140625
0.1675,-16.03564453125,-5.70556640625,20.96044921875
0.168,-12.95263671875,-8.90869140625,21.12060546875
0.1685,-9.10888671875,-12.35205078125,20.80029296875
0.169,-4.82470703125,-15.67529296875,20.07958984375
0.1695,0.02001953125,-18.59814453125,18.31787109375
0.17,4.18408203125,-20.35986328125,16.15576171875
0.1705,7.22705078125,-21.00048828125,14.03369140625
0.171,10.59033203125,-21.16064453125,11.07080078125
0.1715,14.23388671875,-20.47998046875,6.94677734375
0.172,17.03662109375,-19.59912109375,3.38330078125
0.1725,19.35888671875,-17.75732421875,-0.74072265625
0.173,21.08056640625,-15.59521484375,-4.54443359375
0.1735,21.08056640625,-12.51220703125,-7.70751953125
0.174,21.00048828125,-8.94873046875,-11.23095703125
0.1745,20.43994140625,-4.86474609375,-14.75439453125
0.175,19.31884765625,-0.90087890625,-17.67724609375
0.1755,17.15673828125,3.06298828125,-19.47900390625
0.176,15.07470703125,6.34619140625,-20.64013671875
0.1765,11.83154296875,9.66943359375,-20.96044921875
0.177,7.26708984375,13.51318359375,-20.39990234375
0.1775,3.46337890625,16.51611328125,-19.51904296875
0.178,-1.34130859375,19.03857421875,-17.55712890625
0.1785,-5.26513671875,20.64013671875,-15.51513671875
0.179,-8.18798828125,20.80029296875,-12.91259765625
0.1795,-11.39111328125,20.88037109375,-10.10986328125
0.18,-15.11474609375,20.15966796875,-5.82568359375
0.1805,-17.79736328125,18.79833984375,-1.90185546875
0.181,-19.71923828125,16.79638671875,1.98193359375
0.1815,-21.00048828125,14.55419921875,5.50537109375
0.182,-20.92041015625,11.27099609375,8.70849609375
0.1825,-20.64013671875,7.30712890625,12.47216796875
0.183,-19.99951171875,3.70361328125,15.47509765625
0.1835,-18.63818359375,-0.50048828125,18.23779296875
0.184,-16.43603515625,-4.42431640625,19.99951171875
0.1845,-14.03369140625,-7.38720703125,20.56005859375
0.185,-11.03076171875,-10.63037109375,20.88037109375
0.1855,-5.94580078125,-14.63427734375,19.99951171875
0.186,-1.90185546875,-17.27685546875,18.75830078125
0.1865,2.42236328125,-19.27880859375,16.79638671875
0.187,6.10595703125,-20.80029296875,14.87451171875
0.1875,9.10888671875,-20.64013671875,11.87158203125
0.188,12.31201171875,-20.47998046875,8.78857421875
0.1885,15.71533203125,-19.87939453125,4.94482421875
0.189,18.31787109375,-18.23779296875,0.78076171875
0.1895,19.99951171875,-16.15576171875,-2.98291015625
0.19,20.76025390625,-13.67333984375,-6.18603515625
0.1905,20.68017578125,-10.59033203125,-9.42919921875
0.191,20.19970703125,-6.06591796875,-13.35302734375
0.1915,19.39892578125,-2.66259765625,-15.99560546875
