wavelength,x,y,z
0.0,0.70068359375,-6.02587890625,3.30322265625
0.0005,0.06005859375,-6.38623046875,4.30419921875
0.001,-0.86083984375,-6.22607421875,4.98486328125
0.0015,-1.94189453125,-5.46533203125,5.42529296875
0.002,-3.14306640625,-4.34423828125,5.74560546875
0.0025,-4.22412109375,-3.06298828125,5.82568359375
0.003,-4.90478515625,-2.18212890625,5.94580078125
0.0035,-5.26513671875,-1.54150390625,5.94580078125
0.004,-5.30517578125,-0.78076171875,5.54541015625
0.0045,-5.14501953125,0.30029296875,4.62451171875
0.005,-5.10498046875,1.54150390625,3.62353515625
0.0055,-4.90478515625,2.70263671875,2.54248046875
0.006,-4.90478515625,3.62353515625,1.78173828125
0.0065,-4.50439453125,4.14404296875,1.02099609375
0.007,-3.86376953125,4.54443359375,0.14013671875
0.0075,-2.86279296875,4.94482421875,-1.22119140625
0.008,-1.70166015625,5.10498046875,-2.58251953125
0.0085,-0.94091796875,5.38525390625,-3.66357421875
0.009,-0.26025390625,5.66552734375,-4.58447265625
0.0095,0.70068359375,5.30517578125,-5.18505859375
0.01,1.90185546875,4.42431640625,-5.58544921875
0.0105,3.14306640625,3.26318359375,-5.90576171875
0.011,4.06396484375,2.10205078125,-5.90576171875
0.0115,4.70458984375,1.34130859375,-6.10595703125
0.012,4.90478515625,0.70068359375,-5.94580078125
0.0125,4.90478515625,-0.22021484375,-5.42529296875
0.013,4.82470703125,-1.30126953125,-4.50439453125
0.0135,4.66455078125,-2.62255859375,-3.30322265625
0.014,4.54443359375,-3.70361328125,-2.34228515625
0.0145,4.50439453125,-4.54443359375,-1.62158203125
0.015,4.02392578125,-5.02490234375,-0.82080078125
0.0155,3.14306640625,-5.34521484375,0.34033203125
0.016,2.10205078125,-5.74560546875,1.66162109375
0.0165,0.98095703125,-5.94580078125,2.90283203125
0.017,0.30029296875,-6.30615234375,3.94384765625
0.0175,-0.58056640625,-6.38623046875,4.78466796875
0.018,-1.50146484375,-5.74560546875,5.34521484375
0.0185,-2.82275390625,-4.66455078125,5.70556640625
0.019,-3.98388671875,-3.34326171875,5.90576171875
0.0195,-4.82470703125,-2.30224609375,5.90576171875
0.02,-5.26513671875,-1.62158203125,6.02587890625
0.0205,-5.34521484375,-0.94091796875,5.66552734375
0.021,-5.22509765625,0.14013671875,4.86474609375
0.0215,-5.14501953125,1.34130859375,3.86376953125
0.022,-4.98486328125,2.58251953125,2.70263671875
0.0225,-4.86474609375,3.50341796875,1.86181640625
0.023,-4.62451171875,4.22412109375,1.10107421875
0.0235,-4.06396484375,4.62451171875,0.26025390625
0.024,-2.94287109375,4.82470703125,-1.10107421875
0.0245,-1.90185546875,5.14501953125,-2.42236328125
0.025,-0.90087890625,5.30517578125,-3.58349609375
0.0255,-0.30029296875,5.62548828125,-4.54443359375
0.026,0.66064453125,5.42529296875,-5.18505859375
0.0265,1.74169921875,4.66455078125,-5.62548828125
0.027,2.98291015625,3.54345703125,-5.94580078125
0.0275,4.10400390625,2.22216796875,-6.02587890625
0.028,4.74462890625,1.34130859375,-6.10595703125
0.0285,5.06494140625,0.70068359375,-6.06591796875
0.029,5.02490234375,-0.18017578125,-5.58544921875
0.0295,4.82470703125,-1.26123046875,-4.58447265625
0.03,4.78466796875,-2.54248046875,-3.54345703125
0.0305,4.58447265625,-3.70361328125,-2.38232421875
0.031,4.50439453125,-4.54443359375,-1.62158203125
0.0315,4.14404296875,-5.10498046875,-0.86083984375
0.032,3.38330078125,-5.42529296875,0.18017578125
0.0325,2.26220703125,-5.78564453125,1.50146484375
0.033,1.06103515625,-5.98583984375,2.86279296875
0.0335,0.26025390625,-6.26611328125,3.90380859375
0.034,-0.50048828125,-6.42626953125,4.86474609375
0.0345,-1.46142578125,-5.94580078125,5.42529296875
0.035,-2.70263671875,-4.86474609375,5.78564453125
0.0355,-3.94384765625,-3.66357421875,6.06591796875
0.036,-4.90478515625,-2.38232421875,6.06591796875
0.0365,-5.42529296875,-1.62158203125,6.14599609375
0.037,-5.58544921875,-0.90087890625,5.82568359375
0.0375,-5.46533203125,0.06005859375,5.18505859375
0.038,-5.30517578125,1.26123046875,4.10400390625
0.0385,-5.14501953125,2.58251953125,2.86279296875
0.039,-4.94482421875,3.66357421875,1.82177734375
0.0395,-4.82470703125,4.42431640625,1.10107421875
0.04,-4.14404296875,4.82470703125,0.26025390625
0.0405,-3.14306640625,4.98486328125,-1.02099609375
0.041,-1.98193359375,5.34521484375,-2.42236328125
0.0415,-0.82080078125,5.42529296875,-3.78369140625
0.042,0.02001953125,5.74560546875,-4.66455078125
0.0425,0.70068359375,5.66552734375,-5.42529296875
0.043,1.78173828125,4.98486328125,-5.90576171875
0.0435,3.10302734375,3.70361328125,-6.18603515625
0.044,4.26416015625,2.30224609375,-6.34619140625
0.0445,5.02490234375,1.22119140625,-6.26611328125
0.045,5.38525390625,0.54052734375,-6.26611328125
0.0455,5.34521484375,-0.38037109375,-5.74560546875
0.046,5.10498046875,-1.38134765625,-4.78466796875
0.0465,4.98486328125,-2.74267578125,-3.58349609375
0.047,4.74462890625,-4.02392578125,-2.26220703125
0.0475,4.54443359375,-4.94482421875,-1.38134765625
0.048,4.22412109375,-5.54541015625,-0.62060546875
0.0485,3.50341796875,-5.86572265625,0.38037109375
0.049,2.18212890625,-6.06591796875,1.78173828125
0.0495,0.90087890625,-6.34619140625,3.26318359375
0.05,-0.18017578125,-6.34619140625,4.42431640625
0.0505,-0.82080078125,-6.58642578125,5.30517578125
0.051,-1.74169921875,-6.14599609375,5.90576171875
0.0515,-2.94287109375,-5.10498046875,6.26611328125
0.052,-4.34423828125,-3.70361328125,6.54638671875
0.0525,-5.38525390625,-2.26220703125,6.42626953125
0.053,-5.90576171875,-1.26123046875,6.34619140625
0.0535,-6.10595703125,-0.58056640625,6.10595703125
0.054,-5.90576171875,0.46044921875,5.38525390625
0.0545,-5.62548828125,1.74169921875,4.06396484375
0.055,-5.42529296875,3.14306640625,2.74267578125
0.0555,-5.10498046875,4.22412109375,1.50146484375
0.056,-4.82470703125,4.98486328125,0.70068359375
0.0565,-4.18408203125,5.30517578125,-0.26025390625
0.057,-3.18310546875,5.50537109375,-1.34130859375
0.0575,-1.78173828125,5.66552734375,-2.94287109375
0.058,-0.46044921875,5.78564453125,-4.34423828125
0.0585,0.50048828125,5.82568359375,-5.26513671875
0.059,1.18115234375,5.90576171875,-6.06591796875
0.0595,2.22216796875,5.10498046875,-6.50634765625
0.06,3.54345703125,3.74365234375,-6.70654296875
0.0605,4.82470703125,2.30224609375,-6.86669921875
0.061,5.58544921875,0.94091796875,-6.58642578125
0.0615,5.94580078125,0.10009765625,-6.50634765625
0.062,5.90576171875,-0.78076171875,-6.02587890625
0.0625,5.62548828125,-1.74169921875,-5.06494140625
0.063,5.26513671875,-3.14306640625,-3.58349609375
0.0635,4.98486328125,-4.54443359375,-2.18212890625
0.064,4.62451171875,-5.46533203125,-1.10107421875
0.0645,4.34423828125,-6.14599609375,-0.34033203125
0.065,3.50341796875,-6.34619140625,0.70068359375
0.0655,2.18212890625,-6.46630859375,1.98193359375
0.066,0.78076171875,-6.58642578125,3.62353515625
0.0665,-0.62060546875,-6.54638671875,4.82470703125
0.067,-1.26123046875,-6.66650390625,5.70556640625
0.0675,-2.02197265625,-6.38623046875,6.34619140625
0.068,-3.18310546875,-5.42529296875,6.70654296875
0.0685,-4.58447265625,-3.86376953125,6.90673828125
0.069,-5.70556640625,-2.34228515625,6.82666015625
0.0695,-6.30615234375,-1.14111328125,6.54638671875
0.07,-6.50634765625,-0.38037109375,6.38623046875
0.0705,-6.30615234375,0.58056640625,5.66552734375
0.071,-5.94580078125,1.74169921875,4.50439453125
0.0715,-5.66552734375,3.14306640625,3.02294921875
0.072,-5.26513671875,4.38427734375,1.58154296875
0.0725,-4.90478515625,5.18505859375,0.62060546875
0.073,-4.42431640625,5.66552734375,-0.30029296875
0.0735,-3.54345703125,5.78564453125,-1.26123046875
0.074,-1.94189453125,5.86572265625,-2.74267578125
0.0745,-0.58056640625,6.02587890625,-4.30419921875
0.075,0.62060546875,5.90576171875,-5.34521484375
0.0755,1.26123046875,6.06591796875,-6.14599609375
0.076,2.10205078125,5.46533203125,-6.66650390625
0.0765,3.26318359375,4.34423828125,-6.90673828125
0.077,4.62451171875,2.78271484375,-7.02685546875
0.0775,5.62548828125,1.26123046875,-6.86669921875
0.078,6.10595703125,0.26025390625,-6.62646484375
0.0785,6.14599609375,-0.62060546875,-6.38623046875
0.079,5.86572265625,-1.46142578125,-5.46533203125
0.0795,5.46533203125,-2.74267578125,-4.14404296875
0.08,5.18505859375,-4.18408203125,-2.66259765625
0.0805,4.82470703125,-5.30517578125,-1.38134765625
0.081,4.50439453125,-6.10595703125,-0.50048828125
0.0815,3.82373046875,-6.42626953125,0.38037109375
0.082,2.82275390625,-6.46630859375,1.46142578125
0.0825,1.30126953125,-6.58642578125,3.06298828125
0.083,-0.26025390625,-6.58642578125,4.50439453125
0.0835,-1.02099609375,-6.62646484375,5.42529296875
0.084,-1.70166015625,-6.66650390625,6.22607421875
0.0845,-2.74267578125,-5.90576171875,6.66650390625
0.085,-4.02392578125,-4.50439453125,6.82666015625
0.0855,-5.26513671875,-3.06298828125,6.90673828125
0.086,-6.10595703125,-1.58154296875,6.66650390625
0.0865,-6.46630859375,-0.70068359375,6.54638671875
0.087,-6.42626953125,0.14013671875,6.06591796875
0.0875,-6.14599609375,1.14111328125,5.10498046875
0.088,-5.74560546875,2.50244140625,3.66357421875
0.0885,-5.42529296875,3.86376953125,2.22216796875
0.089,-5.06494140625,4.82470703125,1.02099609375
0.0895,-4.82470703125,5.50537109375,0.22021484375
0.09,-3.90380859375,5.74560546875,-0.78076171875
0.0905,-2.66259765625,5.82568359375,-2.02197265625
0.091,-1.22119140625,5.98583984375,-3.62353515625
0.0915,0.18017578125,5.94580078125,-4.90478515625
0.092,0.94091796875,6.02587890625,-5.78564453125
0.0925,1.62158203125,5.86572265625,-6.46630859375
0.093,2.70263671875,4.98486328125,-6.82666015625
0.0935,4.10400390625,3.42333984375,-6.98681640625
0.094,5.26513671875,1.90185546875,-6.98681640625
0.0945,5.90576171875,0.62060546875,-6.70654296875
0.095,6.18603515625,-0.22021484375,-6.58642578125
0.0955,6.02587890625,-1.06103515625,-5.90576171875
0.096,5.70556640625,-2.18212890625,-4.82470703125
0.0965,5.38525390625,-3.66357421875,-3.34326171875
0.097,4.98486328125,-4.94482421875,-1.86181640625
0.0975,4.62451171875,-5.82568359375,-0.90087890625
0.098,4.22412109375,-6.34619140625,0.06005859375
0.0985,3.30322265625,-6.54638671875,0.98095703125
0.099,1.78173828125,-6.54638671875,2.50244140625
0.0995,0.38037109375,-6.70654296875,4.06396484375
0.1,-0.82080078125,-6.62646484375,5.14501953125
0.1005,-1.46142578125,-6.74658203125,6.02587890625
0.101,-2.30224609375,-6.26611328125,6.54638671875
0.1015,-3.54345703125,-5.10498046875,6.86669921875
0.102,-4.90478515625,-3.58349609375,6.98681640625
0.1025,-5.90576171875,-1.98193359375,6.78662109375
0.103,-6.38623046875,-0.98095703125,6.54638671875
0.1035,-6.50634765625,-0.26025390625,6.30615234375
0.104,-6.26611328125,0.78076171875,5.50537109375
0.1045,-5.82568359375,1.98193359375,4.10400390625
0.105,-5.58544921875,3.34326171875,2.70263671875
0.1055,-5.14501953125,4.50439453125,1.34130859375
0.106,-4.82470703125,5.26513671875,0.54052734375
0.1065,-4.18408203125,5.62548828125,-0.42041015625
0.107,-3.26318359375,5.74560546875,-1.34130859375
0.1075,-1.70166015625,5.78564453125,-2.94287109375
0.108,-0.34033203125,5.82568359375,-4.34423828125
0.1085,0.62060546875,5.82568359375,-5.34521484375
0.109,1.26123046875,5.98583984375,-6.10595703125
0.1095,2.18212890625,5.30517578125,-6.54638671875
0.11,3.38330078125,4.06396484375,-6.74658203125
0.1105,4.62451171875,2.62255859375,-6.90673828125
0.111,5.46533203125,1.18115234375,-6.58642578125
0.1115,5.82568359375,0.34033203125,-6.54638671875
0.112,5.90576171875,-0.50048828125,-6.14599609375
0.1125,5.66552734375,-1.38134765625,-5.38525390625
0.113,5.26513671875,-2.66259765625,-4.02392578125
0.1135,4.98486328125,-4.06396484375,-2.62255859375
0.114,4.66455078125,-5.02490234375,-1.46142578125
0.1145,4.50439453125,-5.78564453125,-0.70068359375
0.115,3.82373046875,-6.10595703125,0.26025390625
0.1155,2.70263671875,-6.26611328125,1.34130859375
0.116,1.34130859375,-6.42626953125,2.86279296875
0.1165,0.02001953125,-6.38623046875,4.22412109375
0.117,-0.78076171875,-6.58642578125,5.18505859375
0.1175,-1.46142578125,-6.54638671875,5.90576171875
0.118,-2.54248046875,-5.82568359375,6.38623046875
0.1185,-3.86376953125,-4.42431640625,6.54638671875
0.119,-5.06494140625,-2.98291015625,6.66650390625
0.1195,-5.82568359375,-1.70166015625,6.42626953125
0.12,-6.14599609375,-0.98095703125,6.42626953125
0.1205,-6.10595703125,-0.26025390625,5.90576171875
0.121,-5.82568359375,0.90087890625,4.94482421875
0.1215,-5.62548828125,2.18212890625,3.62353515625
0.122,-5.26513671875,3.54345703125,2.26220703125
0.1225,-4.98486328125,4.46435546875,1.26123046875
0.123,-4.66455078125,5.10498046875,0.50048828125
0.1235,-3.90380859375,5.38525390625,-0.50048828125
0.124,-2.62255859375,5.46533203125,-1.78173828125
0.1245,-1.30126953125,5.70556640625,-3.30322265625
0.125,-0.18017578125,5.66552734375,-4.46435546875
0.1255,0.54052734375,5.90576171875,-5.30517578125
0.126,1.30126953125,5.62548828125,-5.94580078125
0.1265,2.34228515625,4.78466796875,-6.34619140625
0.127,3.66357421875,3.38330078125,-6.50634765625
0.1275,4.74462890625,1.94189453125,-6.46630859375
0.128,5.34521484375,0.94091796875,-6.38623046875
0.1285,5.62548828125,0.26025390625,-6.34619140625
0.129,5.46533203125,-0.66064453125,-5.70556640625
0.1295,5.14501953125,-1.74169921875,-4.62451171875
0.13,4.98486328125,-3.02294921875,-3.38330078125
0.1305,4.66455078125,-4.14404296875,-2.18212890625
0.131,4.50439453125,-5.02490234375,-1.30126953125
0.1315,4.14404296875,-5.50537109375,-0.58056640625
0.132,3.38330078125,-5.82568359375,0.46044921875
0.1325,2.10205078125,-6.02587890625,1.78173828125
0.133,0.82080078125,-6.10595703125,3.18310546875
0.1335,0.02001953125,-6.26611328125,4.18408203125
0.134,-0.74072265625,-6.50634765625,5.10498046875
0.1345,-1.62158203125,-6.10595703125,5.70556640625
0.135,-2.78271484375,-5.10498046875,6.02587890625
0.1355,-4.02392578125,-3.82373046875,6.26611328125
0.136,-4.98486328125,-2.54248046875,6.14599609375
0.1365,-5.50537109375,-1.66162109375,6.18603515625
0.137,-5.70556640625,-1.02099609375,6.02587890625
0.1375,-5.66552734375,-0.26025390625,5.42529296875
0.138,-5.38525390625,1.06103515625,4.34423828125
0.1385,-5.22509765625,2.34228515625,3.18310546875
0.139,-4.98486328125,3.38330078125,2.06201171875
0.1395,-4.86474609375,4.22412109375,1.30126953125
0.14,-4.38427734375,4.70458984375,0.50048828125
0.1405,-3.54345703125,4.98486328125,-0.58056640625
0.141,-2.38232421875,5.26513671875,-1.94189453125
0.1415,-1.14111328125,5.38525390625,-3.18310546875
0.142,-0.38037109375,5.58544921875,-4.22412109375
0.1425,0.34033203125,5.78564453125,-5.10498046875
0.143,1.26123046875,5.30517578125,-5.62548828125
0.1435,2.46240234375,4.22412109375,-5.94580078125
0.144,3.66357421875,2.94287109375,-6.14599609375
0.1445,4.50439453125,1.74169921875,-6.10595703125
0.145,5.02490234375,1.10107421875,-6.26611328125
0.1455,5.10498046875,0.34033203125,-5.94580078125
0.146,5.06494140625,-0.58056640625,-5.30517578125
0.1465,4.90478515625,-1.74169921875,-4.26416015625
0.147,4.70458984375,-3.02294921875,-3.06298828125
0.1475,4.54443359375,-3.98388671875,-2.10205078125
0.148,4.50439453125,-4.82470703125,-1.42138671875
0.1485,3.90380859375,-5.22509765625,-0.62060546875
0.149,2.94287109375,-5.50537109375,0.62060546875
0.1495,1.86181640625,-5.82568359375,1.98193359375
0.15,0.82080078125,-5.94580078125,3.18310546875
0.1505,0.14013671875,-6.34619140625,4.14404296875
0.151,-0.70068359375,-6.30615234375,4.94482421875
0.1515,-1.70166015625,-5.70556640625,5.46533203125
0.152,-2.94287109375,-4.54443359375,5.78564453125
0.1525,-4.10400390625,-3.30322265625,5.90576171875
0.153,-4.82470703125,-2.34228515625,5.94580078125
0.1535,-5.30517578125,-1.74169921875,6.02587890625
0.154,-5.38525390625,-0.98095703125,5.66552734375
0.1545,-5.22509765625,0.14013671875,4.82470703125
0.155,-5.14501953125,1.30126953125,3.90380859375
0.1555,-4.98486328125,2.50244140625,2.74267578125
0.156,-4.86474609375,3.38330078125,1.94189453125
0.1565,-4.62451171875,4.10400390625,1.26123046875
0.157,-4.10400390625,4.50439453125,0.42041015625
0.1575,-3.06298828125,4.82470703125,-0.94091796875
0.158,-1.94189453125,5.10498046875,-2.26220703125
0.1585,-1.06103515625,5.30517578125,-3.34326171875
0.159,-0.46044921875,5.70556640625,-4.34423828125
0.1595,0.50048828125,5.46533203125,-5.06494140625
0.16,1.58154296875,4.74462890625,-5.46533203125
0.1605,2.82275390625,3.66357421875,-5.82568359375
0.161,3.82373046875,2.38232421875,-5.90576171875
0.1615,4.50439453125,1.58154296875,-6.10595703125
0.162,4.82470703125,0.98095703125,-6.06591796875
0.1625,4.90478515625,0.22021484375,-5.62548828125
0.163,4.82470703125,-0.94091796875,-4.78466796875
0.1635,4.74462890625,-2.18212890625,-3.70361328125
0.164,4.58447265625,-3.26318359375,-2.70263671875
0.1645,4.58447265625,-4.22412109375,-1.94189453125
0.165,4.22412109375,-4.82470703125,-1.22119140625
0.1655,3.50341796875,-5.18505859375,-0.26025390625
0.166,2.54248046875,-5.62548828125,1.18115234375
0.1665,1.34130859375,-5.82568359375,2.50244140625
0.167,0.66064453125,-6.14599609375,3.54345703125
0.1675,-0.14013671875,-6.38623046875,4.50439453125
0.168,-1.14111328125,-6.02587890625,5.10498046875
0.1685,-2.34228515625,-5.06494140625,5.50537109375
0.169,-3.58349609375,-3.90380859375,5.82568359375
0.1695,-4.50439453125,-2.74267578125,5.82568359375
0.17,-5.10498046875,-1.98193359375,6.06591796875
0.1705,-5.26513671875,-1.30126953125,5.78564453125
0.171,-5.26513671875,-0.42041015625,5.22509765625
0.1715,-5.18505859375,0.82080078125,4.30419921875
0.172,-5.06494140625,2.10205078125,3.10302734375
0.1725,-4.94482421875,3.14306640625,2.18212890625
0.173,-4.82470703125,3.94384765625,1.46142578125
0.1735,-4.34423828125,4.42431640625,0.62060546875
0.174,-3.34326171875,4.74462890625,-0.62060546875
0.1745,-2.30224609375,5.10498046875,-1.94189453125
0.175,-1.22119140625,5.26513671875,-3.18310546875
0.1755,-0.58056640625,5.62548828125,-4.14404296875
0.176,0.30029296875,5.62548828125,-4.98486328125
0.1765,1.30126953125,4.98486328125,-5.50537109375
0.177,2.54248046875,3.86376953125,-5.82568359375
0.1775,3.74365234375,2.54248046875,-6.02587890625
0.178,4.50439453125,1.58154296875,-6.02587890625
0.1785,4.94482421875,0.98095703125,-6.10595703125
0.179,4.98486328125,0.18017578125,-5.74560546875
0.1795,4.86474609375,-0.90087890625,-4.86474609375
0.18,4.82470703125,-2.14208984375,-3.86376953125
0.1805,4.62451171875,-3.34326171875,-2.66259765625
0.181,4.50439453125,-4.26416015625,-1.86181640625
0.1815,4.30419921875,-4.98486328125,-1.14111328125
0.182,3.66357421875,-5.38525390625,-0.26025390625
0.1825,2.54248046875,-5.62548828125,1.18115234375
0.183,1.38134765625,-5.90576171875,2.54248046875
0.1835,0.50048828125,-6.10595703125,3.66357421875
0.184,-0.26025390625,-6.42626953125,4.62451171875
0.1845,-1.22119140625,-6.14599609375,5.30517578125
0.185,-2.34228515625,-5.26513671875,5.74560546875
0.1855,-3.66357421875,-4.06396484375,6.02587890625
0.186,-4.66455078125,-2.66259765625,6.02587890625
0.1865,-5.26513671875,-1.78173828125,6.10595703125
0.187,-5.54541015625,-1.14111328125,5.98583984375
0.1875,-5.50537109375,-0.30029296875,5.38525390625
0.188,-5.30517578125,0.98095703125,4.30419921875
0.1885,-5.18505859375,2.26220703125,3.18310546875
0.189,-4.98486328125,3.38330078125,2.02197265625
0.1895,-4.86474609375,4.22412109375,1.30126953125
0.19,-4.34423828125,4.66455078125,0.50048828125
0.1905,-3.46337890625,4.94482421875,-0.62060546875
0.191,-2.30224609375,5.26513671875,-2.06201171875
0.1915,-1.10107421875,5.38525390625,-3.38330078125
0.192,-0.34033203125,5.62548828125,-4.38427734375
0.1925,0.46044921875,5.74560546875,-5.22509765625
0.193,1.46142578125,5.14501953125,-5.78564453125
0.1935,2.70263671875,3.94384765625,-6.10595703125
0.194,3.98388671875,2.70263671875,-6.30615234375
0.1945,4.82470703125,1.46142578125,-6.22607421875
0.195,5.26513671875,0.78076171875,-6.26611328125
0.1955,5.30517578125,0.02001953125,-5.90576171875
0.196,5.18505859375,-0.98095703125,-5.14501953125
0.1965,4.98486328125,-2.26220703125,-3.94384765625
0.197,4.82470703125,-3.58349609375,-2.66259765625
0.1975,4.54443359375,-4.54443359375,-1.66162109375
0.198,4.42431640625,-5.30517578125,-0.98095703125
0.1985,3.70361328125,-5.62548828125,0.02001953125
0.199,2.54248046875,-5.82568359375,1.26123046875
