wavelength,x,y,z
0.0,-4.954833984375,-3.553466796875,7.016845703125
0.0005,-5.995849609375,-2.112060546875,6.896728515625
0.001,-6.516357421875,-1.071044921875,6.736572265625
0.0015,-6.636474609375,-0.350341796875,6.416259765625
0.002,-6.316162109375,0.690673828125,5.575439453125
0.0025,-5.875732421875,1.931884765625,4.134033203125
0.003,-5.635498046875,3.493408203125,2.612548828125
0.0035,-5.275146484375,4.614501953125,1.371337890625
0.004,-5.034912109375,5.415283203125,0.490478515625
0.0045,-4.354248046875,5.735595703125,-0.390380859375
0.005,-3.193115234375,5.735595703125,-1.551513671875
0.0055,-1.631591796875,5.855712890625,-3.193115234375
0.006,-0.230224609375,5.935791015625,-4.674560546875
0.0065,0.690673828125,6.055908203125,-5.675537109375
0.007,1.331298828125,6.135986328125,-6.476318359375
0.0075,2.332275390625,5.415283203125,-6.916748046875
0.008,3.773681640625,3.893798828125,-7.076904296875
0.0085,5.094970703125,2.292236328125,-7.197021484375
0.009,5.895751953125,0.930908203125,-7.036865234375
0.0095,6.256103515625,0.050048828125,-6.916748046875
0.01,6.256103515625,-0.790771484375,-6.396240234375
0.0105,5.855712890625,-1.791748046875,-5.315185546875
0.011,5.455322265625,-3.153076171875,-3.833740234375
0.0115,5.175048828125,-4.634521484375,-2.272216796875
0.012,4.814697265625,-5.635498046875,-1.151123046875
0.0125,4.534423828125,-6.316162109375,-0.350341796875
0.013,3.693603515625,-6.476318359375,0.610595703125
0.0135,2.252197265625,-6.436279296875,1.971923828125
0.014,0.730712890625,-6.556396484375,3.613525390625
0.0145,-0.630615234375,-6.556396484375,4.934814453125
0.015,-1.311279296875,-6.716552734375,5.815673828125
0.0155,-1.991943359375,-6.556396484375,6.456298828125
0.016,-3.072998046875,-5.635498046875,6.776611328125
0.0165,-4.514404296875,-4.114013671875,6.896728515625
0.017,-5.715576171875,-2.592529296875,6.896728515625
0.0175,-6.356201171875,-1.391357421875,6.696533203125
0.018,-6.556396484375,-0.630615234375,6.576416015625
0.0185,-6.356201171875,0.290283203125,5.895751953125
0.019,-5.915771484375,1.331298828125,4.654541015625
0.0195,-5.635498046875,2.692626953125,3.253173828125
0.02,-5.275146484375,4.013916015625,1.891845703125
0.0205,-5.074951171875,4.894775390625,0.930908203125
0.021,-4.674560546875,5.415283203125,0.170166015625
0.0215,-3.753662109375,5.535400390625,-0.790771484375
0.022,-2.352294921875,5.615478515625,-2.192138671875
0.0225,-0.910888671875,5.735595703125,-3.793701171875
0.023,0.210205078125,5.775634765625,-4.874755859375
0.0235,0.770751953125,6.055908203125,-5.795654296875
0.024,1.531494140625,5.735595703125,-6.356201171875
0.0245,2.692626953125,4.614501953125,-6.636474609375
0.025,4.053955078125,3.213134765625,-6.836669921875
0.0255,5.094970703125,1.771728515625,-6.836669921875
0.026,5.735595703125,0.810791015625,-6.716552734375
0.0265,5.935791015625,0.090087890625,-6.556396484375
0.027,5.735595703125,-0.790771484375,-5.915771484375
0.0275,5.375244140625,-1.951904296875,-4.634521484375
0.028,5.135009765625,-3.353271484375,-3.233154296875
0.0285,4.894775390625,-4.514404296875,-2.031982421875
0.029,4.734619140625,-5.435302734375,-1.151123046875
0.0295,4.254150390625,-5.915771484375,-0.390380859375
0.03,3.213134765625,-6.035888671875,0.730712890625
0.0305,1.891845703125,-6.196044921875,2.212158203125
0.031,0.490478515625,-6.276123046875,3.693603515625
0.0315,-0.470458984375,-6.476318359375,4.774658203125
0.032,-1.111083984375,-6.716552734375,5.695556640625
0.0325,-1.951904296875,-6.236083984375,6.135986328125
0.033,-3.273193359375,-4.994873046875,6.416259765625
0.0335,-4.594482421875,-3.593505859375,6.576416015625
0.034,-5.515380859375,-2.272216796875,6.536376953125
0.0345,-6.075927734375,-1.431396484375,6.536376953125
0.035,-6.115966796875,-0.670654296875,6.256103515625
0.0355,-5.835693359375,0.290283203125,5.375244140625
0.036,-5.555419921875,1.571533203125,4.134033203125
0.0365,-5.355224609375,3.012939453125,2.732666015625
0.037,-5.155029296875,4.013916015625,1.651611328125
0.0375,-4.994873046875,4.814697265625,0.890869140625
0.038,-4.314208984375,5.094970703125,0.090087890625
0.0385,-3.153076171875,5.215087890625,-1.151123046875
0.039,-1.871826171875,5.455322265625,-2.672607421875
0.0395,-0.630615234375,5.575439453125,-3.993896484375
0.04,0.170166015625,5.815673828125,-4.994873046875
0.0405,0.850830078125,5.815673828125,-5.755615234375
0.041,1.811767578125,5.094970703125,-6.156005859375
0.0415,3.133056640625,3.853759765625,-6.476318359375
0.042,4.414306640625,2.452392578125,-6.556396484375
0.0425,5.135009765625,1.331298828125,-6.556396484375
0.043,5.575439453125,0.650634765625,-6.556396484375
0.0435,5.535400390625,-0.190185546875,-6.115966796875
0.044,5.255126953125,-1.151123046875,-5.114990234375
0.0445,5.014892578125,-2.432373046875,-3.833740234375
0.045,4.814697265625,-3.753662109375,-2.592529296875
0.0455,4.654541015625,-4.714599609375,-1.631591796875
0.046,4.494384765625,-5.395263671875,-0.990966796875
0.0465,3.693603515625,-5.635498046875,0.010009765625
0.047,2.532470703125,-5.755615234375,1.251220703125
0.0475,1.211181640625,-5.955810546875,2.692626953125
0.048,0.250244140625,-6.156005859375,3.893798828125
0.0485,-0.510498046875,-6.516357421875,4.854736328125
0.049,-1.231201171875,-6.356201171875,5.535400390625
0.0495,-2.312255859375,-5.515380859375,5.815673828125
0.05,-3.553466796875,-4.234130859375,6.135986328125
0.0505,-4.674560546875,-2.912841796875,6.216064453125
0.051,-5.395263671875,-1.991943359375,6.256103515625
0.0515,-5.715576171875,-1.351318359375,6.256103515625
0.052,-5.595458984375,-0.630615234375,5.695556640625
0.0525,-5.315185546875,0.490478515625,4.734619140625
0.053,-5.195068359375,1.771728515625,3.573486328125
0.0535,-5.074951171875,2.932861328125,2.452392578125
0.054,-4.994873046875,3.853759765625,1.651611328125
0.0545,-4.674560546875,4.454345703125,0.970947265625
0.055,-3.873779296875,4.694580078125,0.010009765625
0.0555,-2.792724609375,4.974853515625,-1.351318359375
0.056,-1.591552734375,5.215087890625,-2.752685546875
0.0565,-0.790771484375,5.455322265625,-3.873779296875
0.057,-0.190185546875,5.815673828125,-4.834716796875
0.0575,0.770751953125,5.495361328125,-5.435302734375
0.058,1.931884765625,4.614501953125,-5.755615234375
0.0585,3.213134765625,3.373291015625,-6.115966796875
0.059,4.214111328125,2.212158203125,-6.196044921875
0.0595,4.854736328125,1.411376953125,-6.396240234375
0.06,5.135009765625,0.730712890625,-6.276123046875
0.0605,5.054931640625,0.010009765625,-5.635498046875
0.061,4.854736328125,-1.151123046875,-4.674560546875
0.0615,4.774658203125,-2.512451171875,-3.513427734375
0.062,4.654541015625,-3.593505859375,-2.552490234375
0.0625,4.654541015625,-4.514404296875,-1.791748046875
0.063,4.214111328125,-4.994873046875,-1.031005859375
0.0635,3.293212890625,-5.235107421875,0.090087890625
0.064,2.212158203125,-5.595458984375,1.451416015625
0.0645,1.131103515625,-5.875732421875,2.732666015625
0.065,0.370361328125,-6.236083984375,3.813720703125
0.0655,-0.390380859375,-6.436279296875,4.694580078125
0.066,-1.271240234375,-5.955810546875,5.255126953125
0.0665,-2.472412109375,-4.914794921875,5.615478515625
0.067,-3.713623046875,-3.713623046875,5.855712890625
0.0675,-4.594482421875,-2.672607421875,5.975830078125
0.068,-5.155029296875,-1.991943359375,6.135986328125
0.0685,-5.275146484375,-1.351318359375,5.895751953125
0.069,-5.114990234375,-0.510498046875,5.135009765625
0.0695,-5.074951171875,0.730712890625,4.214111328125
0.07,-4.994873046875,1.971923828125,3.133056640625
0.0705,-4.954833984375,3.012939453125,2.292236328125
0.071,-4.914794921875,3.813720703125,1.611572265625
0.0715,-4.354248046875,4.214111328125,0.810791015625
0.072,-3.433349609375,4.494384765625,-0.430419921875
0.0725,-2.352294921875,4.854736328125,-1.831787109375
0.073,-1.431396484375,5.175048828125,-2.992919921875
0.0735,-0.830810546875,5.615478515625,-4.114013671875
0.074,0.050048828125,5.695556640625,-4.874755859375
0.0745,1.091064453125,5.054931640625,-5.355224609375
0.075,2.332275390625,3.973876953125,-5.755615234375
0.0755,3.533447265625,2.812744140625,-5.955810546875
0.076,4.374267578125,1.931884765625,-6.156005859375
0.0765,4.854736328125,1.251220703125,-6.276123046875
0.077,4.934814453125,0.570556640625,-5.915771484375
0.0775,4.774658203125,-0.510498046875,-5.114990234375
0.078,4.774658203125,-1.791748046875,-3.993896484375
0.0785,4.654541015625,-2.992919921875,-2.992919921875
0.079,4.694580078125,-3.993896484375,-2.192138671875
0.0795,4.494384765625,-4.674560546875,-1.471435546875
0.08,3.773681640625,-5.034912109375,-0.590576171875
0.0805,2.692626953125,-5.435302734375,0.770751953125
0.081,1.571533203125,-5.755615234375,2.212158203125
0.0815,0.770751953125,-6.115966796875,3.333251953125
0.082,0.130126953125,-6.396240234375,4.334228515625
0.0825,-0.790771484375,-6.196044921875,4.974853515625
0.083,-1.951904296875,-5.275146484375,5.415283203125
0.0835,-3.273193359375,-4.114013671875,5.775634765625
0.084,-4.354248046875,-2.952880859375,5.895751953125
0.0845,-5.034912109375,-2.192138671875,6.095947265625
0.085,-5.315185546875,-1.551513671875,6.055908203125
0.0855,-5.235107421875,-0.750732421875,5.415283203125
0.086,-5.114990234375,0.410400390625,4.494384765625
0.0865,-5.074951171875,1.731689453125,3.413330078125
0.087,-4.994873046875,2.852783203125,2.412353515625
0.0875,-4.994873046875,3.733642578125,1.731689453125
0.088,-4.514404296875,4.214111328125,0.970947265625
0.0885,-3.633544921875,4.494384765625,-0.190185546875
0.089,-2.552490234375,4.814697265625,-1.591552734375
0.0895,-1.551513671875,5.094970703125,-2.872802734375
0.09,-0.790771484375,5.535400390625,-3.913818359375
0.0905,0.010009765625,5.735595703125,-4.874755859375
0.091,0.930908203125,5.255126953125,-5.395263671875
0.0915,2.172119140625,4.214111328125,-5.755615234375
0.092,3.493408203125,2.972900390625,-6.075927734375
0.0925,4.374267578125,1.931884765625,-6.156005859375
0.093,4.934814453125,1.251220703125,-6.356201171875
0.0935,5.054931640625,0.530517578125,-6.035888671875
0.094,4.854736328125,-0.510498046875,-5.235107421875
0.0945,4.774658203125,-1.671630859375,-4.154052734375
0.095,4.734619140625,-2.992919921875,-3.032958984375
0.0955,4.614501953125,-4.033935546875,-2.112060546875
0.096,4.534423828125,-4.834716796875,-1.431396484375
0.0965,3.893798828125,-5.235107421875,-0.630615234375
0.097,2.852783203125,-5.435302734375,0.650634765625
0.0975,1.611572265625,-5.755615234375,2.132080078125
0.098,0.690673828125,-6.035888671875,3.333251953125
0.0985,0.050048828125,-6.396240234375,4.414306640625
0.099,-0.830810546875,-6.316162109375,5.135009765625
0.0995,-1.951904296875,-5.515380859375,5.615478515625
0.1,-3.233154296875,-4.354248046875,5.935791015625
0.1005,-4.434326171875,-3.072998046875,6.095947265625
0.101,-5.155029296875,-2.112060546875,6.216064453125
0.1015,-5.555419921875,-1.431396484375,6.176025390625
0.102,-5.475341796875,-0.670654296875,5.655517578125
0.1025,-5.275146484375,0.450439453125,4.614501953125
0.103,-5.195068359375,1.771728515625,3.493408203125
0.1035,-5.074951171875,3.012939453125,2.412353515625
0.104,-5.034912109375,3.933837890625,1.571533203125
0.1045,-4.674560546875,4.494384765625,0.850830078125
0.105,-3.833740234375,4.654541015625,-0.190185546875
0.1055,-2.672607421875,4.974853515625,-1.591552734375
0.106,-1.431396484375,5.255126953125,-3.072998046875
0.1065,-0.630615234375,5.535400390625,-4.154052734375
0.107,0.130126953125,5.815673828125,-5.114990234375
0.1075,1.091064453125,5.415283203125,-5.715576171875
0.108,2.372314453125,4.334228515625,-6.075927734375
0.1085,3.693603515625,3.052978515625,-6.356201171875
0.109,4.654541015625,1.771728515625,-6.396240234375
0.1095,5.255126953125,1.010986328125,-6.476318359375
0.11,5.415283203125,0.290283203125,-6.276123046875
0.1105,5.255126953125,-0.630615234375,-5.475341796875
0.111,4.974853515625,-1.871826171875,-4.314208984375
0.1115,4.854736328125,-3.313232421875,-2.992919921875
0.112,4.734619140625,-4.394287109375,-1.951904296875
0.1125,4.614501953125,-5.275146484375,-1.191162109375
0.113,3.973876953125,-5.635498046875,-0.390380859375
0.1135,2.812744140625,-5.755615234375,0.890869140625
0.114,1.531494140625,-5.955810546875,2.412353515625
0.1145,0.370361328125,-6.156005859375,3.813720703125
0.115,-0.430419921875,-6.476318359375,4.814697265625
0.1155,-1.151123046875,-6.516357421875,5.615478515625
0.116,-2.192138671875,-5.755615234375,6.095947265625
0.1165,-3.553466796875,-4.474365234375,6.376220703125
0.117,-4.874755859375,-3.032958984375,6.536376953125
0.1175,-5.635498046875,-1.871826171875,6.456298828125
0.118,-6.115966796875,-1.151123046875,6.456298828125
0.1185,-5.995849609375,-0.350341796875,5.935791015625
0.119,-5.635498046875,0.810791015625,4.814697265625
0.1195,-5.475341796875,2.172119140625,3.533447265625
0.12,-5.275146484375,3.533447265625,2.212158203125
0.1205,-5.114990234375,4.494384765625,1.251220703125
0.121,-4.794677734375,5.094970703125,0.490478515625
0.1215,-3.953857421875,5.255126953125,-0.590576171875
0.122,-2.552490234375,5.415283203125,-1.951904296875
0.1225,-1.151123046875,5.655517578125,-3.593505859375
0.123,-0.150146484375,5.735595703125,-4.754638671875
0.1235,0.610595703125,6.055908203125,-5.715576171875
0.124,1.491455078125,5.735595703125,-6.356201171875
0.1245,2.732666015625,4.534423828125,-6.676513671875
0.125,4.134033203125,3.133056640625,-6.876708984375
0.1255,5.255126953125,1.611572265625,-6.876708984375
0.126,5.855712890625,0.610595703125,-6.756591796875
0.1265,6.055908203125,-0.230224609375,-6.556396484375
0.127,5.775634765625,-1.111083984375,-5.755615234375
0.1275,5.415283203125,-2.352294921875,-4.394287109375
0.128,5.135009765625,-3.833740234375,-2.872802734375
0.1285,4.934814453125,-5.074951171875,-1.671630859375
0.129,4.654541015625,-5.875732421875,-0.830810546875
0.1295,4.053955078125,-6.276123046875,0.050048828125
0.13,2.932861328125,-6.276123046875,1.211181640625
0.1305,1.411376953125,-6.396240234375,2.812744140625
0.131,0.010009765625,-6.436279296875,4.334228515625
0.1315,-0.950927734375,-6.596435546875,5.335205078125
0.132,-1.591552734375,-6.716552734375,6.176025390625
0.1325,-2.552490234375,-5.995849609375,6.656494140625
0.133,-3.913818359375,-4.594482421875,6.816650390625
0.1335,-5.235107421875,-3.153076171875,6.936767578125
0.134,-6.115966796875,-1.711669921875,6.776611328125
0.1345,-6.516357421875,-0.830810546875,6.696533203125
0.135,-6.476318359375,0.010009765625,6.216064453125
0.1355,-6.115966796875,0.970947265625,5.175048828125
0.136,-5.715576171875,2.292236328125,3.693603515625
0.1365,-5.435302734375,3.773681640625,2.212158203125
0.137,-5.155029296875,4.774658203125,1.091064453125
0.1375,-4.914794921875,5.415283203125,0.290283203125
0.138,-4.114013671875,5.695556640625,-0.630615234375
0.1385,-2.752685546875,5.695556640625,-1.911865234375
0.139,-1.231201171875,5.815673828125,-3.553466796875
0.1395,0.130126953125,5.895751953125,-4.874755859375
0.14,0.810791015625,6.055908203125,-5.795654296875
0.1405,1.491455078125,5.935791015625,-6.516357421875
0.141,2.572509765625,5.054931640625,-6.876708984375
0.1415,3.973876953125,3.533447265625,-7.036865234375
0.142,5.255126953125,1.971923828125,-7.076904296875
0.1425,5.935791015625,0.770751953125,-6.916748046875
0.143,6.256103515625,0.010009765625,-6.836669921875
0.1435,6.095947265625,-0.910888671875,-6.196044921875
0.144,5.695556640625,-1.951904296875,-4.994873046875
0.1445,5.295166015625,-3.393310546875,-3.473388671875
0.145,5.054931640625,-4.794677734375,-2.031982421875
0.1455,4.734619140625,-5.715576171875,-1.031005859375
0.146,4.374267578125,-6.276123046875,-0.270263671875
0.1465,3.453369140625,-6.396240234375,0.770751953125
0.147,1.931884765625,-6.396240234375,2.212158203125
0.1475,0.450439453125,-6.516357421875,3.853759765625
0.148,-0.670654296875,-6.556396484375,5.014892578125
0.1485,-1.311279296875,-6.756591796875,5.895751953125
0.149,-2.112060546875,-6.396240234375,6.536376953125
0.1495,-3.313232421875,-5.275146484375,6.736572265625
0.15,-4.674560546875,-3.793701171875,6.896728515625
0.1505,-5.795654296875,-2.272216796875,6.896728515625
0.151,-6.396240234375,-1.231201171875,6.736572265625
0.1515,-6.556396484375,-0.510498046875,6.536376953125
0.152,-6.276123046875,0.450439453125,5.735595703125
0.1525,-5.835693359375,1.571533203125,4.414306640625
0.153,-5.595458984375,3.052978515625,2.932861328125
0.1535,-5.315185546875,4.254150390625,1.571533203125
0.154,-5.074951171875,5.135009765625,0.730712890625
0.1545,-4.514404296875,5.615478515625,0.010009765625
0.155,-3.473388671875,5.655517578125,-1.231201171875
0.1555,-1.951904296875,5.735595703125,-2.752685546875
0.156,-0.510498046875,5.855712890625,-4.314208984375
0.1565,0.450439453125,6.015869140625,-5.395263671875
0.157,1.091064453125,6.176025390625,-6.276123046875
0.1575,2.052001953125,5.575439453125,-6.716552734375
0.158,3.373291015625,4.214111328125,-6.956787109375
0.1585,4.734619140625,2.692626953125,-7.076904296875
0.159,5.655517578125,1.291259765625,-6.996826171875
0.1595,6.176025390625,0.330322265625,-6.916748046875
0.16,6.216064453125,-0.510498046875,-6.556396484375
0.1605,5.895751953125,-1.511474609375,-5.595458984375
0.161,5.495361328125,-2.872802734375,-4.114013671875
0.1615,5.215087890625,-4.354248046875,-2.592529296875
0.162,4.934814453125,-5.395263671875,-1.391357421875
0.1625,4.694580078125,-6.156005859375,-0.590576171875
0.163,3.893798828125,-6.396240234375,0.410400390625
0.1635,2.532470703125,-6.436279296875,1.651611328125
0.164,0.970947265625,-6.556396484375,3.413330078125
0.1645,-0.470458984375,-6.596435546875,4.774658203125
0.165,-1.231201171875,-6.716552734375,5.735595703125
0.1655,-1.911865234375,-6.676513671875,6.456298828125
0.166,-2.952880859375,-5.755615234375,6.856689453125
0.1665,-4.394287109375,-4.234130859375,7.016845703125
0.167,-5.635498046875,-2.712646484375,7.056884765625
0.1675,-6.356201171875,-1.391357421875,6.816650390625
0.168,-6.676513671875,-0.630615234375,6.696533203125
0.1685,-6.476318359375,0.250244140625,6.015869140625
0.169,-6.035888671875,1.331298828125,4.774658203125
0.1695,-5.755615234375,2.732666015625,3.293212890625
0.17,-5.395263671875,4.134033203125,1.891845703125
0.1705,-5.114990234375,5.054931640625,0.890869140625
0.171,-4.754638671875,5.615478515625,0.130126953125
0.1715,-3.793701171875,5.735595703125,-0.910888671875
0.172,-2.312255859375,5.735595703125,-2.312255859375
0.1725,-0.790771484375,5.815673828125,-3.953857421875
0.173,0.370361328125,5.855712890625,-5.114990234375
0.1735,0.970947265625,6.055908203125,-6.035888671875
0.174,1.731689453125,5.735595703125,-6.596435546875
0.1745,2.932861328125,4.614501953125,-6.876708984375
0.175,4.254150390625,3.173095703125,-7.036865234375
0.1755,5.375244140625,1.691650390625,-6.956787109375
0.176,5.935791015625,0.610595703125,-6.796630859375
0.1765,6.135986328125,-0.230224609375,-6.676513671875
0.177,5.895751953125,-0.990966796875,-5.915771484375
0.1775,5.415283203125,-2.192138671875,-4.634521484375
0.178,5.135009765625,-3.553466796875,-3.153076171875
0.1785,4.894775390625,-4.754638671875,-1.871826171875
0.179,4.694580078125,-5.635498046875,-0.990966796875
0.1795,4.214111328125,-6.115966796875,-0.270263671875
0.18,3.173095703125,-6.156005859375,0.850830078125
0.1805,1.771728515625,-6.276123046875,2.252197265625
0.181,0.330322265625,-6.356201171875,3.853759765625
0.1815,-0.630615234375,-6.476318359375,4.894775390625
0.182,-1.231201171875,-6.716552734375,5.775634765625
0.1825,-2.072021484375,-6.276123046875,6.296142578125
0.183,-3.313232421875,-5.034912109375,6.536376953125
0.1835,-4.634521484375,-3.633544921875,6.696533203125
0.184,-5.635498046875,-2.272216796875,6.656494140625
0.1845,-6.115966796875,-1.391357421875,6.616455078125
0.185,-6.236083984375,-0.670654296875,6.336181640625
0.1855,-5.955810546875,0.250244140625,5.495361328125
0.186,-5.635498046875,1.451416015625,4.294189453125
0.1865,-5.435302734375,2.892822265625,2.852783203125
0.187,-5.195068359375,3.973876953125,1.771728515625
0.1875,-5.034912109375,4.814697265625,0.970947265625
0.188,-4.434326171875,5.175048828125,0.130126953125
