wavelength,x,y,z
0.0,-4.3192138671875,22.106567382812,-18.092651367188
0.0005,-9.7645263671875,23.347778320312,-14.048706054688
0.001,-13.408081054688,23.748168945312,-10.925659179688
0.0015,-16.771362304688,23.187622070312,-7.0018310546875
0.002,-18.933471679688,22.266723632812,-3.9188232421875
0.0025,-21.175659179688,19.664184570312,0.9659423828125
0.003,-23.217651367188,16.781372070312,5.9307861328125
0.0035,-22.817260742188,12.296997070312,10.134887695312
0.004,-23.698120117188,9.5743408203125,13.818481445312
0.0045,-22.617065429688,6.0509033203125,16.340942382812
0.005,-21.135620117188,1.6466064453125,19.263793945312
0.0055,-18.853393554688,-2.8377685546875,21.345825195312
0.006,-15.650268554688,-8.3231201171875,23.628051757812
0.0065,-11.526245117188,-12.046752929688,23.267700195312
0.007,-8.0828857421875,-15.650268554688,23.347778320312
0.0075,-4.6395263671875,-17.572143554688,21.826293945312
0.008,0.6856689453125,-20.334838867188,19.423950195312
0.0085,5.4102783203125,-22.296752929688,16.701293945312
0.009,10.575317382812,-22.817260742188,12.176879882812
0.0095,13.898559570312,-23.457885742188,9.6544189453125
0.01,17.021606445312,-22.617065429688,5.7305908203125
0.0105,19.343872070312,-21.335815429688,2.1671142578125
0.011,21.265747070312,-18.733276367188,-2.4373779296875
0.0115,23.187622070312,-15.690307617188,-7.5223388671875
0.012,22.627075195312,-11.406127929688,-11.286010742188
0.0125,23.347778320312,-8.6834716796875,-14.849487304688
0.013,21.906372070312,-4.9998779296875,-17.091674804688
0.0135,20.304809570312,-0.2752685546875,-20.254760742188
0.014,17.902465820312,4.2891845703125,-22.296752929688
0.0145,13.898559570312,9.6544189453125,-23.698120117188
0.015,10.655395507812,12.977661132812,-23.738159179688
0.0155,6.6915283203125,16.501098632812,-23.217651367188
0.016,2.6876220703125,18.503051757812,-21.255737304688
0.0165,-2.3572998046875,21.065551757812,-19.013549804688
0.017,-7.5223388671875,22.907348632812,-15.850463867188
0.0175,-12.086791992188,22.987426757812,-11.366088867188
0.018,-15.289916992188,23.668090820312,-9.0037841796875
0.0185,-18.172729492188,22.266723632812,-4.7196044921875
0.019,-20.575073242188,20.665161132812,-0.6756591796875
0.0195,-22.096557617188,17.742309570312,3.8487548828125
0.02,-23.658081054688,14.058715820312,9.0938720703125
0.0205,-23.017456054688,10.054809570312,12.577270507812
0.021,-23.417846679688,7.0118408203125,16.100708007812
0.0215,-21.495971679688,3.0479736328125,18.222778320312
0.022,-19.894409179688,-1.8768310546875,21.425903320312
0.0225,-16.891479492188,-6.6014404296875,23.147583007812
0.023,-12.367065429688,-11.726440429688,23.748168945312
0.0235,-9.5242919921875,-14.769409179688,23.948364257812
0.024,-4.8397216796875,-18.092651367188,22.546997070312
0.0245,-0.4754638671875,-20.174682617188,20.224731445312
0.025,4.3292236328125,-22.376831054688,17.862426757812
0.0255,9.9346923828125,-23.818237304688,13.898559570312
0.026,13.898559570312,-23.377807617188,9.6143798828125
0.0265,17.141723632812,-24.058471679688,7.0518798828125
0.027,19.784301757812,-21.936401367188,2.3272705078125
0.0275,22.266723632812,-19.974487304688,-2.1971435546875
0.028,23.107543945312,-16.651245117188,-6.4412841796875
0.0285,24.348754882812,-12.807495117188,-11.566284179688
0.029,23.628051757812,-9.0438232421875,-14.729370117188
0.0295,23.387817382812,-5.3602294921875,-18.252807617188
0.03,20.905395507812,-0.9158935546875,-20.214721679688
0.0305,19.223754882812,3.9688720703125,-23.377807617188
0.031,15.259887695312,9.0137939453125,-24.378784179688
0.0315,10.815551757812,13.618286132812,-24.498901367188
0.032,8.0528564453125,16.461059570312,-24.619018554688
0.0325,2.6075439453125,19.584106445312,-22.336791992188
0.033,-2.1571044921875,21.746215820312,-19.854370117188
0.0335,-6.8416748046875,23.507934570312,-17.011596679688
0.034,-12.246948242188,24.629028320312,-12.847534179688
0.0345,-15.690307617188,23.748168945312,-8.6834716796875
0.035,-18.893432617188,24.028442382812,-5.8006591796875
0.0355,-21.135620117188,21.385864257812,-0.8358154296875
0.036,-23.658081054688,19.143676757812,3.9688720703125
0.0365,-23.778198242188,15.019653320312,8.3331298828125
0.037,-24.699096679688,11.175903320312,13.137817382812
0.0375,-23.978393554688,7.7325439453125,15.940551757812
0.038,-23.017456054688,3.4483642578125,19.343872070312
0.0385,-20.414916992188,-1.2362060546875,21.345825195312
0.039,-18.493041992188,-6.0809326171875,24.228637695312
0.0395,-13.848510742188,-11.045776367188,24.629028320312
0.04,-9.5643310546875,-15.209838867188,24.348754882812
0.0405,-6.7615966796875,-17.852416992188,24.188598632812
0.041,-0.9559326171875,-20.775268554688,21.265747070312
0.0415,3.8487548828125,-22.897338867188,18.903442382812
0.042,8.8536376953125,-23.898315429688,15.019653320312
0.0425,13.578247070312,-24.979370117188,11.456176757812
0.043,16.901489257812,-23.978393554688,7.1719970703125
0.0435,19.944458007812,-23.658081054688,3.8887939453125
0.044,22.066528320312,-20.775268554688,-1.1561279296875
0.0445,24.428833007812,-18.332885742188,-6.0408935546875
0.045,24.148559570312,-13.808471679688,-10.325073242188
0.0455,24.709106445312,-10.124877929688,-14.729370117188
0.046,24.068481445312,-7.0018310546875,-17.291870117188
0.0465,22.346801757812,-1.9569091796875,-20.655151367188
0.047,19.784301757812,2.8077392578125,-22.737182617188
0.0475,16.981567382812,7.9727783203125,-25.099487304688
0.048,12.617309570312,12.537231445312,-25.259643554688
0.0485,8.2930908203125,16.300903320312,-24.659057617188
0.049,5.1300048828125,18.783325195312,-24.058471679688
0.0495,-0.9959716796875,21.626098632812,-20.855346679688
0.05,-5.8406982421875,24.028442382812,-18.493041992188
0.0505,-11.045776367188,24.268676757812,-13.608276367188
0.051,-15.049682617188,25.189575195312,-10.725463867188
0.0515,-18.172729492188,24.068481445312,-6.5614013671875
0.052,-21.015502929688,23.027465820312,-2.6375732421875
0.0525,-22.897338867188,19.904418945312,2.4874267578125
0.053,-25.059448242188,16.941528320312,7.6524658203125
0.0535,-24.418823242188,12.216918945312,11.816528320312
0.054,-24.779174804688,8.6534423828125,15.820434570312
0.0545,-23.978393554688,5.5303955078125,18.142700195312
0.055,-21.736206054688,0.0450439453125,21.465942382812
0.0555,-19.213745117188,-4.7196044921875,23.668090820312
0.056,-15.209838867188,-10.204956054688,25.069458007812
0.0565,-11.526245117188,-14.168823242188,25.309692382812
0.057,-7.0418701171875,-17.692260742188,24.308715820312
0.0575,-3.2781982421875,-19.934448242188,22.867309570312
0.058,2.4473876953125,-22.456909179688,19.784301757812
0.0585,7.7325439453125,-24.859252929688,17.061645507812
0.059,12.657348632812,-24.378784179688,11.736450195312
0.0595,16.340942382812,-25.179565429688,9.0137939453125
0.06,19.223754882812,-23.858276367188,4.8897705078125
0.0605,21.986450195312,-22.296752929688,0.4854736328125
0.061,23.668090820312,-19.093627929688,-4.5194091796875
0.0615,25.389770507812,-15.610229492188,-9.7645263671875
0.062,24.669067382812,-11.245971679688,-13.488159179688
0.0625,24.629028320312,-7.5623779296875,-17.251831054688
0.063,23.307739257812,-4.1590576171875,-19.333862304688
0.0635,20.985473632812,1.4864501953125,-22.577026367188
0.064,18.302856445312,6.4913330078125,-24.939331054688
0.0645,13.378051757812,11.776489257812,-25.259643554688
0.065,10.415161132812,15.179809570312,-25.740112304688
0.0655,5.6505126953125,18.543090820312,-24.338745117188
0.066,1.2862548828125,20.945434570312,-22.296752929688
0.0665,-4.0389404296875,23.187622070312,-19.373901367188
0.067,-9.8846435546875,25.469848632812,-16.010620117188
0.0675,-14.128784179688,24.629028320312,-10.965698242188
0.068,-17.652221679688,25.189575195312,-8.2030029296875
0.0685,-20.174682617188,23.507934570312,-3.9989013671875
0.069,-22.937377929688,21.505981445312,0.8858642578125
0.0695,-24.298706054688,17.982543945312,5.7706298828125
0.07,-25.499877929688,13.818481445312,11.215942382812
0.0705,-24.939331054688,10.054809570312,14.539184570312
0.071,-24.498901367188,6.0909423828125,18.182739257812
0.0715,-22.777221679688,2.2471923828125,20.184692382812
0.072,-20.494995117188,-3.1180419921875,23.307739257812
0.0725,-17.251831054688,-8.6434326171875,25.469848632812
0.073,-11.966674804688,-13.488159179688,25.029418945312
0.0735,-9.3641357421875,-16.651245117188,25.549926757812
0.074,-4.1590576171875,-19.654174804688,23.427856445312
0.0745,0.7257080078125,-22.136596679688,21.185668945312
0.075,5.6505126953125,-23.898315429688,18.182739257812
0.0755,11.776489257812,-25.780151367188,14.018676757812
0.076,15.380004882812,-24.739135742188,9.4542236328125
0.0765,19.023559570312,-25.139526367188,6.3311767578125
0.077,21.305786132812,-22.897338867188,1.8468017578125
0.0775,24.028442382812,-20.695190429688,-3.1981201171875
0.078,24.949340820312,-16.931518554688,-8.0028076171875
0.0785,25.630004882812,-12.527221679688,-13.167846679688
0.079,25.189575195312,-9.2039794921875,-16.130737304688
0.0795,24.108520507812,-4.6395263671875,-19.694213867188
0.08,21.866333007812,-0.2752685546875,-21.816284179688
0.0805,19.584106445312,4.8096923828125,-24.619018554688
0.081,15.580200195312,10.495239257812,-26.260620117188
0.0815,10.495239257812,14.779418945312,-25.459838867188
0.082,7.8526611328125,17.862426757812,-25.780151367188
0.0825,2.2071533203125,20.665161132812,-22.977416992188
0.083,-2.9578857421875,23.347778320312,-20.615112304688
0.0835,-7.7225341796875,24.548950195312,-17.171752929688
0.084,-13.608276367188,26.030395507812,-12.927612304688
0.0845,-16.651245117188,24.829223632812,-8.7635498046875
0.085,-20.214721679688,24.669067382812,-5.1600341796875
0.0855,-22.096557617188,22.066528320312,-0.6356201171875
0.086,-24.699096679688,19.544067382812,4.6094970703125
0.0865,-25.099487304688,15.219848632812,9.4141845703125
0.087,-25.339721679688,10.855590820312,14.178833007812
0.0875,-25.139526367188,7.9727783203125,16.861450195312
0.088,-23.377807617188,2.8878173828125,20.184692382812
0.0885,-21.175659179688,-1.6365966796875,22.426879882812
0.089,-18.653198242188,-6.4813232421875,24.789184570312
0.0895,-14.168823242188,-12.166870117188,25.910278320312
0.09,-9.4041748046875,-15.770385742188,24.829223632812
0.0905,-6.4012451171875,-18.733276367188,24.829223632812
0.091,-0.7957763671875,-21.135620117188,21.626098632812
0.0915,4.2091064453125,-23.778198242188,19.423950195312
0.092,9.2139892578125,-24.378784179688,15.059692382812
0.0925,14.379028320312,-25.579956054688,11.255981445312
0.093,17.261840820312,-24.619018554688,7.5323486328125
0.0935,20.625122070312,-23.778198242188,3.3282470703125
0.094,22.466918945312,-21.135620117188,-1.2362060546875
0.0945,24.749145507812,-18.533081054688,-6.1209716796875
0.095,24.989379882812,-14.088745117188,-10.885620117188
0.0955,24.829223632812,-9.8045654296875,-15.129760742188
0.096,24.709106445312,-7.2020263671875,-17.652221679688
0.0965,22.266723632812,-1.7967529296875,-20.775268554688
0.097,20.344848632812,2.7677001953125,-23.257690429688
0.0975,16.941528320312,7.7725830078125,-24.899291992188
0.098,12.897583007812,12.857543945312,-25.900268554688
0.0985,8.3731689453125,16.180786132812,-24.699096679688
0.099,4.8096923828125,19.183715820312,-24.058471679688
0.0995,-0.7957763671875,21.425903320312,-20.815307617188
0.1,-5.7606201171875,24.188598632812,-18.773315429688
0.1005,-10.885620117188,24.228637695312,-13.768432617188
0.101,-15.209838867188,25.069458007812,-10.405151367188
0.1015,-17.852416992188,24.348754882812,-7.2020263671875
0.102,-20.975463867188,22.747192382812,-2.4373779296875
0.1025,-22.777221679688,19.984497070312,2.2471923828125
0.103,-24.538940429688,16.901489257812,7.1719970703125
0.1035,-24.779174804688,12.657348632812,11.736450195312
0.104,-24.298706054688,8.4532470703125,15.500122070312
0.1045,-24.058471679688,5.7706298828125,17.942504882812
0.105,-21.335815429688,0.2052001953125,20.825317382812
0.1055,-19.614135742188,-4.3992919921875,23.668090820312
0.106,-15.089721679688,-9.5242919921875,24.308715820312
0.1065,-11.686401367188,-13.968627929688,25.309692382812
0.107,-7.5223388671875,-16.971557617188,24.068481445312
0.1075,-3.1981201171875,-19.734252929688,22.627075195312
0.108,2.0069580078125,-21.816284179688,19.584106445312
0.1085,7.2120361328125,-24.378784179688,17.101684570312
0.109,12.016723632812,-24.138549804688,12.096801757812
0.1095,15.980590820312,-24.619018554688,8.7335205078125
0.11,18.422973632812,-23.978393554688,5.7706298828125
0.1105,21.465942382812,-21.856323242188,0.6055908203125
0.111,23.307739257812,-19.093627929688,-4.1590576171875
0.1115,24.388793945312,-15.369995117188,-9.0438232421875
0.112,24.829223632812,-11.766479492188,-13.127807617188
0.1125,23.988403320312,-7.6024169921875,-16.611206054688
0.113,23.187622070312,-4.4393310546875,-19.053588867188
0.1135,20.545043945312,1.1260986328125,-21.896362304688
0.114,18.583129882812,6.2510986328125,-24.979370117188
0.1145,13.297973632812,11.135864257812,-24.498901367188
0.115,10.415161132812,15.019653320312,-25.499877929688
0.1155,6.2510986328125,17.782348632812,-24.098510742188
0.116,1.2061767578125,20.745239257812,-22.056518554688
0.1165,-3.8387451171875,22.667114257812,-19.093627929688
0.117,-9.5643310546875,24.949340820312,-15.730346679688
0.1175,-13.608276367188,24.548950195312,-11.406127929688
0.118,-17.331909179688,24.629028320312,-7.8426513671875
0.1185,-19.494018554688,23.547973632812,-4.6795654296875
0.119,-22.456909179688,21.105590820312,0.7657470703125
0.1195,-24.218627929688,17.942504882812,5.7706298828125
0.12,-24.659057617188,13.418090820312,10.815551757812
0.1205,-25.139526367188,10.375122070312,14.379028320312
0.121,-23.978393554688,6.0108642578125,17.622192382812
0.1215,-22.577026367188,2.2471923828125,20.024536132812
0.122,-19.974487304688,-3.0780029296875,22.747192382812
0.1225,-17.251831054688,-8.6834716796875,25.589965820312
0.123,-11.806518554688,-13.127807617188,24.548950195312
0.1235,-9.0037841796875,-16.611206054688,25.269653320312
0.124,-4.5994873046875,-18.973510742188,23.227661132812
0.1245,0.8458251953125,-21.936401367188,20.865356445312
0.125,5.7305908203125,-23.578002929688,17.742309570312
0.1255,11.656372070312,-25.139526367188,13.458129882812
0.126,15.019653320312,-24.739135742188,9.8546142578125
0.1265,18.703247070312,-24.418823242188,5.8907470703125
0.127,20.625122070312,-22.737182617188,2.2872314453125
0.1275,23.307739257812,-20.134643554688,-3.0780029296875
0.128,24.949340820312,-16.771362304688,-8.1629638671875
0.1285,24.629028320312,-11.966674804688,-12.727416992188
0.129,25.109497070312,-9.4442138671875,-15.890502929688
0.1295,23.387817382812,-4.8397216796875,-18.813354492188
0.13,21.626098632812,-0.3953857421875,-21.415893554688
0.1305,18.943481445312,4.6094970703125,-23.698120117188
0.131,15.339965820312,10.415161132812,-25.900268554688
0.1315,10.535278320312,14.098754882812,-24.699096679688
0.132,7.4122314453125,17.542114257812,-25.019409179688
0.1325,2.9278564453125,19.504028320312,-22.496948242188
0.133,-2.5975341796875,22.506958007812,-20.174682617188
0.1335,-7.5623779296875,23.908325195312,-16.691284179688
0.134,-13.007690429688,24.829223632812,-12.246948242188
0.1345,-15.890502929688,24.629028320312,-9.3641357421875
0.135,-19.213745117188,23.668090820312,-5.0799560546875
0.1355,-21.015502929688,21.746215820312,-1.3563232421875
0.136,-23.257690429688,18.943481445312,3.7686767578125
0.1365,-24.659057617188,15.099731445312,9.0538330078125
0.137,-23.978393554688,10.455200195312,13.097778320312
0.1375,-24.498901367188,8.1329345703125,16.060668945312
0.138,-22.456909179688,3.6485595703125,18.543090820312
0.1385,-20.815307617188,-0.9959716796875,21.465942382812
0.139,-17.972534179688,-5.7205810546875,23.347778320312
0.1395,-13.808471679688,-11.366088867188,24.829223632812
0.14,-9.8846435546875,-14.489135742188,24.028442382812
0.1405,-6.2410888671875,-17.812377929688,23.668090820312
0.141,-1.9168701171875,-19.494018554688,21.065551757812
0.1415,3.2481689453125,-22.336791992188,18.903442382812
0.142,8.5733642578125,-23.537963867188,14.899536132812
0.1425,13.217895507812,-23.898315429688,10.735473632812
0.143,15.980590820312,-24.178588867188,8.2930908203125
0.1435,18.983520507812,-22.577026367188,3.7686767578125
0.144,21.105590820312,-20.655151367188,-0.3153076171875
0.1445,22.867309570312,-17.932495117188,-4.8797607421875
0.145,24.188598632812,-14.168823242188,-10.124877929688
0.1455,23.347778320312,-9.9246826171875,-13.608276367188
0.146,23.748168945312,-7.2821044921875,-16.651245117188
0.1465,21.385864257812,-2.7176513671875,-18.853393554688
0.147,19.864379882812,2.0069580078125,-22.056518554688
0.1475,16.461059570312,6.8917236328125,-23.417846679688
0.148,12.337036132812,12.016723632812,-24.458862304688
0.1485,9.1339111328125,14.859497070312,-24.058471679688
0.149,4.7296142578125,18.022583007812,-22.817260742188
0.1495,0.2452392578125,19.944458007812,-20.334838867188
0.15,-4.6395263671875,22.546997070312,-18.212768554688
0.1505,-10.124877929688,23.628051757812,-13.928588867188
0.151,-14.048706054688,23.507934570312,-9.9647216796875
0.1515,-16.811401367188,23.948364257812,-7.7625732421875
0.152,-19.494018554688,21.746215820312,-2.8778076171875
0.1525,-21.776245117188,19.584106445312,1.5665283203125
0.153,-22.857299804688,16.300903320312,6.0509033203125
0.1535,-24.098510742188,12.537231445312,11.055786132812
0.154,-23.257690429688,8.6534423828125,14.218872070312
0.1545,-23.137573242188,5.5303955078125,17.341918945312
0.155,-20.695190429688,0.9259033203125,19.504028320312
0.1555,-19.253784179688,-3.8787841796875,22.827270507812
0.156,-14.809448242188,-8.9637451171875,23.467895507812
0.1565,-11.045776367188,-13.448120117188,24.108520507812
0.157,-8.0428466796875,-16.130737304688,23.828247070312
0.1575,-2.9178466796875,-19.093627929688,21.666137695312
0.158,1.6466064453125,-21.055541992188,19.183715820312
0.1585,6.6514892578125,-23.097534179688,16.340942382812
0.159,11.736450195312,-24.018432617188,12.296997070312
0.1595,15.339965820312,-23.417846679688,8.2130126953125
0.16,18.022583007812,-23.578002929688,5.7305908203125
0.1605,20.545043945312,-21.095581054688,0.6456298828125
0.161,22.907348632812,-18.853393554688,-4.1190185546875
0.1615,23.307739257812,-14.809448242188,-8.5233154296875
0.162,24.308715820312,-11.286010742188,-13.087768554688
0.1625,23.347778320312,-7.7225341796875,-15.770385742188
0.163,22.426879882812,-3.7186279296875,-18.893432617188
0.1635,19.864379882812,1.0059814453125,-21.015502929688
0.164,17.942504882812,6.0509033203125,-24.098510742188
0.1645,13.177856445312,10.815551757812,-24.058471679688
0.165,9.4141845703125,14.779418945312,-24.298706054688
0.1655,6.6114501953125,17.141723632812,-23.778198242188
0.166,0.8858642578125,20.064575195312,-21.055541992188
0.1665,-3.8387451171875,22.146606445312,-18.573120117188
0.167,-9.0438232421875,23.427856445312,-14.769409179688
0.1675,-13.287963867188,24.308715820312,-11.526245117188
0.168,-16.531127929688,23.387817382812,-7.4022216796875
0.1685,-18.973510742188,22.827270507812,-4.4393310546875
0.169,-21.255737304688,20.064575195312,0.6055908203125
0.1695,-23.537963867188,17.421997070312,5.4903564453125
0.17,-23.217651367188,12.937622070312,9.8546142578125
0.1705,-24.058471679688,9.7745361328125,13.938598632812
0.171,-23.137573242188,6.5714111328125,16.300903320312
0.1715,-21.536010742188,1.9669189453125,19.263793945312
0.172,-19.213745117188,-2.4774169921875,21.385864257812
0.1725,-16.370971679688,-7.7625732421875,23.788208007812
0.173,-12.126831054688,-12.006713867188,23.788208007812
0.1735,-8.2830810546875,-15.570190429688,23.427856445312
0.174,-5.3201904296875,-17.572143554688,22.546997070312
0.1745,0.3253173828125,-20.254760742188,19.704223632812
0.175,5.0098876953125,-22.456909179688,17.301879882812
0.1755,10.214965820312,-22.937377929688,12.697387695312
0.176,13.778442382812,-23.898315429688,10.214965820312
0.1765,16.821411132812,-23.017456054688,6.2911376953125
0.177,19.223754882812,-21.816284179688,2.7276611328125
0.1775,21.265747070312,-19.213745117188,-2.0369873046875
0.178,23.387817382812,-16.370971679688,-6.9617919921875
