wavelength,x,y,z
0.0,-1.951904296875,5.935791015625,-2.952880859375
0.0005,-0.630615234375,6.055908203125,-4.354248046875
0.001,0.450439453125,6.015869140625,-5.315185546875
0.0015,1.131103515625,5.935791015625,-6.115966796875
0.002,2.172119140625,5.215087890625,-6.516357421875
0.0025,3.493408203125,3.973876953125,-6.796630859375
0.003,4.734619140625,2.692626953125,-7.116943359375
0.0035,5.575439453125,1.451416015625,-7.076904296875
0.004,6.015869140625,0.370361328125,-6.756591796875
0.0045,6.015869140625,-0.630615234375,-6.236083984375
0.005,5.815673828125,-1.631591796875,-5.315185546875
0.0055,5.575439453125,-3.032958984375,-3.993896484375
0.006,5.295166015625,-4.274169921875,-2.712646484375
0.0065,4.934814453125,-5.235107421875,-1.551513671875
0.007,4.494384765625,-5.915771484375,-0.630615234375
0.0075,3.653564453125,-6.236083984375,0.490478515625
0.008,2.452392578125,-6.276123046875,1.611572265625
0.0085,1.131103515625,-6.596435546875,3.173095703125
0.009,-0.190185546875,-6.636474609375,4.454345703125
0.0095,-0.990966796875,-6.596435546875,5.255126953125
0.01,-1.671630859375,-6.396240234375,5.895751953125
0.0105,-2.752685546875,-5.515380859375,6.296142578125
0.011,-4.033935546875,-4.314208984375,6.616455078125
0.0115,-5.114990234375,-3.113037109375,6.776611328125
0.012,-5.755615234375,-1.951904296875,6.616455078125
0.0125,-6.115966796875,-1.031005859375,6.376220703125
0.013,-6.035888671875,0.010009765625,5.735595703125
0.0135,-5.795654296875,0.970947265625,4.814697265625
0.014,-5.715576171875,2.252197265625,3.693603515625
0.0145,-5.435302734375,3.453369140625,2.532470703125
0.015,-5.114990234375,4.334228515625,1.451416015625
0.0155,-4.674560546875,4.974853515625,0.570556640625
0.016,-3.833740234375,5.255126953125,-0.510498046875
0.0165,-2.712646484375,5.415283203125,-1.751708984375
0.017,-1.591552734375,5.735595703125,-3.153076171875
0.0175,-0.510498046875,5.735595703125,-4.354248046875
0.018,0.330322265625,5.895751953125,-5.155029296875
0.0185,1.211181640625,5.615478515625,-5.755615234375
0.019,2.252197265625,4.774658203125,-6.236083984375
0.0195,3.653564453125,3.573486328125,-6.676513671875
0.02,4.614501953125,2.412353515625,-6.796630859375
0.0205,5.255126953125,1.291259765625,-6.636474609375
0.021,5.575439453125,0.450439453125,-6.396240234375
0.0215,5.575439453125,-0.630615234375,-5.755615234375
0.022,5.375244140625,-1.711669921875,-4.754638671875
0.0225,5.295166015625,-2.992919921875,-3.713623046875
0.023,5.094970703125,-4.154052734375,-2.512451171875
0.0235,4.774658203125,-5.074951171875,-1.551513671875
0.024,4.214111328125,-5.595458984375,-0.630615234375
0.0245,3.293212890625,-5.835693359375,0.490478515625
0.025,2.092041015625,-6.156005859375,1.931884765625
0.0255,0.890869140625,-6.396240234375,3.253173828125
0.026,-0.150146484375,-6.356201171875,4.334228515625
0.0265,-0.830810546875,-6.476318359375,5.135009765625
0.027,-1.791748046875,-5.915771484375,5.655517578125
0.0275,-2.952880859375,-4.914794921875,6.015869140625
0.028,-4.194091796875,-3.833740234375,6.416259765625
0.0285,-5.114990234375,-2.672607421875,6.456298828125
0.029,-5.635498046875,-1.711669921875,6.336181640625
0.0295,-5.755615234375,-0.830810546875,5.975830078125
0.03,-5.715576171875,0.170166015625,5.255126953125
0.0305,-5.515380859375,1.331298828125,4.214111328125
0.031,-5.435302734375,2.532470703125,3.173095703125
0.0315,-5.155029296875,3.573486328125,2.052001953125
0.032,-4.834716796875,4.374267578125,1.131103515625
0.0325,-4.194091796875,4.814697265625,0.290283203125
0.033,-3.233154296875,4.974853515625,-0.870849609375
0.0335,-2.232177734375,5.335205078125,-2.272216796875
0.034,-1.111083984375,5.535400390625,-3.553466796875
0.0345,-0.270263671875,5.655517578125,-4.474365234375
0.035,0.530517578125,5.615478515625,-5.195068359375
0.0355,1.531494140625,4.974853515625,-5.715576171875
0.036,2.732666015625,3.973876953125,-6.115966796875
0.0365,3.853759765625,2.932861328125,-6.436279296875
0.037,4.614501953125,1.851806640625,-6.396240234375
0.0375,5.094970703125,0.970947265625,-6.316162109375
0.038,5.215087890625,0.130126953125,-5.835693359375
0.0385,5.094970703125,-0.910888671875,-5.114990234375
0.039,5.094970703125,-2.072021484375,-4.154052734375
0.0395,4.934814453125,-3.273193359375,-3.153076171875
0.04,4.654541015625,-4.194091796875,-2.112060546875
0.0405,4.374267578125,-4.994873046875,-1.311279296875
0.041,3.693603515625,-5.355224609375,-0.350341796875
0.0415,2.692626953125,-5.635498046875,0.850830078125
0.042,1.651611328125,-5.955810546875,2.212158203125
0.0425,0.690673828125,-6.075927734375,3.333251953125
0.043,-0.150146484375,-6.276123046875,4.254150390625
0.0435,-0.950927734375,-6.115966796875,4.934814453125
0.044,-1.951904296875,-5.435302734375,5.375244140625
0.0445,-3.153076171875,-4.514404296875,5.895751953125
0.045,-4.154052734375,-3.513427734375,6.095947265625
0.0455,-4.874755859375,-2.472412109375,6.095947265625
0.046,-5.235107421875,-1.671630859375,5.975830078125
0.0465,-5.355224609375,-0.790771484375,5.495361328125
0.047,-5.275146484375,0.250244140625,4.734619140625
0.0475,-5.275146484375,1.411376953125,3.853759765625
0.048,-5.155029296875,2.492431640625,2.892822265625
0.0485,-4.954833984375,3.373291015625,1.971923828125
0.049,-4.594482421875,3.973876953125,1.171142578125
0.0495,-3.953857421875,4.414306640625,0.250244140625
0.05,-3.032958984375,4.814697265625,-1.031005859375
0.0505,-2.072021484375,5.175048828125,-2.272216796875
0.051,-1.151123046875,5.375244140625,-3.353271484375
0.0515,-0.510498046875,5.575439453125,-4.234130859375
0.052,0.530517578125,5.255126953125,-4.874755859375
0.0525,1.571533203125,4.534423828125,-5.395263671875
0.053,2.812744140625,3.653564453125,-5.915771484375
0.0535,3.733642578125,2.692626953125,-6.115966796875
0.054,4.414306640625,1.731689453125,-6.115966796875
0.0545,4.774658203125,0.970947265625,-5.955810546875
0.055,4.814697265625,0.130126953125,-5.475341796875
0.0555,4.854736328125,-1.031005859375,-4.714599609375
0.056,4.854736328125,-2.152099609375,-3.873779296875
0.0565,4.734619140625,-3.193115234375,-2.912841796875
0.057,4.534423828125,-4.073974609375,-2.112060546875
0.0575,4.093994140625,-4.674560546875,-1.231201171875
0.058,3.333251953125,-4.994873046875,-0.270263671875
0.0585,2.492431640625,-5.475341796875,1.131103515625
0.059,1.531494140625,-5.755615234375,2.292236328125
0.0595,0.730712890625,-5.995849609375,3.333251953125
0.06,0.010009765625,-6.115966796875,4.134033203125
0.0605,-0.990966796875,-5.755615234375,4.774658203125
0.061,-2.192138671875,-4.994873046875,5.295166015625
0.0615,-3.233154296875,-4.114013671875,5.735595703125
0.062,-4.114013671875,-3.153076171875,5.855712890625
0.0625,-4.754638671875,-2.312255859375,5.895751953125
0.063,-4.994873046875,-1.471435546875,5.615478515625
0.0635,-5.034912109375,-0.630615234375,5.094970703125
0.064,-5.155029296875,0.570556640625,4.414306640625
0.0645,-5.114990234375,1.651611328125,3.493408203125
0.065,-4.994873046875,2.612548828125,2.572509765625
0.0655,-4.834716796875,3.453369140625,1.771728515625
0.066,-4.314208984375,4.053955078125,0.890869140625
0.0665,-3.473388671875,4.454345703125,-0.310302734375
0.067,-2.672607421875,4.974853515625,-1.551513671875
0.0675,-1.711669921875,5.175048828125,-2.672607421875
0.068,-0.990966796875,5.495361328125,-3.713623046875
0.0685,-0.150146484375,5.415283203125,-4.514404296875
0.069,0.970947265625,4.894775390625,-5.074951171875
0.0695,2.252197265625,4.053955078125,-5.635498046875
0.07,3.333251953125,3.052978515625,-5.955810546875
0.0705,4.093994140625,2.092041015625,-6.035888671875
0.071,4.614501953125,1.291259765625,-6.035888671875
0.0715,4.774658203125,0.450439453125,-5.635498046875
0.072,4.774658203125,-0.630615234375,-4.874755859375
0.0725,4.854736328125,-1.831787109375,-4.154052734375
0.073,4.814697265625,-2.952880859375,-3.193115234375
0.0735,4.614501953125,-3.913818359375,-2.272216796875
0.074,4.294189453125,-4.554443359375,-1.431396484375
0.0745,3.573486328125,-4.994873046875,-0.510498046875
0.075,2.692626953125,-5.435302734375,0.850830078125
0.0755,1.691650390625,-5.755615234375,2.172119140625
0.076,0.850830078125,-5.955810546875,3.173095703125
0.0765,0.130126953125,-6.156005859375,4.134033203125
0.077,-0.910888671875,-5.835693359375,4.774658203125
0.0775,-1.991943359375,-5.074951171875,5.255126953125
0.078,-3.193115234375,-4.194091796875,5.775634765625
0.0785,-4.194091796875,-3.193115234375,5.935791015625
0.079,-4.834716796875,-2.272216796875,5.975830078125
0.0795,-5.114990234375,-1.471435546875,5.735595703125
0.08,-5.155029296875,-0.590576171875,5.215087890625
0.0805,-5.155029296875,0.570556640625,4.414306640625
0.081,-5.155029296875,1.731689453125,3.493408203125
0.0815,-5.074951171875,2.732666015625,2.532470703125
0.082,-4.834716796875,3.653564453125,1.691650390625
0.0825,-4.354248046875,4.134033203125,0.810791015625
0.083,-3.513427734375,4.454345703125,-0.310302734375
0.0835,-2.632568359375,4.974853515625,-1.591552734375
0.084,-1.631591796875,5.255126953125,-2.792724609375
0.0845,-0.870849609375,5.455322265625,-3.793701171875
0.085,0.010009765625,5.495361328125,-4.594482421875
0.0855,0.970947265625,5.014892578125,-5.195068359375
0.086,2.252197265625,4.134033203125,-5.715576171875
0.0865,3.333251953125,3.133056640625,-6.115966796875
0.087,4.174072265625,2.092041015625,-6.115966796875
0.0875,4.774658203125,1.251220703125,-6.156005859375
0.088,4.934814453125,0.450439453125,-5.755615234375
0.0885,4.854736328125,-0.670654296875,-5.114990234375
0.089,4.974853515625,-1.871826171875,-4.194091796875
0.0895,4.854736328125,-3.072998046875,-3.233154296875
0.09,4.694580078125,-3.953857421875,-2.272216796875
0.0905,4.414306640625,-4.714599609375,-1.431396484375
0.091,3.733642578125,-5.155029296875,-0.510498046875
0.0915,2.732666015625,-5.435302734375,0.810791015625
0.092,1.771728515625,-5.835693359375,2.172119140625
0.0925,0.770751953125,-6.035888671875,3.253173828125
0.093,0.090087890625,-6.276123046875,4.214111328125
0.0935,-0.870849609375,-6.075927734375,4.934814453125
0.094,-1.951904296875,-5.315185546875,5.415283203125
0.0945,-3.273193359375,-4.354248046875,5.935791015625
0.095,-4.354248046875,-3.233154296875,6.135986328125
0.0955,-4.994873046875,-2.272216796875,6.095947265625
0.096,-5.355224609375,-1.431396484375,5.935791015625
0.0965,-5.435302734375,-0.590576171875,5.415283203125
0.097,-5.275146484375,0.610595703125,4.494384765625
0.0975,-5.355224609375,1.811767578125,3.533447265625
0.098,-5.155029296875,3.012939453125,2.532470703125
0.0985,-4.954833984375,3.893798828125,1.571533203125
0.099,-4.514404296875,4.494384765625,0.690673828125
0.0995,-3.673583984375,4.774658203125,-0.350341796875
0.1,-2.592529296875,5.135009765625,-1.751708984375
0.1005,-1.551513671875,5.455322265625,-3.072998046875
0.101,-0.630615234375,5.575439453125,-4.114013671875
0.1015,0.170166015625,5.695556640625,-4.954833984375
0.102,1.211181640625,5.175048828125,-5.595458984375
0.1025,2.412353515625,4.174072265625,-5.995849609375
0.103,3.733642578125,3.133056640625,-6.476318359375
0.1035,4.614501953125,1.971923828125,-6.516357421875
0.104,5.215087890625,1.010986328125,-6.436279296875
0.1045,5.375244140625,0.130126953125,-6.075927734375
0.105,5.335205078125,-0.990966796875,-5.315185546875
0.1055,5.215087890625,-2.312255859375,-4.194091796875
0.106,5.135009765625,-3.553466796875,-3.072998046875
0.1065,4.854736328125,-4.554443359375,-1.991943359375
0.107,4.534423828125,-5.315185546875,-1.111083984375
0.1075,3.813720703125,-5.715576171875,0.010009765625
0.108,2.652587890625,-5.915771484375,1.211181640625
0.1085,1.411376953125,-6.276123046875,2.732666015625
0.109,0.290283203125,-6.396240234375,4.013916015625
0.1095,-0.590576171875,-6.476318359375,4.934814453125
0.11,-1.351318359375,-6.316162109375,5.615478515625
0.1105,-2.512451171875,-5.435302734375,6.095947265625
0.111,-3.873779296875,-4.194091796875,6.456298828125
0.1115,-4.994873046875,-3.072998046875,6.696533203125
0.112,-5.715576171875,-1.871826171875,6.536376953125
0.1125,-5.995849609375,-1.031005859375,6.336181640625
0.113,-5.915771484375,0.050048828125,5.615478515625
0.1135,-5.755615234375,1.131103515625,4.534423828125
0.114,-5.635498046875,2.572509765625,3.333251953125
0.1145,-5.435302734375,3.773681640625,2.212158203125
0.115,-5.034912109375,4.614501953125,1.171142578125
0.1155,-4.514404296875,5.135009765625,0.290283203125
0.116,-3.593505859375,5.415283203125,-0.830810546875
0.1165,-2.272216796875,5.535400390625,-2.272216796875
0.117,-1.151123046875,5.855712890625,-3.713623046875
0.1175,0.010009765625,5.855712890625,-4.794677734375
0.118,0.690673828125,5.895751953125,-5.595458984375
0.1185,1.611572265625,5.415283203125,-6.115966796875
0.119,2.852783203125,4.334228515625,-6.516357421875
0.1195,4.254150390625,3.052978515625,-6.916748046875
0.12,5.175048828125,1.851806640625,-6.956787109375
0.1205,5.695556640625,0.650634765625,-6.716552734375
0.121,5.855712890625,-0.270263671875,-6.356201171875
0.1215,5.695556640625,-1.311279296875,-5.475341796875
0.122,5.455322265625,-2.512451171875,-4.234130859375
0.1225,5.295166015625,-3.833740234375,-3.072998046875
0.123,5.014892578125,-4.954833984375,-1.871826171875
0.1235,4.614501953125,-5.715576171875,-0.910888671875
0.124,3.893798828125,-6.115966796875,0.130126953125
0.1245,2.852783203125,-6.276123046875,1.251220703125
0.125,1.451416015625,-6.476318359375,2.812744140625
0.1255,0.250244140625,-6.596435546875,4.174072265625
0.126,-0.790771484375,-6.556396484375,5.094970703125
0.1265,-1.431396484375,-6.516357421875,5.815673828125
0.127,-2.512451171875,-5.755615234375,6.256103515625
0.1275,-3.793701171875,-4.554443359375,6.536376953125
0.128,-5.034912109375,-3.313232421875,6.896728515625
0.1285,-5.835693359375,-2.112060546875,6.776611328125
0.129,-6.236083984375,-1.151123046875,6.536376953125
0.1295,-6.276123046875,-0.270263671875,5.975830078125
0.13,-6.075927734375,0.970947265625,5.094970703125
0.1305,-5.835693359375,2.292236328125,3.813720703125
0.131,-5.635498046875,3.573486328125,2.532470703125
0.1315,-5.235107421875,4.534423828125,1.411376953125
0.132,-4.794677734375,5.255126953125,0.490478515625
0.1325,-3.953857421875,5.495361328125,-0.630615234375
0.133,-2.752685546875,5.615478515625,-1.791748046875
0.1335,-1.471435546875,5.935791015625,-3.393310546875
0.134,-0.310302734375,6.015869140625,-4.634521484375
0.1345,0.610595703125,5.975830078125,-5.475341796875
0.135,1.331298828125,5.735595703125,-6.115966796875
0.1355,2.492431640625,4.854736328125,-6.556396484375
0.136,3.853759765625,3.533447265625,-6.876708984375
0.1365,4.974853515625,2.252197265625,-7.076904296875
0.137,5.615478515625,1.010986328125,-6.796630859375
0.1375,5.895751953125,0.130126953125,-6.596435546875
0.138,5.855712890625,-0.870849609375,-5.915771484375
0.1385,5.615478515625,-1.991943359375,-4.834716796875
0.139,5.455322265625,-3.473388671875,-3.553466796875
0.1395,5.175048828125,-4.634521484375,-2.312255859375
0.14,4.814697265625,-5.475341796875,-1.231201171875
0.1405,4.294189453125,-6.075927734375,-0.350341796875
0.141,3.293212890625,-6.276123046875,0.810791015625
0.1415,1.931884765625,-6.396240234375,2.252197265625
0.142,0.650634765625,-6.636474609375,3.733642578125
0.1425,-0.510498046875,-6.596435546875,4.814697265625
0.143,-1.231201171875,-6.596435546875,5.615478515625
0.1435,-2.072021484375,-6.115966796875,6.135986328125
0.144,-3.273193359375,-5.114990234375,6.456298828125
0.1445,-4.634521484375,-3.833740234375,6.896728515625
0.145,-5.635498046875,-2.552490234375,6.896728515625
0.1455,-6.115966796875,-1.471435546875,6.616455078125
0.146,-6.276123046875,-0.550537109375,6.256103515625
0.1465,-6.115966796875,0.570556640625,5.415283203125
0.147,-5.915771484375,1.771728515625,4.254150390625
0.1475,-5.715576171875,3.173095703125,3.012939453125
0.148,-5.435302734375,4.294189453125,1.811767578125
0.1485,-5.034912109375,5.054931640625,0.810791015625
0.149,-4.354248046875,5.455322265625,-0.190185546875
0.1495,-3.313232421875,5.615478515625,-1.311279296875
0.15,-1.951904296875,5.895751953125,-2.872802734375
0.1505,-0.670654296875,6.055908203125,-4.274169921875
0.151,0.330322265625,6.015869140625,-5.195068359375
0.1515,1.051025390625,5.975830078125,-5.995849609375
0.152,2.132080078125,5.215087890625,-6.476318359375
0.1525,3.453369140625,3.933837890625,-6.796630859375
0.153,4.734619140625,2.692626953125,-7.116943359375
0.1535,5.495361328125,1.411376953125,-7.076904296875
0.154,5.975830078125,0.450439453125,-6.756591796875
0.1545,6.015869140625,-0.590576171875,-6.236083984375
0.155,5.775634765625,-1.671630859375,-5.275146484375
0.1555,5.615478515625,-3.072998046875,-3.993896484375
0.156,5.375244140625,-4.354248046875,-2.672607421875
0.1565,4.974853515625,-5.315185546875,-1.551513671875
0.157,4.494384765625,-6.035888671875,-0.590576171875
0.1575,3.613525390625,-6.276123046875,0.490478515625
0.158,2.372314453125,-6.356201171875,1.771728515625
0.1585,1.010986328125,-6.676513671875,3.373291015625
0.159,-0.310302734375,-6.676513671875,4.614501953125
0.1595,-1.111083984375,-6.596435546875,5.455322265625
0.16,-1.831787109375,-6.356201171875,6.055908203125
0.1605,-2.952880859375,-5.435302734375,6.456298828125
0.161,-4.314208984375,-4.154052734375,6.736572265625
0.1615,-5.395263671875,-2.952880859375,6.896728515625
0.162,-5.995849609375,-1.711669921875,6.696533203125
0.1625,-6.276123046875,-0.790771484375,6.416259765625
0.163,-6.156005859375,0.250244140625,5.695556640625
0.1635,-5.835693359375,1.291259765625,4.614501953125
0.164,-5.715576171875,2.652587890625,3.413330078125
0.1645,-5.475341796875,3.853759765625,2.212158203125
0.165,-5.074951171875,4.694580078125,1.131103515625
0.1655,-4.554443359375,5.215087890625,0.290283203125
0.166,-3.673583984375,5.415283203125,-0.790771484375
0.1665,-2.432373046875,5.615478515625,-2.112060546875
0.167,-1.231201171875,5.855712890625,-3.553466796875
0.1675,0.010009765625,5.855712890625,-4.634521484375
0.168,0.650634765625,5.895751953125,-5.475341796875
0.1685,1.531494140625,5.415283203125,-6.035888671875
0.169,2.572509765625,4.494384765625,-6.396240234375
0.1695,3.933837890625,3.253173828125,-6.796630859375
0.17,4.934814453125,2.132080078125,-6.876708984375
0.1705,5.495361328125,1.010986328125,-6.676513671875
0.171,5.695556640625,0.170166015625,-6.396240234375
0.1715,5.615478515625,-0.870849609375,-5.635498046875
0.172,5.415283203125,-2.031982421875,-4.554443359375
0.1725,5.295166015625,-3.353271484375,-3.473388671875
0.173,5.054931640625,-4.474365234375,-2.272216796875
0.1735,4.654541015625,-5.275146484375,-1.311279296875
0.174,4.093994140625,-5.755615234375,-0.390380859375
0.1745,3.173095703125,-5.955810546875,0.690673828125
0.175,1.931884765625,-6.276123046875,2.212158203125
0.1755,0.690673828125,-6.436279296875,3.533447265625
0.176,-0.350341796875,-6.396240234375,4.534423828125
0.1765,-0.990966796875,-6.476318359375,5.335205078125
0.177,-1.951904296875,-5.915771484375,5.815673828125
0.1775,-3.193115234375,-4.874755859375,6.135986328125
0.178,-4.394287109375,-3.713623046875,6.536376953125
0.1785,-5.235107421875,-2.552490234375,6.536376953125
0.179,-5.715576171875,-1.591552734375,6.376220703125
0.1795,-5.835693359375,-0.710693359375,5.935791015625
0.18,-5.755615234375,0.290283203125,5.175048828125
0.1805,-5.595458984375,1.491455078125,4.134033203125
0.181,-5.435302734375,2.732666015625,3.052978515625
0.1815,-5.155029296875,3.733642578125,1.971923828125
0.182,-4.834716796875,4.494384765625,1.091064453125
0.1825,-4.154052734375,4.854736328125,0.170166015625
0.183,-3.193115234375,5.014892578125,-0.990966796875
0.1835,-2.152099609375,5.455322265625,-2.392333984375
0.184,-0.990966796875,5.575439453125,-3.593505859375
0.1845,-0.230224609375,5.655517578125,-4.514404296875
0.185,0.610595703125,5.575439453125,-5.275146484375
0.1855,1.571533203125,4.934814453125,-5.755615234375
0.186,2.852783203125,3.933837890625,-6.156005859375
0.1865,3.893798828125,2.892822265625,-6.436279296875
0.187,4.694580078125,1.771728515625,-6.396240234375
0.1875,5.135009765625,0.970947265625,-6.316162109375
0.188,5.215087890625,0.090087890625,-5.835693359375
