wavelength,x,y,z
0.0,4.7646484375,1.28125,-6.166015625
0.0005,5.044921875,0.560546875,-6.0458984375
0.001,5.0849609375,-0.400390625,-5.525390625
0.0015,4.9248046875,-1.521484375,-4.564453125
0.002,4.724609375,-2.6826171875,-3.3232421875
0.0025,4.484375,-3.7236328125,-2.2822265625
0.003,4.484375,-4.564453125,-1.5615234375
0.0035,4.00390625,-5.125,-0.80078125
0.004,3.1630859375,-5.4453125,0.400390625
0.0045,2.162109375,-5.765625,1.6416015625
0.005,1.0009765625,-5.845703125,2.8828125
0.0055,0.3603515625,-6.166015625,3.84375
0.006,-0.5205078125,-6.326171875,4.7646484375
0.0065,-1.4814453125,-5.8857421875,5.4453125
0.007,-2.72265625,-4.8447265625,5.765625
0.0075,-3.8837890625,-3.5634765625,5.92578125
0.008,-4.724609375,-2.482421875,5.8857421875
0.0085,-5.205078125,-1.8818359375,6.0458984375
0.009,-5.4052734375,-1.1611328125,5.765625
0.0095,-5.4052734375,-0.240234375,5.0849609375
0.01,-5.28515625,1.041015625,4.1640625
0.0105,-5.044921875,2.2421875,2.9228515625
0.011,-4.9248046875,3.203125,2.0419921875
0.0115,-4.7646484375,3.9638671875,1.28125
0.012,-4.244140625,4.484375,0.48046875
0.0125,-3.36328125,4.8447265625,-0.80078125
0.013,-2.2021484375,5.0849609375,-2.162109375
0.0135,-1.2412109375,5.2451171875,-3.283203125
0.014,-0.6005859375,5.6455078125,-4.2841796875
0.0145,0.3603515625,5.525390625,-5.0849609375
0.015,1.521484375,4.8447265625,-5.6455078125
0.0155,2.6826171875,3.8037109375,-5.9658203125
0.016,3.763671875,2.5224609375,-6.0458984375
0.0165,4.484375,1.6015625,-6.0859375
0.017,4.884765625,0.9208984375,-6.1259765625
0.0175,4.96484375,0.16015625,-5.765625
0.018,4.9248046875,-0.9208984375,-4.96484375
0.0185,4.8046875,-2.1220703125,-3.84375
0.019,4.5244140625,-3.2431640625,-2.72265625
0.0195,4.5244140625,-4.2041015625,-1.9619140625
0.02,4.244140625,-4.8447265625,-1.1611328125
0.0205,3.5634765625,-5.3251953125,-0.2001953125
0.021,2.6025390625,-5.7255859375,1.201171875
0.0215,1.4013671875,-5.8056640625,2.482421875
0.022,0.6005859375,-6.1259765625,3.5234375
0.0225,-0.2001953125,-6.3662109375,4.484375
0.023,-1.1611328125,-6.0859375,5.2451171875
0.0235,-2.40234375,-5.1650390625,5.7255859375
0.024,-3.603515625,-3.9638671875,6.005859375
0.0245,-4.5244140625,-2.7626953125,5.92578125
0.025,-5.1650390625,-2.001953125,6.0458984375
0.0255,-5.4453125,-1.3212890625,5.8857421875
0.026,-5.4453125,-0.3603515625,5.365234375
0.0265,-5.3251953125,0.80078125,4.3642578125
0.027,-5.1650390625,2.1220703125,3.1630859375
0.0275,-4.9248046875,3.1630859375,2.08203125
0.028,-4.8447265625,4.00390625,1.3212890625
0.0285,-4.3642578125,4.5244140625,0.5205078125
0.029,-3.443359375,4.8447265625,-0.720703125
0.0295,-2.3623046875,5.205078125,-2.08203125
0.03,-1.2412109375,5.28515625,-3.283203125
0.0305,-0.5205078125,5.5654296875,-4.32421875
0.031,0.400390625,5.60546875,-5.1650390625
0.0315,1.44140625,5.0849609375,-5.8056640625
0.032,2.6826171875,3.9638671875,-6.1259765625
0.0325,3.84375,2.5625,-6.2060546875
0.033,4.6044921875,1.44140625,-6.1259765625
0.0335,5.044921875,0.7607421875,-6.24609375
0.034,5.1650390625,0.080078125,-5.845703125
0.0345,5.0849609375,-1.041015625,-5.0048828125
0.035,4.9248046875,-2.2822265625,-3.8837890625
0.0355,4.64453125,-3.4833984375,-2.642578125
0.036,4.484375,-4.4443359375,-1.7216796875
0.0365,4.2841796875,-5.125,-1.0009765625
0.037,3.68359375,-5.525390625,0.0
0.0375,2.5625,-5.8056640625,1.28125
0.038,1.3212890625,-5.9658203125,2.6826171875
0.0385,0.3603515625,-6.1259765625,3.8037109375
0.039,-0.400390625,-6.40625,4.724609375
0.0395,-1.3212890625,-6.166015625,5.4853515625
0.04,-2.5625,-5.28515625,6.005859375
0.0405,-3.8037109375,-4.0439453125,6.2060546875
0.041,-4.8046875,-2.72265625,6.166015625
0.0415,-5.4453125,-1.8017578125,6.0859375
0.042,-5.7255859375,-1.0810546875,6.0458984375
0.0425,-5.7255859375,-0.240234375,5.4853515625
0.043,-5.525390625,0.9609375,4.484375
0.0435,-5.3251953125,2.2822265625,3.203125
0.044,-5.0048828125,3.4033203125,1.9619140625
0.0445,-4.8447265625,4.244140625,1.201171875
0.045,-4.3642578125,4.7646484375,0.3603515625
0.0455,-3.5634765625,5.0849609375,-0.80078125
0.046,-2.3623046875,5.365234375,-2.162109375
0.0465,-1.0810546875,5.4052734375,-3.4833984375
0.047,-0.2802734375,5.5654296875,-4.484375
0.0475,0.48046875,5.7255859375,-5.3251953125
0.048,1.521484375,5.2451171875,-5.9658203125
0.0485,2.802734375,4.1240234375,-6.40625
0.049,3.9638671875,2.7626953125,-6.5263671875
0.0495,4.8046875,1.44140625,-6.3662109375
0.05,5.3251953125,0.720703125,-6.3662109375
0.0505,5.4453125,0.0,-6.0458984375
0.051,5.4052734375,-1.0810546875,-5.3251953125
0.0515,5.1650390625,-2.322265625,-4.1640625
0.052,4.9248046875,-3.6435546875,-2.7626953125
0.0525,4.6044921875,-4.64453125,-1.6416015625
0.053,4.484375,-5.4453125,-0.9208984375
0.0535,3.8037109375,-5.8056640625,0.080078125
0.054,2.6826171875,-6.0859375,1.3212890625
0.0545,1.4013671875,-6.2861328125,2.8427734375
0.055,0.2001953125,-6.2861328125,4.0439453125
0.0555,-0.640625,-6.486328125,5.0048828125
0.056,-1.44140625,-6.40625,5.8056640625
0.0565,-2.642578125,-5.6455078125,6.40625
0.057,-4.00390625,-4.32421875,6.646484375
0.0575,-5.205078125,-2.8427734375,6.646484375
0.058,-5.845703125,-1.6015625,6.40625
0.0585,-6.166015625,-0.8408203125,6.3662109375
0.059,-6.1259765625,0.1201171875,5.765625
0.0595,-5.92578125,1.3212890625,4.6044921875
0.06,-5.6455078125,2.6826171875,3.2431640625
0.0605,-5.28515625,3.923828125,1.841796875
0.061,-4.9248046875,4.7646484375,0.880859375
0.0615,-4.5244140625,5.3251953125,0.0400390625
0.062,-3.6435546875,5.60546875,-1.0810546875
0.0625,-2.2421875,5.7255859375,-2.5625
0.063,-0.80078125,5.8056640625,-4.0439453125
0.0635,0.3203125,5.7255859375,-5.125
0.064,0.9609375,5.8857421875,-5.92578125
0.0645,1.9619140625,5.3251953125,-6.56640625
0.065,3.3232421875,4.1240234375,-6.9267578125
0.0655,4.484375,2.6826171875,-7.0869140625
0.066,5.4453125,1.28125,-6.806640625
0.0665,5.8857421875,0.2802734375,-6.56640625
0.067,5.9658203125,-0.6005859375,-6.2861328125
0.0675,5.8056640625,-1.4814453125,-5.4853515625
0.068,5.4853515625,-2.802734375,-4.1640625
0.0685,5.125,-4.2041015625,-2.6025390625
0.069,4.6845703125,-5.205078125,-1.3212890625
0.0695,4.404296875,-5.92578125,-0.5205078125
0.07,3.763671875,-6.2861328125,0.4404296875
0.0705,2.6025390625,-6.486328125,1.6416015625
0.071,1.2412109375,-6.6064453125,3.1630859375
0.0715,-0.3203125,-6.486328125,4.5244140625
0.072,-1.12109375,-6.486328125,5.4052734375
0.0725,-1.8017578125,-6.56640625,6.166015625
0.073,-2.8828125,-5.8056640625,6.6865234375
0.0735,-4.244140625,-4.5244140625,6.966796875
0.074,-5.365234375,-2.9228515625,6.966796875
0.0745,-6.1259765625,-1.521484375,6.646484375
0.075,-6.40625,-0.6806640625,6.4462890625
0.0755,-6.40625,0.16015625,5.9658203125
0.076,-6.166015625,1.2412109375,5.0048828125
0.0765,-5.845703125,2.5224609375,3.6435546875
0.077,-5.4453125,3.8837890625,2.08203125
0.0775,-5.0048828125,4.8046875,0.9609375
0.078,-4.6845703125,5.4052734375,0.1201171875
0.0785,-3.8837890625,5.7255859375,-0.880859375
0.079,-2.5625,5.845703125,-2.2421875
0.0795,-1.2412109375,5.9658203125,-3.7236328125
0.08,0.2001953125,5.8056640625,-4.9248046875
0.0805,0.880859375,5.8857421875,-5.765625
0.081,1.6416015625,5.685546875,-6.486328125
0.0815,2.72265625,4.8046875,-6.966796875
0.082,4.1240234375,3.4033203125,-7.0869140625
0.0825,5.205078125,1.841796875,-6.966796875
0.083,5.765625,0.6005859375,-6.6865234375
0.0835,6.0458984375,-0.2001953125,-6.486328125
0.084,5.92578125,-1.041015625,-5.92578125
0.0845,5.6455078125,-2.2421875,-4.7646484375
0.085,5.365234375,-3.5634765625,-3.3232421875
0.0855,4.9248046875,-4.8046875,-1.8818359375
0.086,4.564453125,-5.6455078125,-0.9208984375
0.0865,4.1640625,-6.2060546875,0.0
0.087,3.3232421875,-6.4462890625,0.9609375
0.0875,1.921875,-6.56640625,2.40234375
0.088,0.4404296875,-6.56640625,3.9638671875
0.0885,-0.720703125,-6.56640625,5.0048828125
0.089,-1.361328125,-6.7265625,5.845703125
0.0895,-2.40234375,-6.2861328125,6.486328125
0.09,-3.6435546875,-5.044921875,6.88671875
0.0905,-4.884765625,-3.6435546875,7.046875
0.091,-5.8857421875,-2.08203125,6.8466796875
0.0915,-6.3662109375,-1.041015625,6.56640625
0.092,-6.4462890625,-0.3203125,6.2861328125
0.0925,-6.3662109375,0.720703125,5.5654296875
0.093,-6.0458984375,2.001953125,4.244140625
0.0935,-5.685546875,3.443359375,2.72265625
0.094,-5.205078125,4.5244140625,1.3212890625
0.0945,-4.9248046875,5.3251953125,0.4404296875
0.095,-4.2841796875,5.685546875,-0.5205078125
0.0955,-3.1630859375,5.8857421875,-1.76171875
0.096,-1.7216796875,6.0458984375,-3.283203125
0.0965,-0.2001953125,5.8857421875,-4.724609375
0.097,0.720703125,5.8857421875,-5.6455078125
0.0975,1.361328125,5.845703125,-6.40625
0.098,2.5224609375,5.1650390625,-6.966796875
0.0985,3.8837890625,3.8037109375,-7.20703125
0.099,5.0849609375,2.2822265625,-7.20703125
0.0995,5.8056640625,0.880859375,-6.88671875
0.1,6.1259765625,0.0,-6.6865234375
0.1005,6.0859375,-0.9208984375,-6.166015625
0.101,5.8857421875,-1.9619140625,-5.205078125
0.1015,5.525390625,-3.36328125,-3.7236328125
0.102,5.0849609375,-4.6845703125,-2.162109375
0.1025,4.6044921875,-5.6455078125,-1.0009765625
0.103,4.2841796875,-6.2861328125,-0.16015625
0.1035,3.4833984375,-6.486328125,0.880859375
0.104,2.2021484375,-6.6064453125,2.2421875
0.1045,0.6806640625,-6.7265625,3.763671875
0.105,-0.640625,-6.56640625,4.9248046875
0.1055,-1.361328125,-6.6064453125,5.685546875
0.106,-2.1220703125,-6.40625,6.40625
0.1065,-3.2431640625,-5.4853515625,6.88671875
0.107,-4.6044921875,-4.00390625,7.046875
0.1075,-5.6455078125,-2.482421875,6.88671875
0.108,-6.24609375,-1.2412109375,6.5263671875
0.1085,-6.40625,-0.5205078125,6.3662109375
0.109,-6.326171875,0.400390625,5.765625
0.1095,-6.0458984375,1.521484375,4.6044921875
0.11,-5.6455078125,2.802734375,3.2431640625
0.1105,-5.205078125,4.00390625,1.76171875
0.111,-4.8447265625,4.8447265625,0.7607421875
0.1115,-4.484375,5.4052734375,0.0
0.112,-3.68359375,5.60546875,-1.0009765625
0.1125,-2.322265625,5.7255859375,-2.40234375
0.113,-0.9609375,5.7255859375,-3.8837890625
0.1135,0.240234375,5.685546875,-4.9248046875
0.114,0.8408203125,5.8857421875,-5.7255859375
0.1145,1.6416015625,5.525390625,-6.326171875
0.115,2.8828125,4.484375,-6.7265625
0.1155,4.083984375,3.1630859375,-6.88671875
0.116,5.0849609375,1.76171875,-6.6865234375
0.1165,5.60546875,0.6806640625,-6.5263671875
0.117,5.765625,0.0,-6.3662109375
0.1175,5.7255859375,-0.9208984375,-5.765625
0.118,5.4052734375,-2.0419921875,-4.64453125
0.1185,5.125,-3.36328125,-3.283203125
0.119,4.7646484375,-4.5244140625,-1.9619140625
0.1195,4.564453125,-5.365234375,-1.12109375
0.12,4.1240234375,-5.845703125,-0.2802734375
0.1205,3.203125,-6.166015625,0.8408203125
0.121,1.921875,-6.40625,2.2421875
0.1215,0.48046875,-6.40625,3.68359375
0.122,-0.48046875,-6.40625,4.724609375
0.1225,-1.12109375,-6.56640625,5.525390625
0.123,-2.1220703125,-6.1259765625,6.2060546875
0.1235,-3.4033203125,-4.96484375,6.5263671875
0.124,-4.6044921875,-3.5634765625,6.646484375
0.1245,-5.4453125,-2.162109375,6.4462890625
0.125,-5.92578125,-1.3212890625,6.40625
0.1255,-6.0859375,-0.6005859375,6.0859375
0.126,-5.9658203125,0.48046875,5.3251953125
0.1265,-5.7255859375,1.681640625,4.1240234375
0.127,-5.4052734375,3.04296875,2.6826171875
0.1275,-5.0048828125,4.0439453125,1.521484375
0.128,-4.8046875,4.8046875,0.720703125
0.1285,-4.1640625,5.0849609375,-0.240234375
0.129,-3.0830078125,5.365234375,-1.44140625
0.1295,-1.8818359375,5.5654296875,-2.8828125
0.13,-0.6005859375,5.525390625,-4.083984375
0.1305,0.240234375,5.7255859375,-5.0048828125
0.131,0.9609375,5.685546875,-5.765625
0.1315,1.9619140625,5.0849609375,-6.326171875
0.132,3.2431640625,3.8037109375,-6.5263671875
0.1325,4.404296875,2.3623046875,-6.5263671875
0.133,5.0849609375,1.201171875,-6.3662109375
0.1335,5.4052734375,0.48046875,-6.2861328125
0.134,5.4453125,-0.3603515625,-5.8857421875
0.1345,5.2451171875,-1.361328125,-5.0048828125
0.135,5.044921875,-2.5625,-3.8037109375
0.1355,4.724609375,-3.8037109375,-2.482421875
0.136,4.484375,-4.6845703125,-1.5615234375
0.1365,4.2841796875,-5.4052734375,-0.80078125
0.137,3.6435546875,-5.765625,0.1201171875
0.1375,2.5224609375,-5.9658203125,1.3212890625
0.138,1.2412109375,-6.0859375,2.7626953125
0.1385,0.2001953125,-6.1259765625,3.84375
0.139,-0.48046875,-6.40625,4.7646484375
0.1395,-1.3212890625,-6.24609375,5.4853515625
0.14,-2.5224609375,-5.4052734375,6.005859375
0.1405,-3.68359375,-4.2041015625,6.24609375
0.141,-4.6845703125,-2.8828125,6.2060546875
0.1415,-5.3251953125,-1.921875,6.1259765625
0.142,-5.6455078125,-1.28125,6.0859375
0.1425,-5.6455078125,-0.5205078125,5.685546875
0.143,-5.4853515625,0.6005859375,4.7646484375
0.1435,-5.3251953125,1.921875,3.5234375
0.144,-5.0048828125,3.04296875,2.3623046875
0.1445,-4.884765625,3.8837890625,1.521484375
0.145,-4.564453125,4.484375,0.7607421875
0.1455,-3.84375,4.8447265625,-0.3603515625
0.146,-2.7626953125,5.1650390625,-1.6015625
0.1465,-1.4814453125,5.2451171875,-2.9228515625
0.147,-0.640625,5.4052734375,-3.9638671875
0.1475,0.0400390625,5.7255859375,-4.8447265625
0.148,0.9609375,5.365234375,-5.525390625
0.1485,2.162109375,4.484375,-5.9658203125
0.149,3.3232421875,3.283203125,-6.166015625
0.1495,4.244140625,2.0419921875,-6.1259765625
0.15,4.8046875,1.28125,-6.2060546875
0.1505,5.0849609375,0.6005859375,-6.0859375
0.151,5.0849609375,-0.3203125,-5.5654296875
0.1515,4.96484375,-1.4013671875,-4.6044921875
0.152,4.7646484375,-2.6826171875,-3.4033203125
0.1525,4.5244140625,-3.8037109375,-2.322265625
0.153,4.484375,-4.64453125,-1.6416015625
0.1535,4.00390625,-5.1650390625,-0.8408203125
0.154,3.2431640625,-5.4853515625,0.3203125
0.1545,2.2021484375,-5.765625,1.6015625
0.155,1.041015625,-5.845703125,2.8427734375
0.1555,0.3203125,-6.166015625,3.84375
0.156,-0.48046875,-6.326171875,4.7646484375
0.1565,-1.44140625,-5.92578125,5.4052734375
0.157,-2.72265625,-4.884765625,5.8056640625
0.1575,-3.8837890625,-3.6435546875,5.92578125
0.158,-4.6845703125,-2.5224609375,5.8857421875
0.1585,-5.205078125,-1.8818359375,6.0458984375
0.159,-5.4052734375,-1.1611328125,5.8056640625
0.1595,-5.365234375,-0.240234375,5.0849609375
0.16,-5.28515625,0.9609375,4.1640625
0.1605,-5.044921875,2.2021484375,2.9228515625
0.161,-4.9248046875,3.1630859375,2.0419921875
0.1615,-4.8046875,3.8837890625,1.28125
0.162,-4.32421875,4.484375,0.48046875
0.1625,-3.36328125,4.8046875,-0.80078125
0.163,-2.2822265625,5.0849609375,-2.08203125
0.1635,-1.2412109375,5.2451171875,-3.2431640625
0.164,-0.6005859375,5.60546875,-4.244140625
0.1645,0.3603515625,5.525390625,-5.044921875
0.165,1.44140625,4.8447265625,-5.60546875
0.1655,2.6025390625,3.84375,-5.92578125
0.166,3.7236328125,2.5625,-6.005859375
0.1665,4.484375,1.6015625,-6.0859375
0.167,4.884765625,0.9609375,-6.1259765625
0.1675,4.96484375,0.2802734375,-5.765625
0.168,4.9248046875,-0.8408203125,-4.96484375
0.1685,4.8046875,-2.1220703125,-3.8837890625
0.169,4.6044921875,-3.283203125,-2.7626953125
0.1695,4.484375,-4.244140625,-2.001953125
0.17,4.2841796875,-4.8046875,-1.2412109375
0.1705,3.6435546875,-5.28515625,-0.2802734375
0.171,2.6826171875,-5.6455078125,1.0810546875
0.1715,1.44140625,-5.8056640625,2.40234375
0.172,0.6005859375,-6.0458984375,3.4833984375
0.1725,-0.16015625,-6.3662109375,4.404296875
0.173,-1.0810546875,-6.0859375,5.1650390625
0.1735,-2.322265625,-5.205078125,5.685546875
0.174,-3.5634765625,-4.0439453125,5.92578125
0.1745,-4.5244140625,-2.7626953125,5.92578125
0.175,-5.125,-2.001953125,6.0458984375
0.1755,-5.365234375,-1.3212890625,5.8857421875
0.176,-5.4052734375,-0.5205078125,5.4052734375
0.1765,-5.3251953125,0.640625,4.484375
0.177,-5.1650390625,1.921875,3.2431640625
0.1775,-4.96484375,3.0029296875,2.2021484375
0.178,-4.8447265625,3.8837890625,1.4013671875
0.1785,-4.3642578125,4.404296875,0.640625
0.179,-3.5634765625,4.7646484375,-0.6005859375
0.1795,-2.482421875,5.0849609375,-1.921875
0.18,-1.3212890625,5.205078125,-3.123046875
0.1805,-0.640625,5.4853515625,-4.1240234375
0.181,0.2001953125,5.60546875,-5.0048828125
0.1815,1.2412109375,5.125,-5.6455078125
0.182,2.482421875,4.083984375,-6.005859375
0.1825,3.68359375,2.7626953125,-6.1259765625
0.183,4.4443359375,1.6416015625,-6.1259765625
0.1835,4.9248046875,0.9609375,-6.166015625
0.184,5.0849609375,0.2802734375,-5.845703125
0.1845,4.96484375,-0.8408203125,-5.125
0.185,4.8447265625,-2.001953125,-4.1240234375
0.1855,4.6044921875,-3.2431640625,-2.8828125
0.186,4.5244140625,-4.1640625,-1.9619140625
0.1865,4.32421875,-4.884765625,-1.2412109375
0.187,3.8037109375,-5.4052734375,-0.400390625
0.1875,2.7626953125,-5.6455078125,0.9609375
0.188,1.5615234375,-5.8857421875,2.3623046875
0.1885,0.6005859375,-6.0458984375,3.4833984375
0.189,-0.2001953125,-6.3662109375,4.484375
0.1895,-1.041015625,-6.166015625,5.2451171875
0.19,-2.2822265625,-5.4052734375,5.8056640625
0.1905,-3.5234375,-4.244140625,6.0859375
0.191,-4.564453125,-2.9228515625,6.1259765625
0.1915,-5.2451171875,-1.9619140625,6.0859375
0.192,-5.5654296875,-1.28125,6.0859375
0.1925,-5.6455078125,-0.5205078125,5.5654296875
0.193,-5.4853515625,0.6806640625,4.6044921875
0.1935,-5.3251953125,1.9619140625,3.36328125
0.194,-5.044921875,3.1630859375,2.2021484375
0.1945,-4.884765625,4.0439453125,1.361328125
0.195,-4.5244140625,4.6044921875,0.6005859375
0.1955,-3.68359375,4.96484375,-0.6005859375
0.196,-2.5625,5.2451171875,-1.9619140625
0.1965,-1.2412109375,5.365234375,-3.3232421875
0.197,-0.400390625,5.525390625,-4.32421875
0.1975,0.3203125,5.7255859375,-5.205078125
0.198,1.3212890625,5.2451171875,-5.845703125
0.1985,2.6025390625,4.1640625,-6.2861328125
0.199,3.84375,2.8427734375,-6.40625
0.1995,4.724609375,1.5615234375,-6.3662109375
0.2,5.2451171875,0.7607421875,-6.2861328125
0.2005,5.365234375,0.0,-6.0458984375
0.201,5.3251953125,-1.0009765625,-5.3251953125
0.2015,5.0849609375,-2.2822265625,-4.2041015625
0.202,4.8447265625,-3.5634765625,-2.8427734375
0.2025,4.6044921875,-4.5244140625,-1.7216796875
0.203,4.4443359375,-5.3251953125,-1.0009765625
0.2035,3.8037109375,-5.7255859375,0.0
0.204,2.7626953125,-5.9658203125,1.2412109375
0.2045,1.4814453125,-6.2060546875,2.6826171875
0.205,0.2802734375,-6.24609375,3.8837890625
0.2055,-0.5205078125,-6.40625,4.8447265625
0.206,-1.3212890625,-6.3662109375,5.685546875
0.2065,-2.5224609375,-5.6455078125,6.24609375
0.207,-3.8837890625,-4.3642578125,6.56640625
0.2075,-5.044921875,-2.8828125,6.56640625
0.208,-5.765625,-1.6416015625,6.3662109375
0.2085,-6.0859375,-1.0009765625,6.24609375
0.209,-6.0859375,0.0,5.7255859375
0.2095,-5.8857421875,1.12109375,4.6845703125
0.21,-5.6455078125,2.5224609375,3.4033203125
0.2105,-5.28515625,3.763671875,1.9619140625
0.211,-4.96484375,4.6044921875,1.0009765625
0.2115,-4.564453125,5.2451171875,0.2001953125
0.212,-3.763671875,5.4853515625,-0.880859375
0.2125,-2.322265625,5.6455078125,-2.40234375
0.213,-1.0009765625,5.765625,-3.84375
0.2135,0.16015625,5.7255859375,-4.9248046875
0.214,0.80078125,5.8857421875,-5.765625
0.2145,1.76171875,5.4052734375,-6.40625
0.215,3.1630859375,4.32421875,-6.88671875
0.2155,4.3642578125,2.8828125,-7.0068359375
0.216,5.3251953125,1.4013671875,-6.806640625
0.2165,5.8056640625,0.3203125,-6.56640625
0.217,5.92578125,-0.5205078125,-6.326171875
0.2175,5.7255859375,-1.4013671875,-5.5654296875
0.218,5.4853515625,-2.642578125,-4.2041015625
0.2185,5.1650390625,-4.0439453125,-2.7626953125
0.219,4.724609375,-5.125,-1.44140625
0.2195,4.4443359375,-5.8056640625,-0.640625
0.22,3.8037109375,-6.2060546875,0.3603515625
0.2205,2.72265625,-6.4462890625,1.521484375
0.221,1.3212890625,-6.56640625,3.04296875
0.2215,-0.2001953125,-6.486328125,4.4443359375
0.222,-1.0009765625,-6.486328125,5.3251953125
0.2225,-1.6416015625,-6.5263671875,6.0859375
0.223,-2.802734375,-5.8056640625,6.6865234375
0.2235,-4.1640625,-4.5244140625,6.966796875
0.224,-5.28515625,-3.04296875,6.966796875
0.2245,-6.0859375,-1.6015625,6.646484375
0.225,-6.40625,-0.7607421875,6.4462890625
0.2255,-6.40625,0.1201171875,5.9658203125
0.226,-6.2060546875,1.201171875,5.044921875
0.2265,-5.845703125,2.5224609375,3.6435546875
0.227,-5.4453125,3.8837890625,2.08203125
0.2275,-5.0048828125,4.8046875,0.9208984375
