wavelength,x,y,z
0.0,25.414794921875,-18.708251953125,-6.736572265625
0.0005,25.414794921875,-13.743408203125,-11.741455078125
0.001,26.015380859375,-10.620361328125,-15.465087890625
0.0015,24.654052734375,-6.055908203125,-18.708251953125
0.002,23.372802734375,-2.172119140625,-21.270751953125
0.0025,20.810302734375,2.832763671875,-23.633056640625
0.003,17.166748046875,8.878662109375,-26.035400390625
0.0035,11.921630859375,13.202880859375,-25.114501953125
0.004,8.678466796875,17.046630859375,-25.715087890625
0.0045,4.474365234375,19.368896484375,-23.873291015625
0.005,-0.930908203125,22.451904296875,-21.751220703125
0.0055,-5.735595703125,24.173583984375,-18.668212890625
0.006,-11.741455078125,25.454833984375,-14.063720703125
0.0065,-15.385009765625,25.134521484375,-10.219970703125
0.007,-19.188720703125,24.734130859375,-6.015869140625
0.0075,-21.150634765625,23.372802734375,-2.652587890625
0.008,-23.713134765625,20.890380859375,2.432373046875
0.0085,-25.314697265625,17.166748046875,7.877685546875
0.009,-24.994384765625,12.041748046875,12.642333984375
0.0095,-25.755126953125,9.359130859375,16.085693359375
0.01,-24.033447265625,4.794677734375,19.048583984375
0.0105,-22.592041015625,0.550537109375,21.811279296875
0.011,-19.789306640625,-4.454345703125,23.893310546875
0.0115,-15.665283203125,-10.540283203125,25.895263671875
0.012,-10.820556640625,-14.343994140625,24.854248046875
0.0125,-7.297119140625,-18.067626953125,25.094482421875
0.013,-2.812744140625,-20.229736328125,22.772216796875
0.0135,2.552490234375,-23.312744140625,20.730224609375
0.014,7.717529296875,-24.634033203125,16.886474609375
0.0145,13.202880859375,-25.434814453125,12.322021484375
0.015,16.606201171875,-25.314697265625,8.918701171875
0.0155,20.289794921875,-24.313720703125,4.154052734375
0.016,22.251708984375,-22.632080078125,0.510498046875
0.0165,24.654052734375,-19.989501953125,-4.614501953125
0.017,25.935302734375,-15.825439453125,-10.099853515625
0.0175,25.134521484375,-10.820556640625,-14.384033203125
0.018,25.775146484375,-8.137939453125,-17.667236328125
0.0185,23.532958984375,-3.133056640625,-20.469970703125
0.019,21.851318359375,1.431396484375,-23.312744140625
0.0195,18.247802734375,6.556396484375,-24.754150390625
0.02,13.963623046875,12.322021484375,-26.275634765625
0.0205,9.479248046875,15.845458984375,-25.314697265625
0.021,5.435302734375,19.408935546875,-24.834228515625
0.0215,0.710693359375,21.450927734375,-22.191650390625
0.022,-4.494384765625,24.373779296875,-20.109619140625
0.0225,-9.939697265625,25.054443359375,-15.465087890625
0.023,-14.904541015625,25.374755859375,-10.860595703125
0.0235,-17.947509765625,25.374755859375,-7.937744140625
0.024,-21.270751953125,23.733154296875,-2.852783203125
0.0245,-23.192626953125,21.611083984375,1.191162109375
0.025,-24.994384765625,18.488037109375,6.115966796875
0.0255,-25.915283203125,14.123779296875,11.521240234375
0.026,-24.994384765625,9.399169921875,15.364990234375
0.0265,-25.274658203125,6.476318359375,18.528076171875
0.027,-22.712158203125,1.511474609375,20.970458984375
0.0275,-21.030517578125,-3.173095703125,23.973388671875
0.028,-16.666259765625,-8.378173828125,24.734130859375
0.0285,-12.502197265625,-13.583251953125,25.775146484375
0.029,-8.498291015625,-16.666259765625,24.894287109375
0.0295,-3.773681640625,-20.029541015625,23.572998046875
0.03,0.910888671875,-21.871337890625,20.930419921875
0.0305,6.075927734375,-24.634033203125,18.568115234375
0.031,11.281005859375,-24.994384765625,13.763427734375
0.0315,15.685302734375,-24.834228515625,9.319091796875
0.032,18.608154296875,-25.034423828125,6.516357421875
0.0325,21.571044921875,-22.912353515625,1.431396484375
0.033,23.693115234375,-20.750244140625,-3.052978515625
0.0335,24.814208984375,-16.986572265625,-7.737548828125
0.034,25.614990234375,-12.902587890625,-12.742431640625
0.0345,24.654052734375,-8.618408203125,-16.065673828125
0.035,24.373779296875,-5.255126953125,-19.148681640625
0.0355,21.811279296875,-0.490478515625,-21.430908203125
0.036,19.929443359375,4.594482421875,-24.513916015625
0.0365,14.964599609375,9.639404296875,-24.634033203125
0.037,11.000732421875,14.323974609375,-25.314697265625
0.0375,7.597412109375,17.166748046875,-24.754150390625
0.038,2.512451171875,20.289794921875,-22.832275390625
0.0385,-2.092041015625,22.291748046875,-20.349853515625
0.039,-7.497314453125,24.453857421875,-17.226806640625
0.0395,-12.342041015625,24.814208984375,-12.782470703125
0.04,-16.385986328125,24.333740234375,-8.458251953125
0.0405,-18.988525390625,24.173583984375,-5.695556640625
0.041,-21.631103515625,22.011474609375,-0.890869140625
0.0415,-23.953369140625,19.609130859375,3.953857421875
0.042,-24.233642578125,15.124755859375,8.798583984375
0.0425,-25.154541015625,11.561279296875,13.322998046875
0.043,-24.273681640625,7.677490234375,16.365966796875
0.0435,-23.392822265625,3.833740234375,19.368896484375
0.044,-21.030517578125,-0.810791015625,21.531005859375
0.0445,-18.548095703125,-6.176025390625,24.413818359375
0.045,-13.663330078125,-10.860595703125,24.293701171875
0.0455,-9.819580078125,-15.104736328125,24.654052734375
0.046,-6.536376953125,-17.627197265625,23.853271484375
0.0465,-1.131103515625,-20.630126953125,21.571044921875
0.047,3.553466796875,-22.752197265625,19.168701171875
0.0475,9.078857421875,-24.193603515625,15.124755859375
0.048,13.403076171875,-24.634033203125,11.401123046875
0.0485,17.006591796875,-24.153564453125,7.197021484375
0.049,19.529052734375,-23.512939453125,4.033935546875
0.0495,22.091552734375,-21.110595703125,-0.890869140625
0.05,24.453857421875,-18.548095703125,-5.895751953125
0.0505,24.173583984375,-13.663330078125,-10.500244140625
0.051,25.014404296875,-10.540283203125,-14.464111328125
0.0515,24.013427734375,-6.736572265625,-17.306884765625
0.052,22.692138671875,-2.372314453125,-20.349853515625
0.0525,20.249755859375,2.272216796875,-22.471923828125
0.053,16.846435546875,7.997802734375,-24.834228515625
0.0535,12.322021484375,12.241943359375,-24.593994140625
0.054,8.398193359375,16.165771484375,-24.593994140625
0.0545,5.074951171875,18.327880859375,-23.392822265625
0.055,-0.490478515625,21.410888671875,-21.070556640625
0.0555,-5.415283203125,23.613037109375,-18.468017578125
0.056,-10.860595703125,24.053466796875,-13.783447265625
0.0565,-14.584228515625,24.654052734375,-10.540283203125
0.057,-18.027587890625,23.853271484375,-6.256103515625
0.0575,-20.469970703125,22.772216796875,-2.732666015625
0.058,-22.632080078125,20.249755859375,1.991943359375
0.0585,-24.754150390625,17.046630859375,7.397216796875
0.059,-24.073486328125,12.121826171875,11.681396484375
0.0595,-24.794189453125,9.118896484375,15.445068359375
0.06,-23.432861328125,5.435302734375,17.807373046875
0.0605,-21.871337890625,0.670654296875,21.010498046875
0.061,-19.228759765625,-4.093994140625,23.052490234375
0.0615,-15.104736328125,-9.779541015625,24.614013671875
0.062,-11.220947265625,-13.423095703125,24.373779296875
0.0625,-7.056884765625,-17.106689453125,23.893310546875
0.063,-3.293212890625,-19.148681640625,22.171630859375
0.0635,1.951904296875,-21.951416015625,19.889404296875
0.064,7.197021484375,-23.953369140625,16.846435546875
0.0645,12.041748046875,-23.953369140625,11.921630859375
0.065,15.565185546875,-24.593994140625,9.078857421875
0.0655,18.648193359375,-23.232666015625,4.794677734375
0.066,21.130615234375,-21.831298828125,0.870849609375
0.0665,22.972412109375,-19.188720703125,-3.693603515625
0.067,24.654052734375,-15.545166015625,-9.138916015625
0.0675,23.893310546875,-11.060791015625,-12.862548828125
0.068,24.333740234375,-7.937744140625,-16.426025390625
0.0685,22.732177734375,-4.294189453125,-18.468017578125
0.069,21.090576171875,0.590576171875,-21.631103515625
0.0695,17.847412109375,5.555419921875,-23.432861328125
0.07,13.443115234375,10.880615234375,-24.313720703125
0.0705,10.280029296875,14.163818359375,-24.473876953125
0.071,5.795654296875,17.567138671875,-23.392822265625
0.0715,1.831787109375,19.609130859375,-21.510986328125
0.072,-2.932861328125,22.091552734375,-19.468994140625
0.0725,-8.698486328125,23.973388671875,-15.545166015625
0.073,-12.982666015625,23.492919921875,-10.860595703125
0.0735,-16.345947265625,24.253662109375,-8.378173828125
0.074,-18.948486328125,22.572021484375,-4.093994140625
0.0745,-21.470947265625,21.010498046875,0.070068359375
0.075,-22.912353515625,18.007568359375,4.514404296875
0.0755,-24.273681640625,13.963623046875,9.999755859375
0.076,-23.793212890625,10.159912109375,13.403076171875
0.0765,-23.793212890625,6.676513671875,16.886474609375
0.077,-21.991455078125,3.032958984375,18.768310546875
0.0775,-20.389892578125,-1.851806640625,21.931396484375
0.078,-16.626220703125,-7.177001953125,23.572998046875
0.0785,-12.181884765625,-12.021728515625,23.853271484375
0.079,-9.419189453125,-15.064697265625,24.213623046875
0.0795,-4.414306640625,-18.227783203125,22.371826171875
0.08,-0.250244140625,-20.510009765625,20.489990234375
0.0805,4.594482421875,-22.752197265625,18.087646484375
0.081,10.239990234375,-24.273681640625,14.003662109375
0.0815,14.083740234375,-23.512939453125,9.559326171875
0.082,17.406982421875,-24.073486328125,6.796630859375
0.0825,19.889404296875,-22.071533203125,2.312255859375
0.083,22.652099609375,-20.229736328125,-2.292236328125
0.0835,23.532958984375,-16.706298828125,-6.776611328125
0.084,24.493896484375,-12.622314453125,-11.861572265625
0.0845,24.093505859375,-9.259033203125,-14.904541015625
0.085,23.412841796875,-5.135009765625,-18.347900390625
0.0855,21.410888671875,-1.131103515625,-20.349853515625
0.086,19.408935546875,3.953857421875,-23.352783203125
0.0865,15.044677734375,9.279052734375,-24.313720703125
0.087,10.600341796875,13.643310546875,-24.193603515625
0.0875,7.917724609375,16.526123046875,-24.473876953125
0.088,2.552490234375,19.489013671875,-21.911376953125
0.0885,-2.011962890625,21.811279296875,-20.029541015625
0.089,-6.976806640625,23.372802734375,-16.746337890625
0.0895,-12.181884765625,24.614013671875,-12.782470703125
0.09,-15.665283203125,23.733154296875,-8.458251953125
0.0905,-18.868408203125,23.693115234375,-5.255126953125
0.091,-20.950439453125,21.490966796875,-0.970947265625
0.0915,-23.593017578125,19.288818359375,3.953857421875
0.092,-23.753173828125,14.964599609375,8.478271484375
0.0925,-24.473876953125,11.040771484375,13.202880859375
0.093,-24.153564453125,7.997802734375,15.965576171875
0.0935,-22.712158203125,3.393310546875,19.128662109375
0.094,-20.670166015625,-0.770751953125,21.130615234375
0.0945,-17.987548828125,-5.895751953125,23.613037109375
0.095,-13.783447265625,-10.860595703125,24.333740234375
0.0955,-9.379150390625,-14.744384765625,23.813232421875
0.096,-6.416259765625,-17.386962890625,23.572998046875
0.0965,-1.051025390625,-20.029541015625,20.890380859375
0.097,3.593505859375,-22.592041015625,18.968505859375
0.0975,8.558349609375,-23.352783203125,14.724365234375
0.098,13.122802734375,-24.273681640625,11.281005859375
0.0985,16.325927734375,-23.593017578125,7.437255859375
0.099,19.328857421875,-22.912353515625,3.713623046875
0.0995,21.290771484375,-20.550048828125,-0.610595703125
0.1,23.773193359375,-18.187744140625,-5.575439453125
0.1005,23.693115234375,-13.743408203125,-9.939697265625
0.101,24.013427734375,-9.979736328125,-14.063720703125
0.1015,23.733154296875,-7.257080078125,-16.546142578125
0.102,21.851318359375,-2.412353515625,-19.549072265625
0.1025,19.929443359375,1.911865234375,-21.831298828125
0.103,16.325927734375,7.156982421875,-23.432861328125
0.1035,12.682373046875,11.681396484375,-24.313720703125
0.104,8.398193359375,15.164794921875,-23.593017578125
0.1045,5.195068359375,17.687255859375,-22.952392578125
0.105,0.070068359375,20.209716796875,-20.349853515625
0.1055,-4.854736328125,22.932373046875,-18.387939453125
0.106,-9.819580078125,23.092529296875,-13.583251953125
0.1065,-13.943603515625,23.973388671875,-10.380126953125
0.107,-16.866455078125,23.372802734375,-6.976806640625
0.1075,-19.709228515625,22.211669921875,-2.932861328125
0.108,-21.671142578125,19.849365234375,1.471435546875
0.1085,-23.673095703125,16.726318359375,6.556396484375
0.109,-23.673095703125,12.562255859375,10.800537109375
0.1095,-23.753173828125,8.838623046875,14.724365234375
0.11,-23.352783203125,6.115966796875,16.966552734375
0.1105,-21.350830078125,1.111083984375,20.009521484375
0.111,-19.268798828125,-3.693603515625,22.692138671875
0.1115,-14.784423828125,-8.938720703125,23.452880859375
0.112,-11.661376953125,-12.942626953125,24.373779296875
0.1125,-7.377197265625,-16.345947265625,23.412841796875
0.113,-3.373291015625,-18.988525390625,22.051513671875
0.1135,1.591552734375,-21.430908203125,19.529052734375
0.114,7.197021484375,-23.993408203125,16.806396484375
0.1145,11.681396484375,-23.633056640625,12.041748046875
0.115,15.645263671875,-24.353759765625,8.838623046875
0.1155,18.367919921875,-23.432861328125,5.275146484375
0.116,21.330810546875,-21.911376953125,0.710693359375
0.1165,23.252685546875,-19.068603515625,-4.093994140625
0.117,24.694091796875,-15.224853515625,-9.459228515625
0.1175,24.573974609375,-11.461181640625,-13.142822265625
0.118,24.373779296875,-7.537353515625,-16.906494140625
0.1185,23.172607421875,-4.174072265625,-19.068603515625
0.119,21.050537109375,1.071044921875,-22.111572265625
0.1195,18.007568359375,6.556396484375,-24.553955078125
0.12,12.962646484375,11.641357421875,-24.593994140625
0.1205,10.159912109375,15.124755859375,-25.314697265625
0.121,5.475341796875,18.287841796875,-23.833251953125
0.1215,0.790771484375,20.970458984375,-21.871337890625
0.122,-4.053955078125,23.092529296875,-19.268798828125
0.1225,-10.099853515625,25.254638671875,-15.505126953125
0.123,-14.103759765625,24.453857421875,-10.740478515625
0.1235,-17.947509765625,24.934326171875,-7.417236328125
0.124,-20.349853515625,23.252685546875,-3.373291015625
0.1245,-23.032470703125,21.330810546875,1.311279296875
0.125,-24.473876953125,17.967529296875,6.196044921875
0.1255,-25.314697265625,13.403076171875,11.601318359375
0.126,-25.114501953125,10.039794921875,14.844482421875
0.1265,-24.353759765625,5.715576171875,18.447998046875
0.127,-22.592041015625,1.911865234375,20.489990234375
0.1275,-20.389892578125,-3.093017578125,23.172607421875
0.128,-16.706298828125,-8.898681640625,25.294677734375
0.1285,-11.541259765625,-13.423095703125,24.654052734375
0.129,-8.778564453125,-16.706298828125,25.134521484375
0.1295,-3.773681640625,-19.509033203125,22.932373046875
0.13,1.231201171875,-22.071533203125,20.810302734375
0.1305,5.835693359375,-23.713134765625,17.887451171875
0.131,11.681396484375,-25.314697265625,13.723388671875
0.1315,15.204833984375,-24.393798828125,9.359130859375
0.132,18.928466796875,-24.513916015625,5.795654296875
0.1325,20.970458984375,-22.592041015625,1.871826171875
0.133,23.653076171875,-20.469970703125,-3.052978515625
0.1335,24.694091796875,-16.746337890625,-7.977783203125
0.134,24.934326171875,-12.101806640625,-12.782470703125
0.1345,25.014404296875,-9.299072265625,-15.705322265625
0.135,23.653076171875,-4.734619140625,-18.948486328125
0.1355,21.811279296875,-0.730712890625,-21.150634765625
0.136,19.368896484375,4.154052734375,-23.552978515625
0.1365,15.244873046875,9.919677734375,-25.234619140625
0.137,10.480224609375,13.843505859375,-24.353759765625
0.1375,7.597412109375,17.126708984375,-24.794189453125
0.138,2.832763671875,19.489013671875,-22.351806640625
0.1385,-2.132080078125,22.291748046875,-20.349853515625
0.139,-6.976806640625,23.532958984375,-16.826416015625
0.1395,-12.502197265625,24.774169921875,-12.662353515625
0.14,-15.705322265625,24.293701171875,-9.018798828125
0.1405,-19.188720703125,23.773193359375,-5.054931640625
0.141,-20.990478515625,21.851318359375,-1.331298828125
0.1415,-23.472900390625,19.529052734375,3.553466796875
0.142,-24.393798828125,15.405029296875,8.718505859375
0.1425,-24.353759765625,10.880615234375,13.202880859375
0.143,-24.794189453125,8.478271484375,16.085693359375
0.1435,-22.912353515625,3.673583984375,19.008544921875
0.144,-21.270751953125,-0.610595703125,21.611083984375
0.1445,-18.227783203125,-5.575439453125,23.452880859375
0.145,-14.143798828125,-11.220947265625,25.014404296875
0.1455,-9.699462890625,-14.744384765625,24.093505859375
0.146,-6.336181640625,-17.987548828125,24.013427734375
0.1465,-1.331298828125,-20.189697265625,21.370849609375
0.147,3.753662109375,-23.192626953125,19.408935546875
0.1475,8.838623046875,-23.833251953125,15.044677734375
0.148,13.803466796875,-24.754150390625,11.080810546875
0.1485,16.806396484375,-24.473876953125,7.877685546875
0.149,20.249755859375,-23.352783203125,3.273193359375
0.1495,22.211669921875,-21.110595703125,-0.970947265625
0.15,24.413818359375,-18.427978515625,-5.895751953125
0.1505,25.014404296875,-14.103759765625,-10.900634765625
0.151,24.654052734375,-9.739501953125,-14.944580078125
0.1515,24.814208984375,-7.096923828125,-17.747314453125
0.152,22.451904296875,-1.891845703125,-20.630126953125
0.1525,20.570068359375,2.752685546875,-23.352783203125
0.153,16.446044921875,7.997802734375,-24.433837890625
0.1535,12.642333984375,13.042724609375,-25.755126953125
0.154,8.278076171875,16.406005859375,-24.634033203125
0.1545,4.234130859375,19.529052734375,-23.753173828125
0.155,-0.890869140625,21.651123046875,-20.950439453125
0.1555,-6.135986328125,24.614013671875,-18.708251953125
0.156,-11.220947265625,24.493896484375,-13.623291015625
0.1565,-15.705322265625,25.054443359375,-9.739501953125
0.157,-18.508056640625,24.654052734375,-6.616455078125
0.1575,-21.631103515625,22.932373046875,-1.771728515625
0.158,-23.472900390625,20.289794921875,2.832763671875
0.1585,-25.034423828125,16.766357421875,7.957763671875
0.159,-25.434814453125,12.562255859375,12.562255859375
0.1595,-24.794189453125,8.238037109375,16.325927734375
0.16,-24.393798828125,5.315185546875,18.848388671875
0.1605,-21.871337890625,0.030029296875,21.611083984375
0.161,-19.709228515625,-5.054931640625,24.413818359375
0.1615,-14.744384765625,-10.179931640625,24.533935546875
0.162,-11.260986328125,-14.544189453125,25.534912109375
0.1625,-7.056884765625,-17.547119140625,24.333740234375
0.163,-2.412353515625,-20.469970703125,22.652099609375
0.1635,2.512451171875,-22.431884765625,19.849365234375
0.164,8.157958984375,-24.994384765625,16.846435546875
0.1645,12.602294921875,-24.593994140625,12.081787109375
0.165,16.726318359375,-24.834228515625,8.238037109375
0.1655,19.208740234375,-24.153564453125,5.155029296875
0.166,22.091552734375,-22.111572265625,0.150146484375
0.1665,24.053466796875,-19.348876953125,-4.614501953125
0.167,24.814208984375,-15.144775390625,-9.619384765625
0.1675,25.294677734375,-11.581298828125,-13.743408203125
0.168,24.373779296875,-7.417236328125,-16.986572265625
0.1685,23.492919921875,-4.134033203125,-19.509033203125
0.169,21.010498046875,0.910888671875,-21.951416015625
0.1695,18.327880859375,6.356201171875,-24.754150390625
0.17,13.202880859375,11.120849609375,-24.313720703125
0.1705,10.039794921875,15.124755859375,-25.154541015625
0.171,6.196044921875,17.687255859375,-23.913330078125
0.1715,1.191162109375,20.650146484375,-21.871337890625
0.172,-3.453369140625,22.491943359375,-19.268798828125
0.1725,-9.259033203125,24.413818359375,-15.425048828125
0.173,-13.262939453125,24.213623046875,-11.381103515625
0.1735,-17.066650390625,24.213623046875,-7.537353515625
0.174,-19.188720703125,23.212646484375,-4.494384765625
0.1745,-21.791259765625,21.130615234375,0.310302734375
0.175,-23.753173828125,18.207763671875,5.275146484375
0.1755,-23.913330078125,13.483154296875,10.119873046875
0.176,-24.714111328125,10.560302734375,13.843505859375
0.1765,-23.673095703125,6.596435546875,16.806396484375
0.177,-22.431884765625,2.872802734375,19.328857421875
0.1775,-20.149658203125,-1.811767578125,21.611083984375
0.178,-16.946533203125,-7.537353515625,24.213623046875
0.1785,-12.221923828125,-11.701416015625,23.693115234375
0.179,-8.978759765625,-15.505126953125,24.213623046875
0.1795,-5.295166015625,-17.627197265625,22.692138671875
0.18,-0.170166015625,-20.630126953125,20.610107421875
0.1805,4.594482421875,-22.552001953125,17.927490234375
