wavelength,x,y,z
0.0,-22.291748046875,14.664306640625,6.576416015625
0.0005,-22.251708984375,10.980712890625,10.219970703125
0.001,-22.131591796875,7.217041015625,13.903564453125
0.0015,-21.290771484375,2.612548828125,17.787353515625
0.002,-19.248779296875,-2.031982421875,20.229736328125
0.0025,-16.966552734375,-5.475341796875,21.470947265625
0.003,-14.364013671875,-8.918701171875,22.431884765625
0.0035,-10.239990234375,-12.522216796875,22.031494140625
0.004,-5.235107421875,-16.526123046875,21.190673828125
0.0045,-0.550537109375,-19.529052734375,19.789306640625
0.005,4.494384765625,-21.691162109375,17.146728515625
0.0055,7.577392578125,-22.091552734375,14.824462890625
0.006,11.060791015625,-22.371826171875,11.781494140625
0.0065,14.464111328125,-22.171630859375,8.338134765625
0.007,18.067626953125,-21.010498046875,3.693603515625
0.0075,20.630126953125,-18.928466796875,-0.950927734375
0.008,22.031494140625,-16.686279296875,-4.514404296875
0.0085,22.431884765625,-13.803466796875,-7.837646484375
0.009,22.271728515625,-9.999755859375,-11.441162109375
0.0095,21.751220703125,-5.635498046875,-15.244873046875
0.01,20.790283203125,-1.431396484375,-18.528076171875
0.0105,18.508056640625,3.173095703125,-20.770263671875
0.011,15.905517578125,6.496337890625,-21.531005859375
0.0115,12.862548828125,9.939697265625,-22.131591796875
0.012,8.658447265625,13.783447265625,-21.851318359375
0.0125,3.453369140625,17.547119140625,-20.610107421875
0.013,-1.351318359375,20.109619140625,-18.728271484375
0.0135,-5.435302734375,21.791259765625,-16.606201171875
0.014,-8.598388671875,22.151611328125,-14.003662109375
0.0145,-12.081787109375,22.071533203125,-10.640380859375
0.015,-15.605224609375,21.711181640625,-6.876708984375
0.0155,-18.768310546875,20.389892578125,-2.512451171875
0.016,-21.090576171875,17.907470703125,2.252197265625
0.0165,-21.931396484375,15.465087890625,5.455322265625
0.017,-22.331787109375,12.422119140625,8.898681640625
0.0175,-22.051513671875,8.378173828125,12.622314453125
0.018,-21.290771484375,3.893798828125,16.345947265625
0.0185,-19.929443359375,-0.270263671875,19.188720703125
0.019,-17.767333984375,-4.394287109375,21.150634765625
0.0195,-15.004638671875,-7.677490234375,21.711181640625
0.02,-11.681396484375,-11.040771484375,21.911376953125
0.0205,-7.277099609375,-14.964599609375,21.631103515625
0.021,-2.072021484375,-18.447998046875,20.149658203125
0.0215,2.852783203125,-20.530029296875,17.707275390625
0.022,6.216064453125,-21.771240234375,15.745361328125
0.0225,9.499267578125,-22.171630859375,13.062744140625
0.023,12.982666015625,-21.971435546875,9.539306640625
0.0235,16.586181640625,-21.290771484375,5.415283203125
0.024,19.509033203125,-19.769287109375,1.091064453125
0.0245,21.470947265625,-17.326904296875,-3.313232421875
0.025,21.831298828125,-14.684326171875,-6.396240234375
0.0255,22.191650390625,-11.441162109375,-9.959716796875
0.026,21.871337890625,-7.116943359375,-13.883544921875
0.0265,20.990478515625,-2.832763671875,-17.286865234375
0.027,19.108642578125,1.531494140625,-19.689208984375
0.0275,16.866455078125,5.175048828125,-21.370849609375
0.028,13.943603515625,8.618408203125,-21.771240234375
0.0285,10.099853515625,12.181884765625,-21.691162109375
0.029,5.455322265625,16.065673828125,-21.130615234375
0.0295,0.490478515625,19.228759765625,-19.569091796875
0.03,-4.234130859375,21.110595703125,-17.006591796875
0.0305,-7.277099609375,21.791259765625,-14.884521484375
0.031,-10.640380859375,22.151611328125,-12.041748046875
0.0315,-14.364013671875,21.751220703125,-8.117919921875
0.032,-17.567138671875,20.750244140625,-3.993896484375
0.0325,-20.169677734375,18.748291015625,0.530517578125
0.033,-21.811279296875,16.385986328125,4.494384765625
0.0335,-21.931396484375,13.343017578125,7.577392578125
0.034,-22.091552734375,9.899658203125,11.260986328125
0.0345,-21.531005859375,5.375244140625,15.184814453125
0.035,-20.489990234375,1.131103515625,18.427978515625
0.0355,-18.287841796875,-3.113037109375,20.349853515625
0.036,-16.005615234375,-6.436279296875,21.510986328125
0.0365,-12.962646484375,-9.759521484375,21.911376953125
0.037,-8.518310546875,-13.563232421875,21.470947265625
0.0375,-3.953857421875,-16.966552734375,20.469970703125
0.038,1.091064453125,-19.729248046875,18.548095703125
0.0385,5.215087890625,-21.330810546875,16.305908203125
0.039,8.137939453125,-21.611083984375,13.783447265625
0.0395,11.461181640625,-21.931396484375,10.980712890625
0.04,15.304931640625,-21.290771484375,6.656494140625
0.0405,18.227783203125,-20.089599609375,2.572509765625
0.041,20.309814453125,-17.927490234375,-1.671630859375
0.0415,21.510986328125,-15.605224609375,-5.155029296875
0.042,21.591064453125,-12.442138671875,-8.318115234375
0.0425,21.551025390625,-8.518310546875,-12.201904296875
0.043,20.870361328125,-4.434326171875,-15.525146484375
0.0435,19.589111328125,-0.190185546875,-18.568115234375
0.044,17.306884765625,3.853759765625,-20.249755859375
0.0445,14.744384765625,6.936767578125,-20.850341796875
0.045,11.781494140625,10.260009765625,-21.370849609375
0.0455,6.776611328125,14.464111328125,-20.770263671875
0.046,2.452392578125,17.427001953125,-19.609130859375
0.0465,-2.232177734375,19.709228515625,-17.487060546875
0.047,-5.795654296875,21.110595703125,-15.565185546875
0.0475,-8.798583984375,21.190673828125,-12.842529296875
0.048,-12.121826171875,21.310791015625,-9.839599609375
0.0485,-15.805419921875,20.630126953125,-5.635498046875
0.049,-18.568115234375,19.068603515625,-1.391357421875
0.0495,-20.289794921875,16.826416015625,2.532470703125
0.05,-21.010498046875,14.384033203125,5.695556640625
0.0505,-21.250732421875,11.220947265625,9.018798828125
0.051,-20.970458984375,6.856689453125,13.142822265625
0.0515,-20.209716796875,3.093017578125,16.145751953125
0.052,-18.608154296875,-1.071044921875,18.628173828125
0.0525,-16.486083984375,-4.834716796875,20.349853515625
0.053,-13.643310546875,-7.717529296875,20.510009765625
0.0535,-10.600341796875,-11.040771484375,20.910400390625
0.054,-5.595458984375,-15.164794921875,20.229736328125
0.0545,-0.910888671875,-18.007568359375,18.628173828125
0.055,3.173095703125,-19.729248046875,16.586181640625
0.0555,6.416259765625,-20.810302734375,14.664306640625
0.056,9.579345703125,-21.010498046875,11.821533203125
0.0565,13.102783203125,-20.850341796875,8.258056640625
0.057,16.265869140625,-20.209716796875,4.614501953125
0.0575,18.908447265625,-18.327880859375,0.170166015625
0.058,20.389892578125,-16.165771484375,-3.433349609375
0.0585,20.670166015625,-13.443115234375,-6.436279296875
0.059,21.030517578125,-10.360107421875,-9.839599609375
0.0595,20.510009765625,-5.715576171875,-14.003662109375
0.06,19.589111328125,-1.911865234375,-16.886474609375
0.0605,17.707275390625,1.931884765625,-18.768310546875
0.061,15.665283203125,5.535400390625,-20.369873046875
0.0615,12.422119140625,8.698486328125,-20.449951171875
0.062,8.658447265625,12.342041015625,-20.489990234375
0.0625,4.174072265625,15.985595703125,-19.809326171875
0.063,-0.830810546875,18.708251953125,-17.807373046875
0.0635,-4.434326171875,20.149658203125,-15.885498046875
0.064,-7.477294921875,20.750244140625,-13.603271484375
0.0645,-10.640380859375,21.070556640625,-11.040771484375
0.065,-14.564208984375,20.429931640625,-6.556396484375
0.0655,-17.246826171875,19.388916015625,-2.992919921875
0.066,-19.408935546875,17.427001953125,1.211181640625
0.0665,-20.650146484375,15.104736328125,4.654541015625
0.067,-20.650146484375,11.981689453125,7.737548828125
0.0675,-20.890380859375,8.658447265625,11.301025390625
0.068,-20.369873046875,4.214111328125,15.104736328125
0.0685,-18.968505859375,0.090087890625,17.947509765625
0.069,-16.846435546875,-3.553466796875,19.468994140625
0.0695,-14.764404296875,-6.716552734375,20.510009765625
0.07,-11.561279296875,-9.959716796875,20.750244140625
0.0705,-6.796630859375,-14.003662109375,20.189697265625
0.071,-2.672607421875,-16.966552734375,19.228759765625
0.0715,2.132080078125,-19.248779296875,17.066650390625
0.072,5.495361328125,-20.489990234375,15.184814453125
0.0725,8.458251953125,-20.690185546875,12.502197265625
0.073,11.541259765625,-21.010498046875,9.939697265625
0.0735,15.505126953125,-20.209716796875,5.295166015625
0.074,18.027587890625,-18.648193359375,1.331298828125
0.0745,19.629150390625,-16.726318359375,-2.192138671875
0.075,20.550048828125,-14.323974609375,-5.435302734375
0.0755,20.510009765625,-11.160888671875,-8.558349609375
0.076,20.469970703125,-6.916748046875,-12.482177734375
0.0765,19.829345703125,-3.353271484375,-15.645263671875
0.077,18.227783203125,0.850830078125,-18.207763671875
0.0775,16.025634765625,4.334228515625,-19.529052734375
0.078,13.383056640625,7.377197265625,-20.009521484375
0.0785,10.420166015625,10.660400390625,-20.489990234375
0.079,5.094970703125,14.904541015625,-19.448974609375
0.0795,0.930908203125,17.467041015625,-18.207763671875
0.08,-2.952880859375,19.228759765625,-16.365966796875
0.0805,-6.236083984375,20.349853515625,-14.404052734375
0.081,-9.279052734375,20.229736328125,-11.441162109375
0.0815,-12.522216796875,20.189697265625,-8.358154296875
0.082,-15.845458984375,19.509033203125,-4.474365234375
0.0825,-18.247802734375,17.547119140625,-0.150146484375
0.083,-19.368896484375,15.585205078125,2.932861328125
0.0835,-19.929443359375,13.062744140625,6.015869140625
0.084,-20.129638671875,10.059814453125,9.138916015625
0.0845,-19.649169921875,5.455322265625,13.302978515625
0.085,-18.848388671875,1.971923828125,15.985595703125
0.0855,-17.246826171875,-1.751708984375,18.027587890625
0.086,-15.244873046875,-5.074951171875,19.348876953125
0.0865,-12.201904296875,-7.997802734375,19.388916015625
0.087,-8.958740234375,-11.321044921875,19.709228515625
0.0875,-4.234130859375,-15.084716796875,18.908447265625
0.088,0.450439453125,-17.567138671875,16.946533203125
0.0885,3.493408203125,-18.928466796875,15.385009765625
0.089,6.576416015625,-19.769287109375,13.423095703125
0.0895,9.499267578125,-19.889404296875,10.700439453125
0.09,13.142822265625,-19.408935546875,6.776611328125
0.0905,15.865478515625,-18.648193359375,3.413330078125
0.091,17.947509765625,-16.806396484375,-0.510498046875
0.0915,18.948486328125,-14.764404296875,-3.473388671875
0.092,19.188720703125,-12.001708984375,-6.396240234375
0.0925,19.509033203125,-9.038818359375,-9.639404296875
0.093,19.068603515625,-4.794677734375,-13.483154296875
0.0935,17.907470703125,-0.990966796875,-16.085693359375
0.094,16.185791015625,2.252197265625,-17.647216796875
0.0945,14.223876953125,5.455322265625,-18.928466796875
0.095,11.180908203125,8.498291015625,-19.008544921875
0.0955,6.976806640625,12.302001953125,-18.888427734375
0.096,3.052978515625,15.465087890625,-18.207763671875
0.0965,-1.591552734375,17.667236328125,-16.165771484375
0.097,-4.434326171875,18.748291015625,-14.524169921875
0.0975,-7.397216796875,19.228759765625,-12.322021484375
0.098,-10.320068359375,19.629150390625,-9.839599609375
0.0985,-14.083740234375,18.908447265625,-5.515380859375
0.099,-16.566162109375,17.627197265625,-1.871826171875
0.0995,-18.127685546875,15.945556640625,1.411376953125
0.1,-19.048583984375,13.703369140625,4.494384765625
0.1005,-19.088623046875,10.700439453125,7.497314453125
0.101,-19.168701171875,7.177001953125,11.100830078125
0.1015,-18.768310546875,3.453369140625,14.424072265625
0.102,-17.246826171875,-0.590576171875,16.866455078125
0.1025,-15.405029296875,-3.593505859375,18.067626953125
0.103,-13.242919921875,-6.556396484375,18.988525390625
0.1035,-10.199951171875,-9.719482421875,19.228759765625
0.104,-5.275146484375,-13.723388671875,18.508056640625
0.1045,-1.311279296875,-16.406005859375,17.346923828125
0.105,2.532470703125,-18.207763671875,15.625244140625
0.1055,5.455322265625,-19.088623046875,13.743408203125
0.106,8.498291015625,-19.208740234375,11.060791015625
0.1065,11.541259765625,-19.368896484375,8.378173828125
0.107,14.864501953125,-18.648193359375,4.414306640625
0.1075,17.226806640625,-16.886474609375,0.370361328125
0.108,18.267822265625,-15.164794921875,-2.432373046875
0.1085,18.948486328125,-12.802490234375,-5.435302734375
0.109,19.068603515625,-9.839599609375,-8.478271484375
0.1095,18.748291015625,-5.715576171875,-12.281982421875
0.11,18.107666015625,-2.232177734375,-15.084716796875
0.1105,16.586181640625,1.411376953125,-17.246826171875
0.111,14.464111328125,4.534423828125,-18.247802734375
0.1115,11.781494140625,7.617431640625,-18.648193359375
0.112,8.578369140625,10.940673828125,-18.968505859375
0.1125,3.853759765625,14.584228515625,-18.127685546875
0.113,-0.590576171875,16.946533203125,-16.365966796875
0.1135,-3.553466796875,18.267822265625,-14.924560546875
0.114,-6.516357421875,19.108642578125,-12.962646484375
0.1145,-9.359130859375,19.228759765625,-10.159912109375
0.115,-12.842529296875,18.908447265625,-6.716552734375
0.1155,-15.645263671875,18.067626953125,-3.193115234375
0.116,-17.727294921875,16.105712890625,0.850830078125
0.1165,-18.447998046875,14.103759765625,3.533447265625
0.117,-18.928466796875,11.501220703125,6.536376953125
0.1175,-19.088623046875,8.418212890625,9.779541015625
0.118,-18.608154296875,4.214111328125,13.463134765625
0.1185,-17.447021484375,0.610595703125,15.985595703125
0.119,-15.965576171875,-2.632568359375,17.667236328125
0.1195,-13.843505859375,-5.715576171875,18.708251953125
0.12,-10.800537109375,-8.678466796875,18.748291015625
0.1205,-6.956787109375,-12.402099609375,18.748291015625
0.121,-2.592529296875,-15.605224609375,17.787353515625
0.1215,1.891845703125,-17.687255859375,15.665283203125
0.122,4.454345703125,-18.568115234375,14.223876953125
0.1225,7.457275390625,-19.248779296875,12.061767578125
0.123,10.500244140625,-19.288818359375,9.259033203125
0.1235,13.903564453125,-18.728271484375,5.375244140625
0.124,16.426025390625,-17.487060546875,1.771728515625
0.1245,18.107666015625,-15.725341796875,-1.751708984375
0.125,18.708251953125,-13.483154296875,-4.474365234375
0.1255,18.908447265625,-10.600341796875,-7.597412109375
0.126,18.948486328125,-7.076904296875,-11.080810546875
0.1265,18.548095703125,-3.353271484375,-14.444091796875
0.127,16.946533203125,0.610595703125,-16.726318359375
0.1275,15.224853515625,3.573486328125,-17.967529296875
0.128,12.902587890625,6.696533203125,-18.888427734375
0.1285,9.459228515625,9.939697265625,-18.928466796875
0.129,5.135009765625,13.583251953125,-18.407958984375
0.1295,0.970947265625,16.426025390625,-17.286865234375
0.13,-3.072998046875,18.267822265625,-15.405029296875
0.1305,-5.715576171875,18.908447265625,-13.483154296875
0.131,-8.798583984375,19.348876953125,-11.040771484375
0.1315,-12.081787109375,19.348876953125,-7.837646484375
0.132,-15.164794921875,18.548095703125,-4.033935546875
0.1325,-17.487060546875,16.786376953125,0.010009765625
0.133,-18.768310546875,14.904541015625,3.052978515625
0.1335,-19.288818359375,12.422119140625,6.015869140625
0.134,-19.368896484375,9.178955078125,9.339111328125
0.1345,-19.088623046875,5.295166015625,12.902587890625
0.135,-18.367919921875,1.571533203125,15.945556640625
0.1355,-16.526123046875,-2.312255859375,17.907470703125
0.136,-14.444091796875,-5.195068359375,18.748291015625
0.1365,-11.881591796875,-8.318115234375,19.388916015625
0.137,-7.957763671875,-12.001708984375,19.268798828125
0.1375,-3.473388671875,-15.244873046875,18.267822265625
0.138,0.930908203125,-17.567138671875,16.506103515625
0.1385,4.334228515625,-19.128662109375,14.864501953125
0.139,7.136962890625,-19.529052734375,12.622314453125
0.1395,10.219970703125,-19.689208984375,9.939697265625
0.14,13.703369140625,-19.368896484375,6.256103515625
0.1405,16.506103515625,-18.247802734375,2.412353515625
0.141,18.508056640625,-16.285888671875,-1.551513671875
0.1415,19.268798828125,-14.163818359375,-4.394287109375
0.142,19.709228515625,-11.401123046875,-7.477294921875
0.1425,19.629150390625,-7.757568359375,-11.040771484375
0.143,19.028564453125,-3.993896484375,-14.283935546875
0.1435,17.787353515625,-0.150146484375,-16.846435546875
0.144,15.985595703125,3.493408203125,-18.648193359375
0.1445,13.423095703125,6.336181640625,-19.168701171875
0.145,10.580322265625,9.459228515625,-19.529052734375
0.1455,6.216064453125,13.383056640625,-19.208740234375
0.146,1.811767578125,16.426025390625,-18.007568359375
0.1465,-2.472412109375,18.307861328125,-15.925537109375
0.147,-5.435302734375,19.509033203125,-14.203857421875
0.1475,-8.398193359375,19.789306640625,-11.841552734375
0.148,-11.561279296875,19.749267578125,-8.758544921875
0.1485,-14.844482421875,19.148681640625,-5.074951171875
0.149,-17.447021484375,17.667236328125,-1.031005859375
0.1495,-19.168701171875,15.665283203125,2.652587890625
0.15,-19.529052734375,13.182861328125,5.415283203125
0.1505,-19.849365234375,10.340087890625,8.618408203125
0.151,-19.609130859375,6.176025390625,12.502197265625
0.1515,-18.928466796875,2.492431640625,15.505126953125
0.152,-17.246826171875,-1.351318359375,17.627197265625
0.1525,-15.445068359375,-4.634521484375,19.188720703125
0.153,-12.762451171875,-7.557373046875,19.509033203125
0.1535,-9.359130859375,-10.880615234375,19.549072265625
0.154,-5.034912109375,-14.484130859375,19.028564453125
0.1545,-0.390380859375,-17.326904296875,17.467041015625
0.155,3.493408203125,-18.968505859375,15.505126953125
0.1555,6.256103515625,-19.609130859375,13.583251953125
0.156,9.379150390625,-20.089599609375,11.140869140625
0.1565,12.942626953125,-19.809326171875,7.377197265625
0.157,15.865478515625,-19.048583984375,3.853759765625
0.1575,18.227783203125,-17.286865234375,-0.270263671875
0.158,19.709228515625,-15.324951171875,-3.673583984375
0.1585,19.869384765625,-12.522216796875,-6.556396484375
0.159,20.189697265625,-9.399169921875,-9.999755859375
0.1595,19.749267578125,-5.155029296875,-13.803466796875
0.16,18.828369140625,-1.271240234375,-16.726318359375
0.1605,16.786376953125,2.492431640625,-18.528076171875
0.161,14.744384765625,5.615478515625,-19.689208984375
0.1615,11.781494140625,8.858642578125,-20.089599609375
0.162,7.497314453125,12.782470703125,-19.769287109375
0.1625,3.373291015625,15.945556640625,-19.008544921875
0.163,-1.471435546875,18.468017578125,-17.046630859375
0.1635,-4.994873046875,19.949462890625,-15.164794921875
0.164,-7.877685546875,20.229736328125,-12.762451171875
0.1645,-11.000732421875,20.630126953125,-10.239990234375
0.165,-14.924560546875,19.989501953125,-5.795654296875
0.1655,-17.647216796875,18.708251953125,-1.911865234375
0.166,-19.529052734375,16.666259765625,2.011962890625
0.1665,-20.570068359375,14.384033203125,5.335205078125
0.167,-20.650146484375,11.220947265625,8.498291015625
0.1675,-20.690185546875,7.417236328125,12.302001953125
0.168,-20.049560546875,3.453369140625,15.665283203125
0.1685,-18.568115234375,-0.910888671875,18.468017578125
0.169,-16.365966796875,-4.554443359375,19.909423828125
0.1695,-13.843505859375,-7.557373046875,20.469970703125
0.17,-10.880615234375,-10.760498046875,20.910400390625
0.1705,-5.635498046875,-15.044677734375,20.149658203125
0.171,-1.311279296875,-17.807373046875,18.788330078125
0.1715,3.173095703125,-19.809326171875,16.666259765625
0.172,6.576416015625,-21.010498046875,14.704345703125
0.1725,9.659423828125,-20.970458984375,11.661376953125
0.173,12.862548828125,-21.130615234375,8.818603515625
0.1735,16.586181640625,-20.329833984375,4.454345703125
0.174,19.228759765625,-18.447998046875,0.010009765625
0.1745,20.670166015625,-16.365966796875,-3.553466796875
0.175,21.310791015625,-13.683349609375,-6.796630859375
0.1755,21.390869140625,-10.440185546875,-10.119873046875
0.176,20.990478515625,-5.755615234375,-14.364013671875
0.1765,20.109619140625,-2.072021484375,-17.206787109375
0.177,18.227783203125,2.132080078125,-19.529052734375
0.1775,15.865478515625,5.815673828125,-20.970458984375
0.178,12.582275390625,9.018798828125,-20.890380859375
0.1785,9.259033203125,12.502197265625,-21.210693359375
0.179,3.893798828125,16.626220703125,-20.209716796875
0.1795,-0.990966796875,19.268798828125,-18.247802734375
0.18,-4.634521484375,20.670166015625,-16.205810546875
0.1805,-7.997802734375,21.591064453125,-14.043701171875
0.181,-11.281005859375,21.430908203125,-10.760498046875
