wavelength,x,y,z
0.0,3.7236328125,0.240234375,-4.32421875
0.0005,3.0830078125,1.1611328125,-4.5244140625
0.001,2.2822265625,2.08203125,-4.724609375
0.0015,1.4814453125,3.203125,-4.884765625
0.002,0.6806640625,3.5634765625,-4.484375
0.0025,-0.2802734375,4.3642578125,-4.32421875
0.003,-1.201171875,4.4443359375,-3.4833984375
0.0035,-1.921875,4.8046875,-3.1630859375
0.004,-3.2431640625,4.9248046875,-1.9619140625
0.0045,-3.8037109375,4.884765625,-1.4013671875
0.005,-4.3642578125,4.4443359375,-0.48046875
0.0055,-4.7646484375,4.1640625,0.2802734375
0.006,-4.7646484375,3.3232421875,1.0810546875
0.0065,-4.884765625,2.8427734375,1.681640625
0.007,-5.044921875,1.921875,2.7626953125
0.0075,-4.724609375,1.2412109375,3.0830078125
0.008,-4.564453125,0.2802734375,3.8837890625
0.0085,-3.7236328125,-0.8408203125,4.00390625
0.009,-3.3232421875,-1.6416015625,4.3642578125
0.0095,-2.3623046875,-2.6025390625,4.4443359375
0.01,-1.76171875,-3.4033203125,4.6044921875
0.0105,-0.9208984375,-3.8037109375,4.1240234375
0.011,-0.16015625,-4.484375,4.0439453125
0.0115,0.720703125,-4.5244140625,3.203125
0.012,1.44140625,-4.9248046875,2.9228515625
0.0125,2.642578125,-5.0849609375,1.8818359375
0.013,3.04296875,-4.96484375,1.44140625
0.0135,3.6435546875,-4.6845703125,0.560546875
0.014,3.8837890625,-4.244140625,-0.080078125
0.0145,4.0439453125,-3.68359375,-0.80078125
0.015,4.1240234375,-3.0830078125,-1.4814453125
0.0155,4.404296875,-2.4423828125,-2.3623046875
0.016,4.00390625,-1.681640625,-2.7626953125
0.0165,4.00390625,-0.880859375,-3.5634765625
0.017,3.0830078125,0.2001953125,-3.68359375
0.0175,2.8828125,0.9208984375,-4.1240234375
0.018,1.9619140625,1.9619140625,-4.2041015625
0.0185,1.5615234375,1.28125,-4.4443359375
0.019,0.6005859375,3.1630859375,-3.9638671875
0.0195,-0.1201171875,3.68359375,-3.8037109375
0.02,-0.9609375,3.8837890625,-3.123046875
0.0205,-1.76171875,4.2041015625,-2.72265625
0.021,-2.8427734375,4.484375,-1.921875
0.0215,-3.1630859375,4.2041015625,-2.5625
0.022,-3.8037109375,4.1240234375,-0.6005859375
0.0225,-3.923828125,3.4833984375,0.16015625
0.023,-4.2041015625,3.1630859375,0.720703125
0.0235,-4.2841796875,2.40234375,1.521484375
0.024,-4.5244140625,1.9619140625,2.2421875
0.0245,-4.083984375,1.0009765625,2.642578125
0.025,-4.083984375,0.3203125,3.283203125
0.0255,-3.1630859375,-0.720703125,3.4833984375
0.026,-3.04296875,-1.3212890625,3.8837890625
0.0265,-2.162109375,-2.40234375,4.00390625
0.027,-1.76171875,-2.8427734375,4.00390625
0.0275,-0.9208984375,-3.443359375,3.8037109375
0.028,-0.2802734375,-3.8037109375,3.4833984375
0.0285,0.5205078125,-4.1240234375,3.04296875
0.029,1.3212890625,-4.3642578125,2.482421875
0.0295,2.2421875,-4.64453125,1.9619140625
0.03,2.5224609375,-4.32421875,1.3212890625
0.0305,3.123046875,-4.3642578125,0.80078125
0.031,3.203125,-3.68359375,0.0400390625
0.0315,3.5634765625,-3.5234375,-0.5205078125
0.032,3.68359375,-2.7626953125,-1.361328125
0.0325,3.8837890625,-2.5224609375,-1.921875
0.033,3.5634765625,-1.521484375,-2.5224609375
0.0335,3.4033203125,-0.880859375,-2.9228515625
0.034,2.72265625,0.16015625,-3.2431640625
0.0345,1.28125,0.80078125,-3.68359375
0.035,1.9619140625,1.76171875,-3.9638671875
0.0355,1.361328125,2.1220703125,-3.8037109375
0.036,0.640625,2.8427734375,-3.763671875
0.0365,-0.1201171875,3.0830078125,-3.2431640625
0.037,-0.80078125,3.5634765625,-3.04296875
0.0375,-1.76171875,3.8037109375,-2.322265625
0.038,-2.482421875,4.0439453125,-1.921875
0.0385,-2.8427734375,3.68359375,-1.1611328125
0.039,-3.2431640625,3.7236328125,-0.7607421875
0.0395,-3.4833984375,3.04296875,0.0400390625
0.04,-3.763671875,2.8828125,0.560546875
0.0405,-3.9638671875,2.2021484375,1.361328125
0.041,-3.9638671875,1.8017578125,1.76171875
0.0415,-3.763671875,0.9208984375,2.4423828125
0.042,-3.443359375,0.2001953125,2.7626953125
0.0425,-3.04296875,-0.640625,3.203125
0.043,-2.642578125,-1.361328125,3.5234375
0.0435,-2.2021484375,-2.08203125,3.8037109375
0.044,-1.5615234375,-2.482421875,3.5234375
0.0445,-1.0009765625,-3.123046875,3.603515625
0.045,-0.240234375,-3.36328125,3.0830078125
0.0455,0.400390625,-5.125,2.9228515625
0.046,1.361328125,-4.1240234375,2.2421875
0.0465,1.8017578125,-4.2841796875,1.9619140625
0.047,2.322265625,-4.00390625,1.2412109375
0.0475,2.642578125,-3.9638671875,0.8408203125
0.048,3.0830078125,-3.443359375,0.080078125
0.0485,3.2431640625,-3.2431640625,-0.48046875
0.049,3.603515625,-2.802734375,-1.3212890625
0.0495,3.443359375,-2.1220703125,-1.7216796875
0.05,3.4833984375,-1.4013671875,-2.482421875
0.0505,2.8828125,-0.5205078125,-2.72265625
0.051,2.7626953125,0.2001953125,-3.3232421875
0.0515,2.2021484375,1.041015625,-3.5634765625
0.052,1.841796875,1.681640625,-3.8037109375
0.0525,1.041015625,2.2021484375,-3.5234375
0.053,0.5205078125,2.7626953125,-3.5234375
0.0535,-0.400390625,3.0830078125,-2.962890625
0.054,-1.12109375,3.5234375,-2.72265625
0.0545,-2.0419921875,3.8037109375,-2.0419921875
0.055,-2.482421875,3.7236328125,-1.5615234375
0.0555,-3.0029296875,3.603515625,-0.9609375
0.056,-3.2431640625,3.203125,-0.3203125
0.0565,-3.5234375,2.8427734375,0.2802734375
0.057,-3.68359375,2.322265625,0.9208984375
0.0575,-3.9638671875,2.001953125,1.6015625
0.058,-3.603515625,1.1611328125,2.0419921875
0.0585,-3.68359375,0.6005859375,2.642578125
0.059,-2.962890625,-0.400390625,2.8828125
0.0595,-2.8427734375,-0.9609375,3.36328125
0.06,-2.2021484375,-1.921875,3.603515625
0.0605,-1.76171875,-2.3623046875,3.6435546875
0.061,-1.12109375,-2.8828125,3.443359375
0.0615,-0.48046875,-3.283203125,3.283203125
0.062,0.2802734375,-3.6435546875,2.802734375
0.0625,1.041015625,-4.00390625,2.482421875
0.063,1.8818359375,-4.32421875,1.9619140625
0.0635,2.2021484375,-4.00390625,1.3212890625
0.064,2.6826171875,-4.1640625,0.8408203125
0.0645,2.8828125,-3.5234375,0.16015625
0.065,3.1630859375,-3.36328125,-0.3203125
0.0655,3.443359375,-2.6826171875,-1.201171875
0.066,3.6435546875,-2.2822265625,-1.76171875
0.0665,3.2431640625,-1.3212890625,-2.322265625
0.067,3.203125,-0.7607421875,-2.8427734375
0.0675,1.28125,0.2001953125,-3.123046875
0.068,2.40234375,0.880859375,-3.5634765625
0.0685,1.76171875,1.8017578125,-5.125
0.069,1.12109375,2.2421875,-3.6435546875
0.0695,0.5205078125,2.802734375,-3.5634765625
0.07,-0.3203125,3.1630859375,-3.123046875
0.0705,-1.12109375,3.5234375,-2.6826171875
0.071,-1.9619140625,3.8037109375,-2.1220703125
0.0715,-2.72265625,4.00390625,-1.5615234375
0.072,-3.0029296875,3.4833984375,-0.880859375
0.0725,-3.4833984375,3.5234375,-0.4404296875
0.073,-3.6435546875,2.6826171875,0.3203125
0.0735,-3.8837890625,1.28125,0.9609375
0.074,-4.083984375,1.8818359375,1.8017578125
0.0745,-3.9638671875,0.0,2.2822265625
0.075,-3.5634765625,0.3203125,2.8427734375
0.0755,-3.3232421875,-0.3603515625,3.203125
0.076,-2.6826171875,-1.2412109375,3.4833984375
0.0765,-2.322265625,-1.921875,3.8037109375
0.077,-1.6416015625,-2.802734375,3.8837890625
0.0775,-0.9208984375,-3.1630859375,3.5234375
0.078,-0.3603515625,-3.68359375,3.5234375
0.0785,0.6005859375,-3.923828125,2.802734375
0.079,1.3212890625,-4.2841796875,2.4423828125
0.0795,2.2021484375,-4.4443359375,1.76171875
0.08,2.802734375,-4.484375,1.1611328125
0.0805,3.0830078125,-4.00390625,0.4404296875
0.081,3.4033203125,-3.9638671875,-0.0400390625
0.0815,3.4833984375,-3.123046875,-0.880859375
0.082,3.7236328125,-2.7626953125,-1.4013671875
0.0825,3.923828125,-2.001953125,-2.3623046875
0.083,3.5634765625,-1.201171875,-2.802734375
0.0835,3.283203125,-0.3603515625,-3.283203125
0.084,2.72265625,0.5205078125,-3.5234375
0.0845,2.2021484375,1.3212890625,-5.125
0.085,1.681640625,2.08203125,-4.083984375
0.0855,0.9609375,2.9228515625,-4.1240234375
0.086,0.080078125,3.2431640625,-3.5634765625
0.0865,-0.5205078125,3.763671875,-3.5234375
0.087,-1.76171875,4.00390625,-2.5224609375
0.0875,-2.40234375,4.2041015625,-2.162109375
0.088,-3.3232421875,4.32421875,-2.5625
0.0885,-3.8037109375,4.0439453125,-0.6005859375
0.089,-4.00390625,3.5634765625,0.080078125
0.0895,-4.32421875,3.203125,0.720703125
0.09,-4.404296875,2.3623046875,1.681640625
0.0905,-4.4443359375,1.8818359375,2.2021484375
0.091,-4.564453125,1.041015625,3.123046875
0.0915,-5.125,0.0400390625,3.4033203125
0.092,-3.6435546875,-0.7607421875,3.8837890625
0.0925,-2.72265625,-1.8017578125,4.0439453125
0.093,-2.2021484375,-2.642578125,4.244140625
0.0935,-1.4013671875,-3.36328125,4.2041015625
0.094,-0.6005859375,-4.083984375,4.1640625
0.0945,0.240234375,-4.2041015625,3.4833984375
0.095,0.9208984375,-4.724609375,3.2431640625
0.0955,2.2021484375,-4.8447265625,2.1220703125
0.096,2.72265625,-5.0048828125,1.7216796875
0.0965,3.5634765625,-4.96484375,0.8408203125
0.097,3.8837890625,-4.5244140625,0.080078125
0.0975,4.0439453125,-3.9638671875,-0.560546875
0.098,4.244140625,-3.4033203125,-2.5625
0.0985,4.3642578125,-3.84375,-2.2421875
0.099,4.244140625,-1.921875,-2.72265625
0.0995,4.32421875,-1.0810546875,-3.68359375
0.1,3.4033203125,0.080078125,-5.125
0.1005,3.203125,0.80078125,-4.2841796875
0.101,2.08203125,2.001953125,-4.404296875
0.1015,1.5615234375,2.802734375,-4.6044921875
0.102,0.6806640625,3.4833984375,-4.404296875
0.1025,-0.240234375,4.1640625,-4.2041015625
0.103,-1.12109375,4.2841796875,-3.443359375
0.1035,-1.921875,4.7646484375,-3.04296875
0.104,-3.3232421875,4.8447265625,-1.8818359375
0.1045,-3.8037109375,4.724609375,-2.5625
0.105,-4.6044921875,4.564453125,-0.3603515625
0.1055,-4.8046875,4.00390625,0.48046875
0.106,-4.9248046875,3.443359375,1.1611328125
0.1065,-5.044921875,2.6025390625,2.08203125
0.107,-5.1650390625,1.76171875,3.0830078125
0.1075,-4.7646484375,0.9208984375,3.4833984375
0.108,-4.724609375,-0.0400390625,4.32421875
0.1085,-3.6435546875,-1.2412109375,4.3642578125
0.109,-3.3232421875,-1.921875,4.724609375
0.1095,-2.0419921875,-3.2431640625,4.8046875
0.11,-1.4013671875,-3.9638671875,4.8447265625
0.1105,-0.4404296875,-4.5244140625,4.3642578125
0.111,0.4404296875,-6.40625,4.083984375
0.1115,1.3212890625,-5.0849609375,3.203125
0.112,2.2021484375,-5.4853515625,2.72265625
0.1125,3.5234375,-5.60546875,1.521484375
0.113,3.8837890625,-5.3251953125,0.8408203125
0.1135,4.564453125,-5.044921875,-0.0400390625
0.114,4.64453125,-4.2841796875,-0.880859375
0.1145,4.7646484375,-3.7236328125,-1.521484375
0.115,4.8447265625,-2.72265625,-2.5224609375
0.1155,4.9248046875,-1.9619140625,-3.4033203125
0.116,4.3642578125,-0.9609375,-3.763671875
0.1165,4.244140625,-0.080078125,-4.564453125
0.117,3.0830078125,1.12109375,-4.5244140625
0.1175,2.7626953125,1.8017578125,-4.8447265625
0.118,1.521484375,3.203125,-4.9248046875
0.1185,0.9208984375,3.763671875,-4.884765625
0.119,-0.240234375,4.3642578125,-4.32421875
0.1195,-1.0009765625,4.8447265625,-4.00390625
0.12,-1.9619140625,4.8447265625,-3.123046875
0.1205,-2.9228515625,3.84375,-2.5224609375
0.121,-4.244140625,5.28515625,-1.361328125
0.1215,-4.564453125,4.8046875,-0.5205078125
0.122,-5.2451171875,4.564453125,0.3603515625
0.1225,-5.2451171875,3.68359375,1.201171875
0.123,-5.3251953125,3.1630859375,1.8818359375
0.1235,-5.365234375,2.001953125,2.9228515625
0.124,-5.4052734375,0.0,3.7236328125
0.1245,-4.6845703125,0.16015625,4.1240234375
0.125,-4.484375,-0.7607421875,4.8046875
0.1255,-3.3232421875,-1.921875,4.724609375
0.126,-2.8828125,-2.6025390625,5.0048828125
0.1265,-1.6416015625,-3.9638671875,5.0849609375
0.127,-0.880859375,-4.484375,4.7646484375
0.1275,0.2001953125,-5.044921875,4.2041015625
0.128,1.0009765625,-5.4052734375,3.8037109375
0.1285,1.921875,-5.4453125,2.8828125
0.129,2.8828125,-5.60546875,2.2021484375
0.1295,4.0439453125,-5.7255859375,1.1611328125
0.13,4.244140625,-5.044921875,0.2802734375
0.1305,4.8447265625,-4.8447265625,-0.48046875
0.131,4.7646484375,-3.8837890625,-1.3212890625
0.1315,4.8447265625,-3.36328125,-1.921875
0.132,4.8447265625,-2.2822265625,-3.04296875
0.1325,4.8447265625,-1.5615234375,-3.68359375
0.133,4.1240234375,-0.3603515625,-4.083984375
0.1335,2.5625,0.48046875,-4.6044921875
0.134,2.72265625,1.5615234375,-4.564453125
0.1345,2.322265625,2.2421875,-4.8046875
0.135,1.2412109375,3.5234375,-4.96484375
0.1355,0.3603515625,3.8837890625,-4.484375
0.136,-0.560546875,4.4443359375,-4.1240234375
0.1365,-1.4013671875,4.64453125,-3.5634765625
0.137,-2.2822265625,4.8046875,-2.8427734375
0.1375,-3.283203125,5.0048828125,-1.9619140625
0.138,-4.32421875,3.84375,-1.12109375
0.1385,-4.484375,4.32421875,-0.1201171875
0.139,-5.044921875,4.2041015625,0.48046875
0.1395,-4.9248046875,3.203125,1.361328125
0.14,-5.0849609375,2.7626953125,1.9619140625
0.1405,-6.40625,1.681640625,3.0830078125
0.141,-4.96484375,1.0009765625,3.5634765625
0.1415,-4.2841796875,-0.240234375,4.0439453125
0.142,-3.923828125,-1.0009765625,4.4443359375
0.1425,-2.9228515625,-2.0419921875,4.484375
0.143,-2.482421875,-2.802734375,4.64453125
0.1435,-1.44140625,-3.8837890625,4.8046875
0.144,-0.560546875,-4.244140625,4.1640625
0.1445,0.16015625,-4.8046875,4.00390625
0.145,1.12109375,-4.9248046875,3.203125
0.1455,1.8818359375,-5.0849609375,2.642578125
0.146,2.8427734375,-5.1650390625,1.8017578125
0.1465,3.603515625,-5.2451171875,1.0810546875
0.147,2.5625,-4.484375,0.16015625
0.1475,4.244140625,-4.404296875,-0.3203125
0.148,4.1640625,-3.443359375,-1.2412109375
0.1485,4.3642578125,-3.04296875,-1.76171875
0.149,4.484375,-2.08203125,-2.802734375
0.1495,4.1240234375,-1.361328125,-3.1630859375
0.15,3.68359375,-0.3203125,-3.763671875
0.1505,3.1630859375,0.48046875,-3.9638671875
0.151,2.5224609375,1.3212890625,-4.1640625
0.1515,1.9619140625,2.1220703125,-4.3642578125
0.152,1.201171875,3.0029296875,-4.5244140625
0.1525,0.2802734375,3.3232421875,-5.125
0.153,-0.3203125,3.8837890625,-3.8837890625
0.1535,-1.3212890625,4.0439453125,-2.962890625
0.154,-2.001953125,4.404296875,-2.642578125
0.1545,-3.0830078125,4.5244140625,-1.76171875
0.155,-3.6435546875,4.404296875,-1.12109375
0.1555,-3.9638671875,3.8837890625,-0.2802734375
0.156,-4.244140625,3.68359375,0.240234375
0.1565,-4.32421875,2.8828125,1.12109375
0.157,-4.484375,2.482421875,1.6416015625
0.1575,-4.6845703125,1.6416015625,2.642578125
0.158,-4.1640625,0.80078125,2.962890625
0.1585,-4.00390625,-0.080078125,3.6435546875
0.159,-3.2431640625,-0.9609375,3.763671875
0.1595,-2.8427734375,-1.76171875,4.0439453125
0.16,-2.08203125,-2.6025390625,4.1640625
0.1605,-1.44140625,-3.36328125,4.2041015625
0.161,-0.6005859375,-3.68359375,3.6435546875
0.1615,0.0400390625,-4.1640625,3.6435546875
0.162,0.9609375,-4.2841796875,2.7626953125
0.1625,1.6015625,-4.64453125,2.5224609375
0.163,1.28125,-4.7646484375,1.6416015625
0.1635,2.9228515625,-4.484375,1.041015625
0.164,3.36328125,-4.2041015625,0.3603515625
0.1645,3.5234375,-3.763671875,-0.2001953125
0.165,3.7236328125,-3.203125,-0.9609375
0.1655,3.8037109375,-2.6826171875,-1.5615234375
0.166,4.0439453125,-2.08203125,-2.3623046875
0.1665,3.443359375,-1.1611328125,-2.6826171875
0.167,3.4033203125,-0.48046875,-3.3232421875
0.1675,2.6025390625,0.48046875,-3.4033203125
0.168,2.4423828125,1.041015625,-3.8837890625
0.1685,1.76171875,1.9619140625,-4.00390625
0.169,1.12109375,2.482421875,-3.9638671875
0.1695,0.3603515625,2.962890625,-3.5234375
0.17,-0.2802734375,3.4033203125,-3.36328125
0.1705,-1.2412109375,3.6435546875,-2.6826171875
0.171,-1.921875,4.00390625,-2.3623046875
0.1715,-2.802734375,4.1640625,-1.6416015625
0.172,-3.0830078125,3.7236328125,-0.9609375
0.1725,-3.5634765625,3.7236328125,-0.48046875
0.173,-3.68359375,3.0830078125,0.2802734375
0.1735,-3.9638671875,2.7626953125,0.880859375
0.174,-4.083984375,2.08203125,1.6015625
0.1745,-4.2041015625,1.6015625,2.2421875
0.175,-3.6435546875,0.6005859375,2.642578125
0.1755,-3.68359375,0.0400390625,3.203125
0.176,-2.8427734375,-1.041015625,3.36328125
0.1765,-2.6826171875,-1.6015625,3.8037109375
0.177,-1.921875,-2.5224609375,2.5625
0.1775,-1.3212890625,-2.8427734375,3.6435546875
0.178,-0.640625,-3.36328125,3.4833984375
0.1785,0.080078125,-3.68359375,3.0830078125
0.179,0.8408203125,-4.00390625,2.6025390625
0.1795,1.5615234375,-4.244140625,2.2021484375
0.18,2.2421875,-4.404296875,1.6416015625
0.1805,2.482421875,-3.923828125,0.9609375
0.181,2.9228515625,-3.9638671875,0.6005859375
0.1815,3.04296875,-3.283203125,-0.240234375
0.182,3.4033203125,-3.1630859375,-0.720703125
0.1825,3.5634765625,-2.482421875,-1.521484375
0.183,3.5634765625,-1.9619140625,-1.9619140625
0.1835,3.1630859375,-1.041015625,-2.5224609375
0.184,3.0029296875,-0.48046875,-2.962890625
0.1845,2.4423828125,0.400390625,-3.3232421875
0.185,2.2822265625,1.041015625,-3.68359375
0.1855,1.6015625,1.921875,-3.8037109375
0.186,0.9208984375,2.2822265625,-3.5234375
0.1865,0.400390625,2.8828125,-3.5234375
0.187,-0.560546875,3.203125,-2.8828125
0.1875,-1.2412109375,3.6435546875,-2.642578125
0.188,-2.0419921875,3.8037109375,-2.001953125
0.1885,-2.6025390625,3.8837890625,-1.5615234375
0.189,-2.9228515625,3.4833984375,-0.8408203125
0.1895,-3.3232421875,3.443359375,-0.4404296875
0.19,-3.5234375,2.7626953125,0.4404296875
0.1905,-5.125,1.28125,1.0009765625
0.191,-4.00390625,1.841796875,1.841796875
0.1915,-3.763671875,1.1611328125,2.2421875
0.192,-3.5234375,0.2802734375,2.8427734375
0.1925,-3.0830078125,-0.48046875,3.0830078125
0.193,-2.72265625,-2.5625,3.443359375
0.1935,-2.2421875,-1.9619140625,3.68359375
0.194,-1.6015625,-2.642578125,3.7236328125
0.1945,-0.9609375,-2.962890625,3.36328125
0.195,-0.3603515625,-3.5234375,3.36328125
0.1955,0.640625,-3.763671875,2.6025390625
0.196,1.2412109375,-4.1240234375,2.4423828125
0.1965,2.001953125,-4.2041015625,1.7216796875
0.197,2.40234375,-4.1240234375,1.2412109375
0.1975,2.72265625,-3.8037109375,0.640625
0.198,2.962890625,-3.5634765625,0.16015625
0.1985,3.203125,-3.04296875,-0.640625
0.199,3.443359375,-2.6826171875,-1.201171875
0.1995,3.603515625,-2.0419921875,-1.9619140625
0.2,3.1630859375,-1.2412109375,-2.3623046875
0.2005,3.0830078125,-0.6005859375,-3.0029296875
0.201,2.4423828125,0.2802734375,-3.1630859375
0.2015,2.2822265625,1.0009765625,-3.603515625
0.202,1.6416015625,1.76171875,-3.68359375
0.2025,1.041015625,2.322265625,-3.68359375
0.203,0.3603515625,2.6826171875,-3.3232421875
0.2035,-0.3203125,3.203125,-3.1630859375
0.204,-1.3212890625,3.5234375,-2.4423828125
0.2045,-1.921875,3.8037109375,-2.2021484375
0.205,-2.6826171875,3.8837890625,-1.4814453125
0.2055,-3.0029296875,3.5634765625,-0.880859375
0.206,-3.443359375,3.443359375,-0.3203125
0.2065,-3.5634765625,2.8828125,0.3603515625
0.207,-3.8837890625,2.5224609375,1.041015625
0.2075,-3.9638671875,1.8818359375,1.681640625
0.208,-4.083984375,1.2412109375,2.4423828125
0.2085,-3.443359375,0.2802734375,2.72265625
0.209,-3.4033203125,-0.400390625,3.2431640625
0.2095,-3.84375,-1.4013671875,3.443359375
0.21,-2.322265625,-2.001953125,2.5625
0.2105,-1.5615234375,-2.7626953125,3.763671875
0.211,-0.9208984375,-3.2431640625,3.603515625
0.2115,-0.240234375,-3.5634765625,3.2431640625
0.212,0.640625,-4.00390625,2.8828125
0.2125,1.5615234375,-4.244140625,2.2021484375
0.213,2.08203125,-4.32421875,1.76171875
0.2135,2.7626953125,-4.404296875,1.12109375
0.214,2.962890625,-5.125,0.4404296875
0.2145,3.36328125,-3.763671875,-0.0400390625
0.215,3.443359375,-2.962890625,-0.9208984375
0.2155,3.7236328125,-2.6826171875,-1.521484375
0.216,3.603515625,-1.921875,-2.2021484375
0.2165,3.603515625,-1.2412109375,-2.802734375
0.217,2.8828125,-0.2802734375,-3.123046875
0.2175,2.7626953125,0.400390625,-3.5234375
0.218,1.9619140625,1.521484375,-3.7236328125
0.2185,1.6416015625,2.001953125,-3.9638671875
0.219,0.80078125,2.802734375,-5.125
0.2195,0.080078125,3.203125,-3.5234375
0.22,-0.6005859375,3.5634765625,-3.203125
0.2205,-1.6416015625,3.923828125,-2.5224609375
0.221,-3.84375,4.1640625,-1.921875
0.2215,-3.0830078125,4.0439453125,-1.2412109375
0.222,-3.7236328125,4.00390625,-0.6005859375
0.2225,-3.8037109375,3.36328125,0.1201171875
0.223,-4.1640625,3.203125,0.640625
0.2235,-4.2841796875,2.2421875,1.681640625
0.224,-4.4443359375,1.8017578125,2.2021484375
0.2245,-4.244140625,0.8408203125,2.8828125
0.225,-3.9638671875,0.0400390625,3.4033203125
0.2255,-3.2431640625,-0.9208984375,3.68359375
0.226,-2.8427734375,-1.681640625,4.0439453125
0.2265,-1.9619140625,-2.802734375,4.244140625
0.227,-1.4013671875,-3.2431640625,4.1240234375
