wavelength,x,y,z
0.0,3.853759765625,-0.350341796875,-3.993896484375
0.0005,3.333251953125,0.570556640625,-4.314208984375
0.001,2.492431640625,1.571533203125,-4.474365234375
0.0015,1.931884765625,2.412353515625,-4.754638671875
0.002,1.091064453125,3.533447265625,-4.914794921875
0.0025,0.130126953125,3.733642578125,-4.194091796875
0.003,-0.590576171875,4.254150390625,-4.033935546875
0.0035,-1.631591796875,4.454345703125,-3.193115234375
0.004,-2.512451171875,4.654541015625,-2.552490234375
0.0045,-3.633544921875,4.854736328125,-1.591552734375
0.005,-4.354248046875,4.774658203125,-0.790771484375
0.0055,-4.514404296875,3.973876953125,0.130126953125
0.006,-4.994873046875,3.853759765625,0.690673828125
0.0065,-4.954833984375,2.812744140625,1.691650390625
0.007,-5.114990234375,2.292236328125,2.372314453125
0.0075,-5.275146484375,1.291259765625,3.533447265625
0.008,-4.794677734375,0.450439453125,3.853759765625
0.0085,-4.274169921875,-0.790771484375,4.254150390625
0.009,-3.673583984375,-1.591552734375,4.614501953125
0.0095,-2.872802734375,-2.712646484375,4.774658203125
0.01,-2.112060546875,-3.433349609375,4.854736328125
0.0105,-1.151123046875,-4.474365234375,4.974853515625
0.011,-0.150146484375,-4.594482421875,4.093994140625
0.0115,0.530517578125,-5.114990234375,3.973876953125
0.012,1.811767578125,-5.275146484375,2.852783203125
0.0125,2.612548828125,-5.435302734375,2.212158203125
0.013,3.653564453125,-5.555419921875,1.291259765625
0.0135,4.214111328125,-5.275146484375,0.490478515625
0.014,4.374267578125,-4.474365234375,-0.470458984375
0.0145,4.774658203125,-4.234130859375,-1.071044921875
0.015,4.774658203125,-3.072998046875,-2.232177734375
0.0155,4.814697265625,-2.552490234375,-2.752685546875
0.016,4.934814453125,-1.551513671875,-3.873779296875
0.0165,4.214111328125,-0.550537109375,-4.154052734375
0.017,3.693603515625,0.370361328125,-4.554443359375
0.0175,2.932861328125,1.371337890625,-4.874755859375
0.018,2.011962890625,2.532470703125,-4.914794921875
0.0185,1.411376953125,3.213134765625,-4.954833984375
0.019,0.490478515625,4.134033203125,-4.874755859375
0.0195,-0.590576171875,4.174072265625,-3.953857421875
0.02,-1.231201171875,4.734619140625,-3.833740234375
0.0205,-2.632568359375,4.854736328125,-2.552490234375
0.021,-3.273193359375,4.974853515625,-2.031982421875
0.0215,-4.234130859375,4.934814453125,-1.071044921875
0.022,-4.674560546875,4.494384765625,-0.270263671875
0.0225,-4.834716796875,3.853759765625,0.610595703125
0.023,-5.155029296875,3.453369140625,1.291259765625
0.0235,-5.235107421875,2.292236328125,2.452392578125
0.024,-5.195068359375,1.811767578125,2.932861328125
0.0245,-5.275146484375,0.810791015625,3.973876953125
0.025,-4.434326171875,-0.310302734375,4.134033203125
0.0255,-4.033935546875,-1.151123046875,4.654541015625
0.026,-3.113037109375,-2.312255859375,4.814697265625
0.0265,-2.352294921875,-3.273193359375,4.934814453125
0.027,-1.591552734375,-3.913818359375,4.854736328125
0.0275,-0.630615234375,-4.714599609375,4.654541015625
0.028,0.370361328125,-4.794677734375,3.773681640625
0.0285,1.091064453125,-5.315185546875,3.573486328125
0.029,2.532470703125,-5.435302734375,2.252197265625
0.0295,3.052978515625,-5.475341796875,1.771728515625
0.03,3.933837890625,-5.355224609375,0.810791015625
0.0305,4.214111328125,-4.834716796875,0.010009765625
0.031,4.454345703125,-4.194091796875,-0.790771484375
0.0315,4.694580078125,-3.633544921875,-1.591552734375
0.032,4.774658203125,-2.592529296875,-2.672607421875
0.0325,4.614501953125,-2.112060546875,-3.072998046875
0.033,4.614501953125,-1.191162109375,-3.993896484375
0.0335,3.653564453125,-0.070068359375,-4.114013671875
0.034,3.373291015625,0.810791015625,-4.554443359375
0.0345,2.252197265625,2.052001953125,-4.674560546875
0.035,1.771728515625,2.772705078125,-4.834716796875
0.0355,0.970947265625,3.373291015625,-4.634521484375
0.036,0.130126953125,3.893798828125,-4.354248046875
0.0365,-0.870849609375,4.093994140625,-3.553466796875
0.037,-1.631591796875,4.534423828125,-3.273193359375
0.0375,-2.952880859375,4.654541015625,-2.072021484375
0.038,-3.353271484375,4.694580078125,-1.751708984375
0.0385,-4.154052734375,4.534423828125,-0.790771484375
0.039,-4.354248046875,3.933837890625,0.010009765625
0.0395,-4.674560546875,3.573486328125,0.690673828125
0.04,-4.834716796875,2.852783203125,1.571533203125
0.0405,-5.074951171875,2.092041015625,2.452392578125
0.041,-4.874755859375,1.411376953125,2.932861328125
0.0415,-4.834716796875,0.570556640625,3.693603515625
0.042,-3.873779296875,-0.590576171875,3.893798828125
0.0425,-3.753662109375,-1.311279296875,4.494384765625
0.043,-2.552490234375,-2.592529296875,4.534423828125
0.0435,-2.272216796875,-3.193115234375,4.774658203125
0.044,-1.271240234375,-3.873779296875,4.494384765625
0.0445,-0.430419921875,-4.354248046875,4.134033203125
0.045,0.490478515625,-4.594482421875,3.453369140625
0.0455,1.411376953125,-5.034912109375,3.012939453125
0.046,2.612548828125,-5.195068359375,1.931884765625
0.0465,2.972900390625,-5.114990234375,1.531494140625
0.047,3.693603515625,-4.954833984375,0.650634765625
0.0475,3.853759765625,-4.234130859375,-0.150146484375
0.048,4.134033203125,-3.913818359375,-0.790771484375
0.0485,4.334228515625,-3.032958984375,-1.871826171875
0.049,4.494384765625,-2.552490234375,-2.552490234375
0.0495,4.134033203125,-1.671630859375,-3.032958984375
0.05,4.013916015625,-0.910888671875,-3.593505859375
0.0505,3.052978515625,0.290283203125,-3.793701171875
0.051,2.852783203125,0.970947265625,-4.194091796875
0.0515,1.771728515625,2.212158203125,-4.354248046875
0.052,1.571533203125,2.532470703125,-4.434326171875
0.0525,0.650634765625,3.173095703125,-4.154052734375
0.053,-0.150146484375,3.453369140625,-3.673583984375
0.0535,-0.910888671875,3.813720703125,-3.193115234375
0.054,-1.871826171875,4.053955078125,-2.552490234375
0.0545,-2.712646484375,4.294189453125,-1.951904296875
0.055,-3.072998046875,4.053955078125,-1.391357421875
0.0555,-3.633544921875,4.013916015625,-0.790771484375
0.056,-3.793701171875,3.333251953125,0.010009765625
0.0565,-4.194091796875,3.173095703125,0.530517578125
0.057,-4.314208984375,2.252197265625,1.571533203125
0.0575,-4.554443359375,2.052001953125,1.971923828125
0.058,-4.314208984375,1.211181640625,2.652587890625
0.0585,-4.114013671875,0.530517578125,3.093017578125
0.059,-3.513427734375,-0.590576171875,3.493408203125
0.0595,-3.233154296875,-1.271240234375,3.893798828125
0.06,-2.472412109375,-2.312255859375,4.174072265625
0.0605,-2.112060546875,-2.672607421875,4.134033203125
0.061,-1.271240234375,-3.393310546875,4.053955078125
0.0615,-0.470458984375,-3.713623046875,3.533447265625
0.062,0.330322265625,-4.234130859375,3.293212890625
0.0625,1.411376953125,-4.514404296875,2.452392578125
0.063,2.052001953125,-4.794677734375,2.052001953125
0.0635,2.532470703125,-4.514404296875,1.411376953125
0.064,3.052978515625,-4.514404296875,0.850830078125
0.0645,3.293212890625,-3.833740234375,0.010009765625
0.065,3.693603515625,-3.713623046875,-0.630615234375
0.0655,3.853759765625,-2.832763671875,-1.711669921875
0.066,3.973876953125,-2.472412109375,-2.072021484375
0.0665,3.773681640625,-1.591552734375,-2.712646484375
0.067,3.373291015625,-0.750732421875,-3.072998046875
0.0675,2.852783203125,0.210205078125,-3.513427734375
0.068,2.372314453125,1.051025390625,-3.833740234375
0.0685,1.891845703125,1.891845703125,-4.154052734375
0.069,1.331298828125,2.212158203125,-3.873779296875
0.0695,0.690673828125,2.812744140625,-3.833740234375
0.07,-0.190185546875,3.052978515625,-3.193115234375
0.0705,-0.870849609375,3.533447265625,-3.032958984375
0.071,-1.951904296875,3.773681640625,-2.152099609375
0.0715,-2.432373046875,3.933837890625,-1.911865234375
0.072,-2.872802734375,3.653564453125,-1.151123046875
0.0725,-3.193115234375,3.493408203125,-0.710693359375
0.073,-3.513427734375,2.932861328125,0.050048828125
0.0735,-3.833740234375,2.652587890625,0.610595703125
0.074,-4.114013671875,2.172119140625,1.491455078125
0.0745,-4.033935546875,1.771728515625,1.851806640625
0.075,-3.993896484375,1.010986328125,2.532470703125
0.0755,-3.473388671875,0.130126953125,2.852783203125
0.076,-3.313232421875,-0.670654296875,3.453369140625
0.0765,-2.632568359375,-1.591552734375,3.653564453125
0.077,-2.432373046875,-2.152099609375,4.013916015625
0.0775,-1.711669921875,-2.592529296875,3.693603515625
0.078,-1.191162109375,-3.193115234375,3.693603515625
0.0785,-0.270263671875,-3.553466796875,3.133056640625
0.079,0.530517578125,-4.073974609375,2.932861328125
0.0795,1.571533203125,-4.354248046875,2.212158203125
0.08,1.931884765625,-4.434326171875,1.891845703125
0.0805,2.532470703125,-4.314208984375,1.131103515625
0.081,2.852783203125,-4.033935546875,0.610595703125
0.0815,3.253173828125,-3.713623046875,-0.230224609375
0.082,3.493408203125,-3.113037109375,-0.950927734375
0.0825,3.853759765625,-2.712646484375,-1.631591796875
0.083,3.573486328125,-2.031982421875,-2.072021484375
0.0835,3.573486328125,-1.351318359375,-2.712646484375
0.084,2.852783203125,-0.310302734375,-3.072998046875
0.0845,2.732666015625,0.450439453125,-3.553466796875
0.085,1.971923828125,1.411376953125,-3.793701171875
0.0855,1.771728515625,1.851806640625,-3.993896484375
0.086,0.970947265625,2.292236328125,-3.633544921875
0.0865,0.330322265625,2.772705078125,-3.473388671875
0.087,-0.510498046875,3.093017578125,-2.952880859375
0.0875,-1.311279296875,3.533447265625,-2.552490234375
0.088,-2.232177734375,3.813720703125,-1.951904296875
0.0885,-2.512451171875,3.533447265625,-1.471435546875
0.089,-3.072998046875,3.533447265625,-0.950927734375
0.0895,-3.193115234375,3.012939453125,-0.310302734375
0.09,-3.673583984375,2.852783203125,0.370361328125
0.0905,-3.833740234375,2.212158203125,1.211181640625
0.091,-4.114013671875,1.931884765625,1.691650390625
0.0915,-3.793701171875,1.131103515625,2.132080078125
0.092,-3.793701171875,0.570556640625,2.692626953125
0.0925,-3.072998046875,-0.510498046875,3.052978515625
0.093,-2.952880859375,-1.151123046875,3.533447265625
0.0935,-2.312255859375,-2.072021484375,3.773681640625
0.094,-1.991943359375,-2.392333984375,3.733642578125
0.0945,-1.271240234375,-2.952880859375,3.573486328125
0.095,-0.550537109375,-3.353271484375,3.253173828125
0.0955,0.290283203125,-3.833740234375,2.932861328125
0.096,1.211181640625,-4.154052734375,2.372314453125
0.0965,1.971923828125,-4.514404296875,1.931884765625
0.097,2.292236328125,-4.154052734375,1.251220703125
0.0975,2.852783203125,-4.234130859375,0.770751953125
0.098,3.052978515625,-3.593505859375,0.010009765625
0.0985,3.493408203125,-3.353271484375,-0.670654296875
0.099,3.733642578125,-2.632568359375,-1.591552734375
0.0995,3.813720703125,-2.272216796875,-2.072021484375
0.1,3.453369140625,-1.351318359375,-2.592529296875
0.1005,3.213134765625,-0.630615234375,-3.153076171875
0.101,2.572509765625,0.410400390625,-3.433349609375
0.1015,2.252197265625,1.211181640625,-3.833740234375
0.102,1.731689453125,2.052001953125,-4.154052734375
0.1025,1.091064453125,2.332275390625,-3.793701171875
0.103,0.410400390625,2.932861328125,-3.713623046875
0.1035,-0.470458984375,3.213134765625,-3.113037109375
0.104,-1.271240234375,3.653564453125,-2.752685546875
0.1045,-2.272216796875,3.853759765625,-2.031982421875
0.105,-2.912841796875,3.973876953125,-1.471435546875
0.1055,-3.193115234375,3.453369140625,-0.750732421875
0.106,-3.673583984375,3.493408203125,-0.270263671875
0.1065,-3.793701171875,2.732666015625,0.610595703125
0.107,-4.114013671875,2.452392578125,1.211181640625
0.1075,-4.354248046875,1.771728515625,2.172119140625
0.108,-4.114013671875,1.131103515625,2.492431640625
0.1085,-3.833740234375,0.250244140625,3.052978515625
0.109,-3.353271484375,-0.590576171875,3.373291015625
0.1095,-2.872802734375,-1.391357421875,3.693603515625
0.11,-2.352294921875,-2.232177734375,3.973876953125
0.1105,-1.751708984375,-3.032958984375,4.134033203125
0.111,-0.990966796875,-3.273193359375,3.573486328125
0.1115,-0.390380859375,-3.873779296875,3.613525390625
0.112,0.610595703125,-4.033935546875,2.812744140625
0.1125,1.331298828125,-4.514404296875,2.492431640625
0.113,2.372314453125,-4.714599609375,1.691650390625
0.1135,2.892822265625,-4.594482421875,1.051025390625
0.114,3.213134765625,-4.114013671875,0.330322265625
0.1145,3.573486328125,-3.953857421875,-0.190185546875
0.115,3.773681640625,-3.193115234375,-1.071044921875
0.1155,3.933837890625,-2.752685546875,-1.751708984375
0.116,4.214111328125,-2.072021484375,-2.672607421875
0.1165,3.693603515625,-1.231201171875,-2.952880859375
0.117,3.493408203125,-0.350341796875,-3.553466796875
0.1175,2.732666015625,0.650634765625,-3.793701171875
0.118,2.252197265625,1.451416015625,-4.114013671875
0.1185,1.611572265625,2.332275390625,-4.314208984375
0.119,0.970947265625,3.012939453125,-4.314208984375
0.1195,0.090087890625,3.213134765625,-3.673583984375
0.12,-0.550537109375,3.813720703125,-3.593505859375
0.1205,-1.751708984375,3.933837890625,-2.592529296875
0.121,-2.392333984375,4.214111328125,-2.272216796875
0.1215,-3.393310546875,4.334228515625,-1.391357421875
0.122,-3.753662109375,3.973876953125,-0.630615234375
0.1225,-4.073974609375,3.573486328125,0.050048828125
0.123,-4.354248046875,3.173095703125,0.730712890625
0.1235,-4.514404296875,2.372314453125,1.651611328125
0.124,-4.594482421875,1.851806640625,2.292236328125
0.1245,-4.754638671875,1.091064453125,3.173095703125
0.125,-3.953857421875,0.090087890625,3.373291015625
0.1255,-3.873779296875,-0.670654296875,3.973876953125
0.126,-2.872802734375,-1.791748046875,4.093994140625
0.1265,-2.432373046875,-2.552490234375,4.374267578125
0.127,-1.671630859375,-3.353271484375,4.414306640625
0.1275,-0.910888671875,-3.993896484375,4.214111328125
0.128,0.010009765625,-4.154052734375,3.573486328125
0.1285,0.690673828125,-4.754638671875,3.373291015625
0.129,1.971923828125,-4.874755859375,2.252197265625
0.1295,2.532470703125,-5.034912109375,1.851806640625
0.13,3.493408203125,-5.074951171875,0.970947265625
0.1305,3.693603515625,-4.474365234375,0.210205078125
0.131,4.053955078125,-4.154052734375,-0.470458984375
0.1315,4.254150390625,-3.473388671875,-1.351318359375
0.132,4.454345703125,-2.712646484375,-2.272216796875
0.1325,4.414306640625,-2.072021484375,-2.832763671875
0.133,4.454345703125,-1.271240234375,-3.673583984375
0.1335,3.493408203125,-0.110107421875,-3.833740234375
0.134,3.333251953125,0.650634765625,-4.394287109375
0.1345,2.132080078125,1.971923828125,-4.514404296875
0.135,1.731689453125,2.612548828125,-4.674560546875
0.1355,0.890869140625,3.413330078125,-4.634521484375
0.136,0.010009765625,3.893798828125,-4.234130859375
0.1365,-0.870849609375,4.053955078125,-3.593505859375
0.137,-1.791748046875,4.534423828125,-3.193115234375
0.1375,-3.072998046875,4.614501953125,-1.991943359375
0.138,-3.513427734375,4.654541015625,-1.551513671875
0.1385,-4.394287109375,4.614501953125,-0.630615234375
0.139,-4.514404296875,3.853759765625,0.250244140625
0.1395,-4.834716796875,3.533447265625,0.890869140625
0.14,-4.994873046875,2.572509765625,1.971923828125
0.1405,-5.074951171875,1.891845703125,2.772705078125
0.141,-4.874755859375,1.091064453125,3.293212890625
0.1415,-4.794677734375,0.290283203125,4.013916015625
0.142,-3.793701171875,-0.950927734375,4.134033203125
0.1425,-3.553466796875,-1.671630859375,4.654541015625
0.143,-2.272216796875,-3.072998046875,4.734619140625
0.1435,-1.911865234375,-3.553466796875,4.814697265625
0.144,-0.910888671875,-4.314208984375,4.534423828125
0.1445,0.010009765625,-4.794677734375,4.053955078125
0.145,0.890869140625,-4.994873046875,3.413330078125
0.1455,1.931884765625,-5.435302734375,2.732666015625
0.146,3.173095703125,-5.475341796875,1.691650390625
0.1465,3.533447265625,-5.235107421875,1.131103515625
0.147,4.334228515625,-5.155029296875,0.290283203125
0.1475,4.374267578125,-4.314208984375,-0.630615234375
0.148,4.654541015625,-3.953857421875,-1.271240234375
0.1485,4.814697265625,-2.832763671875,-2.552490234375
0.149,4.854736328125,-2.192138671875,-3.193115234375
0.1495,4.494384765625,-1.231201171875,-3.713623046875
0.15,4.294189453125,-0.350341796875,-4.394287109375
0.1505,3.173095703125,0.930908203125,-4.474365234375
0.151,2.852783203125,1.691650390625,-4.874755859375
0.1515,1.571533203125,3.133056640625,-4.994873046875
0.152,1.131103515625,3.453369140625,-4.874755859375
0.1525,0.090087890625,4.134033203125,-4.514404296875
0.153,-0.830810546875,4.414306640625,-3.953857421875
0.1535,-1.711669921875,4.574462890625,-3.273193359375
0.154,-2.832763671875,4.934814453125,-2.472412109375
0.1545,-3.953857421875,5.054931640625,-1.431396484375
0.155,-4.194091796875,4.574462890625,-0.750732421875
0.1555,-4.914794921875,4.454345703125,0.050048828125
0.156,-4.874755859375,3.533447265625,0.970947265625
0.1565,-5.155029296875,3.133056640625,1.571533203125
0.157,-5.275146484375,1.931884765625,2.852783203125
0.1575,-5.275146484375,1.411376953125,3.373291015625
0.158,-4.754638671875,0.370361328125,3.853759765625
0.1585,-4.474365234375,-0.510498046875,4.454345703125
0.159,-3.473388671875,-1.671630859375,4.534423828125
0.1595,-3.072998046875,-2.432373046875,4.854736328125
0.16,-1.871826171875,-3.793701171875,5.014892578125
0.1605,-1.311279296875,-4.114013671875,4.734619140625
0.161,-0.310302734375,-4.794677734375,4.374267578125
0.1615,0.610595703125,-5.074951171875,3.693603515625
0.162,1.451416015625,-5.275146484375,3.133056640625
0.1625,2.692626953125,-5.475341796875,2.212158203125
0.163,3.693603515625,-5.635498046875,1.371337890625
0.1635,3.893798828125,-5.034912109375,0.530517578125
0.164,4.534423828125,-4.914794921875,-0.230224609375
0.1645,4.534423828125,-3.913818359375,-1.191162109375
0.165,4.814697265625,-3.553466796875,-1.791748046875
0.1655,4.934814453125,-2.352294921875,-3.072998046875
0.166,4.814697265625,-1.791748046875,-3.553466796875
0.1665,4.214111328125,-0.630615234375,-4.033935546875
0.167,3.813720703125,0.290283203125,-4.514404296875
0.1675,2.812744140625,1.411376953125,-4.594482421875
0.168,2.292236328125,2.252197265625,-4.874755859375
0.1685,1.291259765625,3.413330078125,-5.074951171875
0.169,0.570556640625,3.573486328125,-4.514404296875
0.1695,-0.350341796875,4.214111328125,-4.234130859375
0.17,-1.271240234375,4.414306640625,-3.473388671875
0.1705,-2.072021484375,4.654541015625,-2.912841796875
0.171,-3.273193359375,4.814697265625,-1.911865234375
0.1715,-4.073974609375,4.854736328125,-1.151123046875
0.172,-4.234130859375,4.134033203125,-0.270263671875
0.1725,-4.794677734375,4.013916015625,0.370361328125
0.173,-4.754638671875,3.052978515625,1.291259765625
0.1735,-4.954833984375,2.652587890625,1.851806640625
0.174,-5.114990234375,1.651611328125,3.012939453125
0.1745,-4.834716796875,1.091064453125,3.293212890625
0.175,-4.434326171875,0.010009765625,3.853759765625
0.1755,-3.873779296875,-0.950927734375,4.214111328125
0.176,-3.153076171875,-1.871826171875,4.454345703125
0.1765,-2.552490234375,-2.792724609375,4.614501953125
0.177,-1.751708984375,-3.713623046875,4.814697265625
0.1775,-0.990966796875,-3.913818359375,4.134033203125
0.178,-0.190185546875,-4.594482421875,4.093994140625
0.1785,0.850830078125,-4.754638671875,3.213134765625
0.179,1.571533203125,-5.074951171875,2.852783203125
0.1795,2.812744140625,-5.275146484375,1.851806640625
0.18,3.413330078125,-5.195068359375,1.211181640625
0.1805,3.773681640625,-4.634521484375,0.330322265625
0.181,4.174072265625,-4.474365234375,-0.310302734375
0.1815,4.254150390625,-3.553466796875,-1.271240234375
0.182,4.494384765625,-3.072998046875,-1.911865234375
0.1825,4.694580078125,-2.192138671875,-3.032958984375
0.183,4.214111328125,-1.431396484375,-3.273193359375
0.1835,3.893798828125,-0.470458984375,-3.913818359375
0.184,3.173095703125,0.610595703125,-4.154052734375
0.1845,2.572509765625,1.411376953125,-4.474365234375
0.185,1.851806640625,2.372314453125,-4.634521484375
0.1855,1.211181640625,3.133056640625,-4.754638671875
0.186,0.250244140625,3.373291015625,-3.953857421875
0.1865,-0.390380859375,3.973876953125,-3.873779296875
0.187,-1.431396484375,4.053955078125,-2.912841796875
0.1875,-2.152099609375,4.334228515625,-2.552490234375
0.188,-3.273193359375,4.494384765625,-1.591552734375
