wavelength,x,y,z
0.0,-14.409057617188,-7.9227294921875,21.505981445312
0.0005,-11.486206054688,-10.885620117188,21.546020507812
0.001,-5.9207763671875,-15.129760742188,20.304809570312
0.0015,-1.1160888671875,-18.012573242188,18.743286132812
0.002,3.1680908203125,-20.134643554688,16.941528320312
0.0025,6.5313720703125,-21.295776367188,14.979614257812
0.003,9.4942626953125,-20.815307617188,11.776489257812
0.0035,12.617309570312,-20.535034179688,8.2530517578125
0.004,16.621215820312,-19.574096679688,3.6885986328125
0.0045,19.784301757812,-17.812377929688,-1.2362060546875
0.005,21.345825195312,-15.730346679688,-4.7196044921875
0.0055,21.786254882812,-13.207885742188,-7.7225341796875
0.006,21.706176757812,-10.285034179688,-10.525268554688
0.0065,20.985473632812,-5.6405029296875,-14.529174804688
0.007,20.064575195312,-1.6365966796875,-17.652221679688
0.0075,18.543090820312,2.5274658203125,-20.254760742188
0.008,16.380981445312,6.0509033203125,-21.415893554688
0.0085,13.097778320312,8.9337158203125,-21.295776367188
0.009,9.6544189453125,11.976684570312,-21.255737304688
0.0095,4.3692626953125,16.180786132812,-20.174682617188
0.01,-0.8758544921875,19.143676757812,-18.212768554688
0.0105,-4.4793701171875,20.665161132812,-16.370971679688
0.011,-7.6424560546875,21.385864257812,-14.128784179688
0.0115,-10.725463867188,20.905395507812,-10.885620117188
0.012,-14.489135742188,19.984497070312,-6.2811279296875
0.0125,-17.972534179688,19.023559570312,-1.9569091796875
0.013,-20.815307617188,17.141723632812,2.7677001953125
0.0135,-21.936401367188,14.859497070312,6.0509033203125
0.014,-21.976440429688,11.856567382812,9.0938720703125
0.0145,-21.856323242188,8.8135986328125,12.096801757812
0.015,-21.095581054688,4.0089111328125,16.140747070312
0.0155,-19.734252929688,-0.4354248046875,19.223754882812
0.016,-17.892456054688,-4.2791748046875,21.145629882812
0.0165,-15.810424804688,-7.3621826171875,22.266723632812
0.017,-12.126831054688,-10.325073242188,21.626098632812
0.0175,-7.7225341796875,-13.848510742188,20.945434570312
0.018,-2.8377685546875,-17.492065429688,19.864379882812
0.0185,2.4874267578125,-20.254760742188,17.662231445312
0.019,5.7706298828125,-21.295776367188,15.660278320312
0.0195,8.8135986328125,-21.495971679688,13.017700195312
0.02,11.896606445312,-21.135620117188,9.7344970703125
0.0205,15.980590820312,-19.974487304688,4.7296142578125
0.021,19.223754882812,-18.533081054688,0.1651611328125
0.0215,21.465942382812,-16.611206054688,-3.9588623046875
0.022,22.186645507812,-14.248901367188,-7.0819091796875
0.0225,21.906372070312,-10.885620117188,-10.124877929688
0.023,21.465942382812,-7.3221435546875,-13.287963867188
0.0235,20.785278320312,-2.9178466796875,-17.011596679688
0.024,19.183715820312,1.6466064453125,-20.014526367188
0.0245,16.981567382812,5.1300048828125,-21.295776367188
0.025,14.539184570312,8.1729736328125,-21.976440429688
0.0255,10.935668945312,11.215942382812,-21.495971679688
0.026,5.6905517578125,15.099731445312,-20.334838867188
0.0265,1.1260986328125,18.222778320312,-19.093627929688
0.027,-3.5584716796875,20.545043945312,-17.051635742188
0.0275,-6.6815185546875,21.265747070312,-14.889526367188
0.028,-9.7645263671875,20.985473632812,-11.766479492188
0.0285,-12.967651367188,20.545043945312,-8.3231201171875
0.029,-16.891479492188,19.463989257812,-3.4383544921875
0.0295,-19.934448242188,17.662231445312,1.4063720703125
0.03,-21.495971679688,15.660278320312,4.8897705078125
0.0305,-22.096557617188,13.177856445312,7.8927001953125
0.031,-21.696166992188,9.8946533203125,10.935668945312
0.0315,-21.095581054688,5.5704345703125,14.539184570312
0.032,-20.334838867188,1.4864501953125,17.862426757812
0.0325,-18.693237304688,-2.9178466796875,20.625122070312
0.033,-16.411010742188,-6.1209716796875,21.546020507812
0.0335,-13.528198242188,-9.0037841796875,21.746215820312
0.034,-9.9246826171875,-12.206909179688,21.385864257812
0.0345,-4.3592529296875,-16.170776367188,19.984497070312
0.035,0.5255126953125,-18.973510742188,18.222778320312
0.0355,4.4893798828125,-20.535034179688,16.501098632812
0.036,7.4122314453125,-21.295776367188,14.138793945312
0.0365,10.535278320312,-20.855346679688,10.775512695312
0.037,14.098754882812,-20.174682617188,6.7315673828125
0.0375,17.742309570312,-19.093627929688,2.1671142578125
0.038,20.545043945312,-17.171752929688,-2.5574951171875
0.0385,21.586059570312,-15.049682617188,-5.6405029296875
0.039,22.026489257812,-12.206909179688,-8.6834716796875
0.0395,21.546020507812,-8.8436279296875,-11.846557617188
0.04,20.825317382812,-4.4393310546875,-15.570190429688
0.0405,19.664184570312,-0.3153076171875,-18.613159179688
0.041,17.942504882812,3.8487548828125,-21.015502929688
0.0415,15.500122070312,6.8917236328125,-21.656127929688
0.042,12.176879882812,9.9346923828125,-21.495971679688
0.0425,7.9727783203125,13.458129882812,-20.895385742188
0.043,2.8477783203125,17.221801757812,-19.694213867188
0.0435,-2.0770263671875,19.864379882812,-17.572143554688
0.044,-5.4403076171875,21.025512695312,-15.770385742188
0.0445,-8.5233154296875,21.305786132812,-13.207885742188
0.045,-11.806518554688,20.665161132812,-9.5242919921875
0.0455,-15.530151367188,19.824340820312,-5.1199951171875
0.046,-18.853393554688,18.463012695312,-0.5955810546875
0.0465,-21.295776367188,16.421020507812,3.9288330078125
0.047,-21.856323242188,14.058715820312,6.9718017578125
0.0475,-21.936401367188,10.935668945312,10.014770507812
0.048,-21.455932617188,7.1319580078125,13.378051757812
0.0485,-20.695190429688,2.7677001953125,16.981567382812
0.049,-19.133666992188,-1.6365966796875,19.744262695312
0.0495,-17.251831054688,-5.2401123046875,21.505981445312
0.05,-14.689331054688,-8.1229248046875,21.946411132812
0.0505,-10.885620117188,-11.245971679688,21.385864257812
0.051,-6.2811279296875,-14.809448242188,20.505004882812
0.0515,-1.2362060546875,-18.252807617188,19.063598632812
0.052,3.5684814453125,-20.494995117188,16.901489257812
0.0525,6.4913330078125,-21.175659179688,14.859497070312
0.053,9.6143798828125,-21.295776367188,12.096801757812
0.0535,13.097778320312,-20.494995117188,8.0528564453125
0.054,16.661254882812,-19.534057617188,3.6485595703125
0.0545,19.704223632812,-17.932495117188,-0.9559326171875
0.055,21.706176757812,-15.890502929688,-4.8797607421875
0.0555,21.826293945312,-13.247924804688,-7.7225341796875
0.056,21.746215820312,-9.9647216796875,-10.885620117188
0.0565,21.105590820312,-5.9207763671875,-14.328979492188
0.057,20.264770507812,-1.7166748046875,-17.852416992188
0.0575,18.422973632812,2.6876220703125,-20.294799804688
0.058,16.340942382812,5.8507080078125,-21.415893554688
0.0585,13.778442382812,8.9337158203125,-21.776245117188
0.059,9.3341064453125,12.216918945312,-21.015502929688
0.0595,4.6895751953125,15.700317382812,-19.934448242188
0.06,-0.2752685546875,18.703247070312,-18.292846679688
0.0605,-4.4793701171875,20.665161132812,-16.330932617188
0.061,-7.2420654296875,20.785278320312,-13.968627929688
0.0615,-10.244995117188,20.745239257812,-11.045776367188
0.062,-14.008666992188,19.904418945312,-6.6815185546875
0.0625,-17.452026367188,18.743286132812,-2.2371826171875
0.063,-20.054565429688,16.981567382812,2.1270751953125
0.0635,-21.495971679688,14.979614257812,5.5303955078125
0.064,-21.616088867188,12.216918945312,8.3731689453125
0.0645,-21.295776367188,8.5733642578125,11.776489257812
0.065,-20.655151367188,4.5294189453125,15.059692382812
0.0655,-19.614135742188,0.4053955078125,18.382934570312
0.066,-17.812377929688,-3.7186279296875,20.625122070312
0.0665,-15.450073242188,-6.4012451171875,21.105590820312
0.067,-12.767456054688,-9.3641357421875,21.345825195312
0.0675,-8.0028076171875,-13.127807617188,20.464965820312
0.068,-3.2381591796875,-16.411010742188,19.223754882812
0.0685,1.3262939453125,-18.933471679688,17.462036132812
0.069,5.0098876953125,-20.575073242188,15.660278320312
0.0695,7.7325439453125,-20.535034179688,13.097778320312
0.07,10.855590820312,-20.214721679688,9.8546142578125
0.0705,14.579223632812,-19.534057617188,5.6905517578125
0.071,17.902465820312,-18.212768554688,1.1260986328125
0.0715,20.184692382812,-16.370971679688,-3.0379638671875
0.072,20.985473632812,-14.248901367188,-5.8406982421875
0.0725,21.145629882812,-11.526245117188,-8.8436279296875
0.073,20.625122070312,-7.4822998046875,-12.447143554688
0.0735,20.024536132812,-3.5985107421875,-15.650268554688
0.074,18.823364257812,0.5655517578125,-18.533081054688
0.0745,17.021606445312,4.3292236328125,-20.655151367188
0.075,14.379028320312,7.0518798828125,-20.695190429688
0.0755,11.376098632812,9.9747314453125,-20.695190429688
0.076,6.5313720703125,13.858520507812,-19.894409179688
0.0765,1.7266845703125,17.141723632812,-18.573120117188
0.077,-2.5574951171875,19.223754882812,-16.691284179688
0.0775,-5.7205810546875,20.344848632812,-14.929565429688
0.078,-8.6033935546875,20.304809570312,-12.206909179688
0.0785,-12.046752929688,19.664184570312,-8.2830810546875
0.079,-15.490112304688,18.983520507812,-4.4793701171875
0.0795,-18.653198242188,17.502075195312,0.2852783203125
0.08,-20.615112304688,15.540161132812,4.1290283203125
0.0805,-20.895385742188,13.097778320312,6.8516845703125
0.081,-21.135620117188,10.255004882812,9.7745361328125
0.0815,-20.494995117188,5.9307861328125,13.618286132812
0.082,-19.734252929688,1.9268798828125,16.901489257812
0.0825,-18.212768554688,-1.9569091796875,19.263793945312
0.083,-16.491088867188,-5.4002685546875,20.985473632812
0.0835,-13.528198242188,-8.1629638671875,20.865356445312
0.084,-9.8446044921875,-11.366088867188,20.464965820312
0.0845,-5.2000732421875,-15.009643554688,19.704223632812
0.085,-0.1551513671875,-18.132690429688,17.982543945312
0.0855,3.7686767578125,-19.894409179688,16.140747070312
0.086,6.5714111328125,-20.414916992188,14.058715820312
0.0865,9.5343017578125,-20.454956054688,11.376098632812
0.087,13.297973632812,-19.534057617188,6.7716064453125
0.0875,16.661254882812,-18.613159179688,2.6876220703125
0.088,19.383911132812,-17.091674804688,-1.5565185546875
0.0885,20.985473632812,-15.129760742188,-4.9998779296875
0.089,20.865356445312,-12.367065429688,-7.7225341796875
0.0895,20.865356445312,-9.1239013671875,-10.885620117188
0.09,20.304809570312,-4.9197998046875,-14.529174804688
0.0905,19.263793945312,-0.7156982421875,-17.772338867188
0.091,17.421997070312,3.1280517578125,-19.734252929688
0.0915,15.420043945312,6.0509033203125,-20.775268554688
0.092,12.537231445312,8.9337158203125,-20.815307617188
0.0925,7.7725830078125,12.657348632812,-19.894409179688
0.093,3.6485595703125,15.780395507812,-19.053588867188
0.0935,-1.1961669921875,18.543090820312,-17.291870117188
0.094,-4.8797607421875,20.104614257812,-15.410034179688
0.0945,-7.4022216796875,19.984497070312,-12.967651367188
0.095,-10.325073242188,19.984497070312,-10.164916992188
0.0955,-14.369018554688,19.063598632812,-5.5203857421875
0.096,-17.492065429688,17.742309570312,-1.1561279296875
0.0965,-19.614135742188,16.060668945312,2.6876220703125
0.097,-20.815307617188,14.058715820312,5.7305908203125
0.0975,-20.655151367188,11.215942382812,8.4932861328125
0.098,-20.374877929688,7.4522705078125,11.976684570312
0.0985,-19.814331054688,3.6885986328125,15.219848632812
0.099,-18.653198242188,-0.5155029296875,18.262817382812
0.0995,-16.771362304688,-4.0789794921875,19.984497070312
0.1,-14.449096679688,-6.6815185546875,20.344848632812
0.1005,-11.806518554688,-9.4842529296875,20.464965820312
0.101,-6.4412841796875,-13.528198242188,19.423950195312
0.1015,-2.0770263671875,-16.531127929688,18.182739257812
0.102,2.0469970703125,-18.853393554688,16.541137695312
0.1025,5.3702392578125,-20.054565429688,14.779418945312
0.103,8.0128173828125,-19.734252929688,12.016723632812
0.1035,11.175903320312,-19.413940429688,8.6934814453125
0.104,14.939575195312,-18.853393554688,4.5294189453125
0.1045,17.982543945312,-17.331909179688,0.0450439453125
0.105,19.704223632812,-15.570190429688,-3.3983154296875
0.1055,20.344848632812,-13.328002929688,-6.2410888671875
0.106,20.344848632812,-10.645385742188,-8.8836669921875
0.1065,19.984497070312,-6.2010498046875,-12.847534179688
0.107,19.183715820312,-2.6375732421875,-15.770385742188
0.1075,17.902465820312,1.2862548828125,-18.412963867188
0.108,16.060668945312,4.6094970703125,-19.974487304688
0.1085,13.257934570312,7.2520751953125,-19.814331054688
0.109,10.214965820312,10.214965820312,-19.854370117188
0.1095,5.2501220703125,14.178833007812,-19.013549804688
0.11,0.5655517578125,17.101684570312,-17.371948242188
0.1105,-2.9178466796875,18.703247070312,-15.770385742188
0.111,-5.9207763671875,19.624145507812,-13.968627929688
0.1115,-8.6834716796875,19.383911132812,-11.245971679688
0.112,-12.286987304688,18.623168945312,-7.0018310546875
0.1125,-15.650268554688,17.982543945312,-3.1180419921875
0.113,-18.412963867188,16.461059570312,1.0460205078125
0.1135,-19.614135742188,14.739379882812,4.2091064453125
0.114,-19.934448242188,12.176879882812,6.8917236328125
0.1145,-19.974487304688,9.4141845703125,9.7344970703125
0.115,-19.534057617188,5.0499267578125,13.618286132812
0.1155,-18.573120117188,1.1260986328125,16.621215820312
0.116,-17.171752929688,-2.3572998046875,18.663208007812
0.1165,-15.530151367188,-5.3201904296875,19.984497070312
0.117,-12.487182617188,-8.0028076171875,19.704223632812
0.1175,-8.4832763671875,-11.366088867188,19.183715820312
0.118,-4.0789794921875,-14.889526367188,18.503051757812
0.1185,0.6456298828125,-17.652221679688,16.741333007812
0.119,3.8087158203125,-18.933471679688,15.179809570312
0.1195,6.5313720703125,-19.333862304688,13.017700195312
0.12,9.3741455078125,-19.253784179688,10.295043945312
0.1205,13.257934570312,-18.412963867188,5.7305908203125
0.121,16.380981445312,-17.452026367188,1.7266845703125
0.1215,18.623168945312,-15.850463867188,-2.0369873046875
0.122,19.704223632812,-14.048706054688,-4.8797607421875
0.1225,19.584106445312,-11.245971679688,-7.5623779296875
0.123,19.423950195312,-8.0028076171875,-10.645385742188
0.1235,19.103637695312,-4.1590576171875,-14.248901367188
0.124,17.942504882812,0.0050048828125,-17.171752929688
0.1245,16.220825195312,3.2481689453125,-18.733276367188
0.125,14.258911132812,6.0509033203125,-19.574096679688
0.1255,11.376098632812,8.6934814453125,-19.494018554688
0.126,6.4913330078125,12.537231445312,-18.573120117188
0.1265,2.4073486328125,15.620239257812,-17.732299804688
0.127,-1.7967529296875,17.942504882812,-16.130737304688
0.1275,-4.8397216796875,19.063598632812,-14.409057617188
0.128,-7.4822998046875,18.903442382812,-11.806518554688
0.1285,-10.525268554688,18.703247070312,-8.8436279296875
0.129,-14.328979492188,17.982543945312,-4.4793701171875
0.1295,-17.291870117188,16.621215820312,-0.1551513671875
0.13,-18.973510742188,14.979614257812,3.1280517578125
0.1305,-19.734252929688,12.937622070312,5.8907470703125
0.131,-19.534057617188,10.214965820312,8.4532470703125
0.1315,-19.133666992188,6.2510986328125,12.016723632812
0.132,-18.693237304688,2.6075439453125,15.219848632812
0.1325,-17.492065429688,-1.3162841796875,17.942504882812
0.133,-15.690307617188,-4.3192138671875,19.143676757812
0.1335,-13.247924804688,-6.9217529296875,19.383911132812
0.134,-10.244995117188,-9.8045654296875,19.343872070312
0.1345,-5.1199951171875,-13.728393554688,18.302856445312
0.135,-0.7557373046875,-16.531127929688,16.941528320312
0.1355,2.7276611328125,-18.292846679688,15.500122070312
0.136,5.5704345703125,-19.173706054688,13.738403320312
0.1365,8.2530517578125,-18.853393554688,10.855590820312
0.137,11.576293945312,-18.332885742188,7.2120361328125
0.1375,15.059692382812,-17.612182617188,3.2882080078125
0.138,17.782348632812,-16.050659179688,-0.9959716796875
0.1385,18.943481445312,-14.369018554688,-3.7987060546875
0.139,19.343872070312,-12.086791992188,-6.4412841796875
0.1395,19.223754882812,-9.3240966796875,-9.1239013671875
0.14,18.703247070312,-5.2000732421875,-12.767456054688
0.1405,17.982543945312,-1.4764404296875,-15.730346679688
0.141,16.741333007812,2.0469970703125,-18.012573242188
0.1415,14.859497070312,4.8497314453125,-19.053588867188
0.142,12.056762695312,7.4923095703125,-18.893432617188
0.1425,8.5333251953125,10.695434570312,-18.653198242188
0.143,3.9688720703125,14.298950195312,-17.932495117188
0.1435,-0.5955810546875,16.941528320312,-16.210815429688
0.144,-3.4783935546875,18.182739257812,-14.809448242188
0.1445,-6.1610107421875,18.703247070312,-12.847534179688
0.145,-9.0037841796875,18.422973632812,-9.9647216796875
0.1455,-12.647338867188,17.782348632812,-5.8406982421875
0.146,-15.770385742188,16.901489257812,-1.9569091796875
0.1465,-18.132690429688,15.380004882812,1.9268798828125
0.147,-18.973510742188,13.578247070312,4.4893798828125
0.1475,-19.133666992188,10.935668945312,7.2520751953125
0.148,-19.013549804688,7.9727783203125,10.214965820312
0.1485,-18.693237304688,3.9688720703125,13.818481445312
0.149,-17.532104492188,0.0850830078125,16.661254882812
0.1495,-16.170776367188,-3.0780029296875,18.382934570312
0.15,-14.369018554688,-5.7205810546875,19.223754882812
0.1505,-11.245971679688,-8.4832763671875,19.023559570312
0.151,-6.9217529296875,-12.046752929688,18.422973632812
0.1515,-2.5975341796875,-15.410034179688,17.542114257812
0.152,1.8067626953125,-17.812377929688,15.860473632812
0.1525,4.4893798828125,-18.693237304688,14.258911132812
0.153,7.2120361328125,-18.973510742188,11.936645507812
0.1535,10.375122070312,-18.573120117188,8.6934814453125
0.154,14.018676757812,-17.892456054688,4.5294189453125
0.1545,16.941528320312,-16.651245117188,0.4454345703125
0.155,18.903442382812,-15.089721679688,-3.0780029296875
0.1555,19.463989257812,-12.967651367188,-5.6405029296875
0.156,19.383911132812,-10.124877929688,-8.4832763671875
0.1565,19.023559570312,-6.4813232421875,-11.726440429688
0.157,18.783325195312,-2.6375732421875,-15.329956054688
0.1575,17.301879882812,1.3663330078125,-17.932495117188
0.158,15.460083007812,4.3292236328125,-18.973510742188
0.1585,13.297973632812,7.0518798828125,-19.694213867188
0.159,9.6944580078125,10.174926757812,-19.293823242188
0.1595,5.0499267578125,13.778442382812,-18.453002929688
0.16,0.6856689453125,16.701293945312,-17.171752929688
0.1605,-3.2781982421875,18.703247070312,-15.530151367188
0.161,-5.9207763671875,19.183715820312,-13.608276367188
0.1615,-8.8035888671875,19.143676757812,-10.845581054688
0.162,-12.206909179688,18.543090820312,-7.0418701171875
0.1625,-15.730346679688,17.662231445312,-2.7576904296875
0.163,-18.412963867188,16.140747070312,1.4464111328125
0.1635,-19.774291992188,14.338989257812,4.4893798828125
0.164,-20.134643554688,11.896606445312,7.2921142578125
0.1645,-19.934448242188,8.6534423828125,10.375122070312
0.165,-19.373901367188,4.7296142578125,13.738403320312
0.1655,-18.573120117188,0.8858642578125,16.861450195312
0.166,-17.051635742188,-3.0780029296875,19.263793945312
0.1665,-14.889526367188,-5.7606201171875,19.864379882812
0.167,-12.246948242188,-8.5633544921875,20.064575195312
0.1675,-8.1229248046875,-12.006713867188,19.463989257812
0.168,-3.3582763671875,-15.490112304688,18.382934570312
0.1685,1.2061767578125,-18.012573242188,16.661254882812
0.169,4.4893798828125,-19.574096679688,15.059692382812
0.1695,7.1719970703125,-19.694213867188,12.777465820312
0.17,10.214965820312,-19.373901367188,9.6143798828125
0.1705,13.738403320312,-18.733276367188,5.6104736328125
0.171,17.021606445312,-17.572143554688,1.2862548828125
0.1715,19.423950195312,-15.770385742188,-2.8778076171875
0.172,20.144653320312,-13.728393554688,-5.6004638671875
0.1725,20.304809570312,-11.045776367188,-8.4432373046875
0.173,19.904418945312,-7.4022216796875,-11.726440429688
0.1735,19.303833007812,-3.5184326171875,-15.049682617188
0.174,18.102661132812,0.4854736328125,-17.772338867188
0.1745,16.461059570312,4.1290283203125,-19.854370117188
0.175,13.978637695312,6.7315673828125,-20.054565429688
0.1755,10.935668945312,9.5743408203125,-19.894409179688
0.176,6.4913330078125,13.177856445312,-19.213745117188
0.1765,1.8868408203125,16.621215820312,-17.812377929688
0.177,-2.5574951171875,18.583129882812,-16.170776367188
0.1775,-5.4803466796875,19.504028320312,-14.569213867188
0.178,-8.2430419921875,19.704223632812,-11.886596679688
