wavelength,x,y,z
0.0,9.9246826171875,-19.704223632812,10.164916992188
0.0005,13.328002929688,-19.343872070312,6.5213623046875
0.001,16.290893554688,-18.142700195312,2.5174560546875
0.0015,18.453002929688,-15.860473632812,-1.9669189453125
0.002,19.574096679688,-13.938598632812,-4.8897705078125
0.0025,20.254760742188,-11.416137695312,-8.2130126953125
0.003,20.454956054688,-8.3331298828125,-11.376098632812
0.0035,19.854370117188,-4.2491455078125,-14.819458007812
0.004,18.292846679688,-0.5255126953125,-17.061645507812
0.0045,16.451049804688,3.2781982421875,-18.983520507812
0.005,14.328979492188,6.3612060546875,-19.944458007812
0.0055,11.245971679688,9.4442138671875,-20.184692382812
0.006,7.5623779296875,12.927612304688,-20.024536132812
0.0065,2.9178466796875,15.970581054688,-18.663208007812
0.007,-1.8067626953125,19.213745117188,-16.180786132812
0.0075,-4.8497314453125,19.133666992188,-14.539184570312
0.008,-8.0528564453125,19.814331054688,-12.216918945312
0.0085,-11.255981445312,19.694213867188,-9.1339111328125
0.009,-14.739379882812,18.973510742188,-5.0499267578125
0.0095,-17.261840820312,17.291870117188,-1.0059814453125
0.01,-19.343872070312,15.089721679688,3.2781982421875
0.0105,-20.344848632812,12.967651367188,6.2410888671875
0.011,-20.705200195312,10.124877929688,9.6043701171875
0.0115,-20.665161132812,6.6815185546875,13.007690429688
0.012,-19.904418945312,2.7977294921875,16.130737304688
0.0125,-17.822387695312,-1.3262939453125,18.132690429688
0.013,-16.020629882812,-4.6895751953125,19.774291992188
0.0135,-13.698364257812,-7.7725830078125,20.615112304688
0.014,-8.9737548828125,-10.935668945312,20.454956054688
0.0145,-6.0108642578125,-14.419067382812,19.814331054688
0.015,-1.3663330078125,-17.101684570312,18.132690429688
0.0155,3.1580810546875,-18.903442382812,15.650268554688
0.016,5.9608154296875,-19.704223632812,13.888549804688
0.0165,9.2840576171875,-20.224731445312,11.245971679688
0.017,12.727416992188,-19.904418945312,8.9637451171875
0.0175,15.890502929688,-18.823364257812,3.5584716796875
0.018,18.092651367188,-16.741333007812,-0.6456298828125
0.0185,19.894409179688,-14.779418945312,-4.5294189453125
0.019,21.776245117188,-12.337036132812,-7.4122314453125
0.0195,20.775268554688,-9.2940673828125,-10.775512695312
0.02,20.454956054688,-5.4903564453125,-14.138793945312
0.0205,19.373901367188,-1.6866455078125,-16.941528320312
0.021,17.091674804688,2.4774169921875,-18.783325195312
0.0215,15.209838867188,5.4803466796875,-19.944458007812
0.022,12.647338867188,8.6434326171875,-20.665161132812
0.0225,8.8035888671875,12.086791992188,-20.384887695312
0.023,4.3992919921875,15.249877929688,-17.942504882812
0.0235,1.2762451171875,17.452026367188,-17.341918945312
0.024,-4.1690673828125,20.494995117188,-15.259887695312
0.0245,-6.9718017578125,19.694213867188,-13.177856445312
0.025,-10.134887695312,20.014526367188,-10.495239257812
0.0255,-13.858520507812,19.494018554688,-6.4512939453125
0.026,-16.701293945312,18.172729492188,-2.3272705078125
0.0265,-18.663208007812,15.930541992188,1.8367919921875
0.027,-20.224731445312,15.369995117188,5.2000732421875
0.0275,-20.705200195312,11.366088867188,8.3631591796875
0.028,-20.865356445312,8.0428466796875,11.886596679688
0.0285,-20.344848632812,4.2791748046875,15.089721679688
0.029,-18.903442382812,0.3553466796875,17.612182617188
0.0295,-16.701293945312,-3.7286376953125,19.494018554688
0.03,-14.579223632812,-6.5714111328125,20.294799804688
0.0305,-11.936645507812,-9.6944580078125,20.855346679688
0.031,-7.6124267578125,-13.538208007812,20.414916992188
0.0315,-3.0079345703125,-16.340942382812,18.893432617188
0.032,1.3963623046875,-18.222778320312,17.932495117188
0.0325,5.0799560546875,-19.864379882812,14.849487304688
0.033,8.0828857421875,-20.184692382812,12.286987304688
0.0335,11.366088867188,-20.224731445312,9.3240966796875
0.034,14.969604492188,-19.584106445312,5.2401123046875
0.0345,17.612182617188,-17.782348632812,0.8758544921875
0.035,19.534057617188,-15.500122070312,-3.2882080078125
0.0355,20.615112304688,-13.458129882812,-5.1300048828125
0.036,21.135620117188,-10.615356445312,-9.7344970703125
0.0365,20.975463867188,-6.7315673828125,-13.498168945312
0.037,20.174682617188,-3.0880126953125,-16.340942382812
0.0375,18.212768554688,1.0360107421875,-18.463012695312
0.038,16.290893554688,4.8797607421875,-20.344848632812
0.0385,13.488159179688,7.8426513671875,-20.705200195312
0.039,10.605346679688,10.965698242188,-21.065551757812
0.0395,5.8406982421875,14.849487304688,-20.344848632812
0.04,1.1160888671875,17.492065429688,-18.463012695312
0.0405,-3.1280517578125,19.053588867188,-16.100708007812
0.041,-5.1300048828125,20.334838867188,-14.379028320312
0.0415,-9.6944580078125,20.535034179688,-11.456176757812
0.042,-13.338012695312,20.174682617188,-7.6524658203125
0.0425,-16.461059570312,19.333862304688,-3.8087158203125
0.043,-18.943481445312,17.131713867188,0.8758544921875
0.0435,-20.665161132812,14.929565429688,4.7996826171875
0.044,-21.305786132812,12.367065429688,7.9227294921875
0.0445,-20.505004882812,9.5643310546875,11.205932617188
0.045,-21.305786132812,5.0799560546875,15.249877929688
0.0455,-20.024536132812,2.5574951171875,17.852416992188
0.046,-17.702270507812,-2.7276611328125,19.534057617188
0.0465,-15.980590820312,-6.2911376953125,21.295776367188
0.047,-12.777465820312,-9.4141845703125,21.375854492188
0.0475,-9.1339111328125,-11.536254882812,21.255737304688
0.048,-4.5294189453125,-16.180786132812,20.214721679688
0.0485,0.5955810546875,-18.623168945312,17.852416992188
0.049,4.4793701171875,-20.064575195312,15.530151367188
0.0495,7.6024169921875,-20.825317382812,13.448120117188
0.05,10.805541992188,-21.145629882812,10.725463867188
0.0505,14.729370117188,-20.224731445312,6.0408935546875
0.051,17.452026367188,-18.823364257812,2.0770263671875
0.0515,19.494018554688,-16.541137695312,-2.2471923828125
0.052,21.135620117188,-14.419067382812,-5.8507080078125
0.0525,21.295776367188,-11.416137695312,-9.0538330078125
0.053,21.576049804688,-8.4132080078125,-12.337036132812
0.0535,20.935424804688,-4.2091064453125,-15.900512695312
0.054,20.494995117188,0.0350341796875,-18.422973632812
0.0545,16.811401367188,3.7987060546875,-19.864379882812
0.055,14.849487304688,7.0418701171875,-21.145629882812
0.0555,11.806518554688,10.084838867188,-21.305786132812
0.056,7.1619873046875,13.928588867188,-20.665161132812
0.0565,3.1180419921875,16.611206054688,-19.463989257812
0.057,-1.8067626953125,18.773315429688,-17.021606445312
0.0575,-5.4503173828125,20.134643554688,-14.979614257812
0.058,-8.4932861328125,20.334838867188,-12.337036132812
0.0585,-10.255004882812,20.735229492188,-9.6944580078125
0.059,-15.580200195312,19.694213867188,-5.0098876953125
0.0595,-18.102661132812,17.772338867188,-0.6456298828125
0.06,-19.744262695312,15.610229492188,3.1981201171875
0.0605,-21.145629882812,13.528198242188,6.6414794921875
0.061,-21.305786132812,10.445190429688,9.8846435546875
0.0615,-21.265747070312,6.7215576171875,13.488159179688
0.062,-19.223754882812,3.1580810546875,16.491088867188
0.0625,-18.583129882812,-1.2462158203125,18.853393554688
0.063,-16.380981445312,-4.8497314453125,20.334838867188
0.0635,-14.018676757812,-7.8927001953125,21.055541992188
0.064,-11.255981445312,-10.935668945312,21.455932617188
0.0645,-5.8507080078125,-15.059692382812,20.374877929688
0.065,-1.4864501953125,-17.462036132812,18.533081054688
0.0655,2.7977294921875,-17.942504882812,16.330932617188
0.066,6.2410888671875,-19.223754882812,14.489135742188
0.0665,9.4842529296875,-19.223754882812,11.326049804688
0.067,12.767456054688,-20.384887695312,8.1629638671875
0.0675,16.250854492188,-19.463989257812,3.9188232421875
0.068,18.693237304688,-17.181762695312,-0.7657470703125
0.0685,20.134643554688,-15.099731445312,-4.2891845703125
0.069,21.095581054688,-12.737426757812,-7.5723876953125
0.0695,21.375854492188,-9.9346923828125,-10.615356445312
0.07,20.895385742188,-5.4903564453125,-14.699340820312
0.0705,19.814331054688,-1.9669189453125,-17.101684570312
0.071,17.772338867188,2.2371826171875,-17.942504882812
0.0715,15.730346679688,5.7205810546875,-20.785278320312
0.072,12.647338867188,8.8836669921875,-20.825317382812
0.0725,9.6444091796875,12.086791992188,-21.145629882812
0.073,4.5194091796875,15.810424804688,-20.064575195312
0.0735,-0.3653564453125,18.052612304688,-17.782348632812
0.074,-3.9688720703125,19.494018554688,-15.700317382812
0.0745,-7.2921142578125,20.615112304688,-13.738403320312
0.075,-10.575317382812,20.535034179688,-10.615356445312
0.0755,-14.258911132812,19.894409179688,-5.1300048828125
0.076,-17.141723632812,18.773315429688,-2.5274658203125
0.0765,-19.383911132812,16.370971679688,2.1170654296875
0.077,-20.705200195312,14.288940429688,5.4403076171875
0.0775,-21.225708007812,11.366088867188,8.8836669921875
0.078,-21.546020507812,8.6033935546875,11.966674804688
0.0785,-20.865356445312,4.1190185546875,15.850463867188
0.079,-19.183715820312,0.0750732421875,18.172729492188
0.0795,-17.061645507812,-3.6885986328125,19.814331054688
0.08,-15.179809570312,-7.0118408203125,21.255737304688
0.0805,-11.656372070312,-8.9737548828125,21.095581054688
0.081,-7.8526611328125,-13.738403320312,20.815307617188
0.0815,-3.2081298828125,-16.941528320312,19.534057617188
0.082,1.9168701171875,-18.943481445312,16.931518554688
0.0825,5.2000732421875,-20.024536132812,14.929565429688
0.083,8.4832763671875,-20.705200195312,12.527221679688
0.0835,11.646362304688,-20.825317382812,9.6043701171875
0.084,15.530151367188,-19.784301757812,4.9197998046875
0.0845,18.052612304688,-18.062622070312,0.7557373046875
0.085,19.974487304688,-15.860473632812,-3.3682861328125
0.0855,21.095581054688,-13.658325195312,-6.6114501953125
0.086,21.255737304688,-10.415161132812,-10.094848632812
0.0865,21.295776367188,-7.1719970703125,-13.338012695312
0.087,20.535034179688,-3.1680908203125,-15.380004882812
0.0875,18.412963867188,2.5574951171875,-18.863403320312
0.088,16.210815429688,4.6795654296875,-20.144653320312
0.0885,14.048706054688,7.9227294921875,-21.265747070312
0.089,10.605346679688,11.045776367188,-21.145629882812
0.0895,5.7606201171875,14.729370117188,-20.304809570312
0.09,1.5565185546875,17.331909179688,-18.743286132812
0.0905,-3.1680908203125,19.253784179688,-16.260864257812
0.091,-6.2911376953125,20.214721679688,-14.298950195312
0.0915,-9.7344970703125,20.454956054688,-11.296020507812
0.092,-12.897583007812,20.414916992188,-8.2530517578125
0.0925,-16.421020507812,19.253784179688,-3.7286376953125
0.093,-18.743286132812,17.051635742188,0.7957763671875
0.0935,-20.344848632812,14.969604492188,4.3992919921875
0.094,-21.305786132812,12.647338867188,8.9637451171875
0.0945,-21.425903320312,9.4041748046875,11.005737304688
0.095,-21.025512695312,5.4403076171875,14.609252929688
0.0955,-20.064575195312,1.7567138671875,17.331909179688
0.096,-17.862426757812,-2.6475830078125,19.494018554688
0.0965,-15.700317382812,-5.8507080078125,20.615112304688
0.097,-13.097778320312,-9.0538330078125,21.255737304688
0.0975,-9.6544189453125,-12.337036132812,21.215698242188
0.098,-4.5294189453125,-15.900512695312,19.854370117188
0.0985,0.0350341796875,-18.022583007812,17.772338867188
0.099,3.9989013671875,-19.704223632812,15.650268554688
0.0995,7.1619873046875,-20.464965820312,13.568237304688
0.1,10.485229492188,-20.424926757812,10.365112304688
0.1005,13.928588867188,-20.024536132812,6.6815185546875
0.101,16.971557617188,-18.743286132812,2.4774169921875
0.1015,19.173706054688,-16.340942382812,-2.1270751953125
0.102,20.374877929688,-14.298950195312,-5.2901611328125
0.1025,21.095581054688,-11.696411132812,-8.6134033203125
0.103,21.135620117188,-8.4932861328125,-11.856567382812
0.1035,21.776245117188,-4.3692626953125,-14.098754882812
0.104,19.013549804688,-0.6055908203125,-17.662231445312
0.1045,16.971557617188,3.4383544921875,-19.664184570312
0.105,14.729370117188,6.5213623046875,-20.585083007812
0.1055,11.646362304688,9.6444091796875,-20.825317382812
0.106,7.9627685546875,13.127807617188,-20.665161132812
0.1065,3.1580810546875,16.370971679688,-17.942504882812
0.107,-1.6065673828125,18.292846679688,-16.741333007812
0.1075,-4.8497314453125,19.534057617188,-14.979614257812
0.108,-8.0528564453125,20.294799804688,-12.697387695312
0.1085,-11.336059570312,20.134643554688,-9.4542236328125
0.109,-14.859497070312,19.453979492188,-5.4102783203125
0.1095,-17.502075195312,17.812377929688,-1.2462158203125
0.11,-19.584106445312,15.490112304688,3.1180419921875
0.1105,-19.223754882812,13.408081054688,6.1209716796875
0.111,-21.105590820312,10.525268554688,9.5643310546875
0.1115,-21.025512695312,7.0819091796875,12.967651367188
0.112,-20.344848632812,3.1580810546875,16.250854492188
0.1125,-18.262817382812,-1.0059814453125,18.252807617188
0.113,-16.461059570312,-4.5294189453125,19.974487304688
0.1135,-14.178833007812,-7.6124267578125,20.855346679688
0.114,-10.775512695312,-10.775512695312,20.735229492188
0.1145,-6.5313720703125,-14.258911132812,20.174682617188
0.115,-1.8468017578125,-17.061645507812,18.533081054688
0.1155,2.7576904296875,-18.863403320312,16.010620117188
0.116,5.7205810546875,-19.744262695312,14.208862304688
0.1165,10.244995117188,-20.264770507812,11.646362304688
0.117,12.407104492188,-19.944458007812,8.1229248046875
0.1175,15.610229492188,-19.023559570312,4.0789794921875
0.118,19.213745117188,-17.141723632812,-0.1651611328125
0.1185,19.814331054688,-14.979614257812,-4.0489501953125
0.119,20.454956054688,-12.657348632812,-7.0518798828125
0.1195,20.815307617188,-9.6544189453125,-10.335083007812
0.12,21.776245117188,-5.9307861328125,-13.818481445312
0.1205,19.574096679688,-2.2071533203125,-16.701293945312
0.121,17.331909179688,1.9569091796875,-18.583129882812
0.1215,15.490112304688,5.0399169921875,-19.904418945312
0.122,13.007690429688,8.2430419921875,-20.625122070312
0.1225,9.2840576171875,11.606323242188,-20.424926757812
0.123,4.9998779296875,14.809448242188,-19.463989257812
0.1235,0.4754638671875,17.211791992188,-17.582153320312
0.124,-3.6885986328125,18.973510742188,-15.460083007812
0.1245,-6.4913330078125,19.574096679688,-13.458129882812
0.125,-9.7344970703125,19.974487304688,-10.855590820312
0.1255,-13.418090820312,19.494018554688,-6.8917236328125
0.126,-16.380981445312,18.292846679688,-2.8077392578125
0.1265,-18.382934570312,16.130737304688,1.3963623046875
0.127,-19.984497070312,14.248901367188,4.7996826171875
0.1275,-20.585083007812,11.686401367188,7.9627685546875
0.128,-20.825317382812,8.4432373046875,11.406127929688
0.1285,-20.344848632812,4.6395263671875,14.689331054688
0.129,-19.023559570312,0.7557373046875,17.291870117188
0.1295,-16.861450195312,-3.3282470703125,20.494995117188
0.13,-14.819458007812,-6.1710205078125,20.134643554688
0.1305,-12.296997070312,-9.2940673828125,20.775268554688
0.131,-8.0128173828125,-12.977661132812,20.334838867188
0.1315,-3.5684814453125,-15.900512695312,18.973510742188
0.132,0.9158935546875,-17.862426757812,16.771362304688
0.1325,4.5994873046875,-19.504028320312,14.969604492188
0.133,8.9637451171875,-19.864379882812,12.567260742188
0.1335,10.805541992188,-20.024536132812,9.6844482421875
0.134,14.369018554688,-19.463989257812,5.6805419921875
0.1345,17.131713867188,-17.822387695312,1.3963623046875
0.135,19.053588867188,-15.580200195312,-2.7276611328125
0.1355,20.214721679688,-13.618286132812,-5.7706298828125
0.136,20.775268554688,-10.895629882812,-9.0538330078125
0.1365,20.655151367188,-7.2120361328125,-12.777465820312
0.137,19.974487304688,-3.6485595703125,-15.620239257812
0.1375,18.172729492188,0.3953857421875,-17.862426757812
0.138,16.290893554688,4.1590576171875,-19.744262695312
0.1385,13.728393554688,7.0819091796875,-20.184692382812
0.139,11.005737304688,10.084838867188,-20.585083007812
0.1395,7.6824951171875,13.928588867188,-19.944458007812
0.14,1.9168701171875,16.611206054688,-18.302856445312
0.1405,-2.3673095703125,18.292846679688,-16.020629882812
0.141,-5.5704345703125,19.574096679688,-14.419067382812
0.1415,-8.7735595703125,19.894409179688,-11.696411132812
0.142,-12.216918945312,19.694213867188,-8.2130126953125
0.1425,-15.420043945312,19.013549804688,-4.4493408203125
0.143,-17.902465820312,17.011596679688,1.2762451171875
0.1435,-19.744262695312,14.929565429688,5.1199951171875
0.144,-20.464965820312,12.647338867188,6.8817138671875
0.1445,-21.025512695312,9.9647216796875,10.084838867188
0.145,-20.705200195312,5.7205810546875,14.008666992188
0.1455,-19.744262695312,2.0770263671875,16.691284179688
0.146,-17.622192382812,-1.8868408203125,18.533081054688
0.1465,-15.940551757812,-5.2901611328125,20.294799804688
0.147,-13.097778320312,-8.3331298828125,20.535034179688
0.1475,-9.6944580078125,-10.255004882812,20.535034179688
0.148,-5.2901611328125,-14.979614257812,19.694213867188
0.1485,-0.4854736328125,-17.462036132812,17.612182617188
0.149,3.5584716796875,-18.983520507812,15.410034179688
0.1495,6.4412841796875,-19.824340820312,13.528198242188
0.15,9.6444091796875,-20.224731445312,11.005737304688
0.1505,13.448120117188,-19.544067382812,6.6815185546875
0.151,16.210815429688,-18.463012695312,2.9578857421875
0.1515,18.412963867188,-16.380981445312,-0.0050048828125
0.152,20.094604492188,-14.459106445312,-4.8497314453125
0.1525,20.334838867188,-11.736450195312,-7.9327392578125
0.153,20.775268554688,-8.9337158203125,-11.095825195312
0.1535,20.294799804688,-4.9698486328125,-14.779418945312
0.154,18.893432617188,-0.9259033203125,-17.261840820312
0.1545,17.932495117188,2.9178466796875,-18.863403320312
0.155,14.849487304688,6.0008544921875,-20.144653320312
0.1555,12.006713867188,9.0037841796875,-19.223754882812
0.156,7.7225341796875,12.727416992188,-20.024536132812
0.1565,5.1199951171875,15.490112304688,-19.063598632812
0.157,-0.9259033203125,17.732299804688,-16.821411132812
0.1575,-4.5294189453125,20.494995117188,-14.899536132812
0.158,-7.4522705078125,19.534057617188,-12.537231445312
0.1585,-10.495239257812,19.974487304688,-10.134887695312
0.159,-14.459106445312,20.494995117188,-5.5303955078125
0.1595,-16.981567382812,17.612182617188,-1.5264892578125
0.16,-18.863403320312,15.530151367188,2.3973388671875
0.1605,-20.424926757812,13.608276367188,5.7205810546875
0.161,-20.585083007812,10.725463867188,8.8836669921875
0.1615,-20.745239257812,7.2020263671875,12.487182617188
0.162,-20.144653320312,3.6785888671875,15.530151367188
0.1625,-18.463012695312,-0.4854736328125,19.213745117188
0.163,-16.340942382812,-4.1290283203125,19.494018554688
0.1635,-14.138793945312,-7.0118408203125,20.334838867188
0.164,-10.255004882812,-10.014770507812,20.775268554688
0.1645,-6.4512939453125,-14.058715820312,19.894409179688
0.165,-2.2471923828125,-16.541137695312,18.332885742188
0.1655,2.0369873046875,-18.342895507812,16.170776367188
0.166,5.4803466796875,-19.824340820312,14.449096679688
0.1665,8.6434326171875,-19.864379882812,12.807495117188
0.167,11.806518554688,-19.904418945312,8.6434326171875
0.1675,16.651245117188,-19.183715820312,4.4793701171875
0.168,17.772338867188,-17.101684570312,0.0350341796875
0.1685,19.373901367188,-15.139770507812,-3.5684814453125
0.169,20.454956054688,-12.897583007812,-6.7716064453125
0.1695,20.775268554688,-10.214965820312,-9.8145751953125
0.17,20.454956054688,-5.9307861328125,-13.778442382812
0.1705,19.494018554688,-2.5274658203125,-16.260864257812
0.171,17.572143554688,1.5965576171875,-18.382934570312
0.1715,15.650268554688,5.0799560546875,-19.984497070312
0.172,12.727416992188,8.0428466796875,-20.184692382812
0.1725,10.004760742188,11.125854492188,-20.585083007812
0.173,4.9998779296875,14.929565429688,-19.584106445312
0.1735,0.4354248046875,17.211791992188,-17.502075195312
0.174,-3.3682861328125,18.693237304688,-15.500122070312
0.1745,-6.5714111328125,19.894409179688,-13.738403320312
0.175,-9.7745361328125,19.974487304688,-10.775512695312
0.1755,-13.338012695312,19.453979492188,-6.8917236328125
0.176,-16.340942382812,18.533081054688,-3.0880126953125
0.1765,-18.543090820312,16.250854492188,1.3963623046875
0.177,-19.984497070312,14.248901367188,4.7996826171875
0.1775,-20.545043945312,12.807495117188,8.0028076171875
0.178,-20.985473632812,10.244995117188,11.045776367188
