wavelength,x,y,z
0.0,-14.168823242188,-7.7625732421875,21.025512695312
0.0005,-10.405151367188,-11.045776367188,20.785278320312
0.001,-5.8406982421875,-14.729370117188,19.984497070312
0.0015,-1.1561279296875,-17.892456054688,18.703247070312
0.002,3.0079345703125,-19.734252929688,16.661254882812
0.0025,5.7305908203125,-20.254760742188,14.699340820312
0.003,8.9737548828125,-20.494995117188,11.896606445312
0.0035,12.737426757812,-20.014526367188,7.8126220703125
0.004,16.140747070312,-19.093627929688,3.6885986328125
0.0045,18.783325195312,-17.532104492188,-0.5155029296875
0.005,20.505004882812,-15.690307617188,-3.9588623046875
0.0055,20.745239257812,-13.087768554688,-6.8016357421875
0.006,20.785278320312,-9.8045654296875,-10.164916992188
0.0065,20.424926757812,-5.7606201171875,-13.808471679688
0.007,19.704223632812,-1.7567138671875,-17.171752929688
0.0075,17.902465820312,2.1671142578125,-19.213745117188
0.008,15.820434570312,5.0098876953125,-20.174682617188
0.0085,13.057739257812,8.2530517578125,-20.575073242188
0.009,8.6934814453125,11.976684570312,-20.134643554688
0.0095,4.3692626953125,15.339965820312,-19.253784179688
0.01,-0.1551513671875,17.982543945312,-17.732299804688
0.0105,-3.7987060546875,19.704223632812,-16.010620117188
0.011,-6.5213623046875,19.864379882812,-13.648315429688
0.0115,-9.6844482421875,19.984497070312,-10.845581054688
0.012,-13.688354492188,19.423950195312,-6.4412841796875
0.0125,-16.851440429688,18.302856445312,-2.2772216796875
0.013,-19.133666992188,16.621215820312,1.6466064453125
0.0135,-20.294799804688,14.739379882812,4.6094970703125
0.014,-20.575073242188,11.976684570312,7.6524658203125
0.0145,-20.494995117188,8.2530517578125,11.336059570312
0.015,-20.014526367188,4.4493408203125,14.699340820312
0.0155,-18.973510742188,0.4454345703125,17.702270507812
0.016,-17.251831054688,-3.3582763671875,19.584106445312
0.0165,-14.769409179688,-6.0408935546875,19.944458007812
0.017,-12.046752929688,-9.0838623046875,20.384887695312
0.0175,-7.2821044921875,-13.087768554688,19.744262695312
0.018,-2.7977294921875,-16.250854492188,18.623168945312
0.0185,1.2462158203125,-18.292846679688,16.941528320312
0.019,4.4493408203125,-19.694213867188,15.339965820312
0.0195,7.3321533203125,-19.774291992188,12.737426757812
0.02,10.735473632812,-19.574096679688,9.3341064453125
0.0205,14.379028320312,-19.053588867188,5.3702392578125
0.021,17.421997070312,-17.692260742188,1.0460205078125
0.0215,19.343872070312,-16.010620117188,-2.5975341796875
0.022,19.864379882812,-13.808471679688,-5.2401123046875
0.0225,20.224731445312,-11.045776367188,-8.3231201171875
0.023,19.904418945312,-6.8817138671875,-12.206909179688
0.0235,19.383911132812,-3.2381591796875,-15.410034179688
0.024,18.062622070312,0.4854736328125,-17.732299804688
0.0245,16.300903320312,3.8887939453125,-19.494018554688
0.025,13.538208007812,6.6915283203125,-19.614135742188
0.0255,10.455200195312,9.8946533203125,-19.734252929688
0.026,5.8106689453125,13.698364257812,-19.213745117188
0.0265,1.3262939453125,16.781372070312,-17.852416992188
0.027,-2.3572998046875,18.422973632812,-16.170776367188
0.0275,-5.1600341796875,19.343872070312,-14.409057617188
0.028,-8.2830810546875,19.504028320312,-11.686401367188
0.0285,-12.046752929688,19.063598632812,-7.6424560546875
0.029,-15.249877929688,18.422973632812,-3.9188232421875
0.0295,-17.972534179688,16.941528320312,0.1651611328125
0.03,-19.614135742188,15.219848632812,3.5284423828125
0.0305,-19.854370117188,12.657348632812,6.2510986328125
0.031,-20.174682617188,9.8546142578125,9.3741455078125
0.0315,-19.814331054688,5.5704345703125,13.338012695312
0.032,-18.933471679688,1.6466064453125,16.461059570312
0.0325,-17.452026367188,-1.9569091796875,18.382934570312
0.033,-15.690307617188,-4.9598388671875,19.784301757812
0.0335,-12.687377929688,-7.9627685546875,19.864379882812
0.034,-8.7235107421875,-11.526245117188,19.584106445312
0.0345,-4.5594482421875,-14.809448242188,18.903442382812
0.035,0.0450439453125,-17.532104492188,17.261840820312
0.0355,3.4483642578125,-18.973510742188,15.580200195312
0.036,6.1309814453125,-19.373901367188,13.418090820312
0.0365,9.2139892578125,-19.614135742188,10.855590820312
0.037,13.297973632812,-18.933471679688,6.2110595703125
0.0375,16.340942382812,-17.932495117188,2.2471923828125
0.038,18.543090820312,-16.411010742188,-1.3563232421875
0.0385,19.824340820312,-14.569213867188,-4.4393310546875
0.039,19.824340820312,-11.686401367188,-7.3221435546875
0.0395,19.904418945312,-8.3231201171875,-10.845581054688
0.04,19.504028320312,-4.5194091796875,-14.248901367188
0.0405,18.503051757812,-0.5155029296875,-17.251831054688
0.041,16.661254882812,2.9278564453125,-18.813354492188
0.0415,14.419067382812,5.7305908203125,-19.494018554688
0.042,11.696411132812,8.7735595703125,-19.854370117188
0.0425,6.7716064453125,12.817504882812,-19.093627929688
0.043,2.8477783203125,15.740356445312,-18.252807617188
0.0435,-1.2762451171875,17.902465820312,-16.651245117188
0.044,-4.4793701171875,19.223754882812,-14.929565429688
0.0445,-7.2821044921875,19.143676757812,-12.246948242188
0.045,-10.445190429688,19.223754882812,-9.3240966796875
0.0455,-14.288940429688,18.543090820312,-5.0399169921875
0.046,-17.251831054688,17.141723632812,-0.7957763671875
0.0465,-18.933471679688,15.580200195312,2.4874267578125
0.047,-19.734252929688,13.498168945312,5.3302001953125
0.0475,-19.854370117188,10.695434570312,8.2130126953125
0.048,-19.614135742188,6.5313720703125,12.176879882812
0.0485,-19.093627929688,3.0479736328125,15.179809570312
0.049,-17.892456054688,-0.7957763671875,17.702270507812
0.0495,-16.010620117188,-4.0389404296875,19.223754882812
0.05,-13.328002929688,-6.7615966796875,19.263793945312
0.0505,-10.565307617188,-9.7645263671875,19.664184570312
0.051,-5.5604248046875,-13.808471679688,18.783325195312
0.0515,-1.2362060546875,-16.571166992188,17.421997070312
0.052,2.1671142578125,-18.172729492188,15.980590820312
0.0525,5.1700439453125,-19.253784179688,14.218872070312
0.053,8.0928955078125,-19.133666992188,11.376098632812
0.0535,11.656372070312,-18.813354492188,7.5323486328125
0.054,15.059692382812,-18.252807617188,3.8487548828125
0.0545,17.662231445312,-16.691284179688,-0.2752685546875
0.055,19.063598632812,-15.089721679688,-3.1981201171875
0.0555,19.383911132812,-12.607299804688,-6.0008544921875
0.056,19.664184570312,-9.9647216796875,-8.9237060546875
0.0565,19.343872070312,-5.6004638671875,-12.967651367188
0.057,18.543090820312,-1.9569091796875,-15.890502929688
0.0575,17.141723632812,1.4464111328125,-17.852416992188
0.058,15.380004882812,4.6094970703125,-19.253784179688
0.0585,12.216918945312,7.5323486328125,-19.093627929688
0.059,8.7335205078125,10.935668945312,-19.133666992188
0.0595,4.3292236328125,14.539184570312,-18.533081054688
0.06,-0.1951904296875,17.101684570312,-16.971557617188
0.0605,-3.1580810546875,18.422973632812,-15.369995117188
0.061,-6.0408935546875,19.063598632812,-13.328002929688
0.0615,-9.0037841796875,19.183715820312,-10.645385742188
0.062,-13.087768554688,18.503051757812,-6.0809326171875
0.0625,-16.130737304688,17.622192382812,-2.2772216796875
0.063,-18.332885742188,16.100708007812,1.3663330078125
0.0635,-19.453979492188,14.298950195312,4.2491455078125
0.064,-19.494018554688,11.416137695312,7.1719970703125
0.0645,-19.694213867188,8.3731689453125,10.415161132812
0.065,-19.494018554688,4.1690673828125,14.258911132812
0.0655,-18.212768554688,0.2852783203125,17.061645507812
0.066,-16.531127929688,-2.8778076171875,18.543090820312
0.0665,-14.609252929688,-5.8807373046875,19.664184570312
0.067,-11.486206054688,-8.8836669921875,19.584106445312
0.0675,-6.8016357421875,-12.807495117188,19.023559570312
0.068,-2.5975341796875,-15.970581054688,18.222778320312
0.0685,1.4464111328125,-18.132690429688,16.541137695312
0.069,4.4093017578125,-19.173706054688,14.859497070312
0.0695,7.4122314453125,-19.373901367188,12.216918945312
0.07,10.615356445312,-19.413940429688,9.2940673828125
0.0705,14.619262695312,-18.653198242188,4.6895751953125
0.071,17.502075195312,-17.291870117188,0.4854736328125
0.0715,19.183715820312,-15.690307617188,-2.7176513671875
0.072,19.984497070312,-13.608276367188,-5.6405029296875
0.0725,19.904418945312,-10.485229492188,-8.6834716796875
0.073,19.704223632812,-6.6815185546875,-12.286987304688
0.0735,19.343872070312,-2.9178466796875,-15.690307617188
0.074,17.902465820312,1.1260986328125,-18.252807617188
0.0745,15.860473632812,4.2091064453125,-19.373901367188
0.075,13.297973632812,7.2921142578125,-19.894409179688
0.0755,10.094848632812,10.415161132812,-20.014526367188
0.076,4.8897705078125,14.499145507812,-18.973510742188
0.0765,0.6055908203125,17.301879882812,-17.692260742188
0.077,-2.9578857421875,19.023559570312,-16.090698242188
0.0775,-5.9608154296875,19.824340820312,-14.088745117188
0.078,-9.1639404296875,19.584106445312,-10.925659179688
0.0785,-12.687377929688,19.343872070312,-7.4022216796875
0.079,-16.170776367188,18.503051757812,-3.0780029296875
0.0795,-18.853393554688,16.661254882812,1.3262939453125
0.08,-19.934448242188,14.859497070312,4.1290283203125
0.0805,-20.454956054688,12.296997070312,7.1719970703125
0.081,-20.374877929688,9.2139892578125,10.255004882812
0.0815,-19.894409179688,4.8096923828125,14.178833007812
0.082,-19.013549804688,1.0059814453125,17.141723632812
0.0825,-17.452026367188,-2.7176513671875,19.263793945312
0.083,-15.249877929688,-5.7205810546875,20.144653320312
0.0835,-12.046752929688,-8.8436279296875,20.064575195312
0.084,-8.4832763671875,-12.246948242188,20.024536132812
0.0845,-3.4783935546875,-15.970581054688,18.943481445312
0.085,1.1260986328125,-18.292846679688,17.021606445312
0.0855,4.0889892578125,-19.534057617188,15.500122070312
0.086,7.0518798828125,-20.094604492188,13.297973632812
0.0865,10.214965820312,-19.734252929688,9.9747314453125
0.087,14.018676757812,-19.093627929688,5.7305908203125
0.0875,17.021606445312,-18.292846679688,1.6466064453125
0.088,19.463989257812,-16.290893554688,-2.3973388671875
0.0885,20.104614257812,-14.248901367188,-5.0399169921875
0.089,20.344848632812,-11.286010742188,-8.1629638671875
0.0895,20.224731445312,-8.0028076171875,-11.446166992188
0.09,19.704223632812,-3.7987060546875,-15.169799804688
0.0905,18.342895507812,0.2852783203125,-17.812377929688
0.091,16.701293945312,3.5284423828125,-19.494018554688
0.0915,14.379028320312,6.5313720703125,-20.214721679688
0.092,10.855590820312,9.7344970703125,-19.934448242188
0.0925,6.6514892578125,13.378051757812,-19.534057617188
0.093,2.1270751953125,16.781372070312,-18.573120117188
0.0935,-2.2772216796875,18.823364257812,-16.571166992188
0.094,-4.9998779296875,19.584106445312,-14.809448242188
0.0945,-8.2030029296875,19.984497070312,-12.246948242188
0.095,-11.606323242188,19.624145507812,-8.6834716796875
0.0955,-15.329956054688,18.823364257812,-4.3592529296875
0.096,-18.172729492188,17.421997070312,-0.1551513671875
0.0965,-20.054565429688,15.660278320312,3.4483642578125
0.097,-20.535034179688,13.297973632812,6.2110595703125
0.0975,-20.575073242188,10.094848632812,9.5743408203125
0.098,-20.374877929688,6.3712158203125,13.097778320312
0.0985,-19.814331054688,2.2471923828125,16.621215820312
0.099,-18.092651367188,-1.8768310546875,19.023559570312
0.0995,-16.170776367188,-4.8797607421875,20.184692382812
0.1,-13.608276367188,-8.0028076171875,20.785278320312
0.1005,-9.6444091796875,-11.486206054688,20.384887695312
0.101,-4.9598388671875,-15.049682617188,19.504028320312
0.1015,-0.4754638671875,-18.012573242188,18.182739257812
0.102,3.5684814453125,-19.894409179688,16.300903320312
0.1025,6.3311767578125,-20.254760742188,14.138793945312
0.103,9.6143798828125,-20.374877929688,11.215942382812
0.1035,13.378051757812,-19.934448242188,7.1719970703125
0.104,16.901489257812,-18.933471679688,2.7677001953125
0.1045,19.423950195312,-17.171752929688,-1.4764404296875
0.105,20.785278320312,-15.369995117188,-4.6795654296875
0.1055,21.105590820312,-12.527221679688,-7.7225341796875
0.106,21.025512695312,-8.9637451171875,-11.245971679688
0.1065,20.464965820312,-4.8797607421875,-14.769409179688
0.107,19.664184570312,-0.8358154296875,-18.012573242188
0.1075,17.742309570312,3.2081298828125,-20.134643554688
0.108,15.339965820312,6.0909423828125,-20.695190429688
0.1085,12.417114257812,9.3341064453125,-21.295776367188
0.109,7.8526611328125,13.257934570312,-20.575073242188
0.1095,3.1280517578125,16.661254882812,-19.413940429688
0.11,-1.3563232421875,19.023559570312,-17.612182617188
0.1105,-4.8797607421875,20.545043945312,-15.850463867188
0.111,-7.8026123046875,20.625122070312,-13.207885742188
0.1115,-11.165893554688,20.464965820312,-9.9246826171875
0.112,-15.009643554688,19.824340820312,-5.5604248046875
0.1125,-18.332885742188,18.463012695312,-1.0360107421875
0.113,-20.494995117188,16.461059570312,2.9678955078125
0.1135,-21.215698242188,14.338989257812,5.8907470703125
0.114,-21.495971679688,11.336059570312,9.1339111328125
0.1145,-21.175659179688,7.3321533203125,12.977661132812
0.115,-20.494995117188,3.2081298828125,16.340942382812
0.1155,-19.133666992188,-0.9158935546875,19.063598632812
0.116,-17.171752929688,-4.6395263671875,20.985473632812
0.1165,-14.409057617188,-7.5223388671875,21.065551757812
0.117,-11.165893554688,-10.765502929688,21.145629882812
0.1175,-6.3612060546875,-14.689331054688,20.424926757812
0.118,-1.4764404296875,-17.892456054688,18.983520507812
0.1185,2.6876220703125,-19.694213867188,16.941528320312
0.119,5.7305908203125,-20.695190429688,15.099731445312
0.1195,8.8936767578125,-20.775268554688,12.216918945312
0.12,12.457153320312,-20.214721679688,8.3731689453125
0.1205,15.980590820312,-19.494018554688,4.2891845703125
0.121,18.943481445312,-17.972534179688,-0.3153076171875
0.1215,20.785278320312,-15.970581054688,-3.9588623046875
0.122,21.025512695312,-13.448120117188,-6.7215576171875
0.1225,21.185668945312,-10.405151367188,-9.9246826171875
0.123,20.785278320312,-6.1209716796875,-13.888549804688
0.1235,19.984497070312,-2.1170654296875,-17.131713867188
0.124,18.302856445312,1.7667236328125,-19.253784179688
0.1245,16.421020507812,5.1300048828125,-20.815307617188
0.125,13.338012695312,8.2130126953125,-20.815307617188
0.1255,9.5743408203125,11.656372070312,-20.615112304688
0.126,5.0499267578125,15.299926757812,-19.894409179688
0.1265,0.1651611328125,18.342895507812,-18.292846679688
0.127,-3.6785888671875,19.944458007812,-16.370971679688
0.1275,-6.4813232421875,20.464965820312,-14.248901367188
0.128,-9.7645263671875,20.625122070312,-11.406127929688
0.1285,-13.768432617188,19.864379882812,-6.8817138671875
0.129,-17.011596679688,18.903442382812,-2.8377685546875
0.1295,-19.534057617188,17.301879882812,1.3262939453125
0.13,-21.095581054688,15.380004882812,4.7696533203125
0.1305,-21.135620117188,12.457153320312,7.6925048828125
0.131,-21.295776367188,9.2540283203125,11.215942382812
0.1315,-20.815307617188,4.8497314453125,15.059692382812
0.132,-19.814331054688,0.6055908203125,18.302856445312
0.1325,-17.852416992188,-3.1981201171875,20.144653320312
0.133,-15.730346679688,-6.2811279296875,21.145629882812
0.1335,-12.567260742188,-9.4842529296875,21.305786132812
0.134,-7.8426513671875,-13.448120117188,20.665161132812
0.1345,-3.4783935546875,-16.691284179688,19.744262695312
0.135,1.2862548828125,-19.293823242188,17.942504882812
0.1355,4.8497314453125,-20.775268554688,15.980590820312
0.136,7.8126220703125,-20.855346679688,13.338012695312
0.1365,11.135864257812,-21.015502929688,10.375122070312
0.137,15.380004882812,-20.214721679688,5.4102783203125
0.1375,18.623168945312,-18.733276367188,0.9259033203125
0.138,20.625122070312,-16.931518554688,-2.8778076171875
0.1385,21.826293945312,-14.729370117188,-6.1209716796875
0.139,21.586059570312,-11.566284179688,-9.2840576171875
0.1395,21.626098632812,-7.5223388671875,-13.287963867188
0.14,21.025512695312,-3.4783935546875,-16.691284179688
0.1405,19.664184570312,0.9659423828125,-19.734252929688
0.141,17.421997070312,4.7296142578125,-21.295776367188
0.1415,14.579223632812,7.8126220703125,-21.696166992188
0.142,11.456176757812,11.175903320312,-21.936401367188
0.1425,5.8106689453125,15.580200195312,-20.895385742188
0.143,1.2462158203125,18.623168945312,-19.574096679688
0.1435,-3.0780029296875,20.625122070312,-17.652221679688
0.144,-6.7615966796875,21.786254882812,-15.610229492188
0.1445,-9.8846435546875,21.465942382812,-12.166870117188
0.145,-13.528198242188,21.265747070312,-8.5633544921875
0.1455,-17.492065429688,20.384887695312,-3.7987060546875
0.146,-20.695190429688,18.463012695312,1.2862548828125
0.1465,-22.136596679688,16.380981445312,4.7296142578125
0.147,-22.777221679688,13.738403320312,7.9727783203125
0.1475,-22.737182617188,10.375122070312,11.336059570312
0.148,-22.136596679688,5.4102783203125,15.740356445312
0.1485,-21.175659179688,1.2862548828125,18.903442382812
0.149,-19.494018554688,-2.9578857421875,21.465942382812
0.1495,-17.051635742188,-6.6815185546875,22.787231445312
0.15,-13.408081054688,-9.8846435546875,22.466918945312
0.1505,-9.8846435546875,-13.408081054688,22.546997070312
0.151,-4.1590576171875,-17.612182617188,21.265747070312
0.1515,1.0860595703125,-20.454956054688,19.183715820312
0.152,4.7296142578125,-21.856323242188,17.141723632812
0.1525,8.1729736328125,-22.657104492188,14.779418945312
0.153,11.576293945312,-22.256713867188,11.055786132812
0.1535,15.660278320312,-21.335815429688,6.4112548828125
0.154,19.223754882812,-20.254760742188,1.9268798828125
0.1545,21.826293945312,-18.092651367188,-2.8778076171875
0.155,22.827270507812,-15.770385742188,-6.1209716796875
0.1555,22.907348632812,-12.527221679688,-9.4842529296875
0.156,22.867309570312,-9.1239013671875,-12.767456054688
0.1565,22.066528320312,-4.1190185546875,-17.051635742188
0.157,20.585083007812,0.3653564453125,-20.014526367188
0.1575,18.583129882812,4.1290283203125,-21.816284179688
0.158,16.180786132812,7.6524658203125,-22.937377929688
0.1585,12.216918945312,11.175903320312,-22.416870117188
0.159,7.6925048828125,14.779418945312,-21.936401367188
0.1595,2.6876220703125,18.463012695312,-20.815307617188
0.16,-2.5174560546875,20.985473632812,-18.453002929688
0.1605,-5.8006591796875,21.906372070312,-16.330932617188
0.161,-9.1239013671875,22.226684570312,-13.608276367188
0.1615,-12.527221679688,21.946411132812,-10.124877929688
0.162,-16.811401367188,20.825317382812,-4.8797607421875
0.1625,-20.014526367188,19.303833007812,-0.3153076171875
0.163,-22.096557617188,17.301879882812,3.8087158203125
0.1635,-22.777221679688,14.739379882812,6.9317626953125
0.164,-22.697143554688,11.135864257812,10.495239257812
0.1645,-22.496948242188,7.4923095703125,14.018676757812
0.165,-21.776245117188,2.8477783203125,17.942504882812
0.1655,-19.974487304688,-1.8367919921875,20.825317382812
0.166,-17.692260742188,-5.2801513671875,22.066528320312
0.1665,-15.129760742188,-8.6033935546875,22.907348632812
0.167,-11.205932617188,-12.046752929688,22.466918945312
0.1675,-5.8006591796875,-16.170776367188,21.425903320312
0.168,-1.1160888671875,-19.413940429688,20.144653320312
0.1685,3.5684814453125,-21.536010742188,17.942504882812
0.169,6.7716064453125,-22.296752929688,15.620239257812
0.1695,10.335083007812,-22.136596679688,12.296997070312
0.17,13.818481445312,-21.896362304688,8.6934814453125
0.1705,17.982543945312,-20.695190429688,3.5284423828125
0.171,20.985473632812,-18.773315429688,-1.3963623046875
0.1715,22.506958007812,-16.731323242188,-4.8397216796875
0.172,23.067504882812,-14.008666992188,-8.1629638671875
0.1725,22.747192382812,-10.204956054688,-11.646362304688
0.173,22.266723632812,-5.7606201171875,-15.650268554688
0.1735,21.425903320312,-1.5565185546875,-19.053588867188
0.174,19.504028320312,3.0479736328125,-21.656127929688
0.1745,16.821411132812,6.4112548828125,-22.456909179688
0.175,13.658325195312,9.8546142578125,-22.777221679688
0.1755,9.6143798828125,13.498168945312,-22.536987304688
0.176,3.9688720703125,17.582153320312,-21.135620117188
0.1765,-0.9559326171875,20.384887695312,-19.333862304688
0.177,-4.9197998046875,22.066528320312,-17.331909179688
0.1775,-8.2830810546875,22.546997070312,-14.769409179688
0.178,-11.846557617188,22.146606445312,-10.965698242188
