wavelength,x,y,z
0.0,-3.9638671875,1.0009765625,2.5224609375
0.0005,-3.9638671875,0.4404296875,3.123046875
0.001,-3.68359375,-0.2802734375,3.4033203125
0.0015,-3.5234375,-0.720703125,3.7236328125
0.002,-2.6025390625,-1.7216796875,3.8837890625
0.0025,-2.001953125,-2.4423828125,4.00390625
0.003,-1.201171875,-3.283203125,4.1240234375
0.0035,-0.4404296875,-3.763671875,3.8037109375
0.004,0.2802734375,-4.2041015625,3.603515625
0.0045,1.12109375,-4.32421875,2.9228515625
0.005,2.001953125,-4.5244140625,2.2421875
0.0055,2.642578125,-4.5244140625,1.5615234375
0.006,3.3232421875,-4.6044921875,0.9609375
0.0065,3.5234375,-4.083984375,0.2802734375
0.007,3.8837890625,-3.923828125,-0.3203125
0.0075,3.84375,-2.72265625,-1.4814453125
0.008,4.0439453125,-2.1220703125,-2.2421875
0.0085,3.9638671875,-1.28125,-3.0830078125
0.009,3.84375,-0.6806640625,-3.5634765625
0.0095,3.4033203125,0.0,-3.84375
0.01,3.04296875,0.640625,-4.0439453125
0.0105,2.08203125,1.7216796875,-4.2041015625
0.011,1.361328125,2.3623046875,-4.1640625
0.0115,0.6005859375,3.1630859375,-4.1640625
0.012,-0.240234375,3.443359375,-3.68359375
0.0125,-0.80078125,3.763671875,-3.4833984375
0.013,-1.76171875,3.8037109375,-2.5224609375
0.0135,-2.5625,3.9638671875,-1.921875
0.014,-3.0830078125,3.763671875,-1.2412109375
0.0145,-3.603515625,3.8037109375,-0.6806640625
0.015,-3.68359375,3.203125,0.0
0.0155,-3.923828125,2.8828125,0.6005859375
0.016,-3.923828125,1.76171875,1.681640625
0.0165,-4.0439453125,1.2412109375,2.3623046875
0.017,-4.00390625,0.48046875,3.0830078125
0.0175,-3.8037109375,-0.16015625,3.4033203125
0.018,-3.5234375,-0.640625,3.763671875
0.0185,-2.8828125,-1.44140625,3.84375
0.019,-2.2021484375,-2.322265625,4.083984375
0.0195,-1.361328125,-2.962890625,3.923828125
0.02,-0.720703125,-3.7236328125,4.00390625
0.0205,0.1201171875,-3.923828125,3.4833984375
0.021,0.640625,-4.32421875,3.3232421875
0.0215,1.7216796875,-4.32421875,2.322265625
0.022,2.3623046875,-4.5244140625,1.921875
0.0225,3.0029296875,-4.4443359375,1.12109375
0.023,3.443359375,-4.3642578125,0.640625
0.0235,3.603515625,-3.84375,0.0
0.024,3.8037109375,-3.36328125,-0.80078125
0.0245,3.8837890625,-2.40234375,-1.921875
0.025,3.923828125,-1.8017578125,-2.5625
0.0255,3.9638671875,-1.12109375,-3.3232421875
0.026,3.5634765625,-0.4404296875,-3.5634765625
0.0265,3.36328125,0.2001953125,-3.8837890625
0.027,2.5224609375,1.12109375,-4.00390625
0.0275,1.921875,1.9619140625,-4.244140625
0.028,1.0009765625,2.642578125,-4.00390625
0.0285,0.400390625,3.283203125,-4.083984375
0.029,-0.4404296875,3.443359375,-3.5234375
0.0295,-1.0009765625,3.763671875,-3.203125
0.03,-2.1220703125,3.84375,-2.2421875
0.0305,-2.72265625,3.923828125,-1.7216796875
0.031,-3.36328125,3.84375,-1.0009765625
0.0315,-3.603515625,3.5634765625,-0.48046875
0.032,-3.84375,3.123046875,0.240234375
0.0325,-3.8837890625,2.322265625,1.0810546875
0.033,-4.083984375,1.521484375,2.08203125
0.0335,-3.9638671875,0.80078125,2.6826171875
0.034,-4.00390625,0.2802734375,3.3232421875
0.0345,-3.5634765625,-0.400390625,3.5234375
0.035,-3.283203125,-1.0009765625,3.84375
0.0355,-2.3623046875,-1.9619140625,3.8837890625
0.036,-1.76171875,-2.72265625,4.0439453125
0.0365,-0.9208984375,-3.36328125,3.84375
0.037,-0.2802734375,-3.8837890625,3.763671875
0.0375,0.48046875,-4.0439453125,3.203125
0.038,1.1611328125,-4.2041015625,2.7626953125
0.0385,2.162109375,-4.4443359375,1.9619140625
0.039,2.642578125,-4.32421875,1.4013671875
0.0395,3.2431640625,-4.4443359375,0.880859375
0.04,3.36328125,-3.8837890625,0.2802734375
0.0405,3.68359375,-3.6435546875,-0.400390625
0.041,3.68359375,-2.6826171875,-1.4013671875
0.0415,3.8837890625,-2.08203125,-2.2822265625
0.042,3.68359375,-1.28125,-2.8427734375
0.0425,3.8037109375,-0.8408203125,-3.3232421875
0.043,3.283203125,-0.16015625,-3.5634765625
0.0435,3.0029296875,0.48046875,-3.84375
0.044,2.1220703125,1.521484375,-4.00390625
0.0445,1.521484375,2.162109375,-4.083984375
0.045,0.720703125,2.8427734375,-4.00390625
0.0455,0.080078125,3.2431640625,-3.763671875
0.046,-0.640625,3.5234375,-3.36328125
0.0465,-1.44140625,3.6435546875,-2.642578125
0.047,-2.3623046875,3.8837890625,-2.0419921875
0.0475,-2.7626953125,3.68359375,-1.44140625
0.048,-3.36328125,3.84375,-0.9609375
0.0485,-3.4833984375,3.1630859375,-0.2802734375
0.049,-3.763671875,2.8427734375,0.4404296875
0.0495,-3.84375,1.8017578125,1.4814453125
0.05,-4.00390625,1.3212890625,2.2421875
0.0505,-3.84375,0.6005859375,2.8427734375
0.051,-3.84375,0.2001953125,3.2431640625
0.0515,-3.36328125,-0.6005859375,3.4833984375
0.052,-2.8427734375,-1.2412109375,3.6435546875
0.0525,-2.08203125,-2.2421875,3.8837890625
0.053,-1.361328125,-2.802734375,3.763671875
0.0535,-0.720703125,-3.5234375,3.84375
0.054,0.0,-3.7236328125,3.36328125
0.0545,0.6005859375,-4.00390625,3.0830078125
0.055,1.521484375,-4.1240234375,2.2822265625
0.0555,2.2421875,-4.3642578125,1.841796875
0.056,2.642578125,-4.1640625,1.201171875
0.0565,3.0830078125,-4.244140625,0.8408203125
0.057,3.1630859375,-3.603515625,0.1201171875
0.0575,3.443359375,-3.2431640625,-0.640625
0.058,3.603515625,-2.2822265625,-1.6416015625
0.0585,3.68359375,-1.8017578125,-2.2822265625
0.059,3.6435546875,-1.1611328125,-2.8828125
0.0595,3.443359375,-0.6806640625,-3.1630859375
0.06,3.123046875,0.0,-3.5234375
0.0605,2.482421875,0.80078125,-3.6435546875
0.061,1.921875,1.6416015625,-4.00390625
0.0615,1.201171875,2.2421875,-3.8037109375
0.062,0.640625,2.8828125,-3.9638671875
0.0625,-0.16015625,3.04296875,-3.36328125
0.063,-0.720703125,3.36328125,-3.123046875
0.0635,-1.7216796875,3.5634765625,-2.322265625
0.064,-2.2822265625,3.7236328125,-1.921875
0.0645,-2.8828125,3.5634765625,-1.28125
0.065,-3.1630859375,3.4833984375,-0.880859375
0.0655,-3.36328125,2.8828125,-0.1201171875
0.066,-3.5634765625,2.40234375,0.6806640625
0.0665,-3.8037109375,1.6416015625,1.7216796875
0.067,-3.7236328125,1.12109375,2.2021484375
0.0675,-3.84375,0.6005859375,2.8427734375
0.068,-3.5234375,0.0,3.0830078125
0.0685,-3.203125,-0.640625,3.443359375
0.069,-2.4423828125,-1.5615234375,3.5634765625
0.0695,-1.921875,-2.322265625,3.84375
0.07,-1.12109375,-2.8828125,3.603515625
0.0705,-0.6005859375,-3.4833984375,3.68359375
0.071,0.16015625,-3.6435546875,3.123046875
0.0715,0.80078125,-3.8837890625,2.802734375
0.072,1.76171875,-4.2041015625,2.08203125
0.0725,2.2421875,-4.2041015625,1.6015625
0.073,2.7626953125,-4.244140625,1.1611328125
0.0735,2.9228515625,-3.8837890625,0.6005859375
0.074,3.203125,-3.4033203125,-0.16015625
0.0745,3.3232421875,-2.642578125,-1.041015625
0.075,3.6435546875,-2.08203125,-1.921875
0.0755,3.443359375,-1.44140625,-2.3623046875
0.076,3.6435546875,-1.12109375,-2.8828125
0.0765,3.123046875,-0.400390625,-3.1630859375
0.077,2.8427734375,0.240234375,-3.443359375
0.0775,2.1220703125,1.201171875,-3.7236328125
0.078,1.5615234375,1.8017578125,-3.763671875
0.0785,0.880859375,2.40234375,-3.7236328125
0.079,0.3603515625,2.802734375,-3.5634765625
0.0795,-0.3603515625,3.04296875,-3.0830078125
0.08,-1.0810546875,3.2431640625,-2.642578125
0.0805,-1.921875,3.5234375,-2.1220703125
0.081,-2.2822265625,3.36328125,-1.6416015625
0.0815,-2.8828125,3.5634765625,-1.28125
0.082,-2.962890625,3.04296875,-0.560546875
0.0825,-3.283203125,2.6826171875,0.1201171875
0.083,-3.4833984375,1.921875,1.12109375
0.0835,-3.7236328125,1.5615234375,1.76171875
0.084,-3.603515625,0.880859375,2.2822265625
0.0845,-3.763671875,0.6005859375,2.7626953125
0.085,-3.2431640625,-0.2802734375,3.0830078125
0.0855,-2.8828125,-0.9208984375,3.36328125
0.086,-2.2421875,-1.8818359375,3.68359375
0.0865,-1.6015625,-2.4423828125,3.603515625
0.087,-1.0009765625,-3.1630859375,3.763671875
0.0875,-0.3203125,-3.443359375,3.36328125
0.088,0.3603515625,-3.7236328125,3.04296875
0.0885,1.2412109375,-4.00390625,2.40234375
0.089,1.9619140625,-4.2841796875,2.001953125
0.0895,2.40234375,-4.1240234375,1.4013671875
0.09,2.8427734375,-4.2041015625,1.041015625
0.0905,3.0029296875,-3.5234375,0.240234375
0.091,3.283203125,-3.0830078125,-0.560546875
0.0915,3.5234375,-2.2822265625,-1.6015625
0.092,3.5634765625,-1.8017578125,-2.2021484375
0.0925,3.5234375,-1.201171875,-2.72265625
0.093,3.36328125,-0.7607421875,-3.04296875
0.0935,2.9228515625,0.0,-3.3232421875
0.094,2.3623046875,0.7607421875,-3.5634765625
0.0945,1.8017578125,1.6416015625,-3.84375
0.095,1.041015625,2.162109375,-3.5634765625
0.0955,0.560546875,2.802734375,-3.763671875
0.096,-0.2001953125,2.8828125,-3.1630859375
0.0965,-0.8408203125,3.1630859375,-2.8427734375
0.097,-1.76171875,3.36328125,-2.2021484375
0.0975,-2.2822265625,3.4833984375,-1.8017578125
0.098,-2.6826171875,3.4033203125,-1.2412109375
0.0985,-2.962890625,3.3232421875,-0.80078125
0.099,-3.1630859375,2.642578125,0.0
0.0995,-3.36328125,2.2021484375,0.7607421875
0.1,-3.68359375,1.5615234375,1.7216796875
0.1005,-3.603515625,1.0009765625,2.162109375
0.101,-3.763671875,0.6005859375,2.72265625
0.1015,-3.36328125,0.0,2.962890625
0.102,-3.0029296875,-0.720703125,3.3232421875
0.1025,-2.3623046875,-1.6015625,3.5234375
0.103,-1.8017578125,-2.322265625,3.763671875
0.1035,-1.041015625,-2.8828125,3.5634765625
0.104,-0.6005859375,-3.4033203125,3.6435546875
0.1045,0.240234375,-3.603515625,3.0029296875
0.105,0.9208984375,-3.9638671875,2.6826171875
0.1055,1.841796875,-4.244140625,2.0419921875
0.106,2.2822265625,-4.1640625,1.5615234375
0.1065,2.802734375,-4.1640625,1.0810546875
0.107,3.0029296875,-3.763671875,0.48046875
0.1075,3.203125,-3.203125,-0.3603515625
0.108,3.443359375,-2.5224609375,-1.28125
0.1085,3.68359375,-1.9619140625,-2.1220703125
0.109,3.443359375,-1.28125,-2.5625
0.1095,3.603515625,-0.9208984375,-3.0830078125
0.11,3.04296875,-0.16015625,-3.2431640625
0.1105,2.6025390625,0.6005859375,-3.5634765625
0.111,1.921875,1.5615234375,-3.84375
0.1115,1.28125,2.162109375,-3.84375
0.112,0.560546875,2.6826171875,-3.68359375
0.1125,0.0,3.04296875,-3.5234375
0.113,-0.80078125,3.1630859375,-2.8828125
0.1135,-1.5615234375,3.443359375,-2.4423828125
0.114,-2.40234375,3.7236328125,-1.8017578125
0.1145,-2.72265625,3.4833984375,-1.2412109375
0.115,-3.203125,3.5234375,-0.80078125
0.1155,-3.283203125,2.8427734375,0.0400390625
0.116,-3.5634765625,2.322265625,0.7607421875
0.1165,-3.7236328125,1.5615234375,1.7216796875
0.117,-3.84375,1.0009765625,2.40234375
0.1175,-3.603515625,0.400390625,2.802734375
0.118,-3.6435546875,0.0,3.2431640625
0.1185,-2.962890625,-0.9208984375,3.4033203125
0.119,-2.4423828125,-1.6416015625,3.68359375
0.1195,-1.681640625,-2.6025390625,3.84375
0.12,-1.0009765625,-3.0830078125,3.68359375
0.1205,-0.3603515625,-3.6435546875,3.603515625
0.121,0.3603515625,-3.84375,3.123046875
0.1215,1.12109375,-4.0439453125,2.5224609375
0.122,1.921875,-4.1640625,1.9619140625
0.1225,2.5625,-4.3642578125,1.44140625
0.123,2.8427734375,-4.00390625,0.8408203125
0.1235,3.283203125,-4.00390625,0.4404296875
0.124,3.283203125,-3.0830078125,-0.5205078125
0.1245,3.5234375,-2.642578125,-1.28125
0.125,3.68359375,-1.841796875,-2.2421875
0.1255,3.6435546875,-1.28125,-2.72265625
0.126,3.4833984375,-0.720703125,-3.203125
0.1265,3.283203125,-0.2802734375,-3.443359375
0.127,2.6025390625,0.640625,-3.68359375
0.1275,2.0419921875,1.44140625,-3.84375
0.128,1.361328125,2.322265625,-4.083984375
0.1285,0.560546875,2.72265625,-3.7236328125
0.129,0.0400390625,3.283203125,-3.8037109375
0.1295,-0.8408203125,3.36328125,-3.0830078125
0.13,-1.6015625,3.68359375,-2.5625
0.1305,-2.4423828125,3.8037109375,-1.8818359375
0.131,-3.0830078125,3.84375,-1.3212890625
0.1315,-3.36328125,3.5234375,-0.6806640625
0.132,-3.68359375,3.3232421875,-0.16015625
0.1325,-3.7236328125,2.322265625,0.9609375
0.133,-3.923828125,1.8017578125,1.7216796875
0.1335,-4.0439453125,1.0009765625,2.6826171875
0.134,-3.8837890625,0.3603515625,3.0830078125
0.1345,-3.7236328125,-0.2802734375,3.5234375
0.135,-3.203125,-0.9609375,3.7236328125
0.1355,-2.482421875,-1.8818359375,3.923828125
0.136,-1.681640625,-2.642578125,3.923828125
0.1365,-1.041015625,-3.4833984375,4.0439453125
0.137,-0.2001953125,-3.84375,3.5634765625
0.1375,0.3603515625,-4.244140625,3.4833984375
0.138,1.4013671875,-4.2041015625,2.5224609375
0.1385,2.0419921875,-4.404296875,2.0419921875
0.139,2.8427734375,-4.404296875,1.28125
0.1395,3.2431640625,-4.32421875,0.720703125
0.14,3.4833984375,-3.8837890625,0.16015625
0.1405,3.68359375,-3.5234375,-0.5205078125
0.141,3.7236328125,-2.5224609375,-1.5615234375
0.1415,3.84375,-1.921875,-2.2822265625
0.142,3.8837890625,-1.1611328125,-3.0830078125
0.1425,3.5234375,-0.560546875,-3.36328125
0.143,3.443359375,0.0,-3.8037109375
0.1435,2.6826171875,0.80078125,-3.84375
0.144,2.08203125,1.6015625,-4.083984375
0.1445,1.28125,2.3623046875,-4.0439453125
0.145,0.6005859375,3.04296875,-4.083984375
0.1455,-0.2001953125,3.283203125,-3.603515625
0.146,-0.720703125,3.7236328125,-3.4033203125
0.1465,-1.8017578125,3.68359375,-2.4423828125
0.147,-2.40234375,3.84375,-2.001953125
0.1475,-3.1630859375,3.8837890625,-1.28125
0.148,-3.443359375,3.6435546875,-0.6806640625
0.1485,-3.763671875,3.3232421875,-0.1201171875
0.149,-3.84375,2.642578125,0.720703125
0.1495,-3.9638671875,1.8818359375,1.681640625
0.15,-4.00390625,1.201171875,2.40234375
0.1505,-4.083984375,0.5205078125,3.123046875
0.151,-3.68359375,-0.16015625,3.36328125
0.1515,-3.5634765625,-0.640625,3.8037109375
0.152,-2.6025390625,-1.76171875,3.763671875
0.1525,-2.08203125,-2.4423828125,4.083984375
0.153,-1.2412109375,-3.203125,3.9638671875
0.1535,-0.6005859375,-3.763671875,3.8837890625
0.154,0.240234375,-4.0439453125,3.4833984375
0.1545,0.8408203125,-4.32421875,3.0830078125
0.155,1.921875,-4.4443359375,2.2421875
0.1555,2.5224609375,-4.5244140625,1.681640625
0.156,3.2431640625,-4.564453125,1.041015625
0.1565,3.4833984375,-4.1640625,0.400390625
0.157,3.8037109375,-3.8837890625,-0.240234375
0.1575,3.8037109375,-2.9228515625,-1.2412109375
0.158,4.00390625,-2.2421875,-2.162109375
0.1585,3.923828125,-1.4013671875,-2.8828125
0.159,3.923828125,-0.8408203125,-3.5234375
0.1595,3.443359375,-0.16015625,-3.7236328125
0.16,3.1630859375,0.2802734375,-4.0439453125
0.1605,2.2021484375,1.521484375,-4.1640625
0.161,1.5615234375,2.2421875,-4.244140625
0.1615,0.6806640625,3.04296875,-4.1640625
0.162,0.0,3.4833984375,-3.8837890625
0.1625,-0.7607421875,3.763671875,-3.4833984375
0.163,-1.5615234375,3.8037109375,-2.7626953125
0.1635,-2.5625,4.00390625,-2.001953125
0.164,-3.0029296875,3.84375,-1.361328125
0.1645,-3.6435546875,3.8837890625,-0.80078125
0.165,-3.7236328125,3.283203125,0.0
0.1655,-4.00390625,3.04296875,0.5205078125
0.166,-3.9638671875,1.921875,1.6416015625
0.1665,-4.1640625,1.28125,2.40234375
0.167,-3.9638671875,0.48046875,3.04296875
0.1675,-3.923828125,0.0,3.5234375
0.168,-3.5234375,-0.80078125,3.7236328125
0.1685,-3.04296875,-1.361328125,3.9638671875
0.169,-2.162109375,-2.4423828125,4.1640625
0.1695,-1.44140625,-3.04296875,4.083984375
0.17,-0.6806640625,-3.8037109375,4.083984375
0.1705,0.1201171875,-4.1240234375,3.6435546875
0.171,0.7607421875,-4.4443359375,3.36328125
0.1715,1.7216796875,-4.484375,2.482421875
0.172,2.6025390625,-4.724609375,1.841796875
0.1725,3.123046875,-4.5244140625,1.12109375
0.173,3.7236328125,-4.564453125,0.6005859375
0.1735,3.763671875,-3.8837890625,-0.2001953125
0.174,4.0439453125,-3.5634765625,-0.880859375
0.1745,4.083984375,-2.322265625,-2.08203125
0.175,4.1640625,-1.7216796875,-2.8427734375
0.1755,3.9638671875,-0.8408203125,-3.5234375
0.176,3.763671875,-0.3603515625,-3.923828125
0.1765,3.283203125,0.4404296875,-4.1240234375
0.177,2.6025390625,1.2412109375,-4.244140625
0.1775,1.76171875,2.3623046875,-4.5244140625
0.178,0.880859375,2.8828125,-4.1640625
0.1785,0.16015625,3.6435546875,-4.2041015625
0.179,-0.640625,3.8037109375,-3.5634765625
0.1795,-1.28125,4.00390625,-3.203125
0.18,-2.322265625,4.00390625,-2.162109375
0.1805,-3.1630859375,4.1240234375,-1.521484375
0.181,-3.5634765625,3.8037109375,-0.7607421875
0.1815,-4.00390625,3.763671875,-0.3203125
0.182,-3.9638671875,3.0029296875,0.560546875
0.1825,-4.1240234375,2.482421875,1.2412109375
0.183,-4.2041015625,1.4013671875,2.40234375
0.1835,-4.1240234375,0.7607421875,2.962890625
0.184,-4.00390625,0.0,3.5234375
0.1845,-3.7236328125,-0.6005859375,3.8037109375
0.185,-3.283203125,-1.2412109375,4.00390625
0.1855,-2.40234375,-2.08203125,4.083984375
0.186,-1.681640625,-3.04296875,4.32421875
0.1865,-0.80078125,-3.5234375,3.8837890625
0.187,-0.240234375,-4.1640625,4.00390625
0.1875,0.640625,-4.244140625,3.283203125
0.188,1.2412109375,-4.5244140625,2.9228515625
0.1885,2.3623046875,-4.6044921875,1.9619140625
0.189,2.9228515625,-4.64453125,1.4013671875
0.1895,3.443359375,-4.4443359375,0.720703125
0.19,3.68359375,-4.2041015625,0.240234375
0.1905,3.84375,-3.5634765625,-0.6005859375
0.191,3.923828125,-2.8828125,-1.44140625
0.1915,4.1240234375,-1.9619140625,-2.5625
0.192,3.8837890625,-1.28125,-3.0830078125
0.1925,3.9638671875,-0.6806640625,-3.7236328125
0.193,3.4033203125,0.0400390625,-3.84375
0.1935,3.0830078125,0.6806640625,-4.1640625
0.194,2.1220703125,1.681640625,-4.2041015625
0.1945,1.4814453125,2.5224609375,-4.404296875
0.195,0.560546875,3.04296875,-4.00390625
0.1955,0.0,3.6435546875,-4.0439453125
0.196,-0.880859375,3.68359375,-3.283203125
0.1965,-1.5615234375,3.8837890625,-2.8828125
0.197,-2.642578125,4.083984375,-1.9619140625
0.1975,-3.1630859375,3.923828125,-1.28125
0.198,-3.7236328125,3.84375,-0.720703125
0.1985,-3.84375,3.4033203125,0.0
0.199,-4.00390625,2.8427734375,0.6806640625
0.1995,-4.0439453125,1.9619140625,1.6416015625
0.2,-4.32421875,1.201171875,2.6826171875
0.2005,-3.923828125,0.3603515625,3.123046875
0.201,-4.0439453125,0.0,3.68359375
0.2015,-3.4033203125,-0.8408203125,3.8037109375
0.202,-2.962890625,-1.4814453125,4.00390625
0.2025,-2.08203125,-2.5625,4.1640625
0.203,-1.28125,-3.203125,4.1240234375
0.2035,-0.5205078125,-3.8037109375,3.84375
0.204,0.16015625,-4.1640625,3.68359375
0.2045,0.9609375,-4.244140625,3.0029296875
0.205,1.7216796875,-4.404296875,2.4423828125
0.2055,2.6826171875,-4.6845703125,1.6416015625
0.206,3.0830078125,-4.3642578125,0.9609375
0.2065,3.603515625,-4.4443359375,0.560546875
0.207,3.603515625,-3.7236328125,-0.2802734375
0.2075,3.84375,-3.203125,-1.0009765625
0.208,3.84375,-2.2822265625,-1.9619140625
0.2085,4.00390625,-1.6416015625,-2.8427734375
0.209,3.5634765625,-1.0009765625,-3.283203125
0.2095,3.7236328125,-0.48046875,-3.68359375
0.21,3.04296875,0.3603515625,-3.84375
0.2105,2.5625,1.0810546875,-4.00390625
0.211,1.76171875,2.08203125,-4.2041015625
0.2115,1.0009765625,2.642578125,-4.0439453125
0.212,0.3203125,3.2431640625,-4.00390625
0.2125,-0.3603515625,3.4833984375,-3.5634765625
0.213,-1.12109375,3.6435546875,-3.04296875
0.2135,-1.9619140625,3.8037109375,-2.3623046875
0.214,-2.802734375,4.0439453125,-1.76171875
0.2145,-3.1630859375,3.68359375,-1.041015625
0.215,-3.68359375,3.8037109375,-0.640625
0.2155,-3.6435546875,2.962890625,0.240234375
0.216,-3.923828125,2.482421875,0.9609375
0.2165,-4.00390625,1.521484375,2.0419921875
0.217,-4.1240234375,0.880859375,2.6826171875
0.2175,-3.84375,0.2802734375,3.1630859375
0.218,-3.8037109375,-0.2001953125,3.5234375
0.2185,-3.123046875,-1.0009765625,3.7236328125
0.219,-2.5224609375,-1.8017578125,3.84375
0.2195,-1.8017578125,-2.72265625,4.1240234375
0.22,-0.9609375,-3.203125,3.763671875
0.2205,-0.400390625,-3.84375,3.84375
0.221,0.4404296875,-3.923828125,3.203125
0.2215,1.0810546875,-4.1640625,2.7626953125
0.222,1.9619140625,-4.32421875,2.0419921875
0.2225,2.642578125,-4.4443359375,1.4814453125
0.223,3.0029296875,-4.1640625,0.880859375
0.2235,3.3232421875,-4.083984375,0.48046875
0.224,3.36328125,-3.283203125,-0.4404296875
0.2245,3.603515625,-2.8828125,-1.1611328125
0.225,3.763671875,-2.001953125,-2.2421875
0.2255,3.68359375,-1.361328125,-2.642578125
0.226,3.6435546875,-0.8408203125,-3.203125
0.2265,3.3232421875,-0.3203125,-3.4033203125
0.227,2.8427734375,0.48046875,-3.6435546875
0.2275,2.162109375,1.28125,-3.84375
0.228,1.5615234375,2.1220703125,-4.083984375
0.2285,0.7607421875,2.5625,-3.7236328125
0.229,0.2802734375,3.1630859375,-3.8837890625
0.2295,-0.6005859375,3.203125,-3.123046875
0.23,-1.2412109375,3.5234375,-2.802734375
0.2305,-2.162109375,3.763671875,-2.08203125
