wavelength,x,y,z
0.0,0.62060546875,5.26513671875,-4.82470703125
0.0005,1.26123046875,5.14501953125,-5.62548828125
0.001,2.26220703125,4.94482421875,-6.38623046875
0.0015,3.38330078125,4.02392578125,-6.90673828125
0.002,4.42431640625,2.66259765625,-6.82666015625
0.0025,5.10498046875,1.22119140625,-6.34619140625
0.003,5.38525390625,0.34033203125,-6.06591796875
0.0035,5.62548828125,-0.58056640625,-5.82568359375
0.004,5.90576171875,-1.34130859375,-5.62548828125
0.0045,5.46533203125,-2.82275390625,-4.02392578125
0.005,4.94482421875,-3.94384765625,-2.54248046875
0.0055,4.38427734375,-4.66455078125,-1.46142578125
0.006,3.98388671875,-5.26513671875,-0.62060546875
0.0065,3.50341796875,-5.82568359375,0.42041015625
0.007,2.62255859375,-6.22607421875,1.58154296875
0.0075,1.14111328125,-6.10595703125,2.94287109375
0.008,-0.26025390625,-5.78564453125,3.94384765625
0.0085,-0.98095703125,-5.78564453125,4.62451171875
0.009,-1.66162109375,-5.74560546875,5.42529296875
0.0095,-2.54248046875,-5.62548828125,6.34619140625
0.01,-3.90380859375,-4.18408203125,6.50634765625
0.0105,-4.82470703125,-2.82275390625,6.34619140625
0.011,-5.26513671875,-1.70166015625,5.98583984375
0.0115,-5.50537109375,-0.94091796875,5.74560546875
0.012,-5.74560546875,-0.14013671875,5.46533203125
0.0125,-5.94580078125,0.86083984375,5.10498046875
0.013,-5.54541015625,2.10205078125,3.70361328125
0.0135,-4.94482421875,3.18310546875,2.18212890625
0.014,-4.50439453125,3.86376953125,1.26123046875
0.0145,-4.14404296875,4.46435546875,0.50048828125
0.015,-3.86376953125,5.10498046875,-0.42041015625
0.0155,-2.54248046875,5.22509765625,-1.78173828125
0.016,-1.26123046875,5.18505859375,-2.98291015625
0.0165,-0.26025390625,4.98486328125,-3.86376953125
0.017,0.50048828125,4.98486328125,-4.62451171875
0.0175,1.26123046875,4.94482421875,-5.42529296875
0.018,2.06201171875,4.86474609375,-6.30615234375
0.0185,3.34326171875,3.46337890625,-6.34619140625
0.019,4.22412109375,1.98193359375,-6.06591796875
0.0195,4.70458984375,1.10107421875,-5.82568359375
0.02,4.98486328125,0.38037109375,-5.74560546875
0.0205,5.38525390625,-0.50048828125,-5.62548828125
0.021,5.30517578125,-1.58154296875,-4.74462890625
0.0215,5.02490234375,-2.66259765625,-3.66357421875
0.022,4.46435546875,-3.62353515625,-2.30224609375
0.0225,4.10400390625,-4.34423828125,-1.42138671875
0.023,3.82373046875,-4.98486328125,-0.62060546875
0.0235,3.58349609375,-5.70556640625,0.30029296875
0.024,2.14208984375,-5.70556640625,1.66162109375
0.0245,0.82080078125,-5.62548828125,2.86279296875
0.025,0.02001953125,-5.66552734375,3.66357421875
0.0255,-0.70068359375,-5.74560546875,4.46435546875
0.026,-1.62158203125,-5.66552734375,5.38525390625
0.0265,-2.62255859375,-5.10498046875,6.02587890625
0.027,-3.70361328125,-3.86376953125,6.10595703125
0.0275,-4.50439453125,-2.50244140625,5.74560546875
0.028,-4.94482421875,-1.66162109375,5.66552734375
0.0285,-5.26513671875,-0.98095703125,5.54541015625
0.029,-5.70556640625,-0.30029296875,5.62548828125
0.0295,-5.38525390625,1.10107421875,4.26416015625
0.03,-5.06494140625,2.22216796875,3.06298828125
0.0305,-4.66455078125,2.98291015625,2.06201171875
0.031,-4.34423828125,3.70361328125,1.22119140625
0.0315,-4.06396484375,4.38427734375,0.38037109375
0.032,-3.46337890625,4.90478515625,-0.70068359375
0.0325,-2.26220703125,4.94482421875,-1.90185546875
0.033,-0.98095703125,4.74462890625,-3.02294921875
0.0335,-0.34033203125,4.82470703125,-3.78369140625
0.034,0.46044921875,4.98486328125,-4.62451171875
0.0345,1.30126953125,5.06494140625,-5.62548828125
0.035,2.54248046875,3.90380859375,-5.90576171875
0.0355,3.50341796875,2.78271484375,-5.90576171875
0.036,4.10400390625,1.66162109375,-5.70556640625
0.0365,4.54443359375,0.94091796875,-5.66552734375
0.037,4.86474609375,0.22021484375,-5.62548828125
0.0375,5.26513671875,-0.66064453125,-5.42529296875
0.038,4.94482421875,-1.82177734375,-4.22412109375
0.0385,4.50439453125,-2.94287109375,-2.86279296875
0.039,4.14404296875,-3.66357421875,-2.02197265625
0.0395,3.98388671875,-4.38427734375,-1.26123046875
0.04,3.78369140625,-5.14501953125,-0.46044921875
0.0405,2.70263671875,-5.42529296875,0.90087890625
0.041,1.58154296875,-5.54541015625,2.06201171875
0.0415,0.62060546875,-5.46533203125,2.94287109375
0.042,-0.14013671875,-5.62548828125,3.82373046875
0.0425,-0.94091796875,-5.70556640625,4.70458984375
0.043,-1.78173828125,-5.70556640625,5.66552734375
0.0435,-3.06298828125,-4.38427734375,5.82568359375
0.044,-3.98388671875,-3.06298828125,5.66552734375
0.0445,-4.50439453125,-2.18212890625,5.58544921875
0.045,-4.94482421875,-1.46142578125,5.54541015625
0.0455,-5.34521484375,-0.70068359375,5.50537109375
0.046,-5.42529296875,0.38037109375,4.82470703125
0.0465,-5.22509765625,1.46142578125,3.86376953125
0.047,-4.74462890625,2.46240234375,2.54248046875
0.0475,-4.46435546875,3.18310546875,1.66162109375
0.048,-4.22412109375,3.90380859375,0.94091796875
0.0485,-4.06396484375,4.66455078125,0.14013671875
0.049,-2.74267578125,4.74462890625,-1.30126953125
0.0495,-1.58154296875,4.74462890625,-2.50244140625
0.05,-0.78076171875,4.82470703125,-3.30322265625
0.0505,0.02001953125,4.98486328125,-4.18408203125
0.051,0.90087890625,4.98486328125,-5.10498046875
0.0515,1.94189453125,4.54443359375,-5.82568359375
0.052,3.02294921875,3.34326171875,-5.98583984375
0.0525,3.86376953125,2.02197265625,-5.74560546875
0.053,4.34423828125,1.22119140625,-5.66552734375
0.0535,4.78466796875,0.50048828125,-5.62548828125
0.054,5.22509765625,-0.34033203125,-5.70556640625
0.0545,4.98486328125,-1.58154296875,-4.46435546875
0.055,4.74462890625,-2.70263671875,-3.30322265625
0.0555,4.34423828125,-3.54345703125,-2.26220703125
0.056,4.06396484375,-4.22412109375,-1.42138671875
0.0565,3.70361328125,-4.94482421875,-0.58056640625
0.057,3.18310546875,-5.58544921875,0.58056640625
0.0575,1.90185546875,-5.62548828125,1.86181640625
0.058,0.66064453125,-5.46533203125,2.98291015625
0.0585,0.02001953125,-5.58544921875,3.78369140625
0.059,-0.86083984375,-5.62548828125,4.62451171875
0.0595,-1.78173828125,-5.62548828125,5.62548828125
0.06,-3.06298828125,-4.50439453125,5.94580078125
0.0605,-4.02392578125,-3.26318359375,5.98583984375
0.061,-4.66455078125,-2.10205078125,5.74560546875
0.0615,-5.02490234375,-1.34130859375,5.58544921875
0.062,-5.38525390625,-0.58056640625,5.42529296875
0.0625,-5.70556640625,0.34033203125,5.22509765625
0.063,-5.38525390625,1.66162109375,3.86376953125
0.0635,-4.86474609375,2.74267578125,2.42236328125
0.064,-4.50439453125,3.46337890625,1.58154296875
0.0645,-4.22412109375,4.10400390625,0.78076171875
0.065,-3.90380859375,4.74462890625,-0.18017578125
0.0655,-2.74267578125,4.98486328125,-1.46142578125
0.066,-1.58154296875,5.06494140625,-2.70263671875
0.0665,-0.50048828125,4.90478515625,-3.58349609375
0.067,0.26025390625,4.98486328125,-4.34423828125
0.0675,1.10107421875,4.90478515625,-5.22509765625
0.068,1.94189453125,4.82470703125,-6.14599609375
0.0685,3.30322265625,3.34326171875,-6.26611328125
0.069,4.18408203125,1.98193359375,-6.02587890625
0.0695,4.62451171875,1.06103515625,-5.78564453125
0.07,4.94482421875,0.34033203125,-5.70556640625
0.0705,5.26513671875,-0.58056640625,-5.46533203125
0.071,5.26513671875,-1.74169921875,-4.62451171875
0.0715,4.98486328125,-2.82275390625,-3.46337890625
0.072,4.42431640625,-3.82373046875,-2.14208984375
0.0725,4.06396484375,-4.46435546875,-1.26123046875
0.073,3.70361328125,-5.14501953125,-0.42041015625
0.0735,3.38330078125,-5.78564453125,0.50048828125
0.074,1.90185546875,-5.78564453125,1.98193359375
0.0745,0.62060546875,-5.70556640625,3.18310546875
0.075,-0.30029296875,-5.66552734375,3.98388671875
0.0755,-0.98095703125,-5.74560546875,4.70458984375
0.076,-1.94189453125,-5.46533203125,5.62548828125
0.0765,-3.02294921875,-4.90478515625,6.30615234375
0.077,-4.14404296875,-3.54345703125,6.30615234375
0.0775,-4.86474609375,-2.14208984375,5.94580078125
0.078,-5.22509765625,-1.30126953125,5.74560546875
0.0785,-5.50537109375,-0.58056640625,5.50537109375
0.079,-5.82568359375,0.34033203125,5.38525390625
0.0795,-5.58544921875,1.66162109375,3.98388671875
0.08,-5.14501953125,2.82275390625,2.70263671875
0.0805,-4.66455078125,3.58349609375,1.62158203125
0.081,-4.30419921875,4.18408203125,0.74072265625
0.0815,-3.86376953125,4.82470703125,-0.26025390625
0.082,-3.14306640625,5.30517578125,-1.34130859375
0.0825,-1.74169921875,5.30517578125,-2.74267578125
0.083,-0.42041015625,5.10498046875,-3.86376953125
0.0835,0.38037109375,5.10498046875,-4.58447265625
0.084,1.14111328125,5.06494140625,-5.38525390625
0.0845,2.10205078125,4.82470703125,-6.34619140625
0.085,3.50341796875,3.54345703125,-6.62646484375
0.0855,4.46435546875,2.26220703125,-6.54638671875
0.086,4.98486328125,1.02099609375,-6.14599609375
0.0865,5.26513671875,0.22021484375,-5.90576171875
0.087,5.54541015625,-0.78076171875,-5.62548828125
0.0875,5.74560546875,-1.78173828125,-5.14501953125
0.088,5.38525390625,-3.18310546875,-3.58349609375
0.0885,4.78466796875,-4.34423828125,-2.06201171875
0.089,4.22412109375,-4.98486328125,-1.10107421875
0.0895,3.82373046875,-5.54541015625,-0.26025390625
0.09,3.26318359375,-6.10595703125,0.86083984375
0.0905,1.86181640625,-6.34619140625,2.42236328125
0.091,0.46044921875,-6.26611328125,3.78369140625
0.0915,-0.70068359375,-5.90576171875,4.58447265625
0.092,-1.42138671875,-5.82568359375,5.26513671875
0.0925,-2.42236328125,-5.50537109375,6.10595703125
0.093,-3.34326171875,-5.22509765625,6.94677734375
0.0935,-4.78466796875,-3.50341796875,6.90673828125
0.094,-5.58544921875,-1.94189453125,6.50634765625
0.0945,-5.86572265625,-0.98095703125,6.10595703125
0.095,-5.98583984375,-0.14013671875,5.74560546875
0.0955,-6.18603515625,0.98095703125,5.22509765625
0.096,-6.10595703125,2.26220703125,4.14404296875
0.0965,-5.62548828125,3.50341796875,2.70263671875
0.097,-4.86474609375,4.34423828125,1.22119140625
0.0975,-4.30419921875,4.82470703125,0.26025390625
0.098,-3.78369140625,5.34521484375,-0.66064453125
0.0985,-3.18310546875,5.90576171875,-1.62158203125
0.099,-1.42138671875,5.82568359375,-3.38330078125
0.0995,0.14013671875,5.54541015625,-4.58447265625
0.1,0.94091796875,5.34521484375,-5.18505859375
0.1005,1.62158203125,5.10498046875,-5.82568359375
0.101,2.70263671875,4.66455078125,-6.70654296875
0.1015,3.82373046875,3.94384765625,-7.22705078125
0.102,4.90478515625,2.38232421875,-7.10693359375
0.1025,5.54541015625,0.78076171875,-6.50634765625
0.103,5.74560546875,-0.26025390625,-6.10595703125
0.1035,5.82568359375,-1.02099609375,-5.74560546875
0.104,6.06591796875,-1.94189453125,-5.38525390625
0.1045,5.62548828125,-3.50341796875,-3.70361328125
0.105,5.10498046875,-4.62451171875,-2.18212890625
0.1055,4.42431640625,-5.30517578125,-1.02099609375
0.106,3.86376953125,-5.78564453125,0.02001953125
0.1065,3.22314453125,-6.26611328125,0.98095703125
0.107,2.38232421875,-6.70654296875,2.18212890625
0.1075,0.66064453125,-6.54638671875,3.70361328125
0.108,-0.82080078125,-6.10595703125,4.78466796875
0.1085,-1.50146484375,-6.02587890625,5.42529296875
0.109,-2.30224609375,-5.74560546875,6.10595703125
0.1095,-3.34326171875,-5.42529296875,6.98681640625
0.11,-4.70458984375,-3.90380859375,7.18701171875
0.1105,-5.62548828125,-2.50244140625,6.94677734375
0.111,-6.02587890625,-1.18115234375,6.38623046875
0.1115,-6.14599609375,-0.30029296875,5.94580078125
0.112,-6.26611328125,0.66064453125,5.54541015625
0.1125,-6.42626953125,1.62158203125,5.06494140625
0.113,-5.90576171875,3.06298828125,3.26318359375
0.1135,-5.18505859375,4.18408203125,1.58154296875
0.114,-4.54443359375,4.78466796875,0.62060546875
0.1145,-4.06396484375,5.26513671875,-0.30029296875
0.115,-3.50341796875,5.74560546875,-1.26123046875
0.1155,-2.06201171875,5.90576171875,-2.82275390625
0.116,-0.62060546875,5.74560546875,-4.14404296875
0.1165,0.66064453125,5.38525390625,-4.98486328125
0.117,1.34130859375,5.26513671875,-5.62548828125
0.1175,2.22216796875,4.98486328125,-6.38623046875
0.118,3.10302734375,4.74462890625,-7.22705078125
0.1185,4.54443359375,2.94287109375,-7.14697265625
0.119,5.38525390625,1.34130859375,-6.74658203125
0.1195,5.70556640625,0.30029296875,-6.34619140625
0.12,5.82568359375,-0.62060546875,-6.02587890625
0.1205,6.02587890625,-1.58154296875,-5.50537109375
0.121,5.94580078125,-2.86279296875,-4.54443359375
0.1215,5.46533203125,-4.10400390625,-3.06298828125
0.122,4.70458984375,-5.06494140625,-1.42138671875
0.1225,4.14404296875,-5.62548828125,-0.50048828125
0.123,3.58349609375,-6.10595703125,0.50048828125
0.1235,3.10302734375,-6.70654296875,1.46142578125
0.124,1.26123046875,-6.58642578125,3.22314453125
0.1245,-0.38037109375,-6.34619140625,4.50439453125
0.125,-1.26123046875,-6.10595703125,5.22509765625
0.1255,-1.98193359375,-5.90576171875,5.90576171875
0.126,-3.06298828125,-5.46533203125,6.70654296875
0.1265,-4.14404296875,-4.82470703125,7.34716796875
0.127,-5.34521484375,-3.14306640625,7.18701171875
0.1275,-6.02587890625,-1.46142578125,6.58642578125
0.128,-6.22607421875,-0.58056640625,6.14599609375
0.1285,-6.34619140625,0.42041015625,5.74560546875
0.129,-6.54638671875,1.34130859375,5.34521484375
0.1295,-6.10595703125,2.90283203125,3.58349609375
0.13,-5.62548828125,4.10400390625,2.18212890625
0.1305,-4.82470703125,4.82470703125,0.86083984375
0.131,-4.26416015625,5.34521484375,-0.22021484375
0.1315,-3.58349609375,5.74560546875,-1.14111328125
0.132,-2.74267578125,6.22607421875,-2.34228515625
0.1325,-0.98095703125,6.02587890625,-3.94384765625
0.133,0.62060546875,5.58544921875,-5.06494140625
0.1335,1.30126953125,5.38525390625,-5.62548828125
0.134,2.06201171875,5.10498046875,-6.34619140625
0.1345,3.18310546875,4.70458984375,-7.14697265625
0.135,4.50439453125,3.26318359375,-7.38720703125
0.1355,5.30517578125,1.86181640625,-7.10693359375
0.136,5.78564453125,0.46044921875,-6.46630859375
0.1365,5.90576171875,-0.54052734375,-6.10595703125
0.137,5.94580078125,-1.42138671875,-5.62548828125
0.1375,6.14599609375,-2.34228515625,-5.18505859375
0.138,5.54541015625,-3.82373046875,-3.34326171875
0.1385,4.82470703125,-4.94482421875,-1.74169921875
0.139,4.18408203125,-5.46533203125,-0.66064453125
0.1395,3.70361328125,-5.94580078125,0.30029296875
0.14,3.10302734375,-6.42626953125,1.22119140625
0.1405,1.78173828125,-6.62646484375,2.70263671875
0.141,0.30029296875,-6.42626953125,3.98388671875
0.1415,-1.06103515625,-6.02587890625,4.86474609375
0.142,-1.62158203125,-5.90576171875,5.46533203125
0.1425,-2.50244140625,-5.66552734375,6.18603515625
0.143,-3.34326171875,-5.46533203125,7.06689453125
0.1435,-4.78466796875,-3.66357421875,6.98681640625
0.144,-5.54541015625,-2.18212890625,6.58642578125
0.1445,-5.86572265625,-1.10107421875,6.14599609375
0.145,-6.06591796875,-0.34033203125,5.82568359375
0.1455,-6.18603515625,0.62060546875,5.42529296875
0.146,-6.14599609375,1.74169921875,4.62451171875
0.1465,-5.70556640625,2.98291015625,3.18310546875
0.147,-4.98486328125,3.98388671875,1.58154296875
0.1475,-4.46435546875,4.54443359375,0.70068359375
0.148,-4.02392578125,5.10498046875,-0.26025390625
0.1485,-3.66357421875,5.70556640625,-1.06103515625
0.149,-1.98193359375,5.66552734375,-2.62255859375
0.1495,-0.58056640625,5.42529296875,-3.90380859375
0.15,0.50048828125,5.26513671875,-4.66455078125
0.1505,1.14111328125,5.22509765625,-5.38525390625
0.151,2.06201171875,4.98486328125,-6.22607421875
0.1515,2.98291015625,4.58447265625,-6.94677734375
0.152,4.22412109375,3.02294921875,-6.90673828125
0.1525,5.02490234375,1.42138671875,-6.38623046875
0.153,5.34521484375,0.46044921875,-6.14599609375
0.1535,5.58544921875,-0.46044921875,-5.90576171875
0.154,5.82568359375,-1.22119140625,-5.70556640625
0.1545,5.58544921875,-2.58251953125,-4.30419921875
0.155,5.14501953125,-3.78369140625,-2.94287109375
0.1555,4.50439453125,-4.62451171875,-1.66162109375
0.156,4.10400390625,-5.22509765625,-0.70068359375
0.1565,3.58349609375,-5.78564453125,0.30029296875
0.157,3.02294921875,-6.34619140625,1.30126953125
0.1575,1.34130859375,-6.22607421875,2.82275390625
0.158,-0.18017578125,-5.90576171875,3.98388671875
0.1585,-0.90087890625,-5.82568359375,4.70458984375
0.159,-1.62158203125,-5.78564453125,5.46533203125
0.1595,-2.58251953125,-5.50537109375,6.34619140625
0.16,-3.86376953125,-4.42431640625,6.70654296875
0.1605,-4.82470703125,-3.06298828125,6.58642578125
0.161,-5.38525390625,-1.74169921875,6.10595703125
0.1615,-5.62548828125,-0.98095703125,5.78564453125
0.162,-5.82568359375,0.02001953125,5.54541015625
0.1625,-6.10595703125,0.78076171875,5.30517578125
0.163,-5.62548828125,2.22216796875,3.70361328125
0.1635,-5.06494140625,3.26318359375,2.26220703125
0.164,-4.54443359375,3.94384765625,1.22119140625
0.1645,-4.14404296875,4.50439453125,0.42041015625
0.165,-3.74365234375,5.10498046875,-0.54052734375
0.1655,-2.70263671875,5.42529296875,-1.74169921875
0.166,-1.34130859375,5.30517578125,-3.06298828125
0.1665,-0.18017578125,4.98486328125,-3.94384765625
0.167,0.58056640625,5.02490234375,-4.62451171875
0.1675,1.30126953125,4.98486328125,-5.42529296875
0.168,2.10205078125,4.98486328125,-6.38623046875
0.1685,3.46337890625,3.46337890625,-6.42626953125
0.169,4.34423828125,2.06201171875,-6.22607421875
0.1695,4.82470703125,1.06103515625,-5.98583984375
0.17,5.06494140625,0.38037109375,-5.74560546875
0.1705,5.38525390625,-0.58056640625,-5.62548828125
0.171,5.50537109375,-1.46142578125,-5.10498046875
0.1715,5.10498046875,-2.70263671875,-3.82373046875
0.172,4.50439453125,-3.70361328125,-2.34228515625
0.1725,4.10400390625,-4.42431640625,-1.42138671875
0.173,3.86376953125,-5.02490234375,-0.62060546875
0.1735,3.62353515625,-5.74560546875,0.26025390625
0.174,2.22216796875,-5.82568359375,1.66162109375
0.1745,0.94091796875,-5.74560546875,2.86279296875
0.175,0.02001953125,-5.62548828125,3.70361328125
0.1755,-0.70068359375,-5.70556640625,4.46435546875
0.176,-1.58154296875,-5.70556640625,5.38525390625
0.1765,-2.50244140625,-5.42529296875,6.18603515625
0.177,-3.70361328125,-4.06396484375,6.22607421875
0.1775,-4.54443359375,-2.62255859375,5.90576171875
0.178,-5.02490234375,-1.70166015625,5.74560546875
0.1785,-5.30517578125,-0.98095703125,5.62548828125
0.179,-5.70556640625,-0.30029296875,5.58544921875
0.1795,-5.54541015625,1.02099609375,4.50439453125
0.18,-5.26513671875,2.14208984375,3.34326171875
0.1805,-4.74462890625,3.02294921875,2.10205078125
0.181,-4.42431640625,3.70361328125,1.26123046875
0.1815,-4.10400390625,4.34423828125,0.46044921875
0.182,-3.74365234375,4.98486328125,-0.50048828125
0.1825,-2.38232421875,4.98486328125,-1.82177734375
0.183,-1.06103515625,4.86474609375,-3.02294921875
0.1835,-0.34033203125,4.90478515625,-3.78369140625
0.184,0.46044921875,4.98486328125,-4.58447265625
0.1845,1.30126953125,4.98486328125,-5.50537109375
0.185,2.42236328125,4.14404296875,-6.02587890625
0.1855,3.42333984375,2.98291015625,-6.10595703125
0.186,4.10400390625,1.78173828125,-5.78564453125
0.1865,4.54443359375,0.98095703125,-5.70556640625
0.187,4.90478515625,0.26025390625,-5.62548828125
0.1875,5.30517578125,-0.54052734375,-5.62548828125
0.188,4.98486328125,-1.78173828125,-4.34423828125
0.1885,4.54443359375,-2.86279296875,-2.98291015625
0.189,4.18408203125,-3.62353515625,-2.06201171875
0.1895,3.98388671875,-4.34423828125,-1.26123046875
0.19,3.70361328125,-5.02490234375,-0.46044921875
0.1905,2.94287109375,-5.50537109375,0.78076171875
0.191,1.78173828125,-5.58544921875,1.94189453125
0.1915,0.62060546875,-5.42529296875,2.90283203125
0.192,0.02001953125,-5.54541015625,3.74365234375
0.1925,-0.90087890625,-5.62548828125,4.62451171875
0.193,-1.66162109375,-5.74560546875,5.58544921875
0.1935,-2.98291015625,-4.50439453125,5.82568359375
0.194,-3.94384765625,-3.18310546875,5.78564453125
0.1945,-4.50439453125,-2.22216796875,5.62548828125
0.195,-4.94482421875,-1.50146484375,5.50537109375
0.1955,-5.26513671875,-0.78076171875,5.42529296875
0.196,-5.50537109375,0.22021484375,5.10498046875
0.1965,-5.26513671875,1.34130859375,3.98388671875
0.197,-4.78466796875,2.42236328125,2.62255859375
0.1975,-4.46435546875,3.14306640625,1.74169921875
0.198,-4.22412109375,3.82373046875,0.98095703125
0.1985,-4.10400390625,4.62451171875,0.26025390625
0.199,-2.90283203125,4.78466796875,-1.18115234375
