wavelength,x,y,z
0.0,-0.590576171875,5.735595703125,-4.394287109375
0.0005,0.330322265625,5.375244140625,-4.914794921875
0.001,1.491455078125,4.414306640625,-5.275146484375
0.0015,2.812744140625,3.253173828125,-5.635498046875
0.002,3.933837890625,2.252197265625,-5.955810546875
0.0025,4.614501953125,1.531494140625,-6.236083984375
0.003,4.814697265625,0.930908203125,-6.075927734375
0.0035,4.654541015625,0.130126953125,-5.355224609375
0.004,4.534423828125,-1.111083984375,-4.394287109375
0.0045,4.574462890625,-2.432373046875,-3.273193359375
0.005,4.694580078125,-3.713623046875,-2.432373046875
0.0055,4.654541015625,-4.514404296875,-1.791748046875
0.006,4.134033203125,-4.874755859375,-1.031005859375
0.0065,3.173095703125,-5.074951171875,0.090087890625
0.007,2.052001953125,-5.435302734375,1.451416015625
0.0075,1.010986328125,-5.755615234375,2.852783203125
0.008,0.370361328125,-6.236083984375,3.973876953125
0.0085,-0.390380859375,-6.316162109375,4.734619140625
0.009,-1.311279296875,-5.675537109375,5.054931640625
0.0095,-2.552490234375,-4.594482421875,5.375244140625
0.01,-3.873779296875,-3.353271484375,5.735595703125
0.0105,-4.834716796875,-2.352294921875,6.015869140625
0.011,-5.275146484375,-1.791748046875,6.095947265625
0.0115,-5.275146484375,-1.111083984375,5.695556640625
0.012,-4.994873046875,-0.190185546875,4.814697265625
0.0125,-4.914794921875,1.131103515625,3.733642578125
0.013,-4.954833984375,2.492431640625,2.612548828125
0.0135,-5.074951171875,3.573486328125,1.891845703125
0.014,-4.834716796875,4.214111328125,1.211181640625
0.0145,-4.114013671875,4.454345703125,0.370361328125
0.015,-3.032958984375,4.614501953125,-0.910888671875
0.0155,-1.831787109375,5.014892578125,-2.392333984375
0.016,-0.950927734375,5.415283203125,-3.673583984375
0.0165,-0.350341796875,5.775634765625,-4.634521484375
0.017,0.490478515625,5.495361328125,-5.195068359375
0.0175,1.571533203125,4.494384765625,-5.475341796875
0.018,2.932861328125,3.373291015625,-5.835693359375
0.0185,4.134033203125,2.172119140625,-6.115966796875
0.019,4.934814453125,1.291259765625,-6.356201171875
0.0195,5.135009765625,0.650634765625,-6.236083984375
0.02,4.974853515625,-0.150146484375,-5.595458984375
0.0205,4.694580078125,-1.231201171875,-4.514404296875
0.021,4.614501953125,-2.632568359375,-3.273193359375
0.0215,4.694580078125,-3.873779296875,-2.272216796875
0.022,4.694580078125,-4.834716796875,-1.551513671875
0.0225,4.294189453125,-5.275146484375,-0.870849609375
0.023,3.253173828125,-5.315185546875,0.170166015625
0.0235,2.052001953125,-5.555419921875,1.571533203125
0.024,0.810791015625,-5.835693359375,3.093017578125
0.0245,0.090087890625,-6.276123046875,4.214111328125
0.025,-0.630615234375,-6.436279296875,5.014892578125
0.0255,-1.431396484375,-5.915771484375,5.415283203125
0.026,-2.672607421875,-4.754638671875,5.615478515625
0.0265,-3.993896484375,-3.433349609375,5.935791015625
0.027,-5.074951171875,-2.312255859375,6.135986328125
0.0275,-5.635498046875,-1.591552734375,6.256103515625
0.028,-5.635498046875,-0.950927734375,5.935791015625
0.0285,-5.275146484375,0.010009765625,5.014892578125
0.029,-5.074951171875,1.211181640625,3.853759765625
0.0295,-5.034912109375,2.652587890625,2.612548828125
0.03,-5.074951171875,3.853759765625,1.731689453125
0.0305,-4.914794921875,4.534423828125,1.010986328125
0.031,-4.274169921875,4.814697265625,0.290283203125
0.0315,-3.113037109375,4.814697265625,-0.950927734375
0.032,-1.871826171875,5.135009765625,-2.472412109375
0.0325,-0.790771484375,5.455322265625,-3.873779296875
0.033,0.010009765625,5.815673828125,-4.914794921875
0.0335,0.650634765625,5.735595703125,-5.555419921875
0.034,1.651611328125,4.854736328125,-5.795654296875
0.0345,3.052978515625,3.573486328125,-6.115966796875
0.035,4.374267578125,2.212158203125,-6.356201171875
0.0355,5.255126953125,1.171142578125,-6.516357421875
0.036,5.575439453125,0.490478515625,-6.516357421875
0.0365,5.415283203125,-0.310302734375,-5.915771484375
0.037,5.054931640625,-1.391357421875,-4.754638671875
0.0375,4.854736328125,-2.832763671875,-3.353271484375
0.038,4.814697265625,-4.194091796875,-2.192138671875
0.0385,4.814697265625,-5.275146484375,-1.311279296875
0.039,4.454345703125,-5.755615234375,-0.630615234375
0.0395,3.453369140625,-5.835693359375,0.410400390625
0.04,2.052001953125,-5.915771484375,1.771728515625
0.0405,0.610595703125,-6.156005859375,3.493408203125
0.041,-0.390380859375,-6.476318359375,4.734619140625
0.0415,-0.990966796875,-6.716552734375,5.575439453125
0.042,-1.831787109375,-6.156005859375,6.055908203125
0.0425,-3.032958984375,-4.914794921875,6.216064453125
0.043,-4.474365234375,-3.433349609375,6.416259765625
0.0435,-5.635498046875,-2.072021484375,6.536376953125
0.044,-6.236083984375,-1.151123046875,6.576416015625
0.0445,-6.236083984375,-0.510498046875,6.256103515625
0.045,-5.835693359375,0.450439453125,5.295166015625
0.0455,-5.475341796875,1.731689453125,3.893798828125
0.046,-5.275146484375,3.253173828125,2.412353515625
0.0465,-5.155029296875,4.494384765625,1.291259765625
0.047,-4.994873046875,5.295166015625,0.530517578125
0.0475,-4.314208984375,5.495361328125,-0.350341796875
0.048,-3.032958984375,5.455322265625,-1.431396484375
0.0485,-1.511474609375,5.575439453125,-3.072998046875
0.049,-0.230224609375,5.735595703125,-4.634521484375
0.0495,0.610595703125,5.935791015625,-5.635498046875
0.05,1.211181640625,5.935791015625,-6.276123046875
0.0505,2.252197265625,5.054931640625,-6.516357421875
0.051,3.533447265625,3.573486328125,-6.596435546875
0.0515,4.854736328125,2.052001953125,-6.756591796875
0.052,5.815673828125,0.810791015625,-6.796630859375
0.0525,6.135986328125,0.010009765625,-6.716552734375
0.053,5.935791015625,-0.750732421875,-6.115966796875
0.0535,5.415283203125,-1.751708984375,-4.914794921875
0.054,5.094970703125,-3.153076171875,-3.393310546875
0.0545,4.894775390625,-4.634521484375,-1.951904296875
0.055,4.774658203125,-5.755615234375,-0.990966796875
0.0555,4.494384765625,-6.276123046875,-0.310302734375
0.056,3.533447265625,-6.276123046875,0.610595703125
0.0565,2.132080078125,-6.196044921875,1.891845703125
0.057,0.570556640625,-6.356201171875,3.533447265625
0.0575,-0.670654296875,-6.556396484375,4.934814453125
0.058,-1.311279296875,-6.716552734375,5.815673828125
0.0585,-1.951904296875,-6.436279296875,6.336181640625
0.059,-2.992919921875,-5.315185546875,6.416259765625
0.0595,-4.354248046875,-3.833740234375,6.536376953125
0.06,-5.635498046875,-2.352294921875,6.696533203125
0.0605,-6.396240234375,-1.231201171875,6.696533203125
0.061,-6.516357421875,-0.590576171875,6.536376953125
0.0615,-6.156005859375,0.290283203125,5.735595703125
0.062,-5.675537109375,1.331298828125,4.454345703125
0.0625,-5.395263671875,2.852783203125,2.932861328125
0.063,-5.275146484375,4.214111328125,1.571533203125
0.0635,-5.155029296875,5.175048828125,0.770751953125
0.064,-4.634521484375,5.615478515625,0.050048828125
0.0645,-3.593505859375,5.575439453125,-0.990966796875
0.065,-2.112060546875,5.535400390625,-2.432373046875
0.0655,-0.630615234375,5.735595703125,-4.114013671875
0.066,0.410400390625,5.975830078125,-5.315185546875
0.0665,0.970947265625,6.135986328125,-6.115966796875
0.067,1.771728515625,5.575439453125,-6.476318359375
0.0675,3.012939453125,4.214111328125,-6.596435546875
0.068,4.414306640625,2.692626953125,-6.796630859375
0.0685,5.535400390625,1.331298828125,-6.876708984375
0.069,6.095947265625,0.370361328125,-6.876708984375
0.0695,6.135986328125,-0.390380859375,-6.516357421875
0.07,5.695556640625,-1.271240234375,-5.515380859375
0.0705,5.255126953125,-2.552490234375,-4.114013671875
0.071,5.054931640625,-4.073974609375,-2.552490234375
0.0715,4.934814453125,-5.355224609375,-1.391357421875
0.072,4.774658203125,-6.115966796875,-0.630615234375
0.0725,4.053955078125,-6.356201171875,0.250244140625
0.073,2.732666015625,-6.316162109375,1.331298828125
0.0735,1.171142578125,-6.396240234375,2.972900390625
0.074,-0.350341796875,-6.476318359375,4.574462890625
0.0745,-1.151123046875,-6.716552734375,5.655517578125
0.075,-1.671630859375,-6.676513671875,6.296142578125
0.0755,-2.592529296875,-5.795654296875,6.496337890625
0.076,-3.953857421875,-4.314208984375,6.616455078125
0.0765,-5.315185546875,-2.792724609375,6.736572265625
0.077,-6.276123046875,-1.471435546875,6.776611328125
0.0775,-6.636474609375,-0.710693359375,6.696533203125
0.078,-6.436279296875,0.130126953125,6.095947265625
0.0785,-5.915771484375,1.131103515625,4.854736328125
0.079,-5.555419921875,2.532470703125,3.373291015625
0.0795,-5.355224609375,4.053955078125,1.891845703125
0.08,-5.275146484375,5.175048828125,0.890869140625
0.0805,-4.874755859375,5.735595703125,0.130126953125
0.081,-3.993896484375,5.735595703125,-0.830810546875
0.0815,-2.472412109375,5.655517578125,-2.192138671875
0.082,-0.950927734375,5.855712890625,-3.873779296875
0.0825,0.370361328125,6.015869140625,-5.275146484375
0.083,1.010986328125,6.176025390625,-6.156005859375
0.0835,1.651611328125,5.895751953125,-6.676513671875
0.084,2.852783203125,4.614501953125,-6.756591796875
0.0845,4.214111328125,3.093017578125,-6.876708984375
0.085,5.495361328125,1.531494140625,-6.956787109375
0.0855,6.256103515625,0.410400390625,-6.956787109375
0.086,6.336181640625,-0.390380859375,-6.716552734375
0.0865,5.975830078125,-1.151123046875,-5.875732421875
0.087,5.415283203125,-2.312255859375,-4.474365234375
0.0875,5.094970703125,-3.833740234375,-2.872802734375
0.088,4.934814453125,-5.155029296875,-1.551513671875
0.0885,4.774658203125,-6.115966796875,-0.670654296875
0.089,4.214111328125,-6.476318359375,0.130126953125
0.0895,3.093017578125,-6.396240234375,1.010986328125
0.09,1.571533203125,-6.276123046875,2.452392578125
0.0905,0.010009765625,-6.396240234375,4.134033203125
0.091,-0.990966796875,-6.556396484375,5.335205078125
0.0915,-1.551513671875,-6.676513671875,6.095947265625
0.092,-2.272216796875,-6.115966796875,6.376220703125
0.0925,-3.433349609375,-4.834716796875,6.416259765625
0.093,-4.754638671875,-3.353271484375,6.536376953125
0.0935,-5.835693359375,-1.951904296875,6.656494140625
0.094,-6.396240234375,-1.071044921875,6.656494140625
0.0945,-6.356201171875,-0.470458984375,6.296142578125
0.095,-5.915771484375,0.450439453125,5.375244140625
0.0955,-5.475341796875,1.571533203125,4.053955078125
0.096,-5.275146484375,3.093017578125,2.572509765625
0.0965,-5.155029296875,4.334228515625,1.451416015625
0.097,-4.994873046875,5.094970703125,0.690673828125
0.0975,-4.434326171875,5.335205078125,0.010009765625
0.098,-3.233154296875,5.335205078125,-1.071044921875
0.0985,-1.871826171875,5.455322265625,-2.552490234375
0.099,-0.510498046875,5.615478515625,-4.114013671875
0.0995,0.290283203125,5.935791015625,-5.155029296875
0.1,0.890869140625,6.015869140625,-5.915771484375
0.1005,1.691650390625,5.295166015625,-6.156005859375
0.101,2.932861328125,4.013916015625,-6.356201171875
0.1015,4.334228515625,2.572509765625,-6.556396484375
0.102,5.335205078125,1.411376953125,-6.676513671875
0.1025,5.815673828125,0.610595703125,-6.716552734375
0.103,5.735595703125,-0.150146484375,-6.276123046875
0.1035,5.335205078125,-1.071044921875,-5.275146484375
0.104,5.054931640625,-2.352294921875,-3.953857421875
0.1045,4.934814453125,-3.833740234375,-2.592529296875
0.105,4.894775390625,-5.074951171875,-1.631591796875
0.1055,4.694580078125,-5.755615234375,-0.950927734375
0.106,3.893798828125,-5.835693359375,0.010009765625
0.1065,2.652587890625,-5.835693359375,1.131103515625
0.107,1.251220703125,-6.075927734375,2.692626953125
0.1075,0.090087890625,-6.276123046875,4.134033203125
0.108,-0.710693359375,-6.556396484375,5.135009765625
0.1085,-1.311279296875,-6.436279296875,5.735595703125
0.109,-2.272216796875,-5.515380859375,5.895751953125
0.1095,-3.593505859375,-4.194091796875,6.095947265625
0.11,-4.914794921875,-2.832763671875,6.336181640625
0.1105,-5.755615234375,-1.791748046875,6.456298828125
0.111,-6.035888671875,-1.151123046875,6.376220703125
0.1115,-5.755615234375,-0.470458984375,5.735595703125
0.112,-5.355224609375,0.650634765625,4.614501953125
0.1125,-5.155029296875,2.011962890625,3.333251953125
0.113,-5.114990234375,3.333251953125,2.052001953125
0.1135,-5.114990234375,4.374267578125,1.291259765625
0.114,-4.754638671875,4.894775390625,0.610595703125
0.1145,-3.833740234375,4.974853515625,-0.310302734375
0.115,-2.592529296875,5.054931640625,-1.591552734375
0.1155,-1.271240234375,5.295166015625,-3.153076171875
0.116,-0.350341796875,5.615478515625,-4.394287109375
0.1165,0.290283203125,5.895751953125,-5.235107421875
0.117,1.010986328125,5.495361328125,-5.675537109375
0.1175,2.092041015625,4.454345703125,-5.795654296875
0.118,3.373291015625,3.173095703125,-6.115966796875
0.1185,4.534423828125,1.931884765625,-6.316162109375
0.119,5.255126953125,1.091064453125,-6.436279296875
0.1195,5.415283203125,0.490478515625,-6.276123046875
0.12,5.094970703125,-0.350341796875,-5.555419921875
0.1205,4.814697265625,-1.391357421875,-4.474365234375
0.121,4.654541015625,-2.792724609375,-3.193115234375
0.1215,4.654541015625,-4.073974609375,-2.192138671875
0.122,4.614501953125,-4.914794921875,-1.471435546875
0.1225,4.214111328125,-5.315185546875,-0.790771484375
0.123,3.253173828125,-5.395263671875,0.170166015625
0.1235,2.052001953125,-5.595458984375,1.531494140625
0.124,0.850830078125,-5.835693359375,3.012939453125
0.1245,0.130126953125,-6.236083984375,4.134033203125
0.125,-0.590576171875,-6.436279296875,4.894775390625
0.1255,-1.311279296875,-5.955810546875,5.255126953125
0.126,-2.432373046875,-4.914794921875,5.495361328125
0.1265,-3.713623046875,-3.713623046875,5.775634765625
0.127,-4.834716796875,-2.552490234375,6.095947265625
0.1275,-5.395263671875,-1.871826171875,6.256103515625
0.128,-5.435302734375,-1.271240234375,5.975830078125
0.1285,-5.195068359375,-0.470458984375,5.175048828125
0.129,-5.034912109375,0.650634765625,4.134033203125
0.1295,-4.994873046875,2.052001953125,3.012939453125
0.13,-5.114990234375,3.333251953125,2.132080078125
0.1305,-4.994873046875,4.093994140625,1.451416015625
0.131,-4.474365234375,4.454345703125,0.770751953125
0.1315,-3.473388671875,4.534423828125,-0.390380859375
0.132,-2.312255859375,4.894775390625,-1.791748046875
0.1325,-1.271240234375,5.255126953125,-3.153076171875
0.133,-0.630615234375,5.655517578125,-4.234130859375
0.1335,0.130126953125,5.695556640625,-4.914794921875
0.134,1.010986328125,5.014892578125,-5.235107421875
0.1345,2.252197265625,3.933837890625,-5.595458984375
0.135,3.573486328125,2.692626953125,-5.915771484375
0.1355,4.494384765625,1.771728515625,-6.196044921875
0.136,4.974853515625,1.131103515625,-6.316162109375
0.1365,4.894775390625,0.490478515625,-5.835693359375
0.137,4.654541015625,-0.510498046875,-4.994873046875
0.1375,4.574462890625,-1.791748046875,-3.913818359375
0.138,4.574462890625,-3.072998046875,-2.872802734375
0.1385,4.694580078125,-4.114013671875,-2.112060546875
0.139,4.494384765625,-4.754638671875,-1.471435546875
0.1395,3.813720703125,-4.994873046875,-0.670654296875
0.14,2.732666015625,-5.155029296875,0.570556640625
0.1405,1.571533203125,-5.515380859375,2.011962890625
0.141,0.690673828125,-5.915771484375,3.333251953125
0.1415,0.130126953125,-6.276123046875,4.214111328125
0.142,-0.670654296875,-6.115966796875,4.814697265625
0.1425,-1.631591796875,-5.275146484375,5.094970703125
0.143,-2.872802734375,-4.234130859375,5.415283203125
0.1435,-4.114013671875,-3.072998046875,5.735595703125
0.144,-4.914794921875,-2.272216796875,6.055908203125
0.1445,-5.195068359375,-1.711669921875,6.015869140625
0.145,-5.034912109375,-1.031005859375,5.415283203125
0.1455,-4.874755859375,0.010009765625,4.534423828125
0.146,-4.874755859375,1.291259765625,3.493408203125
0.1465,-4.994873046875,2.612548828125,2.532470703125
0.147,-5.034912109375,3.533447265625,1.891845703125
0.1475,-4.674560546875,4.093994140625,1.251220703125
0.148,-3.873779296875,4.294189453125,0.290283203125
0.1485,-2.872802734375,4.614501953125,-1.031005859375
0.149,-1.791748046875,4.974853515625,-2.472412109375
0.1495,-1.031005859375,5.455322265625,-3.673583984375
0.15,-0.470458984375,5.735595703125,-4.514404296875
0.1505,0.490478515625,5.295166015625,-4.994873046875
0.151,1.611572265625,4.374267578125,-5.275146484375
0.1515,2.932861328125,3.213134765625,-5.715576171875
0.152,4.093994140625,2.132080078125,-5.995849609375
0.1525,4.734619140625,1.451416015625,-6.236083984375
0.153,4.814697265625,0.770751953125,-6.035888671875
0.1535,4.654541015625,0.010009765625,-5.275146484375
0.154,4.534423828125,-1.151123046875,-4.314208984375
0.1545,4.534423828125,-2.512451171875,-3.233154296875
0.155,4.694580078125,-3.753662109375,-2.432373046875
0.1555,4.654541015625,-4.514404296875,-1.791748046875
0.156,4.093994140625,-4.874755859375,-1.031005859375
0.1565,3.133056640625,-5.034912109375,0.130126953125
0.157,2.011962890625,-5.395263671875,1.531494140625
0.1575,0.970947265625,-5.755615234375,2.892822265625
0.158,0.330322265625,-6.236083984375,3.973876953125
0.1585,-0.390380859375,-6.276123046875,4.694580078125
0.159,-1.311279296875,-5.595458984375,4.974853515625
0.1595,-2.552490234375,-4.514404296875,5.375244140625
0.16,-3.833740234375,-3.353271484375,5.735595703125
0.1605,-4.834716796875,-2.392333984375,6.015869140625
0.161,-5.235107421875,-1.871826171875,6.095947265625
0.1615,-5.155029296875,-1.191162109375,5.655517578125
0.162,-4.954833984375,-0.270263671875,4.774658203125
0.1625,-4.874755859375,1.091064453125,3.733642578125
0.163,-4.954833984375,2.452392578125,2.652587890625
0.1635,-5.074951171875,3.533447265625,1.931884765625
0.164,-4.834716796875,4.134033203125,1.291259765625
0.1645,-4.114013671875,4.334228515625,0.450439453125
0.165,-2.992919921875,4.534423828125,-0.830810546875
0.1655,-1.911865234375,4.934814453125,-2.272216796875
0.166,-1.031005859375,5.375244140625,-3.553466796875
0.1665,-0.430419921875,5.735595703125,-4.514404296875
0.167,0.450439453125,5.455322265625,-5.114990234375
0.1675,1.531494140625,4.534423828125,-5.395263671875
0.168,2.852783203125,3.373291015625,-5.755615234375
0.1685,4.053955078125,2.212158203125,-6.035888671875
0.169,4.814697265625,1.331298828125,-6.316162109375
0.1695,5.054931640625,0.730712890625,-6.156005859375
0.17,4.854736328125,0.010009765625,-5.515380859375
0.1705,4.614501953125,-1.151123046875,-4.514404296875
0.171,4.614501953125,-2.512451171875,-3.313232421875
0.1715,4.694580078125,-3.833740234375,-2.312255859375
0.172,4.694580078125,-4.714599609375,-1.631591796875
0.1725,4.254150390625,-5.114990234375,-0.950927734375
0.173,3.253173828125,-5.195068359375,0.130126953125
0.1735,2.052001953125,-5.475341796875,1.491455078125
0.174,0.890869140625,-5.795654296875,3.012939453125
0.1745,0.170166015625,-6.276123046875,4.134033203125
0.175,-0.590576171875,-6.396240234375,4.974853515625
0.1755,-1.391357421875,-5.795654296875,5.295166015625
0.176,-2.592529296875,-4.714599609375,5.575439453125
0.1765,-3.953857421875,-3.393310546875,5.895751953125
0.177,-5.034912109375,-2.312255859375,6.095947265625
0.1775,-5.555419921875,-1.631591796875,6.256103515625
0.178,-5.555419921875,-0.950927734375,5.895751953125
0.1785,-5.195068359375,0.010009765625,4.934814453125
0.179,-5.074951171875,1.251220703125,3.813720703125
0.1795,-5.034912109375,2.692626953125,2.572509765625
0.18,-5.074951171875,3.893798828125,1.651611328125
0.1805,-4.874755859375,4.534423828125,0.970947265625
0.181,-4.154052734375,4.774658203125,0.250244140625
0.1815,-3.032958984375,4.814697265625,-0.990966796875
0.182,-1.751708984375,5.094970703125,-2.552490234375
0.1825,-0.710693359375,5.455322265625,-3.913818359375
0.183,0.010009765625,5.815673828125,-4.954833984375
0.1835,0.690673828125,5.655517578125,-5.515380859375
0.184,1.771728515625,4.734619140625,-5.755615234375
0.1845,3.093017578125,3.453369140625,-6.035888671875
0.185,4.414306640625,2.052001953125,-6.316162109375
0.1855,5.255126953125,1.051025390625,-6.476318359375
0.186,5.495361328125,0.450439453125,-6.396240234375
0.1865,5.295166015625,-0.350341796875,-5.755615234375
0.187,4.974853515625,-1.431396484375,-4.594482421875
0.1875,4.814697265625,-2.872802734375,-3.233154296875
0.188,4.774658203125,-4.234130859375,-2.112060546875
