wavelength,x,y,z
0.0,-4.82470703125,3.90380859375,1.54150390625
0.0005,-4.46435546875,4.42431640625,0.74072265625
0.001,-3.78369140625,4.78466796875,-0.30029296875
0.0015,-2.86279296875,5.02490234375,-1.50146484375
0.002,-1.54150390625,5.30517578125,-2.86279296875
0.0025,-0.66064453125,5.46533203125,-3.90380859375
0.003,0.10009765625,5.66552734375,-4.78466796875
0.0035,0.94091796875,5.42529296875,-5.42529296875
0.004,2.02197265625,4.54443359375,-5.82568359375
0.0045,3.22314453125,3.50341796875,-6.18603515625
0.005,4.22412109375,2.22216796875,-6.18603515625
0.0055,4.82470703125,1.34130859375,-6.18603515625
0.006,5.02490234375,0.66064453125,-6.02587890625
0.0065,5.06494140625,-0.26025390625,-5.50537109375
0.007,4.94482421875,-1.22119140625,-4.70458984375
0.0075,4.82470703125,-2.50244140625,-3.54345703125
0.008,4.58447265625,-3.54345703125,-2.46240234375
0.0085,4.46435546875,-4.46435546875,-1.66162109375
0.009,4.02392578125,-4.98486328125,-0.90087890625
0.0095,3.34326171875,-5.30517578125,0.18017578125
0.01,2.34228515625,-5.70556640625,1.46142578125
0.0105,1.22119140625,-5.90576171875,2.74267578125
0.011,0.46044921875,-6.14599609375,3.78369140625
0.0115,-0.38037109375,-6.26611328125,4.62451171875
0.012,-1.30126953125,-5.90576171875,5.26513671875
0.0125,-2.50244140625,-4.98486328125,5.70556640625
0.013,-3.70361328125,-3.82373046875,5.98583984375
0.0135,-4.54443359375,-2.70263671875,5.98583984375
0.014,-5.10498046875,-1.94189453125,6.02587890625
0.0145,-5.26513671875,-1.26123046875,5.74560546875
0.015,-5.26513671875,-0.38037109375,5.14501953125
0.0155,-5.18505859375,0.78076171875,4.30419921875
0.016,-5.06494140625,2.06201171875,3.18310546875
0.0165,-4.86474609375,3.02294921875,2.22216796875
0.017,-4.66455078125,3.74365234375,1.42138671875
0.0175,-4.34423828125,4.22412109375,0.66064453125
0.018,-3.38330078125,4.66455078125,-0.58056640625
0.0185,-2.42236328125,5.06494140625,-1.90185546875
0.019,-1.38134765625,5.22509765625,-3.06298828125
0.0195,-0.66064453125,5.50537109375,-4.02392578125
0.02,0.22021484375,5.50537109375,-4.82470703125
0.0205,1.26123046875,4.94482421875,-5.42529296875
0.021,2.42236328125,3.98388671875,-5.82568359375
0.0215,3.58349609375,2.82275390625,-6.02587890625
0.022,4.34423828125,1.82177734375,-6.06591796875
0.0225,4.78466796875,1.14111328125,-6.10595703125
0.023,4.86474609375,0.38037109375,-5.74560546875
0.0235,4.82470703125,-0.62060546875,-5.02490234375
0.024,4.82470703125,-1.86181640625,-4.06396484375
0.0245,4.66455078125,-3.10302734375,-2.94287109375
0.025,4.50439453125,-4.02392578125,-2.10205078125
0.0255,4.34423828125,-4.70458984375,-1.38134765625
0.026,3.66357421875,-5.14501953125,-0.42041015625
0.0265,2.74267578125,-5.50537109375,0.94091796875
0.027,1.62158203125,-5.78564453125,2.26220703125
0.0275,0.78076171875,-6.06591796875,3.38330078125
0.028,0.06005859375,-6.26611328125,4.34423828125
0.0285,-0.98095703125,-6.02587890625,5.06494140625
0.029,-2.10205078125,-5.26513671875,5.58544921875
0.0295,-3.34326171875,-4.14404296875,5.94580078125
0.03,-4.38427734375,-2.90283203125,5.94580078125
0.0305,-4.98486328125,-2.06201171875,6.02587890625
0.031,-5.26513671875,-1.34130859375,5.82568359375
0.0315,-5.30517578125,-0.58056640625,5.34521484375
0.032,-5.22509765625,0.62060546875,4.50439453125
0.0325,-5.14501953125,1.90185546875,3.38330078125
0.033,-4.94482421875,2.94287109375,2.30224609375
0.0335,-4.82470703125,3.82373046875,1.58154296875
0.034,-4.30419921875,4.30419921875,0.70068359375
0.0345,-3.54345703125,4.62451171875,-0.46044921875
0.035,-2.58251953125,5.06494140625,-1.70166015625
0.0355,-1.42138671875,5.26513671875,-3.02294921875
0.036,-0.66064453125,5.46533203125,-3.98388671875
0.0365,0.18017578125,5.54541015625,-4.86474609375
0.037,1.14111328125,5.10498046875,-5.46533203125
0.0375,2.38232421875,4.14404296875,-5.82568359375
0.038,3.58349609375,2.94287109375,-6.10595703125
0.0385,4.42431640625,1.78173828125,-6.10595703125
0.039,4.86474609375,1.06103515625,-6.10595703125
0.0395,4.98486328125,0.34033203125,-5.78564453125
0.04,4.94482421875,-0.66064453125,-5.10498046875
0.0405,4.86474609375,-1.82177734375,-4.18408203125
0.041,4.74462890625,-3.14306640625,-2.98291015625
0.0415,4.62451171875,-3.98388671875,-2.06201171875
0.042,4.30419921875,-4.78466796875,-1.26123046875
0.0425,3.78369140625,-5.22509765625,-0.42041015625
0.043,2.82275390625,-5.50537109375,0.82080078125
0.0435,1.74169921875,-5.90576171875,2.26220703125
0.044,0.70068359375,-6.02587890625,3.38330078125
0.0445,0.02001953125,-6.30615234375,4.38427734375
0.045,-0.98095703125,-6.14599609375,5.14501953125
0.0455,-2.10205078125,-5.42529296875,5.70556640625
0.046,-3.34326171875,-4.34423828125,6.06591796875
0.0465,-4.50439453125,-3.06298828125,6.18603515625
0.047,-5.14501953125,-2.06201171875,6.10595703125
0.0475,-5.46533203125,-1.30126953125,6.02587890625
0.048,-5.46533203125,-0.54052734375,5.54541015625
0.0485,-5.38525390625,0.58056640625,4.66455078125
0.049,-5.26513671875,1.86181640625,3.54345703125
0.0495,-5.10498046875,2.90283203125,2.26220703125
0.05,-4.82470703125,3.94384765625,1.46142578125
0.0505,-4.42431640625,4.50439453125,0.62060546875
0.051,-3.66357421875,4.82470703125,-0.42041015625
0.0515,-2.58251953125,5.18505859375,-1.74169921875
0.052,-1.34130859375,5.42529296875,-3.14306640625
0.0525,-0.50048828125,5.58544921875,-4.18408203125
0.053,0.30029296875,5.70556640625,-5.06494140625
0.0535,1.26123046875,5.26513671875,-5.70556640625
0.054,2.46240234375,4.30419921875,-6.10595703125
0.0545,3.74365234375,3.06298828125,-6.38623046875
0.055,4.66455078125,1.78173828125,-6.38623046875
0.0555,5.18505859375,0.90087890625,-6.30615234375
0.056,5.26513671875,0.14013671875,-6.02587890625
0.0565,5.22509765625,-0.82080078125,-5.26513671875
0.057,5.10498046875,-2.06201171875,-4.26416015625
0.0575,4.78466796875,-3.54345703125,-2.94287109375
0.058,4.62451171875,-4.46435546875,-1.82177734375
0.0585,4.38427734375,-5.14501953125,-1.02099609375
0.059,3.78369140625,-5.58544921875,-0.14013671875
0.0595,2.78271484375,-5.82568359375,1.14111328125
0.06,1.58154296875,-6.14599609375,2.58251953125
0.0605,0.38037109375,-6.26611328125,3.86376953125
0.061,-0.50048828125,-6.38623046875,4.82470703125
0.0615,-1.26123046875,-6.34619140625,5.58544921875
0.062,-2.38232421875,-5.62548828125,6.14599609375
0.0625,-3.70361328125,-4.34423828125,6.46630859375
0.063,-4.94482421875,-2.98291015625,6.58642578125
0.0635,-5.62548828125,-1.78173828125,6.42626953125
0.064,-5.94580078125,-0.98095703125,6.26611328125
0.0645,-5.82568359375,0.02001953125,5.70556640625
0.065,-5.74560546875,0.98095703125,4.70458984375
0.0655,-5.54541015625,2.38232421875,3.50341796875
0.066,-5.26513671875,3.70361328125,2.10205078125
0.0665,-4.90478515625,4.54443359375,1.06103515625
0.067,-4.46435546875,5.10498046875,0.26025390625
0.0675,-3.62353515625,5.34521484375,-0.78076171875
0.068,-2.42236328125,5.54541015625,-2.18212890625
0.0685,-1.10107421875,5.74560546875,-3.70361328125
0.069,0.06005859375,5.78564453125,-4.82470703125
0.0695,0.78076171875,5.82568359375,-5.62548828125
0.07,1.70166015625,5.42529296875,-6.26611328125
0.0705,2.94287109375,4.34423828125,-6.66650390625
0.071,4.22412109375,3.02294921875,-6.90673828125
0.0715,5.26513671875,1.58154296875,-6.82666015625
0.072,5.74560546875,0.54052734375,-6.58642578125
0.0725,5.74560546875,-0.38037109375,-6.22607421875
0.073,5.70556640625,-1.26123046875,-5.50537109375
0.0735,5.42529296875,-2.50244140625,-4.22412109375
0.074,5.14501953125,-3.82373046875,-2.90283203125
0.0745,4.82470703125,-4.98486328125,-1.62158203125
0.075,4.42431640625,-5.70556640625,-0.66064453125
0.0755,3.82373046875,-6.10595703125,0.26025390625
0.076,2.78271484375,-6.26611328125,1.34130859375
0.0765,1.42138671875,-6.46630859375,2.86279296875
0.077,0.10009765625,-6.54638671875,4.34423828125
0.0775,-0.90087890625,-6.54638671875,5.26513671875
0.078,-1.58154296875,-6.50634765625,6.02587890625
0.0785,-2.66259765625,-5.78564453125,6.54638671875
0.079,-4.02392578125,-4.50439453125,6.90673828125
0.0795,-5.22509765625,-3.14306640625,7.02685546875
0.08,-6.06591796875,-1.70166015625,6.78662109375
0.0805,-6.30615234375,-0.90087890625,6.42626953125
0.081,-6.30615234375,0.10009765625,5.98583984375
0.0815,-6.10595703125,1.10107421875,5.02490234375
0.082,-5.78564453125,2.42236328125,3.70361328125
0.0825,-5.46533203125,3.82373046875,2.26220703125
0.083,-5.06494140625,4.78466796875,1.02099609375
0.0835,-4.62451171875,5.38525390625,0.22021484375
0.084,-3.82373046875,5.62548828125,-0.78076171875
0.0845,-2.58251953125,5.74560546875,-2.10205078125
0.085,-1.22119140625,5.98583984375,-3.66357421875
0.0855,0.14013671875,5.90576171875,-4.94482421875
0.086,0.90087890625,5.90576171875,-5.74560546875
0.0865,1.66162109375,5.70556640625,-6.38623046875
0.087,2.78271484375,4.82470703125,-6.86669921875
0.0875,4.14404296875,3.46337890625,-7.06689453125
0.088,5.26513671875,1.94189453125,-7.06689453125
0.0885,5.90576171875,0.74072265625,-6.74658203125
0.089,6.06591796875,-0.26025390625,-6.50634765625
0.0895,5.90576171875,-1.14111328125,-5.82568359375
0.09,5.62548828125,-2.22216796875,-4.66455078125
0.0905,5.38525390625,-3.54345703125,-3.34326171875
0.091,4.98486328125,-4.82470703125,-1.90185546875
0.0915,4.54443359375,-5.62548828125,-0.86083984375
0.092,4.06396484375,-6.14599609375,0.06005859375
0.0925,3.18310546875,-6.38623046875,1.02099609375
0.093,1.86181640625,-6.46630859375,2.46240234375
0.0935,0.46044921875,-6.62646484375,3.98388671875
0.094,-0.78076171875,-6.54638671875,5.10498046875
0.0945,-1.42138671875,-6.58642578125,5.90576171875
0.095,-2.30224609375,-6.14599609375,6.46630859375
0.0955,-3.58349609375,-5.02490234375,6.86669921875
0.096,-4.86474609375,-3.66357421875,7.06689453125
0.0965,-5.94580078125,-2.18212890625,7.02685546875
0.097,-6.34619140625,-1.14111328125,6.62646484375
0.0975,-6.38623046875,-0.34033203125,6.22607421875
0.098,-6.22607421875,0.70068359375,5.50537109375
0.0985,-5.90576171875,1.94189453125,4.22412109375
0.099,-5.66552734375,3.34326171875,2.82275390625
0.0995,-5.26513671875,4.50439453125,1.42138671875
0.1,-4.82470703125,5.18505859375,0.54052734375
0.1005,-4.14404296875,5.58544921875,-0.46044921875
0.101,-3.14306640625,5.74560546875,-1.54150390625
0.1015,-1.78173828125,5.94580078125,-3.06298828125
0.102,-0.34033203125,5.94580078125,-4.50439453125
0.1025,0.62060546875,5.94580078125,-5.46533203125
0.103,1.30126953125,5.90576171875,-6.22607421875
0.1035,2.30224609375,5.26513671875,-6.70654296875
0.104,3.66357421875,3.94384765625,-7.02685546875
0.1045,4.82470703125,2.42236328125,-7.22705078125
0.105,5.74560546875,1.10107421875,-6.90673828125
0.1055,6.06591796875,0.18017578125,-6.70654296875
0.106,6.02587890625,-0.70068359375,-6.14599609375
0.1065,5.78564453125,-1.74169921875,-5.26513671875
0.107,5.50537109375,-3.06298828125,-3.90380859375
0.1075,5.22509765625,-4.50439453125,-2.42236328125
0.108,4.82470703125,-5.46533203125,-1.22119140625
0.1085,4.38427734375,-6.10595703125,-0.30029296875
0.109,3.58349609375,-6.38623046875,0.70068359375
0.1095,2.34228515625,-6.54638671875,1.98193359375
0.11,0.94091796875,-6.74658203125,3.62353515625
0.1105,-0.50048828125,-6.66650390625,4.86474609375
0.111,-1.22119140625,-6.70654296875,5.74560546875
0.1115,-2.02197265625,-6.42626953125,6.42626953125
0.112,-3.22314453125,-5.58544921875,6.90673828125
0.1125,-4.50439453125,-4.14404296875,7.06689453125
0.113,-5.74560546875,-2.62255859375,7.10693359375
0.1135,-6.34619140625,-1.30126953125,6.74658203125
0.114,-6.54638671875,-0.46044921875,6.46630859375
0.1145,-6.38623046875,0.50048828125,5.78564453125
0.115,-6.06591796875,1.70166015625,4.54443359375
0.1155,-5.74560546875,3.06298828125,3.18310546875
0.116,-5.38525390625,4.34423828125,1.74169921875
0.1165,-4.90478515625,5.10498046875,0.66064453125
0.117,-4.34423828125,5.58544921875,-0.30029296875
0.1175,-3.46337890625,5.74560546875,-1.26123046875
0.118,-2.10205078125,5.86572265625,-2.66259765625
0.1185,-0.70068359375,5.98583984375,-4.18408203125
0.119,0.50048828125,5.90576171875,-5.26513671875
0.1195,1.14111328125,5.90576171875,-6.02587890625
0.12,2.02197265625,5.46533203125,-6.54638671875
0.1205,3.34326171875,4.30419921875,-7.02685546875
0.121,4.50439453125,2.94287109375,-7.06689453125
0.1215,5.42529296875,1.50146484375,-6.90673828125
0.122,5.90576171875,0.46044921875,-6.66650390625
0.1225,5.98583984375,-0.42041015625,-6.30615234375
0.123,5.78564453125,-1.26123046875,-5.62548828125
0.1235,5.46533203125,-2.42236328125,-4.38427734375
0.124,5.18505859375,-3.78369140625,-3.02294921875
0.1245,4.78466796875,-4.90478515625,-1.66162109375
0.125,4.42431640625,-5.62548828125,-0.78076171875
0.1255,3.86376953125,-6.02587890625,0.18017578125
0.126,2.90283203125,-6.26611328125,1.18115234375
0.1265,1.62158203125,-6.42626953125,2.58251953125
0.127,0.30029296875,-6.42626953125,4.02392578125
0.1275,-0.70068359375,-6.50634765625,4.98486328125
0.128,-1.42138671875,-6.54638671875,5.78564453125
0.1285,-2.26220703125,-5.90576171875,6.34619140625
0.129,-3.62353515625,-4.82470703125,6.70654296875
0.1295,-4.82470703125,-3.54345703125,6.82666015625
0.13,-5.70556640625,-2.10205078125,6.62646484375
0.1305,-6.10595703125,-1.22119140625,6.42626953125
0.131,-6.10595703125,-0.42041015625,6.06591796875
0.1315,-5.94580078125,0.62060546875,5.26513671875
0.132,-5.70556640625,1.82177734375,4.10400390625
0.1325,-5.42529296875,3.18310546875,2.70263671875
0.133,-5.06494140625,4.18408203125,1.54150390625
0.1335,-4.74462890625,4.86474609375,0.66064453125
0.134,-4.06396484375,5.22509765625,-0.30029296875
0.1345,-3.06298828125,5.42529296875,-1.42138671875
0.135,-1.78173828125,5.70556640625,-2.86279296875
0.1355,-0.58056640625,5.70556640625,-4.14404296875
0.136,0.34033203125,5.78564453125,-5.10498046875
0.1365,1.06103515625,5.78564453125,-5.74560546875
0.137,2.06201171875,5.02490234375,-6.30615234375
0.1375,3.34326171875,3.82373046875,-6.58642578125
0.138,4.50439453125,2.50244140625,-6.66650390625
0.1385,5.18505859375,1.26123046875,-6.50634765625
0.139,5.50537109375,0.50048828125,-6.38623046875
0.1395,5.46533203125,-0.34033203125,-5.90576171875
0.14,5.30517578125,-1.30126953125,-5.02490234375
0.1405,5.10498046875,-2.58251953125,-3.86376953125
0.141,4.82470703125,-3.82373046875,-2.54248046875
0.1415,4.50439453125,-4.70458984375,-1.54150390625
0.142,4.22412109375,-5.34521484375,-0.78076171875
0.1425,3.58349609375,-5.70556640625,0.22021484375
0.143,2.50244140625,-5.94580078125,1.42138671875
0.1435,1.30126953125,-6.14599609375,2.82275390625
0.144,0.18017578125,-6.22607421875,3.98388671875
0.1445,-0.66064453125,-6.42626953125,4.98486328125
0.145,-1.42138671875,-6.22607421875,5.58544921875
0.1455,-2.54248046875,-5.42529296875,6.06591796875
0.146,-3.78369140625,-4.22412109375,6.34619140625
0.1465,-4.78466796875,-2.90283203125,6.34619140625
0.147,-5.42529296875,-1.90185546875,6.26611328125
0.1475,-5.62548828125,-1.14111328125,6.10595703125
0.148,-5.62548828125,-0.38037109375,5.58544921875
0.1485,-5.46533203125,0.74072265625,4.66455078125
0.149,-5.34521484375,1.98193359375,3.54345703125
0.1495,-5.06494140625,3.14306640625,2.38232421875
0.15,-4.82470703125,3.98388671875,1.46142578125
0.1505,-4.42431640625,4.50439453125,0.66064453125
0.151,-3.70361328125,4.86474609375,-0.38037109375
0.1515,-2.66259765625,5.18505859375,-1.66162109375
0.152,-1.42138671875,5.38525390625,-3.02294921875
0.1525,-0.58056640625,5.38525390625,-4.14404296875
0.153,0.22021484375,5.66552734375,-4.94482421875
0.1535,1.14111328125,5.30517578125,-5.58544921875
0.154,2.22216796875,4.50439453125,-6.02587890625
0.1545,3.46337890625,3.34326171875,-6.26611328125
0.155,4.34423828125,2.06201171875,-6.22607421875
0.1555,4.86474609375,1.26123046875,-6.22607421875
0.156,5.10498046875,0.50048828125,-6.02587890625
0.1565,5.10498046875,-0.42041015625,-5.46533203125
0.157,4.98486328125,-1.46142578125,-4.54443359375
0.1575,4.86474609375,-2.74267578125,-3.38330078125
0.158,4.62451171875,-3.82373046875,-2.30224609375
0.1585,4.46435546875,-4.62451171875,-1.50146484375
0.159,3.98388671875,-5.14501953125,-0.66064453125
0.1595,3.14306640625,-5.46533203125,0.46044921875
0.16,2.10205078125,-5.82568359375,1.78173828125
0.1605,1.06103515625,-6.02587890625,2.86279296875
0.161,0.26025390625,-6.26611328125,3.98388671875
0.1615,-0.62060546875,-6.34619140625,4.86474609375
0.162,-1.58154296875,-5.78564453125,5.50537109375
0.1625,-2.82275390625,-4.82470703125,5.90576171875
0.163,-3.98388671875,-3.58349609375,6.06591796875
0.1635,-4.78466796875,-2.50244140625,6.06591796875
0.164,-5.22509765625,-1.74169921875,6.02587890625
0.1645,-5.38525390625,-1.02099609375,5.74560546875
0.165,-5.30517578125,0.02001953125,5.06494140625
0.1655,-5.18505859375,1.10107421875,4.10400390625
0.166,-5.06494140625,2.30224609375,2.94287109375
0.1665,-4.82470703125,3.26318359375,2.02197265625
0.167,-4.62451171875,3.98388671875,1.26123046875
0.1675,-4.10400390625,4.46435546875,0.38037109375
0.168,-3.22314453125,4.78466796875,-0.78076171875
0.1685,-2.06201171875,5.14501953125,-2.18212890625
0.169,-1.22119140625,5.26513671875,-3.22314453125
0.1695,-0.50048828125,5.50537109375,-4.18408203125
0.17,0.38037109375,5.46533203125,-4.98486328125
0.1705,1.46142578125,4.82470703125,-5.50537109375
0.171,2.62255859375,3.86376953125,-5.90576171875
0.1715,3.70361328125,2.70263671875,-6.02587890625
0.172,4.42431640625,1.74169921875,-6.06591796875
0.1725,4.78466796875,1.06103515625,-6.06591796875
0.173,4.90478515625,0.30029296875,-5.70556640625
0.1735,4.86474609375,-0.74072265625,-4.98486328125
0.174,4.82470703125,-1.94189453125,-3.98388671875
0.1745,4.62451171875,-3.06298828125,-2.90283203125
0.175,4.50439453125,-3.98388671875,-2.06201171875
0.1755,4.22412109375,-4.62451171875,-1.30126953125
0.176,3.62353515625,-5.14501953125,-0.34033203125
0.1765,2.82275390625,-5.50537109375,0.98095703125
0.177,1.66162109375,-5.82568359375,2.26220703125
0.1775,0.78076171875,-6.10595703125,3.34326171875
0.178,0.06005859375,-6.26611328125,4.30419921875
0.1785,-0.98095703125,-6.06591796875,5.02490234375
0.179,-2.14208984375,-5.22509765625,5.58544921875
0.1795,-3.34326171875,-4.18408203125,5.90576171875
0.18,-4.34423828125,-2.94287109375,5.94580078125
0.1805,-4.94482421875,-2.14208984375,6.02587890625
0.181,-5.22509765625,-1.42138671875,5.90576171875
0.1815,-5.26513671875,-0.62060546875,5.38525390625
0.182,-5.26513671875,0.58056640625,4.50439453125
0.1825,-5.14501953125,1.82177734375,3.46337890625
0.183,-4.98486328125,2.86279296875,2.42236328125
0.1835,-4.78466796875,3.70361328125,1.58154296875
0.184,-4.34423828125,4.22412109375,0.78076171875
0.1845,-3.54345703125,4.70458984375,-0.30029296875
0.185,-2.58251953125,5.02490234375,-1.70166015625
0.1855,-1.50146484375,5.18505859375,-2.94287109375
0.186,-0.78076171875,5.50537109375,-3.94384765625
0.1865,0.14013671875,5.58544921875,-4.82470703125
0.187,1.14111328125,5.10498046875,-5.42529296875
0.1875,2.38232421875,4.14404296875,-5.82568359375
0.188,3.54345703125,2.90283203125,-6.10595703125
0.1885,4.34423828125,1.82177734375,-6.06591796875
0.189,4.82470703125,1.10107421875,-6.10595703125
0.1895,4.98486328125,0.34033203125,-5.78564453125
0.19,4.90478515625,-0.70068359375,-5.06494140625
0.1905,4.86474609375,-1.82177734375,-4.14404296875
0.191,4.74462890625,-3.06298828125,-2.98291015625
0.1915,4.50439453125,-3.98388671875,-2.06201171875
0.192,4.30419921875,-4.74462890625,-1.26123046875
0.1925,3.82373046875,-5.14501953125,-0.38037109375
0.193,2.78271484375,-5.58544921875,0.90087890625
0.1935,1.66162109375,-5.82568359375,2.30224609375
0.194,0.70068359375,-6.02587890625,3.42333984375
0.1945,0.02001953125,-6.26611328125,4.34423828125
0.195,-0.98095703125,-6.10595703125,5.14501953125
0.1955,-2.14208984375,-5.34521484375,5.70556640625
0.196,-3.38330078125,-4.26416015625,6.06591796875
0.1965,-4.50439453125,-2.98291015625,6.10595703125
0.197,-5.10498046875,-2.02197265625,6.10595703125
0.1975,-5.42529296875,-1.30126953125,5.94580078125
0.198,-5.46533203125,-0.54052734375,5.50537109375
0.1985,-5.38525390625,0.66064453125,4.62451171875
0.199,-5.26513671875,1.94189453125,3.50341796875
