wavelength,x,y,z
0.0,-14.409057617188,18.703247070312,-4.9998779296875
0.0005,-17.452026367188,17.341918945312,-0.7557373046875
0.001,-19.934448242188,15.700317382812,3.3682861328125
0.0015,-20.414916992188,13.458129882812,6.0108642578125
0.002,-20.334838867188,10.535278320312,8.8936767578125
0.0025,-19.654174804688,6.4112548828125,12.296997070312
0.003,-18.573120117188,2.1671142578125,15.460083007812
0.0035,-17.331909179688,-1.9569091796875,18.302856445312
0.004,-16.010620117188,-5.1199951171875,20.224731445312
0.0045,-13.648315429688,-7.8026123046875,20.625122070312
0.005,-9.9647216796875,-10.765502929688,19.984497070312
0.0055,-5.6004638671875,-14.128784179688,19.263793945312
0.006,-0.7557373046875,-17.331909179688,17.862426757812
0.0065,3.6085205078125,-19.734252929688,16.180786132812
0.007,6.2510986328125,-20.494995117188,14.499145507812
0.0075,9.1339111328125,-20.655151367188,11.896606445312
0.008,12.497192382812,-19.734252929688,7.6925048828125
0.0085,15.660278320312,-18.493041992188,3.3682861328125
0.009,18.703247070312,-17.051635742188,-1.1160888671875
0.0095,20.625122070312,-15.410034179688,-4.5994873046875
0.01,20.745239257812,-12.767456054688,-7.2020263671875
0.0105,20.344848632812,-9.2440185546875,-10.325073242188
0.011,19.463989257812,-5.0399169921875,-13.608276367188
0.0115,18.463012695312,-0.8758544921875,-16.771362304688
0.012,16.981567382812,3.1680908203125,-19.333862304688
0.0125,15.219848632812,6.0909423828125,-20.535034179688
0.013,12.577270507812,8.8536376953125,-20.815307617188
0.0135,8.1729736328125,12.216918945312,-19.934448242188
0.014,3.7686767578125,15.380004882812,-18.933471679688
0.0145,-1.1160888671875,18.543090820312,-17.492065429688
0.015,-4.9197998046875,20.464965820312,-15.890502929688
0.0155,-7.5223388671875,20.745239257812,-13.728393554688
0.016,-10.405151367188,20.464965820312,-10.725463867188
0.0165,-13.968627929688,19.463989257812,-6.2010498046875
0.017,-16.971557617188,17.942504882812,-1.8768310546875
0.0175,-19.694213867188,16.300903320312,2.4874267578125
0.018,-21.015502929688,14.419067382812,5.6905517578125
0.0185,-20.855346679688,11.576293945312,8.3331298828125
0.019,-20.214721679688,7.5323486328125,11.736450195312
0.0195,-19.213745117188,3.4483642578125,14.779418945312
0.02,-18.092651367188,-0.8758544921875,17.942504882812
0.0205,-16.611206054688,-4.5594482421875,20.184692382812
0.021,-14.449096679688,-7.1219482421875,20.745239257812
0.0215,-11.606323242188,-9.8846435546875,20.745239257812
0.022,-6.7615966796875,-13.528198242188,19.744262695312
0.0225,-2.2371826171875,-16.451049804688,18.342895507812
0.023,2.2471923828125,-19.173706054688,16.901489257812
0.0235,5.6104736328125,-20.775268554688,15.339965820312
0.024,8.2530517578125,-20.655151367188,12.817504882812
0.0245,11.255981445312,-20.174682617188,9.3341064453125
0.025,14.779418945312,-19.133666992188,4.8897705078125
0.0255,17.902465820312,-17.652221679688,0.3653564453125
0.026,20.144653320312,-15.970581054688,-3.4783935546875
0.0265,20.825317382812,-13.808471679688,-6.2811279296875
0.027,20.625122070312,-10.805541992188,-9.0438232421875
0.0275,19.864379882812,-6.2811279296875,-12.767456054688
0.028,18.783325195312,-2.4373779296875,-15.530151367188
0.0285,17.662231445312,1.7266845703125,-18.573120117188
0.029,16.140747070312,5.2100830078125,-20.535034179688
0.0295,13.458129882812,7.8126220703125,-20.535034179688
0.03,10.255004882812,10.695434570312,-20.414916992188
0.0305,5.2501220703125,14.539184570312,-19.494018554688
0.031,0.4854736328125,17.622192382812,-17.972534179688
0.0315,-3.5584716796875,19.864379882812,-16.531127929688
0.032,-6.6014404296875,21.025512695312,-14.809448242188
0.0325,-9.3641357421875,20.745239257812,-11.926635742188
0.033,-12.807495117188,19.864379882812,-7.7625732421875
0.0335,-15.970581054688,18.743286132812,-3.6385498046875
0.034,-19.213745117188,17.141723632812,1.2462158203125
0.0345,-20.975463867188,15.380004882812,4.7296142578125
0.035,-21.135620117188,12.737426757812,7.4923095703125
0.0355,-20.895385742188,9.4141845703125,10.535278320312
0.036,-19.894409179688,4.5294189453125,14.379028320312
0.0365,-18.733276367188,0.5255126953125,17.301879882812
0.037,-17.452026367188,-3.3582763671875,19.824340820312
0.0375,-15.730346679688,-6.6014404296875,21.425903320312
0.038,-12.567260742188,-9.2840576171875,21.105590820312
0.0385,-8.6033935546875,-12.527221679688,20.505004882812
0.039,-3.7987060546875,-16.010620117188,19.463989257812
0.0395,1.4464111328125,-19.213745117188,17.742309570312
0.04,5.0098876953125,-20.935424804688,16.100708007812
0.0405,7.8927001953125,-21.536010742188,13.978637695312
0.041,10.895629882812,-21.175659179688,10.775512695312
0.0415,14.739379882812,-19.894409179688,5.8106689453125
0.042,17.622192382812,-18.573120117188,1.6466064453125
0.0425,20.464965820312,-16.971557617188,-2.7977294921875
0.043,21.786254882812,-14.929565429688,-6.0809326171875
0.0435,21.425903320312,-11.766479492188,-8.8436279296875
0.044,20.945434570312,-8.0028076171875,-12.126831054688
0.0445,19.904418945312,-3.3582763671875,-15.730346679688
0.045,18.543090820312,1.2462158203125,-18.853393554688
0.0455,16.941528320312,4.6895751953125,-20.815307617188
0.046,14.819458007812,7.7725830078125,-21.856323242188
0.0465,11.296020507812,10.695434570312,-21.375854492188
0.047,6.3712158203125,14.379028320312,-20.374877929688
0.0475,1.9268798828125,17.421997070312,-19.213745117188
0.048,-3.1981201171875,20.464965820312,-17.452026367188
0.0485,-6.4813232421875,21.706176757812,-15.650268554688
0.049,-9.3240966796875,21.626098632812,-12.887573242188
0.0495,-12.327026367188,21.225708007812,-9.6043701171875
0.05,-16.210815429688,19.704223632812,-4.2791748046875
0.0505,-19.253784179688,17.982543945312,0.4454345703125
0.051,-21.335815429688,16.300903320312,4.1690673828125
0.0515,-22.256713867188,13.938598632812,7.3321533203125
0.052,-21.536010742188,10.295043945312,10.214965820312
0.0525,-20.815307617188,6.0509033203125,13.778442382812
0.053,-19.734252929688,1.7667236328125,16.941528320312
0.0535,-18.292846679688,-2.9178466796875,20.184692382812
0.054,-16.370971679688,-6.2811279296875,21.626098632812
0.0545,-13.888549804688,-8.9637451171875,22.026489257812
0.055,-10.285034179688,-11.926635742188,21.626098632812
0.0555,-4.6395263671875,-15.970581054688,20.184692382812
0.056,0.0450439453125,-18.813354492188,18.623168945312
0.0565,4.2891845703125,-21.215698242188,17.021606445312
0.057,7.4923095703125,-22.216674804688,15.019653320312
0.0575,10.535278320312,-21.576049804688,11.536254882812
0.058,13.658325195312,-20.895385742188,7.8526611328125
0.0585,17.221801757812,-19.494018554688,2.9678955078125
0.059,20.464965820312,-17.572143554688,-2.1971435546875
0.0595,21.786254882812,-15.730346679688,-5.3201904296875
0.06,22.226684570312,-13.087768554688,-8.3231201171875
0.0605,21.505981445312,-9.3240966796875,-11.326049804688
0.061,20.464965820312,-4.4393310546875,-15.129760742188
0.0615,19.263793945312,-0.3953857421875,-18.012573242188
0.062,17.942504882812,3.8087158203125,-20.895385742188
0.0625,15.660278320312,7.0919189453125,-22.016479492188
0.063,12.417114257812,9.9346923828125,-21.736206054688
0.0635,8.6534423828125,13.137817382812,-21.335815429688
0.064,3.1280517578125,16.981567382812,-19.894409179688
0.0645,-2.1170654296875,20.024536132812,-17.972534179688
0.065,-5.4803466796875,21.666137695312,-16.531127929688
0.0655,-8.6434326171875,22.426879882812,-14.248901367188
0.066,-11.886596679688,21.586059570312,-10.405151367188
0.0665,-15.329956054688,20.424926757812,-5.9207763671875
0.067,-18.493041992188,19.063598632812,-1.4364013671875
0.0675,-21.536010742188,17.101684570312,3.5684814453125
0.068,-22.376831054688,14.779418945312,6.6114501953125
0.0685,-22.296752929688,11.656372070312,9.6143798828125
0.069,-21.656127929688,7.7725830078125,12.857543945312
0.0695,-20.454956054688,2.6876220703125,16.661254882812
0.07,-18.933471679688,-1.7567138671875,19.624145507812
0.0705,-17.492065429688,-5.4002685546875,21.866333007812
0.071,-15.129760742188,-8.4832763671875,22.747192382812
0.0715,-11.165893554688,-11.526245117188,21.946411132812
0.072,-6.8016357421875,-14.969604492188,21.265747070312
0.0725,-1.5965576171875,-18.493041992188,19.704223632812
0.073,3.8087158203125,-21.455932617188,17.622192382812
0.0735,6.8516845703125,-22.376831054688,15.820434570312
0.074,9.9346923828125,-22.697143554688,13.177856445312
0.0745,13.297973632812,-21.776245117188,9.0938720703125
0.075,16.941528320312,-20.254760742188,4.0089111328125
0.0755,20.024536132812,-18.653198242188,-0.6356201171875
0.076,22.466918945312,-16.811401367188,-4.9598388671875
0.0765,22.907348632812,-14.128784179688,-7.9627685546875
0.077,22.426879882812,-10.365112304688,-11.245971679688
0.0775,21.626098632812,-6.1610107421875,-14.529174804688
0.078,20.344848632812,-1.4764404296875,-17.972534179688
0.0785,18.583129882812,3.3282470703125,-21.015502929688
0.079,16.661254882812,6.5313720703125,-22.416870117188
0.0795,14.098754882812,9.6143798828125,-22.977416992188
0.08,9.6544189453125,12.857543945312,-22.056518554688
0.0805,4.5294189453125,16.501098632812,-20.815307617188
0.081,-0.4754638671875,19.744262695312,-19.373901367188
0.0815,-5.3201904296875,22.386840820312,-17.291870117188
0.082,-8.2830810546875,22.787231445312,-15.049682617188
0.0825,-11.446166992188,22.627075195312,-11.846557617188
0.083,-14.849487304688,21.626098632812,-7.6024169921875
0.0835,-18.292846679688,19.864379882812,-2.4774169921875
0.084,-21.335815429688,17.942504882812,2.5274658203125
0.0845,-23.017456054688,15.940551757812,6.0909423828125
0.085,-23.177612304688,12.977661132812,9.1339111328125
0.0855,-22.336791992188,8.6934814453125,12.617309570312
0.086,-21.175659179688,4.1290283203125,15.980590820312
0.0865,-19.974487304688,-0.3553466796875,19.223754882812
0.087,-18.212768554688,-4.9197998046875,22.066528320312
0.0875,-15.850463867188,-7.8826904296875,22.747192382812
0.088,-12.887573242188,-10.805541992188,22.907348632812
0.0885,-8.2030029296875,-14.288940429688,21.906372070312
0.089,-2.8778076171875,-17.812377929688,20.144653320312
0.0895,2.0469970703125,-20.655151367188,18.543090820312
0.09,6.0909423828125,-22.617065429688,16.781372070312
0.0905,9.0137939453125,-22.777221679688,14.138793945312
0.091,12.296997070312,-22.136596679688,10.375122070312
0.0915,15.820434570312,-21.095581054688,5.9708251953125
0.092,19.063598632812,-19.413940429688,1.0860595703125
0.0925,21.906372070312,-17.411987304688,-3.7987060546875
0.093,22.867309570312,-15.209838867188,-6.8416748046875
0.0935,22.907348632812,-12.126831054688,-9.8846435546875
0.094,22.026489257812,-7.6024169921875,-13.488159179688
0.0945,20.705200195312,-3.0379638671875,-16.771362304688
0.095,19.343872070312,1.4464111328125,-19.854370117188
0.0955,17.702270507812,5.4903564453125,-22.296752929688
0.096,14.899536132812,8.4532470703125,-22.577026367188
0.0965,11.456176757812,11.496215820312,-22.376831054688
0.097,6.6514892578125,15.219848632812,-21.616088867188
0.0975,1.3262939453125,18.663208007812,-19.854370117188
0.098,-3.5985107421875,21.345825195312,-17.932495117188
0.0985,-7.0018310546875,22.747192382812,-16.170776367188
0.099,-10.004760742188,22.747192382812,-13.328002929688
0.0995,-13.448120117188,21.786254882812,-9.1239013671875
0.1,-16.851440429688,20.505004882812,-4.5194091796875
0.1005,-20.174682617188,18.823364257812,0.5255126953125
0.101,-22.577026367188,16.701293945312,4.9298095703125
0.1015,-22.937377929688,14.058715820312,7.8927001953125
0.102,-22.737182617188,10.575317382812,11.095825195312
0.1025,-21.776245117188,5.7706298828125,14.899536132812
0.103,-20.374877929688,1.2862548828125,18.062622070312
0.1035,-18.853393554688,-3.1981201171875,20.945434570312
0.104,-17.091674804688,-6.8416748046875,22.947387695312
0.1045,-14.048706054688,-9.7244873046875,22.907348632812
0.105,-9.9647216796875,-12.927612304688,22.146606445312
0.1055,-5.0799560546875,-16.571166992188,21.185668945312
0.106,0.4053955078125,-19.894409179688,19.383911132812
0.1065,4.9298095703125,-22.136596679688,17.421997070312
0.107,7.9727783203125,-22.897338867188,15.339965820312
0.1075,11.135864257812,-22.817260742188,12.176879882812
0.108,14.859497070312,-21.616088867188,7.3721923828125
0.1085,18.062622070312,-20.134643554688,2.8077392578125
0.109,21.305786132812,-18.332885742188,-2.2371826171875
0.1095,23.187622070312,-16.290893554688,-6.0809326171875
0.11,23.067504882812,-13.167846679688,-8.9637451171875
0.1105,22.587036132812,-9.2840576171875,-12.407104492188
0.111,21.465942382812,-4.4793701171875,-16.090698242188
0.1115,20.064575195312,0.1651611328125,-19.293823242188
0.112,18.262817382812,4.3292236328125,-21.736206054688
0.1125,16.180786132812,7.6124267578125,-23.017456054688
0.113,12.857543945312,10.575317382812,-22.857299804688
0.1135,7.9727783203125,14.258911132812,-21.776245117188
0.114,3.2481689453125,17.582153320312,-20.575073242188
0.1145,-2.2371826171875,20.865356445312,-18.733276367188
0.115,-6.2811279296875,22.707153320312,-16.811401367188
0.1155,-9.0838623046875,22.787231445312,-14.248901367188
0.116,-12.327026367188,22.466918945312,-10.885620117188
0.1165,-16.130737304688,21.025512695312,-5.7205810546875
0.117,-19.133666992188,19.343872070312,-1.1160888671875
0.1175,-21.856323242188,17.462036132812,3.4884033203125
0.118,-23.097534179688,15.179809570312,7.0118408203125
0.1185,-22.697143554688,11.776489257812,9.8946533203125
0.119,-21.976440429688,7.4122314453125,13.458129882812
0.1195,-20.775268554688,2.9278564453125,16.781372070312
0.12,-19.373901367188,-1.7967529296875,20.064575195312
0.1205,-17.452026367188,-5.6405029296875,22.026489257812
0.121,-15.089721679688,-8.4432373046875,22.546997070312
0.1215,-11.806518554688,-11.366088867188,22.386840820312
0.122,-6.3612060546875,-15.249877929688,21.065551757812
0.1225,-1.7567138671875,-18.092651367188,19.504028320312
0.123,3.1280517578125,-20.895385742188,17.782348632812
0.1235,6.6915283203125,-22.376831054688,15.940551757812
0.124,9.4542236328125,-21.976440429688,12.977661132812
0.1245,12.537231445312,-21.495971679688,9.4542236328125
0.125,16.300903320312,-20.134643554688,4.5294189453125
0.1255,19.343872070312,-18.412963867188,-0.3153076171875
0.126,21.465942382812,-16.651245117188,-4.0789794921875
0.1265,22.146606445312,-14.208862304688,-7.1219482421875
0.127,21.746215820312,-10.885620117188,-9.9647216796875
0.1275,20.865356445312,-6.1610107421875,-13.808471679688
0.128,19.704223632812,-2.2772216796875,-16.651245117188
0.1285,18.422973632812,2.0870361328125,-19.694213867188
0.129,16.581176757812,5.6905517578125,-21.495971679688
0.1295,13.738403320312,8.3731689453125,-21.375854492188
0.13,10.455200195312,11.336059570312,-21.175659179688
0.1305,5.0899658203125,15.339965820312,-20.054565429688
0.131,0.2452392578125,18.342895507812,-18.453002929688
0.1315,-3.7186279296875,20.464965820312,-16.971557617188
0.132,-6.9217529296875,21.706176757812,-15.169799804688
0.1325,-9.7645263671875,21.225708007812,-12.046752929688
0.133,-13.167846679688,20.344848632812,-7.8826904296875
0.1335,-16.370971679688,19.223754882812,-3.6785888671875
0.134,-19.534057617188,17.502075195312,1.2462158203125
0.1345,-21.135620117188,15.660278320312,4.6094970703125
0.135,-21.295776367188,13.017700195312,7.3721923828125
0.1355,-21.015502929688,9.6143798828125,10.415161132812
0.136,-20.014526367188,4.6495361328125,14.379028320312
0.1365,-18.853393554688,0.6055908203125,17.221801757812
0.137,-17.652221679688,-3.1981201171875,19.784301757812
0.1375,-15.890502929688,-6.4412841796875,21.425903320312
0.138,-12.687377929688,-9.1239013671875,20.985473632812
0.1385,-8.8436279296875,-12.327026367188,20.505004882812
0.139,-4.0389404296875,-15.850463867188,19.504028320312
0.1395,1.1661376953125,-19.013549804688,17.782348632812
0.14,4.4893798828125,-20.655151367188,16.300903320312
0.1405,7.4122314453125,-21.295776367188,14.138793945312
0.141,10.415161132812,-20.895385742188,10.975708007812
0.1415,14.218872070312,-19.734252929688,6.0909423828125
0.142,17.181762695312,-18.533081054688,1.9669189453125
0.1425,20.024536132812,-16.971557617188,-2.3973388671875
0.143,21.265747070312,-14.969604492188,-5.5203857421875
0.1435,20.985473632812,-11.886596679688,-8.2830810546875
0.144,20.545043945312,-8.3231201171875,-11.486206054688
0.1445,19.664184570312,-3.7586669921875,-15.089721679688
0.145,18.342895507812,0.7257080078125,-18.252807617188
0.1455,16.861450195312,4.1290283203125,-20.134643554688
0.146,14.859497070312,7.1319580078125,-21.255737304688
0.1465,11.376098632812,10.054809570312,-20.815307617188
0.147,6.5313720703125,13.778442382812,-19.894409179688
0.1475,2.2471923828125,16.861450195312,-18.933471679688
0.148,-2.7176513671875,19.864379882812,-17.251831054688
0.1485,-5.8406982421875,21.065551757812,-15.530151367188
0.149,-8.6434326171875,21.065551757812,-12.967651367188
0.1495,-11.606323242188,20.705200195312,-9.7244873046875
0.15,-15.450073242188,19.263793945312,-4.5594482421875
0.1505,-18.533081054688,17.662231445312,0.0450439453125
0.151,-20.575073242188,16.100708007812,3.6085205078125
0.1515,-21.455932617188,13.818481445312,6.6915283203125
0.152,-20.815307617188,10.335083007812,9.5343017578125
0.1525,-20.134643554688,6.1309814453125,13.017700195312
0.153,-19.213745117188,2.0469970703125,16.140747070312
0.1535,-17.932495117188,-2.4373779296875,19.303833007812
0.154,-16.050659179688,-5.5604248046875,20.705200195312
0.1545,-13.768432617188,-8.2030029296875,21.105590820312
0.155,-10.325073242188,-11.085815429688,20.745239257812
0.1555,-4.8797607421875,-15.009643554688,19.423950195312
0.156,-0.3953857421875,-17.892456054688,18.062622070312
0.1565,3.6485595703125,-20.214721679688,16.661254882812
0.157,6.7315673828125,-21.175659179688,14.739379882812
0.1575,9.5743408203125,-20.655151367188,11.536254882812
0.158,12.777465820312,-20.054565429688,7.8126220703125
0.1585,16.140747070312,-18.813354492188,3.2882080078125
0.159,19.263793945312,-17.051635742188,-1.5965576171875
0.1595,20.585083007812,-15.410034179688,-4.4793701171875
0.16,21.025512695312,-12.967651367188,-7.3221435546875
0.1605,20.464965820312,-9.4842529296875,-10.204956054688
0.161,19.504028320312,-4.7996826171875,-13.968627929688
0.1615,18.503051757812,-0.9158935546875,-16.771362304688
0.162,17.341918945312,3.0479736328125,-19.534057617188
0.1625,15.299926757812,6.1309814453125,-20.655151367188
0.163,12.296997070312,8.7735595703125,-20.454956054688
0.1635,8.6934814453125,11.896606445312,-20.174682617188
0.164,3.5284423828125,15.660278320312,-18.933471679688
0.1645,-1.4364013671875,18.623168945312,-17.291870117188
0.165,-4.5194091796875,20.224731445312,-16.010620117188
0.1655,-7.4822998046875,21.025512695312,-13.968627929688
0.166,-10.445190429688,20.344848632812,-10.445190429688
0.1665,-13.928588867188,19.343872070312,-6.1209716796875
0.167,-16.971557617188,18.182739257812,-1.9969482421875
0.1675,-19.854370117188,16.461059570312,2.5274658203125
0.168,-20.695190429688,14.379028320312,5.3702392578125
0.1685,-20.655151367188,11.536254882812,8.1329345703125
0.169,-20.174682617188,7.8927001953125,11.255981445312
0.1695,-19.173706054688,3.2081298828125,14.979614257812
0.17,-17.932495117188,-1.0360107421875,17.942504882812
0.1705,-16.691284179688,-4.3192138671875,20.024536132812
0.171,-14.689331054688,-7.2020263671875,21.025512695312
0.1715,-11.085815429688,-9.9647216796875,20.384887695312
0.172,-6.8817138671875,-13.408081054688,19.744262695312
0.1725,-2.1971435546875,-16.651245117188,18.543090820312
0.173,2.7276611328125,-19.494018554688,16.781372070312
0.1735,5.4503173828125,-20.494995117188,15.219848632812
0.174,8.3731689453125,-20.815307617188,12.817504882812
0.1745,11.536254882812,-20.134643554688,9.1339111328125
0.175,15.019653320312,-18.853393554688,4.4093017578125
0.1755,18.062622070312,-17.492065429688,0.1251220703125
0.176,20.264770507812,-16.010620117188,-3.6385498046875
0.1765,20.785278320312,-13.728393554688,-6.3612060546875
0.177,20.344848632812,-10.325073242188,-9.2840576171875
0.1775,19.704223632812,-6.4012451171875,-12.487182617188
0.178,18.743286132812,-2.1971435546875,-15.730346679688
