wavelength,x,y,z
0.0,24.298706054688,-3.9288330078125,-19.223754882812
0.0005,22.136596679688,0.7557373046875,-23.147583007812
0.001,19.013549804688,5.7606201171875,-24.909301757812
0.0015,15.009643554688,11.486206054688,-26.630981445312
0.002,10.044799804688,15.209838867188,-25.269653320312
0.0025,5.9608154296875,20.494995117188,-25.149536132812
0.003,2.5574951171875,21.295776367188,-22.707153320312
0.0035,-4.3692626953125,25.619995117188,-20.224731445312
0.004,-9.3341064453125,25.459838867188,-16.461059570312
0.0045,-14.379028320312,25.980346679688,-12.096801757812
0.005,-17.622192382812,25.660034179688,-8.6534423828125
0.0055,-21.385864257812,24.418823242188,-3.6885986328125
0.006,-23.427856445312,22.416870117188,0.4754638671875
0.0065,-25.589965820312,19.574096679688,5.4403076171875
0.007,-26.791137695312,15.610229492188,10.805541992188
0.0075,-24.348754882812,10.645385742188,14.569213867188
0.008,-25.830200195312,7.5223388671875,19.213745117188
0.0085,-23.427856445312,2.5975341796875,20.454956054688
0.009,-21.546020507812,-2.3272705078125,23.417846679688
0.0095,-17.822387695312,-7.1319580078125,24.498901367188
0.01,-13.818481445312,-12.657348632812,25.940307617188
0.0105,-9.0938720703125,-16.060668945312,24.659057617188
0.011,-4.7296142578125,-19.784301757812,24.058471679688
0.0115,0.1151123046875,-21.746215820312,21.255737304688
0.012,5.4803466796875,-24.629028320312,18.933471679688
0.0125,10.725463867188,-25.429809570312,14.649291992188
0.013,15.289916992188,-25.589965820312,10.285034179688
0.0135,18.693237304688,-25.670043945312,7.1619873046875
0.014,22.136596679688,-23.868286132812,1.9168701171875
0.0145,24.298706054688,-21.666137695312,-1.2862548828125
0.015,25.820190429688,-18.543090820312,-7.2520751953125
0.0155,26.781127929688,-14.459106445312,-12.337036132812
0.016,25.419799804688,-9.4942626953125,-16.020629882812
0.0165,25.459838867188,-6.2911376953125,-19.303833007812
0.017,22.617065429688,-1.1260986328125,-21.746215820312
0.0175,20.655151367188,3.9588623046875,-24.789184570312
0.018,16.130737304688,9.0037841796875,-25.149536132812
0.0185,12.046752929688,15.369995117188,-26.150512695312
0.019,7.5623779296875,17.331909179688,-24.909301757812
0.0195,2.6375732421875,20.935424804688,-23.628051757812
0.02,-2.2872314453125,22.897338867188,-20.785278320312
0.0205,-7.6124267578125,25.539916992188,-18.262817382812
0.021,-12.777465820312,25.980346679688,-13.658325195312
0.0215,-16.981567382812,25.579956054688,-9.1739501953125
0.022,-19.944458007812,25.499877929688,-6.2110595703125
0.0225,-23.187622070312,23.097534179688,-0.6055908203125
0.023,-25.349731445312,20.615112304688,4.1990966796875
0.0235,-26.190551757812,16.811401367188,8.8836669921875
0.024,-26.991333007812,12.767456054688,13.808471679688
0.0245,-25.469848632812,7.7625732421875,17.291870117188
0.025,-25.029418945312,4.3192138671875,20.334838867188
0.0255,-21.946411132812,-1.1661376953125,22.657104492188
0.026,-19.664184570312,-6.2510986328125,25.459838867188
0.0265,-14.699340820312,-11.055786132812,25.259643554688
0.027,-10.535278320312,-15.740356445312,25.780151367188
0.0275,-6.4512939453125,-18.743286132812,24.699096679688
0.028,-0.9259033203125,-21.986450195312,22.496948242188
0.0285,4.1190185546875,-23.868286132812,19.453979492188
0.029,9.6043701171875,-25.950317382812,16.170776367188
0.0295,15.369995117188,-25.990356445312,11.886596679688
0.03,18.372924804688,-25.389770507812,7.1219482421875
0.0305,21.135620117188,-25.029418945312,4.1190185546875
0.031,24.018432617188,-22.466918945312,-1.4464111328125
0.0315,26.100463867188,-19.584106445312,-6.4512939453125
0.032,26.060424804688,-15.259887695312,-10.855590820312
0.0325,26.620971679688,-11.576293945312,-15.139770507812
0.033,25.019409179688,-6.9317626953125,-18.302856445312
0.0335,23.898315429688,-2.8878173828125,-21.305786132812
0.034,20.935424804688,2.3172607421875,-23.347778320312
0.0345,17.972534179688,8.9637451171875,-25.710083007812
0.035,13.047729492188,12.086791992188,-25.189575195312
0.0355,8.6834716796875,16.451049804688,-25.109497070312
0.036,5.0799560546875,19.053588867188,-24.188598632812
0.0365,-0.7657470703125,22.256713867188,-21.666137695312
0.037,-5.4903564453125,24.018432617188,-18.783325195312
0.0375,-10.895629882812,25.339721679688,-14.779418945312
0.038,-14.699340820312,25.539916992188,-11.376098632812
0.0385,-18.583129882812,24.619018554688,-6.6514892578125
0.039,-21.145629882812,23.818237304688,-3.3682861328125
0.0395,-23.588012695312,21.175659179688,1.8367919921875
0.04,-24.348754882812,18.292846679688,6.8016357421875
0.0405,-25.029418945312,13.568237304688,10.925659179688
0.041,-25.509887695312,10.124877929688,15.009643554688
0.0415,-24.188598632812,6.1209716796875,17.652221679688
0.042,-22.627075195312,1.5965576171875,20.735229492188
0.0425,-19.944458007812,-3.0479736328125,22.617065429688
0.043,-16.541137695312,-8.4932861328125,24.619018554688
0.0435,-12.216918945312,-12.497192382812,24.298706054688
0.044,-7.7325439453125,-16.541137695312,23.818237304688
0.0445,-4.4493408203125,-18.703247070312,22.697143554688
0.045,2.5574951171875,-21.666137695312,20.134643554688
0.0455,6.0008544921875,-23.668090820312,17.411987304688
0.046,11.165893554688,-24.228637695312,12.927612304688
0.0465,14.849487304688,-24.749145507812,9.9246826171875
0.047,18.412963867188,-23.788208007812,5.6004638671875
0.0475,20.975463867188,-22.747192382812,1.9168701171875
0.048,23.097534179688,-20.224731445312,-2.8477783203125
0.0485,25.099487304688,-17.181762695312,-7.8927001953125
0.049,24.298706054688,-12.617309570312,-11.816528320312
0.0495,24.699096679688,-9.1739501953125,-15.740356445312
0.05,23.377807617188,-5.4903564453125,-18.022583007812
0.0505,21.576049804688,-0.6055908203125,-21.185668945312
0.051,18.733276367188,4.0789794921875,-22.867309570312
0.0515,14.809448242188,9.4442138671875,-24.308715820312
0.052,10.925659179688,13.207885742188,-24.228637695312
0.0525,7.6824951171875,17.091674804688,-23.547973632812
0.053,2.6776123046875,20.494995117188,-21.986450195312
0.0535,-2.7276611328125,22.096557617188,-19.584106445312
0.054,-7.8526611328125,24.058471679688,-16.541137695312
0.0545,-12.537231445312,24.058471679688,-12.016723632812
0.055,-16.140747070312,24.619018554688,-9.0938720703125
0.0555,-19.343872070312,23.337768554688,-4.6094970703125
0.056,-21.986450195312,21.896362304688,-0.5255126953125
0.0565,-23.708129882812,19.053588867188,4.1190185546875
0.057,-25.349731445312,15.450073242188,9.3240966796875
0.0575,-24.388793945312,11.005737304688,12.927612304688
0.058,-24.508911132812,7.4022216796875,16.731323242188
0.0585,-22.827270507812,3.6385498046875,18.853393554688
0.059,-20.985473632812,-1.5665283203125,22.096557617188
0.0595,-17.462036132812,-6.3712158203125,23.457885742188
0.06,-13.217895507812,-11.576293945312,25.619995117188
0.0605,-9.6143798828125,-14.979614257812,24.058471679688
0.061,-4.8497314453125,-18.543090820312,22.857299804688
0.0615,-0.6055908203125,-20.665161132812,20.855346679688
0.062,4.5194091796875,-23.147583007812,18.412963867188
0.0625,10.124877929688,-24.709106445312,14.529174804688
0.063,14.168823242188,-24.188598632812,10.004760742188
0.0635,17.812377929688,-24.749145507812,7.0418701171875
0.064,20.735229492188,-22.907348632812,2.3172607421875
0.0645,23.337768554688,-21.145629882812,-2.0870361328125
0.065,25.619995117188,-18.022583007812,-5.1300048828125
0.0655,25.499877929688,-12.817504882812,-11.576293945312
0.066,24.378784179688,-9.7745361328125,-14.739379882812
0.0665,24.058471679688,-5.9307861328125,-18.262817382812
0.067,21.896362304688,-1.8468017578125,-20.224731445312
0.0675,19.894409179688,3.1580810546875,-23.147583007812
0.068,15.810424804688,8.1629638671875,-24.068481445312
0.0685,11.366088867188,12.767456054688,-24.228637695312
0.069,8.0428466796875,16.010620117188,-24.108520507812
0.0695,2.9979248046875,20.494995117188,-22.266723632812
0.07,-1.4864501953125,21.455932617188,-20.144653320312
0.0705,-6.1710205078125,23.377807617188,-17.502075195312
0.071,-11.416137695312,24.619018554688,-13.658325195312
0.0715,-14.819458007812,23.618041992188,-9.2940673828125
0.072,-18.463012695312,24.098510742188,-6.2911376953125
0.0725,-20.825317382812,21.896362304688,-1.7266845703125
0.073,-23.427856445312,19.894409179688,2.9178466796875
0.0735,-23.908325195312,16.290893554688,7.0819091796875
0.074,-24.508911132812,12.447143554688,11.646362304688
0.0745,-23.828247070312,8.7635498046875,14.729370117188
0.075,-21.786254882812,4.5994873046875,18.092651367188
0.0755,-21.025512695312,0.7156982421875,19.934448242188
0.076,-18.743286132812,-4.1290283203125,22.456909179688
0.0765,-14.779418945312,-8.9337158203125,23.297729492188
0.077,-8.9737548828125,-12.937622070312,22.697143554688
0.0775,-7.4122314453125,-16.220825195312,23.137573242188
0.078,-2.2872314453125,-18.903442382812,20.735229492188
0.0785,2.2371826171875,-21.305786132812,18.773315429688
0.079,6.6815185546875,-22.466918945312,15.650268554688
0.0795,11.446166992188,-23.708129882812,12.166870117188
0.08,14.929565429688,-22.907348632812,8.0428466796875
0.0805,18.292846679688,-23.027465820312,4.8397216796875
0.081,20.334838867188,-21.025512695312,0.7557373046875
0.0815,22.777221679688,-19.063598632812,-3.8087158203125
0.082,24.338745117188,-15.259887695312,-7.7725830078125
0.0825,23.417846679688,-11.336059570312,-12.176879882812
0.083,23.297729492188,-8.3331298828125,-15.059692382812
0.0835,21.736206054688,-2.5675048828125,-18.062622070312
0.084,19.974487304688,0.0350341796875,-20.144653320312
0.0845,17.251831054688,4.5994873046875,-21.946411132812
0.085,13.568237304688,9.5242919921875,-23.187622070312
0.0855,10.244995117188,13.287963867188,-22.266723632812
0.086,6.1209716796875,16.330932617188,-22.506958007812
0.0865,1.1160888671875,18.853393554688,-20.024536132812
0.087,-3.2481689453125,21.495971679688,-18.463012695312
0.0875,-7.8927001953125,22.216674804688,-14.619262695312
0.088,-12.216918945312,23.297729492188,-10.255004882812
0.0885,-15.420043945312,22.737182617188,-7.8526611328125
0.089,-18.743286132812,22.096557617188,-4.0089111328125
0.0895,-20.705200195312,20.014526367188,0.0750732421875
0.09,-22.907348632812,17.732299804688,4.6395263671875
0.0905,-23.027465820312,13.848510742188,8.6834716796875
0.091,-22.947387695312,9.8045654296875,12.727416992188
0.0915,-21.786254882812,7.1619873046875,15.530151367188
0.092,-21.105590820312,2.2371826171875,18.533081054688
0.0925,-19.303833007812,-1.9268798828125,20.815307617188
0.093,-15.780395507812,-6.5313720703125,21.896362304688
0.0935,-12.497192382812,-10.935668945312,22.977416992188
0.094,-7.8526611328125,-14.579223632812,21.976440429688
0.0945,-4.5294189453125,-17.462036132812,21.536010742188
0.095,0.5555419921875,-19.744262695312,18.893432617188
0.0955,6.4012451171875,-22.346801757812,17.011596679688
0.096,9.6043701171875,-22.386840820312,12.687377929688
0.0965,13.728393554688,-23.147583007812,9.4041748046875
0.097,16.691284179688,-22.787231445312,6.1209716796875
0.0975,19.774291992188,-21.505981445312,1.7567138671875
0.098,21.696166992188,-17.942504882812,-2.3673095703125
0.0985,23.217651367188,-16.380981445312,-6.8516845703125
0.099,23.217651367188,-12.617309570312,-10.695434570312
0.0995,22.617065429688,-8.3731689453125,-14.379028320312
0.1,22.376831054688,-5.7305908203125,-16.821411132812
0.1005,20.094604492188,-0.7257080078125,-19.544067382812
0.101,18.132690429688,3.6785888671875,-21.906372070312
0.1015,13.928588867188,8.1229248046875,-22.106567382812
0.102,10.765502929688,12.046752929688,-22.867309570312
0.1025,6.5213623046875,16.651245117188,-21.906372070312
0.103,2.5174560546875,18.172729492188,-20.745239257812
0.1035,-2.0870361328125,20.174682617188,-18.302856445312
0.104,-6.8917236328125,22.416870117188,-15.900512695312
0.1045,-10.575317382812,22.136596679688,-11.896606445312
0.105,-14.619262695312,22.456909179688,-8.3731689453125
0.1055,-17.141723632812,22.056518554688,-5.6505126953125
0.106,-19.864379882812,20.334838867188,-1.1260986328125
0.1065,-21.666137695312,18.052612304688,3.0379638671875
0.107,-22.386840820312,14.689331054688,7.1619873046875
0.1075,-22.787231445312,11.486206054688,10.845581054688
0.108,-21.826293945312,7.3621826171875,14.128784179688
0.1085,-21.345825195312,4.4793701171875,16.571166992188
0.109,-17.942504882812,1.2762451171875,18.933471679688
0.1095,-17.061645507812,-4.6495361328125,21.335815429688
0.11,-12.897583007812,-8.6534423828125,21.135620117188
0.1105,-9.6944580078125,-12.377075195312,21.696166992188
0.111,-6.2110595703125,-15.179809570312,20.935424804688
0.1115,-1.8067626953125,-17.982543945312,19.333862304688
0.112,2.3572998046875,-19.824340820312,17.211791992188
0.1125,7.1619873046875,-21.505981445312,14.128784179688
0.113,10.565307617188,-21.626098632812,10.925659179688
0.1135,14.609252929688,-20.505004882812,7.1219482421875
0.114,16.891479492188,-21.385864257812,4.4793701171875
0.1145,19.494018554688,-19.544067382812,0.1551513671875
0.115,21.375854492188,-17.341918945312,-4.0089111328125
0.1155,21.455932617188,-13.578247070312,-7.9327392578125
0.116,22.216674804688,-10.775512695312,-10.255004882812
0.1165,21.255737304688,-7.0919189453125,-14.379028320312
0.117,20.374877929688,-3.5684814453125,-16.981567382812
0.1175,18.493041992188,0.5155029296875,-19.103637695312
0.118,15.770385742188,5.4002685546875,-21.305786132812
0.1185,11.846557617188,9.0037841796875,-20.985473632812
0.119,8.3231201171875,12.967651367188,-21.345825195312
0.1195,6.4012451171875,16.651245117188,-20.585083007812
0.12,0.3553466796875,18.332885742188,-18.783325195312
0.1205,-3.8087158203125,20.174682617188,-15.380004882812
0.121,-8.3731689453125,21.215698242188,-13.257934570312
0.1215,-11.656372070312,21.656127929688,-10.455200195312
0.122,-15.420043945312,21.415893554688,-6.5714111328125
0.1225,-17.582153320312,20.535034179688,-3.5684814453125
0.123,-19.904418945312,18.653198242188,0.6756591796875
0.1235,-21.666137695312,16.130737304688,5.0799560546875
0.124,-21.305786132812,12.046752929688,8.8035888671875
0.1245,-21.946411132812,9.2440185546875,12.286987304688
0.125,-20.905395507812,5.7606201171875,14.809448242188
0.1255,-19.744262695312,1.7567138671875,17.652221679688
0.126,-17.582153320312,-2.3673095703125,19.534057617188
0.1265,-14.379028320312,-7.2520751953125,21.215698242188
0.127,-10.775512695312,-10.495239257812,20.775268554688
0.1275,-7.0518798828125,-14.298950195312,20.895385742188
0.128,-3.6485595703125,-16.380981445312,19.534057617188
0.1285,1.1561279296875,-19.103637695312,17.652221679688
0.129,5.4803466796875,-20.825317382812,15.049682617188
0.1295,9.8446044921875,-21.345825195312,11.326049804688
0.13,13.247924804688,-21.906372070312,8.6033935546875
0.1305,16.451049804688,-21.105590820312,4.7196044921875
0.131,18.693237304688,-19.944458007812,1.3963623046875
0.1315,21.776245117188,-16.661254882812,-2.5274658203125
0.132,22.136596679688,-14.939575195312,-7.2120361328125
0.1325,21.255737304688,-10.975708007812,-10.375122070312
0.133,21.736206054688,-8.0528564453125,-13.818481445312
0.1335,20.414916992188,-4.5694580078125,-16.020629882812
0.134,19.053588867188,-0.3253173828125,-18.943481445312
0.1345,16.330932617188,5.1199951171875,-20.264770507812
0.135,12.847534179688,8.4432373046875,-21.345825195312
0.1355,9.4442138671875,11.766479492188,-21.225708007812
0.136,5.4002685546875,15.249877929688,-20.785278320312
0.1365,1.7567138671875,17.291870117188,-19.103637695312
0.137,-2.5274658203125,19.694213867188,-17.462036132812
0.1375,-7.2520751953125,21.295776367188,-14.419067382812
0.138,-11.055786132812,21.175659179688,-10.655395507812
0.1385,-14.379028320312,21.896362304688,-8.0528564453125
0.139,-17.261840820312,20.575073242188,-3.9288330078125
0.1395,-19.624145507812,19.293823242188,-0.2852783203125
0.14,-20.945434570312,16.891479492188,3.5584716796875
0.1405,-22.146606445312,13.728393554688,7.9627685546875
0.141,-21.345825195312,9.9647216796875,11.005737304688
0.1415,-21.666137695312,6.6815185546875,14.569213867188
0.142,-20.024536132812,3.1580810546875,16.571166992188
0.1425,-18.583129882812,-1.2462158203125,19.453979492188
0.143,-15.339965820312,-5.5704345703125,20.454956054688
0.1435,-11.696411132812,-9.9747314453125,21.175659179688
0.144,-8.6934814453125,-13.057739257812,21.255737304688
0.1445,-4.2091064453125,-16.220825195312,19.934448242188
0.145,-0.3653564453125,-18.422973632812,18.332885742188
0.1455,3.9588623046875,-19.223754882812,16.290893554688
0.146,8.6834716796875,-21.866333007812,12.967651367188
0.1465,12.126831054688,-21.225708007812,9.0838623046875
0.147,15.730346679688,-22.106567382812,7.6824951171875
0.1475,18.292846679688,-20.384887695312,2.2371826171875
0.148,20.855346679688,-18.783325195312,-2.0069580078125
0.1485,21.455932617188,-15.940551757812,-5.5303955078125
0.149,22.536987304688,-12.537231445312,-10.054809570312
0.1495,21.816284179688,-8.9337158203125,-13.017700195312
0.15,21.415893554688,-5.1700439453125,-16.380981445312
0.1505,19.494018554688,-1.3663330078125,-18.342895507812
0.151,17.812377929688,3.1580810546875,-21.065551757812
0.1515,14.048706054688,8.9637451171875,-21.826293945312
0.152,9.9647216796875,11.646362304688,-21.666137695312
0.1525,7.1619873046875,14.809448242188,-22.026489257812
0.153,2.0369873046875,17.852416992188,-19.984497070312
0.1535,-2.2471923828125,20.134643554688,-18.142700195312
0.154,-5.1300048828125,21.495971679688,-15.460083007812
0.1545,-10.855590820312,22.737182617188,-12.337036132812
0.155,-14.379028320312,21.896362304688,-8.0528564453125
0.1555,-17.622192382812,22.056518554688,-5.0499267578125
0.156,-19.904418945312,19.974487304688,-0.7257080078125
0.1565,-22.426879882812,18.092651367188,5.1199951171875
0.157,-22.426879882812,14.288940429688,8.9637451171875
0.1575,-22.987426757812,10.845581054688,11.726440429688
0.158,-22.386840820312,7.4022216796875,14.609252929688
0.1585,-21.305786132812,3.0379638671875,17.972534179688
0.159,-17.942504882812,-1.1661376953125,19.974487304688
0.1595,-16.741333007812,-5.6505126953125,22.016479492188
0.16,-13.017700195312,-9.9747314453125,22.577026367188
0.1605,-8.4932861328125,-13.938598632812,21.936401367188
0.161,-5.6505126953125,-16.701293945312,21.816284179688
0.1615,-0.2052001953125,-19.544067382812,19.253784179688
0.162,4.2791748046875,-21.946411132812,17.331909179688
0.1625,10.244995117188,-22.546997070312,13.448120117188
0.163,12.687377929688,-23.387817382812,10.685424804688
0.1635,16.370971679688,-22.546997070312,6.2811279296875
0.164,19.453979492188,-22.106567382812,2.7576904296875
0.1645,21.495971679688,-19.704223632812,-1.7667236328125
0.165,23.658081054688,-17.462036132812,-6.1710205078125
0.1655,23.177612304688,-13.257934570312,-9.9747314453125
0.166,23.457885742188,-9.5743408203125,-14.018676757812
0.1665,22.737182617188,-5.1300048828125,-16.461059570312
0.167,20.935424804688,-1.3663330078125,-19.744262695312
0.1675,18.693237304688,2.8778076171875,-21.706176757812
0.168,15.289916992188,8.9637451171875,-21.786254882812
0.1685,11.806518554688,12.807495117188,-23.427856445312
0.169,7.0018310546875,15.410034179688,-22.466918945312
0.1695,3.7987060546875,18.012573242188,-21.906372070312
0.17,-1.7266845703125,20.655151367188,-17.942504882812
0.1705,-6.2911376953125,24.338745117188,-17.101684570312
0.171,-10.775512695312,22.977416992188,-12.657348632812
0.1715,-14.379028320312,23.698120117188,-9.8946533203125
0.172,-17.622192382812,22.697143554688,-5.6905517578125
0.1725,-20.665161132812,21.576049804688,-1.5264892578125
0.173,-22.466918945312,18.933471679688,2.9979248046875
0.1735,-24.308715820312,16.130737304688,7.6024169921875
0.174,-23.467895507812,12.046752929688,11.005737304688
0.1745,-23.467895507812,8.0828857421875,15.009643554688
0.175,-22.707153320312,5.1600341796875,17.211791992188
0.1755,-19.223754882812,-0.2452392578125,20.374877929688
0.176,-18.222778320312,-4.5294189453125,22.336791992188
0.1765,-12.817504882812,-9.3341064453125,22.977416992188
0.177,-10.895629882812,-12.937622070312,23.297729492188
0.1775,-6.1309814453125,-16.501098632812,22.056518554688
0.178,-2.2872314453125,-19.063598632812,20.855346679688
