wavelength,x,y,z
0.0,-14.409057617188,-5.1199951171875,18.703247070312
0.0005,-11.926635742188,-8.0828857421875,19.343872070312
0.001,-8.3631591796875,-11.566284179688,19.263793945312
0.0015,-3.8387451171875,-14.609252929688,17.942504882812
0.002,0.3653564453125,-16.571166992188,15.980590820312
0.0025,3.8087158203125,-18.132690429688,14.379028320312
0.003,6.6514892578125,-18.773315429688,12.377075195312
0.0035,9.6143798828125,-18.933471679688,9.7344970703125
0.004,12.977661132812,-18.533081054688,6.0909423828125
0.0045,15.660278320312,-17.131713867188,2.2071533203125
0.005,17.622192382812,-15.089721679688,-1.8768310546875
0.0055,18.703247070312,-13.328002929688,-4.5994873046875
0.006,19.343872070312,-10.845581054688,-7.7225341796875
0.0065,19.423950195312,-7.6424560546875,-11.045776367188
0.007,18.863403320312,-4.1190185546875,-14.088745117188
0.0075,17.261840820312,-0.3553466796875,-16.170776367188
0.008,15.580200195312,3.1680908203125,-18.052612304688
0.0085,13.418090820312,5.9708251953125,-18.773315429688
0.009,10.815551757812,8.8135986328125,-19.093627929688
0.0095,6.8917236328125,12.497192382812,-18.853393554688
0.01,2.4874267578125,15.219848632812,-17.452026367188
0.0105,-1.7567138671875,16.981567382812,-15.249877929688
0.011,-4.6395263671875,18.222778320312,-13.808471679688
0.0115,-7.7225341796875,18.863403320312,-11.526245117188
0.012,-10.845581054688,18.743286132812,-8.5233154296875
0.0125,-13.968627929688,18.102661132812,-4.8797607421875
0.013,-16.370971679688,16.380981445312,-0.9158935546875
0.0135,-18.292846679688,14.499145507812,2.9278564453125
0.014,-19.093627929688,12.497192382812,5.6905517578125
0.0145,-19.654174804688,9.9346923828125,8.8536376953125
0.015,-19.574096679688,6.2510986328125,12.457153320312
0.0155,-18.813354492188,2.6876220703125,15.299926757812
0.016,-16.851440429688,-1.2362060546875,17.181762695312
0.0165,-15.329956054688,-4.4393310546875,18.903442382812
0.017,-12.967651367188,-7.4022216796875,19.504028320312
0.0175,-9.6444091796875,-10.565307617188,19.544067382812
0.018,-5.5203857421875,-13.888549804688,18.863403320312
0.0185,-0.9559326171875,-16.491088867188,17.101684570312
0.019,3.1680908203125,-18.212768554688,15.019653320312
0.0195,5.8907470703125,-19.053588867188,13.297973632812
0.02,9.0137939453125,-19.574096679688,10.895629882812
0.0205,12.697387695312,-19.173706054688,7.0518798828125
0.021,15.540161132812,-18.132690429688,3.3282470703125
0.0215,17.702270507812,-16.170776367188,-0.7957763671875
0.022,19.504028320312,-14.369018554688,-4.3592529296875
0.0225,19.944458007812,-11.806518554688,-7.3621826171875
0.023,20.304809570312,-8.8836669921875,-10.645385742188
0.0235,19.864379882812,-4.9998779296875,-14.088745117188
0.024,18.623168945312,-1.0760498046875,-16.811401367188
0.0245,16.421020507812,2.7677001953125,-18.533081054688
0.025,14.619262695312,5.7305908203125,-19.734252929688
0.0255,11.936645507812,8.8936767578125,-20.254760742188
0.026,7.6925048828125,12.657348632812,-19.894409179688
0.0265,3.6485595703125,15.500122070312,-18.773315429688
0.027,-1.0360107421875,17.702270507812,-16.611206054688
0.0275,-4.7996826171875,19.303833007812,-14.729370117188
0.028,-7.7225341796875,19.664184570312,-12.407104492188
0.0285,-10.725463867188,19.984497070312,-9.8846435546875
0.029,-14.569213867188,19.303833007812,-5.5203857421875
0.0295,-17.171752929688,17.662231445312,-1.3963623046875
0.03,-18.973510742188,15.500122070312,2.5675048828125
0.0305,-20.414916992188,13.578247070312,5.9307861328125
0.031,-20.735229492188,10.695434570312,9.0938720703125
0.0315,-20.775268554688,7.0919189453125,12.737426757812
0.032,-20.054565429688,3.4884033203125,15.660278320312
0.0325,-18.252807617188,-0.7557373046875,18.062622070312
0.033,-16.130737304688,-4.4793701171875,19.704223632812
0.0335,-13.808471679688,-7.3621826171875,20.224731445312
0.034,-11.165893554688,-10.325073242188,20.745239257812
0.0345,-6.1610107421875,-14.328979492188,19.904418945312
0.035,-1.7567138671875,-16.811401367188,18.222778320312
0.0355,2.4473876953125,-18.573120117188,15.980590820312
0.036,5.9307861328125,-20.014526367188,14.218872070312
0.0365,9.0137939453125,-20.054565429688,11.376098632812
0.037,12.176879882812,-20.014526367188,8.3331298828125
0.0375,15.540161132812,-19.253784179688,4.4093017578125
0.038,18.022583007812,-17.171752929688,-0.1551513671875
0.0385,19.664184570312,-15.049682617188,-3.7987060546875
0.039,20.505004882812,-12.807495117188,-6.9217529296875
0.0395,20.865356445312,-10.124877929688,-10.004760742188
0.04,20.505004882812,-5.7606201171875,-13.968627929688
0.0405,19.504028320312,-2.3172607421875,-16.451049804688
0.041,17.462036132812,1.7667236328125,-18.453002929688
0.0415,15.620239257812,5.2501220703125,-20.174682617188
0.042,12.617309570312,8.2530517578125,-20.214721679688
0.0425,9.6944580078125,11.336059570312,-20.494995117188
0.043,4.8897705078125,15.099731445312,-19.614135742188
0.0435,0.1651611328125,17.462036132812,-17.452026367188
0.044,-3.6785888671875,18.903442382812,-15.410034179688
0.0445,-6.8016357421875,20.104614257812,-13.568237304688
0.045,-9.9647216796875,20.224731445312,-10.845581054688
0.0455,-13.608276367188,19.664184570312,-6.7215576171875
0.046,-16.491088867188,18.663208007812,-3.0780029296875
0.0465,-18.733276367188,16.461059570312,1.4063720703125
0.047,-20.294799804688,14.459106445312,4.8497314453125
0.0475,-20.735229492188,11.696411132812,8.0528564453125
0.048,-21.135620117188,9.0137939453125,11.175903320312
0.0485,-20.575073242188,4.5694580078125,15.059692382812
0.049,-19.053588867188,0.6055908203125,17.542114257812
0.0495,-16.931518554688,-3.1580810546875,19.103637695312
0.05,-15.169799804688,-6.4012451171875,20.705200195312
0.0505,-11.926635742188,-9.5242919921875,20.705200195312
0.051,-7.9627685546875,-13.087768554688,20.424926757812
0.0515,-3.6385498046875,-16.170776367188,19.343872070312
0.052,1.3262939453125,-18.453002929688,16.901489257812
0.0525,4.8497314453125,-19.734252929688,14.899536132812
0.053,8.0128173828125,-20.374877929688,12.577270507812
0.0535,11.095825195312,-20.615112304688,10.054809570312
0.054,15.059692382812,-19.734252929688,5.3302001953125
0.0545,17.662231445312,-18.092651367188,1.2462158203125
0.055,19.504028320312,-16.010620117188,-2.7576904296875
0.0555,20.945434570312,-13.968627929688,-6.1209716796875
0.056,21.065551757812,-10.725463867188,-9.4842529296875
0.0565,21.145629882812,-7.5223388671875,-12.847534179688
0.057,20.464965820312,-3.5985107421875,-16.170776367188
0.0575,18.503051757812,0.8458251953125,-18.573120117188
0.058,16.260864257812,4.4493408203125,-19.894409179688
0.0585,14.058715820312,7.6124267578125,-21.015502929688
0.059,10.975708007812,10.735473632812,-21.135620117188
0.0595,5.8907470703125,14.739379882812,-20.214721679688
0.06,1.7266845703125,17.301879882812,-18.773315429688
0.0605,-2.9979248046875,19.343872070312,-16.370971679688
0.061,-6.4012451171875,20.505004882812,-14.449096679688
0.0615,-9.7645263671875,20.625122070312,-11.406127929688
0.062,-12.847534179688,20.745239257812,-8.6033935546875
0.0625,-16.611206054688,19.664184570312,-3.9588623046875
0.063,-19.093627929688,17.421997070312,0.7657470703125
0.0635,-20.575073242188,15.259887695312,4.3292236328125
0.064,-21.736206054688,12.937622070312,7.7325439453125
0.0645,-21.776245117188,9.6944580078125,11.055786132812
0.065,-21.335815429688,5.4903564453125,14.899536132812
0.0655,-20.334838867188,1.7667236328125,17.622192382812
0.066,-18.172729492188,-2.6375732421875,19.864379882812
0.0665,-15.890502929688,-6.1209716796875,21.105590820312
0.067,-12.967651367188,-9.3240966796875,21.505981445312
0.0675,-9.8045654296875,-12.567260742188,21.666137695312
0.068,-4.3192138671875,-16.451049804688,20.264770507812
0.0685,0.4854736328125,-18.653198242188,17.982543945312
0.069,4.4493408203125,-20.294799804688,15.860473632812
0.0695,7.8126220703125,-21.295776367188,13.778442382812
0.07,11.255981445312,-21.135620117188,10.375122070312
0.0705,14.659301757812,-20.695190429688,6.6915283203125
0.071,17.782348632812,-19.413940429688,2.4473876953125
0.0715,20.104614257812,-16.851440429688,-2.4373779296875
0.072,21.265747070312,-14.729370117188,-5.7205810546875
0.0725,21.906372070312,-11.926635742188,-9.1639404296875
0.073,21.906372070312,-8.7235107421875,-12.367065429688
0.0735,21.145629882812,-4.1990966796875,-16.170776367188
0.074,19.504028320312,-0.1951904296875,-18.493041992188
0.0745,17.301879882812,3.8487548828125,-20.374877929688
0.075,15.059692382812,7.1719970703125,-21.495971679688
0.0755,11.536254882812,10.535278320312,-21.415893554688
0.076,7.8927001953125,13.938598632812,-21.335815429688
0.0765,2.8878173828125,17.341918945312,-19.894409179688
0.077,-2.2371826171875,19.383911132812,-17.171752929688
0.0775,-5.6004638671875,20.545043945312,-15.209838867188
0.078,-8.9637451171875,21.385864257812,-12.847534179688
0.0785,-12.327026367188,21.145629882812,-9.5643310546875
0.079,-16.010620117188,20.264770507812,-5.1199951171875
0.0795,-18.653198242188,18.583129882812,-0.9158935546875
0.08,-20.735229492188,16.140747070312,3.6485595703125
0.0805,-21.696166992188,13.818481445312,6.8516845703125
0.081,-22.096557617188,10.535278320312,10.535278320312
0.0815,-22.056518554688,7.1719970703125,13.858520507812
0.082,-21.175659179688,2.8878173828125,17.341918945312
0.0825,-18.933471679688,-1.5565185546875,19.504028320312
0.083,-16.811401367188,-5.1600341796875,21.105590820312
0.0835,-14.529174804688,-8.4832763671875,22.146606445312
0.084,-10.725463867188,-11.886596679688,21.866333007812
0.0845,-6.2010498046875,-15.530151367188,21.185668945312
0.085,-1.3963623046875,-18.533081054688,19.504028320312
0.0855,3.6885986328125,-20.494995117188,16.781372070312
0.086,6.8516845703125,-21.335815429688,14.739379882812
0.0865,10.415161132812,-21.856323242188,11.816528320312
0.087,13.898559570312,-21.536010742188,8.2930908203125
0.0875,17.462036132812,-20.374877929688,3.6885986328125
0.088,19.904418945312,-18.172729492188,-0.9559326171875
0.0885,21.786254882812,-15.890502929688,-5.0399169921875
0.089,22.506958007812,-13.328002929688,-8.4031982421875
0.0895,22.627075195312,-9.7645263671875,-12.126831054688
0.09,22.146606445312,-5.7205810546875,-15.650268554688
0.0905,21.065551757812,-1.5565185546875,-18.733276367188
0.091,18.463012695312,3.1680908203125,-20.815307617188
0.0915,16.180786132812,6.5313720703125,-21.936401367188
0.092,13.378051757812,9.9747314453125,-22.697143554688
0.0925,9.1339111328125,13.738403320312,-22.296752929688
0.093,4.1690673828125,17.221801757812,-21.055541992188
0.0935,-0.7156982421875,19.664184570312,-18.893432617188
0.094,-5.3602294921875,21.546020507812,-16.411010742188
0.0945,-8.4832763671875,22.066528320312,-14.008666992188
0.095,-12.166870117188,22.266723632812,-10.765502929688
0.0955,-15.890502929688,21.666137695312,-6.6414794921875
0.096,-19.093627929688,20.064575195312,-1.9569091796875
0.0965,-21.295776367188,17.462036132812,2.8477783203125
0.097,-22.817260742188,15.139770507812,6.5714111328125
0.0975,-23.377807617188,12.096801757812,10.174926757812
0.098,-23.337768554688,8.2530517578125,14.098754882812
0.0985,-22.456909179688,3.9688720703125,17.542114257812
0.099,-20.775268554688,-0.5155029296875,20.264770507812
0.0995,-18.172729492188,-5.0399169921875,22.266723632812
0.1,-15.530151367188,-8.2830810546875,22.907348632812
0.1005,-12.367065429688,-11.806518554688,23.347778320312
0.101,-7.6024169921875,-15.770385742188,22.747192382812
0.1015,-2.4373779296875,-18.933471679688,20.905395507812
0.102,2.6075439453125,-20.975463867188,18.222778320312
0.1025,6.7315673828125,-22.536987304688,15.980590820312
0.103,10.134887695312,-22.777221679688,13.057739257812
0.1035,13.738403320312,-22.617065429688,9.4942626953125
0.104,17.462036132812,-21.736206054688,5.0899658203125
0.1045,20.424926757812,-19.654174804688,0.1251220703125
0.105,22.426879882812,-16.931518554688,-4.5594482421875
0.1055,23.307739257812,-14.449096679688,-8.0028076171875
0.106,23.668090820312,-11.085815429688,-11.686401367188
0.1065,23.307739257812,-6.7215576171875,-15.690307617188
0.107,22.106567382812,-2.5975341796875,-18.653198242188
0.1075,19.864379882812,1.9669189453125,-20.895385742188
0.108,17.421997070312,6.1309814453125,-22.777221679688
0.1085,14.338989257812,9.4141845703125,-23.017456054688
0.109,10.895629882812,12.817504882812,-23.097534179688
0.1095,5.8507080078125,16.781372070312,-22.216674804688
0.11,0.6456298828125,19.664184570312,-20.134643554688
0.1105,-4.1590576171875,21.345825195312,-17.291870117188
0.111,-7.6824951171875,22.466918945312,-15.209838867188
0.1115,-11.245971679688,22.707153320312,-12.046752929688
0.112,-14.929565429688,22.066528320312,-7.9627685546875
0.1125,-18.212768554688,21.025512695312,-3.7987060546875
0.113,-20.815307617188,18.583129882812,1.2462158203125
0.1135,-22.657104492188,16.020629882812,5.5303955078125
0.114,-23.137573242188,13.257934570312,8.8135986328125
0.1145,-23.537963867188,10.014770507812,12.457153320312
0.115,-22.897338867188,5.4102783203125,16.501098632812
0.1155,-21.495971679688,1.2061767578125,19.343872070312
0.116,-18.933471679688,-3.1981201171875,21.145629882812
0.1165,-16.851440429688,-6.9217529296875,22.867309570312
0.117,-13.608276367188,-10.244995117188,23.027465820312
0.1175,-9.4442138671875,-13.968627929688,22.707153320312
0.118,-4.7996826171875,-17.331909179688,21.586059570312
0.1185,0.6456298828125,-20.014526367188,19.183715820312
0.119,5.0899658203125,-21.616088867188,16.581176757812
0.1195,8.2530517578125,-22.216674804688,14.218872070312
0.12,11.736450195312,-22.536987304688,11.336059570312
0.1205,15.780395507812,-21.656127929688,6.5313720703125
0.121,18.623168945312,-20.174682617188,2.3673095703125
0.1215,20.825317382812,-17.772338867188,-2.2772216796875
0.122,22.546997070312,-15.450073242188,-6.2010498046875
0.1225,22.707153320312,-12.206909179688,-9.5643310546875
0.123,22.907348632812,-8.8436279296875,-13.127807617188
0.1235,22.146606445312,-4.5594482421875,-16.731323242188
0.124,20.464965820312,0.0050048828125,-19.534057617188
0.1245,17.822387695312,4.1290283203125,-21.095581054688
0.125,15.620239257812,7.4522705078125,-22.296752929688
0.1255,12.497192382812,10.815551757812,-22.617065429688
0.126,7.5323486328125,14.859497070312,-21.936401367188
0.1265,3.2081298828125,17.742309570312,-20.615112304688
0.127,-1.9569091796875,20.064575195312,-18.092651367188
0.1275,-5.9608154296875,21.626098632812,-15.890502929688
0.128,-9.2440185546875,21.826293945312,-13.047729492188
0.1285,-12.527221679688,22.066528320312,-10.244995117188
0.129,-16.651245117188,21.105590820312,-5.4002685546875
0.1295,-19.373901367188,19.063598632812,-0.7957763671875
0.13,-21.215698242188,16.741333007812,3.5284423828125
0.1305,-22.697143554688,14.459106445312,7.1719970703125
0.131,-22.817260742188,11.095825195312,10.695434570312
0.1315,-22.737182617188,7.0518798828125,14.659301757812
0.132,-21.856323242188,3.1680908203125,17.742309570312
0.1325,-19.814331054688,-1.4764404296875,20.264770507812
0.133,-17.331909179688,-5.5203857421875,21.906372070312
0.1335,-14.609252929688,-8.7235107421875,22.426879882812
0.134,-11.606323242188,-12.046752929688,22.907348632812
0.1345,-5.9608154296875,-16.370971679688,21.786254882812
0.135,-1.2362060546875,-18.933471679688,19.784301757812
0.1355,3.3682861328125,-20.775268554688,17.341918945312
0.136,7.1719970703125,-22.216674804688,15.259887695312
0.1365,10.695434570312,-22.136596679688,11.856567382812
0.137,14.098754882812,-21.936401367188,8.4532470703125
0.1375,17.742309570312,-21.015502929688,3.9688720703125
0.138,20.344848632812,-18.453002929688,-1.0760498046875
0.1385,21.906372070312,-16.050659179688,-4.9598388671875
0.139,22.787231445312,-13.448120117188,-8.4031982421875
0.1395,23.027465820312,-10.325073242188,-11.766479492188
0.14,22.426879882812,-5.5604248046875,-16.010620117188
0.1405,21.105590820312,-1.7166748046875,-18.573120117188
0.141,18.823364257812,2.7276611328125,-20.695190429688
0.1415,16.621215820312,6.5313720703125,-22.296752929688
0.142,13.097778320312,9.8546142578125,-22.256713867188
0.1425,9.8546142578125,13.217895507812,-22.456909179688
0.143,4.5294189453125,17.141723632812,-21.215698242188
0.1435,-0.6756591796875,19.504028320312,-18.693237304688
0.144,-4.6395263671875,20.905395507812,-16.411010742188
0.1445,-8.1629638671875,21.986450195312,-14.248901367188
0.145,-11.526245117188,21.906372070312,-11.005737304688
0.1455,-15.369995117188,21.105590820312,-6.6014404296875
0.146,-18.292846679688,19.864379882812,-2.5574951171875
0.1465,-20.575073242188,17.421997070312,2.2471923828125
0.147,-21.976440429688,15.099731445312,5.8907470703125
0.1475,-22.416870117188,12.016723632812,9.3741455078125
0.148,-22.697143554688,9.0538330078125,12.617309570312
0.1485,-21.936401367188,4.3292236328125,16.621215820312
0.149,-20.134643554688,0.1251220703125,19.103637695312
0.1495,-17.812377929688,-3.8387451171875,20.705200195312
0.15,-15.850463867188,-7.3221435546875,22.266723632812
0.1505,-12.206909179688,-10.605346679688,22.066528320312
0.151,-8.0028076171875,-14.288940429688,21.666137695312
0.1515,-3.3983154296875,-17.452026367188,20.384887695312
0.152,1.8468017578125,-19.694213867188,17.742309570312
0.1525,5.4903564453125,-21.015502929688,15.500122070312
0.153,8.8135986328125,-21.536010742188,12.977661132812
0.1535,12.016723632812,-21.656127929688,10.174926757812
0.154,15.980590820312,-20.535034179688,5.2901611328125
0.1545,18.543090820312,-18.733276367188,1.0059814453125
0.155,20.424926757812,-16.531127929688,-3.0780029296875
0.1555,21.746215820312,-14.328979492188,-6.5614013671875
0.156,21.786254882812,-10.925659179688,-9.9647216796875
0.1565,21.826293945312,-7.6024169921875,-13.448120117188
0.157,21.105590820312,-3.5584716796875,-16.731323242188
0.1575,19.023559570312,0.9659423828125,-19.133666992188
0.158,16.701293945312,4.4893798828125,-20.454956054688
0.1585,14.459106445312,7.8126220703125,-21.536010742188
0.159,11.215942382812,11.015747070312,-21.656127929688
0.1595,6.0909423828125,15.019653320312,-20.615112304688
0.16,1.8868408203125,17.582153320312,-19.173706054688
0.1605,-2.7576904296875,19.504028320312,-16.811401367188
0.161,-6.2010498046875,20.665161132812,-14.809448242188
0.1615,-9.6043701171875,20.785278320312,-11.726440429688
0.162,-12.807495117188,20.825317382812,-8.7635498046875
0.1625,-16.411010742188,19.824340820312,-4.2391357421875
0.163,-18.813354492188,17.542114257812,0.4053955078125
0.1635,-20.334838867188,15.460083007812,3.8887939453125
0.164,-21.455932617188,13.137817382812,7.2921142578125
0.1645,-21.495971679688,10.054809570312,10.455200195312
0.165,-21.135620117188,5.8907470703125,14.338989257812
0.1655,-20.134643554688,2.2471923828125,17.021606445312
0.166,-18.132690429688,-2.0770263671875,19.223754882812
0.1665,-16.010620117188,-5.4403076171875,20.545043945312
0.167,-13.207885742188,-8.6033935546875,20.985473632812
0.1675,-10.124877929688,-11.806518554688,21.185668945312
0.168,-4.8397216796875,-15.570190429688,19.904418945312
0.1685,-0.2752685546875,-17.852416992188,17.782348632812
0.169,3.5284423828125,-19.413940429688,15.780395507812
0.1695,6.8116455078125,-20.494995117188,13.818481445312
0.17,10.054809570312,-20.374877929688,10.735473632812
0.1705,13.498168945312,-19.934448242188,7.0919189453125
0.171,16.461059570312,-18.853393554688,3.1680908203125
0.1715,18.663208007812,-16.531127929688,-1.3963623046875
0.172,19.864379882812,-14.569213867188,-4.5194091796875
0.1725,20.545043945312,-11.926635742188,-7.8026123046875
0.173,20.745239257812,-9.1639404296875,-10.805541992188
0.1735,20.184692382812,-4.8397216796875,-14.489135742188
0.174,18.703247070312,-1.1160888671875,-16.811401367188
0.1745,16.781372070312,2.6075439453125,-18.613159179688
0.175,14.819458007812,5.8106689453125,-19.934448242188
0.1755,11.736450195312,8.8536376953125,-19.934448242188
0.176,8.2530517578125,12.256958007812,-19.974487304688
0.1765,3.8087158203125,15.420043945312,-18.893432617188
0.177,-0.9959716796875,17.502075195312,-16.491088867188
0.1775,-4.1190185546875,18.703247070312,-14.809448242188
0.178,-7.2821044921875,19.584106445312,-12.687377929688
