wavelength,x,y,z
0.0,-5.755615234375,0.210205078125,5.295166015625
0.0005,-5.635498046875,1.531494140625,4.093994140625
0.001,-5.315185546875,2.572509765625,2.972900390625
0.0015,-4.834716796875,3.333251953125,1.851806640625
0.002,-4.474365234375,4.134033203125,0.970947265625
0.0025,-3.953857421875,4.694580078125,0.010009765625
0.003,-3.313232421875,5.255126953125,-1.191162109375
0.0035,-2.072021484375,5.415283203125,-2.512451171875
0.004,-0.790771484375,5.135009765625,-3.593505859375
0.0045,0.050048828125,5.094970703125,-4.314208984375
0.005,0.850830078125,5.054931640625,-5.114990234375
0.0055,1.891845703125,4.814697265625,-6.035888671875
0.006,3.253173828125,3.613525390625,-6.436279296875
0.0065,4.093994140625,2.412353515625,-6.396240234375
0.007,4.734619140625,1.211181640625,-6.035888671875
0.0075,5.054931640625,0.370361328125,-5.835693359375
0.008,5.335205078125,-0.630615234375,-5.475341796875
0.0085,5.615478515625,-1.631591796875,-5.155029296875
0.009,5.335205078125,-2.952880859375,-3.793701171875
0.0095,4.774658203125,-4.033935546875,-2.392333984375
0.01,4.294189453125,-4.634521484375,-1.391357421875
0.0105,3.893798828125,-5.275146484375,-0.550537109375
0.011,3.413330078125,-5.875732421875,0.530517578125
0.0115,2.212158203125,-6.236083984375,2.052001953125
0.012,0.970947265625,-6.236083984375,3.213134765625
0.0125,-0.270263671875,-5.915771484375,4.093994140625
0.013,-0.950927734375,-5.915771484375,4.814697265625
0.0135,-1.911865234375,-5.635498046875,5.615478515625
0.014,-2.912841796875,-5.315185546875,6.536376953125
0.0145,-4.434326171875,-3.713623046875,6.696533203125
0.015,-5.195068359375,-2.272216796875,6.376220703125
0.0155,-5.595458984375,-1.271240234375,5.975830078125
0.016,-5.835693359375,-0.430419921875,5.735595703125
0.0165,-6.115966796875,0.690673828125,5.255126953125
0.017,-6.115966796875,1.971923828125,4.214111328125
0.0175,-5.835693359375,3.133056640625,3.052978515625
0.018,-5.074951171875,4.053955078125,1.611572265625
0.0185,-4.514404296875,4.654541015625,0.650634765625
0.019,-3.953857421875,5.135009765625,-0.430419921875
0.0195,-3.393310546875,5.775634765625,-1.471435546875
0.02,-1.751708984375,5.815673828125,-3.193115234375
0.0205,-0.390380859375,5.615478515625,-4.314208984375
0.021,0.570556640625,5.375244140625,-4.994873046875
0.0215,1.291259765625,5.255126953125,-5.715576171875
0.022,2.492431640625,4.734619140625,-6.476318359375
0.0225,3.773681640625,3.773681640625,-7.116943359375
0.023,4.774658203125,2.452392578125,-7.076904296875
0.0235,5.415283203125,0.930908203125,-6.476318359375
0.024,5.615478515625,0.010009765625,-6.115966796875
0.0245,5.815673828125,-1.071044921875,-5.675537109375
0.025,5.935791015625,-2.072021484375,-5.155029296875
0.0255,5.615478515625,-3.673583984375,-3.553466796875
0.026,5.135009765625,-4.594482421875,-2.232177734375
0.0265,4.494384765625,-5.235107421875,-1.111083984375
0.027,3.933837890625,-5.755615234375,-0.190185546875
0.0275,3.213134765625,-6.236083984375,0.930908203125
0.028,2.292236328125,-6.716552734375,2.212158203125
0.0285,0.810791015625,-6.596435546875,3.653564453125
0.029,-0.710693359375,-6.156005859375,4.654541015625
0.0295,-1.391357421875,-6.035888671875,5.255126953125
0.03,-2.232177734375,-5.755615234375,5.935791015625
0.0305,-3.353271484375,-5.315185546875,6.896728515625
0.031,-4.754638671875,-3.833740234375,7.056884765625
0.0315,-5.515380859375,-2.512451171875,6.896728515625
0.032,-5.955810546875,-1.271240234375,6.296142578125
0.0325,-6.075927734375,-0.310302734375,5.895751953125
0.033,-6.276123046875,0.690673828125,5.375244140625
0.0335,-6.436279296875,1.731689453125,4.814697265625
0.034,-6.035888671875,3.173095703125,3.213134765625
0.0345,-5.275146484375,4.214111328125,1.731689453125
0.035,-4.634521484375,4.814697265625,0.690673828125
0.0355,-4.114013671875,5.295166015625,-0.310302734375
0.036,-3.513427734375,5.815673828125,-1.351318359375
0.0365,-2.072021484375,6.055908203125,-2.952880859375
0.037,-0.750732421875,5.935791015625,-4.154052734375
0.0375,0.530517578125,5.495361328125,-4.954833984375
0.038,1.251220703125,5.375244140625,-5.635498046875
0.0385,2.212158203125,4.974853515625,-6.356201171875
0.039,3.173095703125,4.574462890625,-7.156982421875
0.0395,4.614501953125,2.892822265625,-7.197021484375
0.04,5.335205078125,1.331298828125,-6.716552734375
0.0405,5.735595703125,0.290283203125,-6.396240234375
0.041,5.775634765625,-0.670654296875,-5.915771484375
0.0415,5.895751953125,-1.671630859375,-5.435302734375
0.042,5.895751953125,-2.952880859375,-4.194091796875
0.0425,5.495361328125,-4.154052734375,-3.032958984375
0.043,4.734619140625,-4.994873046875,-1.551513671875
0.0435,4.134033203125,-5.595458984375,-0.550537109375
0.044,3.573486328125,-6.075927734375,0.490478515625
0.0445,3.052978515625,-6.676513671875,1.451416015625
0.045,1.331298828125,-6.676513671875,3.133056640625
0.0455,-0.150146484375,-6.356201171875,4.294189453125
0.046,-0.990966796875,-6.156005859375,4.974853515625
0.0465,-1.671630859375,-6.035888671875,5.615478515625
0.047,-2.832763671875,-5.555419921875,6.456298828125
0.0475,-4.033935546875,-4.634521484375,7.056884765625
0.048,-5.155029296875,-3.233154296875,7.056884765625
0.0485,-5.755615234375,-1.791748046875,6.296142578125
0.049,-6.075927734375,-0.790771484375,6.015869140625
0.0495,-6.236083984375,0.250244140625,5.615478515625
0.05,-6.396240234375,1.291259765625,5.295166015625
0.0505,-6.115966796875,2.732666015625,3.693603515625
0.051,-5.635498046875,3.773681640625,2.412353515625
0.0515,-4.914794921875,4.494384765625,1.171142578125
0.052,-4.394287109375,5.094970703125,0.210205078125
0.0525,-3.753662109375,5.575439453125,-0.910888671875
0.053,-2.872802734375,6.055908203125,-2.192138671875
0.0535,-1.351318359375,6.015869140625,-3.593505859375
0.054,0.210205078125,5.535400390625,-4.674560546875
0.0545,0.930908203125,5.455322265625,-5.355224609375
0.055,1.771728515625,5.175048828125,-6.115966796875
0.0555,2.812744140625,4.814697265625,-6.956787109375
0.056,4.294189453125,3.333251953125,-7.197021484375
0.0565,5.094970703125,1.971923828125,-7.076904296875
0.057,5.575439453125,0.610595703125,-6.516357421875
0.0575,5.775634765625,-0.390380859375,-6.156005859375
0.058,6.015869140625,-1.431396484375,-5.715576171875
0.0585,6.135986328125,-2.432373046875,-5.074951171875
0.059,5.695556640625,-3.873779296875,-3.393310546875
0.0595,4.974853515625,-4.954833984375,-1.871826171875
0.06,4.374267578125,-5.475341796875,-0.790771484375
0.0605,3.853759765625,-6.035888671875,0.210205078125
0.061,3.173095703125,-6.596435546875,1.291259765625
0.0615,1.691650390625,-6.796630859375,2.892822265625
0.062,0.330322265625,-6.636474609375,4.134033203125
0.0625,-0.950927734375,-6.156005859375,4.934814453125
0.063,-1.631591796875,-6.035888671875,5.575439453125
0.0635,-2.672607421875,-5.635498046875,6.336181640625
0.064,-3.673583984375,-5.195068359375,7.136962890625
0.0645,-5.114990234375,-3.473388671875,7.136962890625
0.065,-5.795654296875,-1.951904296875,6.656494140625
0.0655,-6.115966796875,-0.910888671875,6.176025390625
0.066,-6.356201171875,0.130126953125,5.895751953125
0.0665,-6.396240234375,1.091064453125,5.295166015625
0.067,-6.276123046875,2.492431640625,4.093994140625
0.0675,-5.835693359375,3.573486328125,2.812744140625
0.068,-4.994873046875,4.454345703125,1.291259765625
0.0685,-4.514404296875,4.974853515625,0.370361328125
0.069,-3.833740234375,5.455322265625,-0.670654296875
0.0695,-3.313232421875,6.015869140625,-1.671630859375
0.07,-1.631591796875,5.975830078125,-3.273193359375
0.0705,-0.190185546875,5.655517578125,-4.434326171875
0.071,0.770751953125,5.375244140625,-5.074951171875
0.0715,1.451416015625,5.255126953125,-5.755615234375
0.072,2.492431640625,4.814697265625,-6.516357421875
0.0725,3.653564453125,3.893798828125,-7.076904296875
0.073,4.654541015625,2.572509765625,-7.076904296875
0.0735,5.255126953125,1.051025390625,-6.436279296875
0.074,5.455322265625,0.250244140625,-6.035888671875
0.0745,5.695556640625,-0.790771484375,-5.715576171875
0.075,5.935791015625,-1.591552734375,-5.475341796875
0.0755,5.615478515625,-3.072998046875,-3.913818359375
0.076,5.215087890625,-4.154052734375,-2.672607421875
0.0765,4.494384765625,-4.834716796875,-1.431396484375
0.077,4.093994140625,-5.515380859375,-0.550537109375
0.0775,3.493408203125,-6.075927734375,0.530517578125
0.078,2.692626953125,-6.516357421875,1.651611328125
0.0785,1.331298828125,-6.476318359375,3.012939453125
0.079,-0.230224609375,-6.075927734375,4.093994140625
0.0795,-0.950927734375,-6.035888671875,4.814697265625
0.08,-1.751708984375,-5.875732421875,5.575439453125
0.0805,-2.672607421875,-5.715576171875,6.456298828125
0.081,-4.114013671875,-4.274169921875,6.696533203125
0.0815,-4.994873046875,-3.032958984375,6.576416015625
0.082,-5.395263671875,-1.751708984375,6.095947265625
0.0825,-5.755615234375,-0.830810546875,5.895751953125
0.083,-6.035888671875,0.170166015625,5.495361328125
0.0835,-6.236083984375,1.131103515625,5.094970703125
0.084,-5.875732421875,2.252197265625,3.693603515625
0.0845,-5.195068359375,3.493408203125,2.212158203125
0.085,-4.674560546875,4.134033203125,1.211181640625
0.0855,-4.234130859375,4.734619140625,0.290283203125
0.086,-3.833740234375,5.375244140625,-0.710693359375
0.0865,-2.592529296875,5.615478515625,-2.152099609375
0.087,-1.351318359375,5.575439453125,-3.273193359375
0.0875,-0.190185546875,5.215087890625,-4.154052734375
0.088,0.610595703125,5.215087890625,-4.914794921875
0.0885,1.531494140625,4.974853515625,-5.715576171875
0.089,2.412353515625,4.774658203125,-6.556396484375
0.0895,3.693603515625,3.293212890625,-6.676513671875
0.09,4.454345703125,1.891845703125,-6.276123046875
0.0905,4.934814453125,0.890869140625,-5.955810546875
0.091,5.255126953125,0.050048828125,-5.755615234375
0.0915,5.535400390625,-0.910888671875,-5.475341796875
0.092,5.415283203125,-2.192138671875,-4.594482421875
0.0925,5.215087890625,-3.113037109375,-3.513427734375
0.093,4.534423828125,-3.993896484375,-2.192138671875
0.0935,4.134033203125,-4.714599609375,-1.231201171875
0.094,3.733642578125,-5.275146484375,-0.310302734375
0.0945,3.453369140625,-5.995849609375,0.610595703125
0.095,2.011962890625,-6.035888671875,1.971923828125
0.0955,0.730712890625,-5.835693359375,3.133056640625
0.096,-0.270263671875,-5.755615234375,3.893798828125
0.0965,-0.950927734375,-5.795654296875,4.654541015625
0.097,-1.911865234375,-5.635498046875,5.575439453125
0.0975,-2.992919921875,-5.034912109375,6.135986328125
0.098,-3.873779296875,-3.873779296875,6.256103515625
0.0985,-4.674560546875,-2.432373046875,5.895751953125
0.099,-5.155029296875,-1.551513671875,5.695556640625
0.0995,-5.435302734375,-0.670654296875,5.495361328125
0.1,-5.835693359375,0.050048828125,5.495361328125
0.1005,-5.595458984375,1.331298828125,4.214111328125
0.101,-5.275146484375,2.372314453125,3.133056640625
0.1015,-4.794677734375,3.173095703125,2.052001953125
0.102,-4.474365234375,3.893798828125,1.131103515625
0.1025,-4.114013671875,4.614501953125,0.210205078125
0.103,-3.513427734375,5.175048828125,-0.910888671875
0.1035,-2.352294921875,5.295166015625,-2.072021484375
0.104,-1.031005859375,4.974853515625,-3.193115234375
0.1045,-0.310302734375,5.014892578125,-3.953857421875
0.105,0.610595703125,5.014892578125,-4.834716796875
0.1055,1.411376953125,5.014892578125,-5.755615234375
0.106,2.692626953125,3.933837890625,-6.035888671875
0.1065,3.613525390625,2.812744140625,-6.115966796875
0.107,4.214111328125,1.651611328125,-5.795654296875
0.1075,4.654541015625,0.890869140625,-5.755615234375
0.108,5.014892578125,0.010009765625,-5.555419921875
0.1085,5.295166015625,-0.950927734375,-5.315185546875
0.109,5.094970703125,-2.031982421875,-4.234130859375
0.1095,4.614501953125,-3.072998046875,-2.872802734375
0.11,4.214111328125,-3.833740234375,-1.951904296875
0.1105,3.973876953125,-4.554443359375,-1.151123046875
0.111,3.773681640625,-5.315185546875,-0.310302734375
0.1115,2.732666015625,-5.635498046875,1.051025390625
0.112,1.691650390625,-5.755615234375,2.132080078125
0.1125,0.650634765625,-5.595458984375,3.012939453125
0.113,-0.190185546875,-5.755615234375,3.853759765625
0.1135,-1.071044921875,-5.715576171875,4.734619140625
0.114,-1.951904296875,-5.635498046875,5.655517578125
0.1145,-3.153076171875,-4.394287109375,5.895751953125
0.115,-3.993896484375,-3.072998046875,5.655517578125
0.1155,-4.554443359375,-2.112060546875,5.535400390625
0.116,-4.994873046875,-1.391357421875,5.495361328125
0.1165,-5.435302734375,-0.630615234375,5.415283203125
0.117,-5.435302734375,0.570556640625,4.734619140625
0.1175,-5.355224609375,1.491455078125,3.853759765625
0.118,-4.834716796875,2.412353515625,2.652587890625
0.1185,-4.514404296875,3.213134765625,1.731689453125
0.119,-4.234130859375,3.973876953125,0.850830078125
0.1195,-4.073974609375,4.774658203125,0.050048828125
0.12,-2.912841796875,4.934814453125,-1.311279296875
0.1205,-1.711669921875,4.814697265625,-2.432373046875
0.121,-0.950927734375,4.854736328125,-3.233154296875
0.1215,-0.230224609375,4.974853515625,-4.154052734375
0.122,0.810791015625,5.054931640625,-5.034912109375
0.1225,1.931884765625,4.454345703125,-5.755615234375
0.123,2.932861328125,3.493408203125,-5.955810546875
0.1235,3.773681640625,2.172119140625,-5.715576171875
0.124,4.294189453125,1.291259765625,-5.675537109375
0.1245,4.654541015625,0.490478515625,-5.515380859375
0.125,5.175048828125,-0.310302734375,-5.635498046875
0.1255,5.014892578125,-1.511474609375,-4.514404296875
0.126,4.774658203125,-2.552490234375,-3.473388671875
0.1265,4.414306640625,-3.313232421875,-2.512451171875
0.127,4.134033203125,-4.154052734375,-1.591552734375
0.1275,3.853759765625,-4.874755859375,-0.670654296875
0.128,3.293212890625,-5.515380859375,0.450439453125
0.1285,2.252197265625,-5.755615234375,1.571533203125
0.129,1.010986328125,-5.595458984375,2.652587890625
0.1295,0.250244140625,-5.715576171875,3.453369140625
0.13,-0.630615234375,-5.635498046875,4.414306640625
0.1305,-1.511474609375,-5.755615234375,5.415283203125
0.131,-2.832763671875,-4.594482421875,5.775634765625
0.1315,-3.713623046875,-3.513427734375,5.775634765625
0.132,-4.434326171875,-2.432373046875,5.615478515625
0.1325,-4.954833984375,-1.591552734375,5.575439453125
0.133,-5.275146484375,-0.710693359375,5.415283203125
0.1335,-5.635498046875,0.250244140625,5.135009765625
0.134,-5.475341796875,1.371337890625,4.093994140625
0.1345,-4.954833984375,2.412353515625,2.732666015625
0.135,-4.634521484375,3.173095703125,1.851806640625
0.1355,-4.314208984375,3.893798828125,0.970947265625
0.136,-4.073974609375,4.694580078125,0.130126953125
0.1365,-2.952880859375,4.974853515625,-1.311279296875
0.137,-1.911865234375,5.094970703125,-2.432373046875
0.1375,-0.910888671875,4.934814453125,-3.353271484375
0.138,-0.150146484375,5.054931640625,-4.194091796875
0.1385,0.890869140625,4.974853515625,-5.074951171875
0.139,1.851806640625,4.814697265625,-5.995849609375
0.1395,3.052978515625,3.533447265625,-6.156005859375
0.14,3.893798828125,2.172119140625,-5.915771484375
0.1405,4.454345703125,1.211181640625,-5.755615234375
0.141,4.814697265625,0.410400390625,-5.635498046875
0.1415,5.175048828125,-0.590576171875,-5.395263671875
0.142,5.175048828125,-1.711669921875,-4.514404296875
0.1425,5.014892578125,-2.712646484375,-3.553466796875
0.143,4.494384765625,-3.633544921875,-2.352294921875
0.1435,4.174072265625,-4.354248046875,-1.471435546875
0.144,3.773681640625,-4.994873046875,-0.550537109375
0.1445,3.453369140625,-5.755615234375,0.490478515625
0.145,2.132080078125,-5.835693359375,1.771728515625
0.1455,0.890869140625,-5.755615234375,2.852783203125
0.146,0.090087890625,-5.715576171875,3.693603515625
0.1465,-0.750732421875,-5.755615234375,4.494384765625
0.147,-1.791748046875,-5.515380859375,5.415283203125
0.1475,-2.952880859375,-4.754638671875,6.055908203125
0.148,-3.953857421875,-3.673583984375,6.135986328125
0.1485,-4.634521484375,-2.352294921875,5.775634765625
0.149,-5.114990234375,-1.471435546875,5.655517578125
0.1495,-5.435302734375,-0.630615234375,5.415283203125
0.15,-5.795654296875,0.250244140625,5.335205078125
0.1505,-5.515380859375,1.571533203125,4.013916015625
0.151,-5.195068359375,2.572509765625,2.852783203125
0.1515,-4.674560546875,3.333251953125,1.771728515625
0.152,-4.394287109375,4.013916015625,0.930908203125
0.1525,-3.913818359375,4.654541015625,0.010009765625
0.153,-3.193115234375,5.135009765625,-1.311279296875
0.1535,-2.031982421875,5.255126953125,-2.552490234375
0.154,-0.750732421875,5.094970703125,-3.513427734375
0.1545,0.050048828125,5.094970703125,-4.234130859375
0.155,0.850830078125,5.014892578125,-5.074951171875
0.1555,1.811767578125,4.894775390625,-6.035888671875
0.156,3.213134765625,3.533447265625,-6.316162109375
0.1565,4.013916015625,2.372314453125,-6.196044921875
0.157,4.574462890625,1.251220703125,-5.915771484375
0.1575,4.974853515625,0.450439453125,-5.755615234375
0.158,5.255126953125,-0.590576171875,-5.435302734375
0.1585,5.495361328125,-1.631591796875,-4.954833984375
0.159,5.255126953125,-2.832763671875,-3.793701171875
0.1595,4.694580078125,-3.873779296875,-2.352294921875
0.16,4.294189453125,-4.514404296875,-1.431396484375
0.1605,3.893798828125,-5.195068359375,-0.590576171875
0.161,3.533447265625,-5.915771484375,0.450439453125
0.1615,2.092041015625,-6.115966796875,1.971923828125
0.162,0.970947265625,-6.075927734375,3.133056640625
0.1625,0.010009765625,-5.915771484375,3.973876953125
0.163,-0.870849609375,-5.915771484375,4.774658203125
0.1635,-1.951904296875,-5.635498046875,5.615478515625
0.164,-2.992919921875,-5.195068359375,6.456298828125
0.1645,-4.274169921875,-3.793701171875,6.616455078125
0.165,-5.074951171875,-2.272216796875,6.216064453125
0.1655,-5.475341796875,-1.311279296875,5.935791015625
0.166,-5.755615234375,-0.470458984375,5.615478515625
0.1665,-6.035888671875,0.610595703125,5.255126953125
0.167,-5.915771484375,2.052001953125,4.013916015625
0.1675,-5.595458984375,3.052978515625,2.892822265625
0.168,-4.994873046875,3.933837890625,1.571533203125
0.1685,-4.514404296875,4.534423828125,0.610595703125
0.169,-3.913818359375,5.094970703125,-0.470458984375
0.1695,-3.353271484375,5.695556640625,-1.551513671875
0.17,-1.711669921875,5.735595703125,-3.153076171875
0.1705,-0.350341796875,5.455322265625,-4.234130859375
0.171,0.530517578125,5.295166015625,-4.914794921875
0.1715,1.331298828125,5.175048828125,-5.635498046875
0.172,2.492431640625,4.734619140625,-6.556396484375
0.1725,3.853759765625,3.533447265625,-6.996826171875
0.173,4.774658203125,2.332275390625,-6.956787109375
0.1735,5.255126953125,0.930908203125,-6.396240234375
0.174,5.535400390625,0.010009765625,-6.075927734375
0.1745,5.695556640625,-1.071044921875,-5.555419921875
0.175,5.935791015625,-2.072021484375,-5.114990234375
0.1755,5.495361328125,-3.713623046875,-3.513427734375
0.176,4.974853515625,-4.594482421875,-2.072021484375
0.1765,4.334228515625,-5.235107421875,-0.990966796875
0.177,3.853759765625,-5.795654296875,0.010009765625
0.1775,3.133056640625,-6.316162109375,1.010986328125
0.178,1.971923828125,-6.596435546875,2.492431640625
0.1785,0.650634765625,-6.516357421875,3.773681640625
0.179,-0.670654296875,-6.115966796875,4.614501953125
0.1795,-1.351318359375,-5.955810546875,5.255126953125
0.18,-2.272216796875,-5.635498046875,6.015869140625
0.1805,-3.353271484375,-5.275146484375,6.896728515625
0.181,-4.834716796875,-3.673583984375,7.016845703125
0.1815,-5.515380859375,-2.272216796875,6.696533203125
0.182,-5.875732421875,-1.151123046875,6.176025390625
0.1825,-6.115966796875,-0.270263671875,5.815673828125
0.183,-6.276123046875,0.810791015625,5.335205078125
0.1835,-6.276123046875,1.971923828125,4.374267578125
0.184,-5.915771484375,3.253173828125,3.133056640625
0.1845,-5.114990234375,4.134033203125,1.571533203125
0.185,-4.554443359375,4.774658203125,0.570556640625
0.1855,-4.033935546875,5.255126953125,-0.510498046875
0.186,-3.473388671875,5.895751953125,-1.431396484375
0.1865,-1.831787109375,6.015869140625,-3.153076171875
0.187,-0.510498046875,5.815673828125,-4.314208984375
0.1875,0.610595703125,5.415283203125,-5.034912109375
0.188,1.291259765625,5.375244140625,-5.715576171875
