wavelength,x,y,z
0.0,-20.845336914062,8.3831787109375,11.546264648438
0.0005,-20.084594726562,3.8587646484375,15.309936523438
0.001,-18.483032226562,-0.6256103515625,18.232788085938
0.0015,-16.601196289062,-3.9888916015625,19.674194335938
0.002,-14.639282226562,-6.9117431640625,20.795288085938
0.0025,-11.356079101562,-9.8746337890625,20.474975585938
0.003,-6.6314697265625,-13.638305664062,19.634155273438
0.0035,-2.0670166015625,-16.961547851562,18.553100585938
0.004,2.8177490234375,-19.403930664062,16.390991210938
0.0045,5.7005615234375,-20.324829101562,14.669311523438
0.005,8.6634521484375,-20.645141601562,12.226928710938
0.0055,11.666381835938,-20.565063476562,9.4642333984375
0.006,15.550170898438,-19.484008789062,4.6595458984375
0.0065,18.513061523438,-17.802368164062,0.1351318359375
0.007,20.194702148438,-16.000610351562,-3.3082275390625
0.0075,20.875366210938,-13.958618164062,-6.1109619140625
0.008,20.635131835938,-10.875610351562,-8.9537353515625
0.0085,20.274780273438,-6.9918212890625,-12.517211914062
0.009,19.594116210938,-2.9078369140625,-16.000610351562
0.0095,17.872436523438,1.5765380859375,-18.723266601562
0.01,15.830444335938,4.7396240234375,-19.804321289062
0.0105,13.428100585938,7.7425537109375,-20.484985351562
0.011,10.104858398438,10.945678710938,-20.444946289062
0.0115,4.8197021484375,14.909545898438,-19.243774414062
0.012,0.1351318359375,17.992553710938,-17.882446289062
0.0125,-3.9488525390625,19.954467773438,-16.000610351562
0.013,-6.8316650390625,20.755249023438,-14.118774414062
0.0135,-10.114868164062,20.755249023438,-11.195922851562
0.014,-13.358032226562,20.474975585938,-7.7926025390625
0.0145,-16.961547851562,19.273803710938,-3.2281494140625
0.015,-19.804321289062,17.231811523438,1.6966552734375
0.0155,-20.885375976562,15.309936523438,4.6595458984375
0.016,-21.445922851562,12.827514648438,7.6224365234375
0.0165,-21.125610351562,9.4642333984375,10.745483398438
0.017,-20.404907226562,4.8997802734375,14.589233398438
0.0175,-19.323852539062,0.6956787109375,17.752319335938
0.018,-17.482055664062,-3.4683837890625,20.114624023438
0.0185,-15.199829101562,-6.4713134765625,20.835327148438
0.019,-12.196899414062,-9.5943603515625,20.995483398438
0.0195,-8.3131103515625,-13.117797851562,20.795288085938
0.02,-2.9478759765625,-16.921508789062,19.353881835938
0.0205,2.1370849609375,-19.524047851562,17.231811523438
0.021,5.4603271484375,-20.965454101562,15.550170898438
0.0215,8.5032958984375,-21.526000976562,13.307983398438
0.022,11.786499023438,-21.205688476562,9.9847412109375
0.0225,15.349975585938,-20.404907226562,5.7806396484375
0.023,18.593139648438,-19.003540039062,1.2562255859375
0.0235,20.995483398438,-16.801391601562,-3.3482666015625
0.024,21.515991210938,-14.599243164062,-6.0308837890625
0.0245,21.756225585938,-11.836547851562,-9.1138916015625
0.025,21.315795898438,-8.0328369140625,-12.517211914062
0.0255,20.354858398438,-3.5484619140625,-16.120727539062
0.026,18.713256835938,1.0159912109375,-18.923461914062
0.0265,16.791381835938,4.6995849609375,-20.725219726562
0.027,14.228881835938,7.7025146484375,-21.285766601562
0.0275,10.785522460938,10.905639648438,-21.085571289062
0.028,6.3011474609375,14.629272460938,-20.404907226562
0.0285,1.1761474609375,18.112670898438,-18.963500976562
0.029,-3.7086181640625,20.354858398438,-16.641235351562
0.0295,-6.5113525390625,21.155639648438,-14.879516601562
0.03,-9.6343994140625,21.596069335938,-12.437133789062
0.0305,-12.957641601562,21.075561523438,-8.8336181640625
0.031,-16.521118164062,19.914428710938,-4.3092041015625
0.0315,-19.484008789062,18.192749023438,0.4154052734375
0.032,-21.405883789062,16.070678710938,4.3792724609375
0.0325,-21.646118164062,13.628295898438,6.9818115234375
0.033,-21.646118164062,10.425170898438,10.224975585938
0.0335,-21.005493164062,6.2611083984375,13.748413085938
0.034,-20.004516601562,1.9368896484375,17.231811523438
0.0345,-18.002563476562,-2.4674072265625,19.594116210938
0.035,-16.040649414062,-5.5904541015625,20.795288085938
0.0355,-13.518188476562,-8.5933837890625,21.315795898438
0.036,-9.5943603515625,-11.916625976562,20.795288085938
0.0365,-4.8697509765625,-15.400024414062,19.714233398438
0.037,0.2552490234375,-18.603149414062,18.112670898438
0.0375,4.5394287109375,-20.565063476562,15.990600585938
0.038,7.1820068359375,-21.005493164062,14.028686523438
0.0385,10.345092773438,-21.285766601562,11.386108398438
0.039,13.948608398438,-20.645141601562,7.3822021484375
0.0395,17.231811523438,-19.403930664062,2.9779052734375
0.04,19.874389648438,-17.442016601562,-1.5465087890625
0.0405,21.235717773438,-15.560180664062,-4.8297119140625
0.041,21.435913085938,-12.997680664062,-7.5523681640625
0.0415,21.195678710938,-9.5543212890625,-10.915649414062
0.042,20.474975585938,-5.3101806640625,-14.359008789062
0.0425,19.393920898438,-0.9459228515625,-17.722290039062
0.043,17.311889648438,3.2982177734375,-19.844360351562
0.0435,15.149780273438,6.1409912109375,-20.525024414062
0.044,12.467163085938,9.2640380859375,-21.085571289062
0.0445,7.9027099609375,13.107788085938,-20.444946289062
0.045,3.1781005859375,16.431030273438,-19.243774414062
0.0455,-1.7467041015625,19.193725585938,-17.321899414062
0.046,-5.4302978515625,20.835327148438,-15.560180664062
0.0465,-8.1529541015625,21.075561523438,-13.277954101562
0.047,-11.356079101562,21.115600585938,-10.395141601562
0.0475,-15.119750976562,20.314819335938,-6.0308837890625
0.048,-18.402954101562,18.833374023438,-1.3463134765625
0.0485,-20.605102539062,16.711303710938,2.8978271484375
0.049,-21.485961914062,14.669311523438,5.8206787109375
0.0495,-21.686157226562,11.826538085938,8.9036865234375
0.05,-21.285766601562,7.7025146484375,12.667358398438
0.0505,-20.364868164062,3.5784912109375,15.910522460938
0.051,-18.923461914062,-0.9459228515625,18.913452148438
0.0515,-16.801391601562,-4.8297119140625,20.835327148438
0.052,-14.238891601562,-7.5924072265625,21.035522460938
0.0525,-11.356079101562,-10.715454101562,21.275756835938
0.053,-6.2310791015625,-14.759399414062,20.354858398438
0.0535,-1.2261962890625,-18.002563476562,18.793334960938
0.054,3.2982177734375,-20.044555664062,16.671264648438
0.0545,6.5013427734375,-21.485961914062,14.869506835938
0.055,9.5443115234375,-21.405883789062,12.226928710938
0.0555,12.907592773438,-21.005493164062,8.7034912109375
0.056,16.350952148438,-20.044555664062,4.4993896484375
0.0565,19.514038085938,-18.242797851562,-0.4654541015625
0.057,21.235717773438,-16.160766601562,-4.2291259765625
0.0575,21.475952148438,-13.798461914062,-6.8717041015625
0.058,21.596069335938,-10.875610351562,-9.8746337890625
0.0585,20.835327148438,-6.2310791015625,-13.838500976562
0.059,19.834350585938,-2.1070556640625,-16.921508789062
0.0595,17.952514648438,2.0570068359375,-19.243774414062
0.06,15.950561523438,5.5003662109375,-20.845336914062
0.0605,13.107788085938,8.4232177734375,-20.805297851562
0.061,9.5843505859375,11.706420898438,-20.645141601562
0.0615,4.8197021484375,15.390014648438,-19.724243164062
0.062,-0.5054931640625,18.553100585938,-17.922485351562
0.0625,-4.3492431640625,20.234741210938,-15.920532226562
0.063,-7.0718994140625,20.915405273438,-14.078735351562
0.0635,-10.114868164062,21.115600585938,-11.516235351562
0.064,-13.798461914062,20.234741210938,-7.1920166015625
0.0645,-16.881469726562,19.193725585938,-3.1881103515625
0.065,-19.524047851562,17.271850585938,1.3363037109375
0.0655,-21.005493164062,15.229858398438,4.7396240234375
0.066,-20.965454101562,12.627319335938,7.3822021484375
0.0665,-21.005493164062,9.5443115234375,10.545288085938
0.067,-20.204711914062,5.0599365234375,14.268920898438
0.0675,-19.083618164062,0.7757568359375,17.472045898438
0.068,-17.161743164062,-3.0279541015625,19.313842773438
0.0685,-15.279907226562,-6.0308837890625,20.474975585938
0.069,-12.397094726562,-8.9537353515625,20.635131835938
0.0695,-7.9927978515625,-12.677368164062,19.994506835938
0.07,-3.6685791015625,-15.880493164062,19.033569335938
0.0705,1.4163818359375,-18.643188476562,17.071655273438
0.071,4.8997802734375,-20.204711914062,15.309936523438
0.0715,7.5423583984375,-20.484985351562,13.147827148438
0.072,10.505249023438,-20.805297851562,10.745483398438
0.0725,14.509155273438,-19.884399414062,5.9407958984375
0.073,17.552124023438,-18.523071289062,1.7366943359375
0.0735,19.674194335938,-16.681274414062,-2.1871337890625
0.074,20.795288085938,-14.759399414062,-5.1500244140625
0.0745,20.715209960938,-11.956665039062,-7.9127197265625
0.075,20.515014648438,-8.1929931640625,-11.556274414062
0.0755,19.834350585938,-4.2291259765625,-14.839477539062
0.076,18.473022460938,0.2952880859375,-17.962524414062
0.0765,16.471069335938,3.8587646484375,-19.564086914062
0.077,14.228881835938,6.6614990234375,-20.204711914062
0.0775,11.506225585938,9.7445068359375,-20.565063476562
0.078,6.1409912109375,13.908569335938,-19.564086914062
0.0785,1.7767333984375,16.951538085938,-18.322875976562
0.079,-2.6676025390625,19.233764648438,-16.521118164062
0.0795,-5.9107666015625,20.555053710938,-14.839477539062
0.08,-8.7935791015625,20.555053710938,-12.196899414062
0.0805,-11.916625976562,20.515014648438,-9.2740478515625
0.081,-15.720336914062,19.594116210938,-4.7496337890625
0.0815,-18.763305664062,17.752319335938,0.1351318359375
0.082,-20.364868164062,15.910522460938,3.5384521484375
0.0825,-21.085571289062,13.748413085938,6.4212646484375
0.083,-21.085571289062,10.865600585938,9.3040771484375
0.0835,-20.484985351562,6.2210693359375,13.428100585938
0.084,-19.604125976562,2.3372802734375,16.471069335938
0.0845,-18.002563476562,-1.9468994140625,19.073608398438
0.085,-16.000610351562,-5.4302978515625,20.555053710938
0.0855,-13.117797851562,-8.2330322265625,20.555053710938
0.086,-10.074829101562,-11.396118164062,20.795288085938
0.0865,-4.6295166015625,-15.520141601562,19.594116210938
0.087,0.4954833984375,-18.523071289062,17.752319335938
0.0875,4.1390380859375,-20.044555664062,15.950561523438
0.088,7.2220458984375,-21.125610351562,14.108764648438
0.0885,10.305053710938,-21.085571289062,11.145874023438
0.089,13.908569335938,-20.444946289062,7.1419677734375
0.0895,17.231811523438,-19.484008789062,3.0179443359375
0.09,19.994506835938,-17.361938476562,-1.8267822265625
0.0905,21.035522460938,-15.359985351562,-4.8297119140625
0.091,21.195678710938,-12.717407226562,-7.6724853515625
0.0915,21.195678710938,-9.7545166015625,-10.675415039062
0.092,20.394897460938,-4.8297119140625,-14.799438476562
0.0925,19.073608398438,-0.5855712890625,-17.762329101562
0.093,17.271850585938,3.2181396484375,-19.684204101562
0.0935,15.229858398438,6.4613037109375,-20.965454101562
0.094,11.826538085938,9.4642333984375,-20.645141601562
0.0945,7.8226318359375,13.107788085938,-20.364868164062
0.095,3.0179443359375,16.711303710938,-19.323852539062
0.0955,-2.3072509765625,19.473999023438,-17.121704101562
0.096,-5.4302978515625,20.635131835938,-15.319946289062
0.0965,-8.4332275390625,21.155639648438,-13.157836914062
0.097,-11.396118164062,21.155639648438,-10.355102539062
0.0975,-15.400024414062,19.994506835938,-5.4302978515625
0.098,-18.483032226562,18.633178710938,-1.1461181640625
0.0985,-20.605102539062,16.671264648438,3.0179443359375
0.099,-21.445922851562,14.589233398438,5.9007568359375
0.0995,-21.285766601562,11.506225585938,8.8236083984375
0.1,-21.125610351562,7.9827880859375,12.226928710938
0.1005,-20.284790039062,3.4583740234375,15.990600585938
0.101,-18.563110351562,-1.1861572265625,18.913452148438
0.1015,-16.601196289062,-4.5093994140625,20.194702148438
0.102,-14.479125976562,-7.5123291015625,21.195678710938
0.1025,-11.075805664062,-10.595336914062,20.915405273438
0.103,-6.0308837890625,-14.519165039062,19.874389648438
0.1035,-1.3863525390625,-17.762329101562,18.713256835938
0.104,3.3782958984375,-20.044555664062,16.551147460938
0.1045,6.3411865234375,-20.965454101562,14.709350585938
0.105,9.4241943359375,-21.125610351562,12.026733398438
0.1055,12.507202148438,-21.045532226562,9.0638427734375
0.106,16.310913085938,-19.724243164062,4.2591552734375
0.1065,19.233764648438,-17.922485351562,-0.5855712890625
0.107,20.755249023438,-16.000610351562,-3.8287353515625
0.1075,21.395874023438,-13.838500976562,-6.6715087890625
0.108,21.115600585938,-10.635375976562,-9.5943603515625
0.1085,20.515014648438,-6.3912353515625,-13.398071289062
0.109,19.754272460938,-2.2672119140625,-16.681274414062
0.1095,17.952514648438,2.2171630859375,-19.323852539062
0.11,15.750366210938,5.3402099609375,-20.324829101562
0.1105,13.147827148438,8.3431396484375,-20.805297851562
0.111,9.7044677734375,11.626342773438,-20.725219726562
0.1115,4.2991943359375,15.630249023438,-19.443969726562
0.112,-0.5855712890625,18.553100585938,-17.762329101562
0.1125,-4.4293212890625,20.314819335938,-15.960571289062
0.113,-7.3121337890625,21.035522460938,-14.038696289062
0.1135,-10.555297851562,20.915405273438,-10.955688476562
0.114,-13.918579101562,20.474975585938,-7.3121337890625
0.1145,-17.361938476562,19.313842773438,-2.8277587890625
0.115,-20.124633789062,17.151733398438,2.0570068359375
0.1155,-21.005493164062,15.109741210938,4.9798583984375
0.116,-21.526000976562,12.667358398438,7.9027099609375
0.1165,-21.285766601562,9.2640380859375,11.065795898438
0.117,-20.404907226562,4.6195068359375,14.949584960938
0.1175,-19.243774414062,0.4154052734375,17.992553710938
0.118,-17.442016601562,-3.6285400390625,20.194702148438
0.1185,-15.159790039062,-6.6715087890625,20.995483398438
0.119,-12.036743164062,-9.7144775390625,20.995483398438
0.1195,-7.9927978515625,-13.358032226562,20.675170898438
0.12,-2.7076416015625,-17.081665039062,19.273803710938
0.1205,2.4173583984375,-19.684204101562,16.991577148438
0.121,5.5404052734375,-20.885375976562,15.349975585938
0.1215,8.6234130859375,-21.526000976562,13.147827148438
0.122,11.826538085938,-21.125610351562,9.8245849609375
0.1225,15.510131835938,-20.204711914062,5.4603271484375
0.123,18.713256835938,-18.843383789062,0.9759521484375
0.1235,20.955444335938,-16.641235351562,-3.3883056640625
0.124,21.395874023438,-14.479125976562,-6.0308837890625
0.1245,21.515991210938,-11.556274414062,-9.0738525390625
0.125,21.115600585938,-7.7926025390625,-12.517211914062
0.1255,20.194702148438,-3.2281494140625,-16.080688476562
0.126,18.473022460938,1.2161865234375,-18.883422851562
0.1265,16.591186523438,4.6595458984375,-20.484985351562
0.127,14.148803710938,7.7025146484375,-21.125610351562
0.1275,10.545288085938,10.905639648438,-20.805297851562
0.128,5.9407958984375,14.629272460938,-20.044555664062
0.1285,0.9759521484375,18.032592773438,-18.723266601562
0.129,-3.8287353515625,20.234741210938,-16.401000976562
0.1295,-6.5513916015625,20.915405273438,-14.599243164062
0.13,-9.6343994140625,21.355834960938,-12.156860351562
0.1305,-13.077758789062,20.875366210938,-8.5533447265625
0.131,-16.601196289062,19.714233398438,-3.9888916015625
0.1315,-19.484008789062,17.952514648438,0.6556396484375
0.132,-21.245727539062,15.910522460938,4.4193115234375
0.1325,-21.526000976562,13.508178710938,7.0618896484375
0.133,-21.445922851562,10.224975585938,10.224975585938
0.1335,-20.805297851562,6.1009521484375,13.788452148438
0.134,-19.884399414062,1.7767333984375,17.271850585938
0.1345,-17.842407226562,-2.6676025390625,19.594116210938
0.135,-15.800415039062,-5.7105712890625,20.635131835938
0.1355,-13.317993164062,-8.6734619140625,21.235717773438
0.136,-9.2740478515625,-12.116821289062,20.715209960938
0.1365,-4.3892822265625,-15.680297851562,19.514038085938
0.137,0.6156005859375,-18.723266601562,17.832397460938
0.1375,4.7396240234375,-20.645141601562,15.830444335938
0.138,7.3822021484375,-20.965454101562,13.788452148438
0.1385,10.545288085938,-21.165649414062,11.065795898438
0.139,14.148803710938,-20.525024414062,7.0618896484375
0.1395,17.512084960938,-19.283813476562,2.5775146484375
0.14,19.994506835938,-17.281860351562,-1.9468994140625
0.1405,21.195678710938,-15.359985351562,-4.9898681640625
0.141,21.435913085938,-12.757446289062,-7.7926025390625
0.1415,21.155639648438,-9.1138916015625,-11.235961914062
0.142,20.314819335938,-4.9097900390625,-14.599243164062
0.1425,19.193725585938,-0.6256103515625,-17.842407226562
0.143,17.151733398438,3.5784912109375,-19.924438476562
0.1435,14.829467773438,6.3411865234375,-20.484985351562
0.144,12.186889648438,9.4642333984375,-20.885375976562
0.1445,7.5023193359375,13.267944335938,-20.244750976562
0.145,2.6976318359375,16.631225585938,-18.963500976562
0.1455,-2.0670166015625,19.113647460938,-16.961547851562
0.146,-5.5103759765625,20.675170898438,-15.279907226562
0.1465,-8.2730712890625,20.915405273438,-13.037719726562
0.147,-11.436157226562,20.795288085938,-10.114868164062
0.1475,-15.079711914062,20.034545898438,-5.7506103515625
0.148,-18.282836914062,18.513061523438,-1.1060791015625
0.1485,-20.484985351562,16.471069335938,3.0980224609375
0.149,-21.125610351562,14.389038085938,5.7806396484375
0.1495,-21.405883789062,11.586303710938,8.8636474609375
0.15,-20.925415039062,7.4622802734375,12.587280273438
0.1505,-20.004516601562,3.3382568359375,15.830444335938
0.151,-18.523071289062,-0.9859619140625,18.553100585938
0.1515,-16.601196289062,-4.6695556640625,20.474975585938
0.152,-14.078735351562,-7.4322509765625,20.675170898438
0.1525,-10.955688476562,-10.595336914062,20.795288085938
0.153,-6.1109619140625,-14.479125976562,19.994506835938
0.1535,-1.0260009765625,-17.762329101562,18.432983398438
0.154,3.3382568359375,-19.804321289062,16.350952148438
0.1545,6.2611083984375,-20.845336914062,14.709350585938
0.155,9.2640380859375,-21.125610351562,12.186889648438
0.1555,12.787475585938,-20.565063476562,8.3831787109375
0.156,16.110717773438,-19.684204101562,4.3392333984375
0.1565,19.193725585938,-17.882446289062,-0.5054931640625
0.157,20.875366210938,-15.880493164062,-4.1490478515625
0.1575,21.075561523438,-13.438110351562,-6.7115478515625
0.158,21.195678710938,-10.595336914062,-9.7545166015625
0.1585,20.515014648438,-6.1109619140625,-13.638305664062
0.159,19.514038085938,-1.9468994140625,-16.841430664062
0.1595,17.632202148438,2.2171630859375,-19.043579101562
0.16,15.750366210938,5.5003662109375,-20.484985351562
0.1605,12.867553710938,8.3431396484375,-20.605102539062
0.161,9.0638427734375,11.786499023438,-20.324829101562
0.1615,4.5394287109375,15.349975585938,-19.403930664062
0.162,-0.7056884765625,18.513061523438,-17.602172851562
0.1625,-4.5494384765625,20.194702148438,-15.680297851562
0.163,-7.1920166015625,20.715209960938,-13.798461914062
0.1635,-10.275024414062,20.995483398438,-11.235961914062
0.164,-14.118774414062,20.154663085938,-6.7515869140625
0.1645,-17.201782226562,18.993530273438,-2.6676025390625
0.165,-19.724243164062,17.111694335938,1.7767333984375
0.1655,-21.125610351562,15.109741210938,5.0599365234375
0.166,-21.085571289062,12.387084960938,7.7025146484375
0.1665,-21.085571289062,9.1038818359375,11.065795898438
0.167,-20.244750976562,4.7396240234375,14.669311523438
0.1675,-19.043579101562,0.2952880859375,17.912475585938
0.168,-16.961547851562,-3.5484619140625,19.674194335938
0.1685,-14.999633789062,-6.3912353515625,20.555053710938
0.169,-12.156860351562,-9.3941650390625,20.795288085938
0.1695,-7.3922119140625,-13.277954101562,19.994506835938
0.17,-2.9879150390625,-16.360961914062,18.833374023438
0.1705,1.9368896484375,-19.043579101562,16.911499023438
0.171,5.4202880859375,-20.484985351562,15.109741210938
0.1715,8.1029052734375,-20.605102539062,12.787475585938
0.172,11.105834960938,-20.805297851562,10.224975585938
0.1725,15.029663085938,-19.844360351562,5.5003662109375
0.173,18.072631835938,-18.282836914062,1.0560302734375
0.1735,19.994506835938,-16.401000976562,-2.7076416015625
0.174,20.875366210938,-14.439086914062,-5.5504150390625
0.1745,20.795288085938,-11.596313476562,-8.3531494140625
0.175,20.434936523438,-7.5523681640625,-12.076782226562
0.1755,19.634155273438,-3.7086181640625,-15.119750976562
0.176,18.192749023438,0.6956787109375,-18.082641601562
0.1765,16.150756835938,4.2591552734375,-19.724243164062
0.177,13.708374023438,6.9818115234375,-19.884399414062
0.1775,11.025756835938,9.9847412109375,-20.404907226562
0.178,5.7406005859375,14.108764648438,-19.323852539062
