wavelength,x,y,z
0.0,0.610595703125,5.935791015625,-5.435302734375
0.0005,1.211181640625,6.135986328125,-6.356201171875
0.001,2.172119140625,5.575439453125,-6.836669921875
0.0015,3.493408203125,4.093994140625,-7.036865234375
0.002,4.774658203125,2.612548828125,-7.076904296875
0.0025,5.735595703125,1.171142578125,-6.916748046875
0.003,6.256103515625,0.290283203125,-6.876708984375
0.0035,6.376220703125,-0.590576171875,-6.596435546875
0.004,5.975830078125,-1.471435546875,-5.675537109375
0.0045,5.575439453125,-2.752685546875,-4.234130859375
0.005,5.175048828125,-4.154052734375,-2.672607421875
0.0055,4.894775390625,-5.315185546875,-1.431396484375
0.006,4.654541015625,-6.115966796875,-0.630615234375
0.0065,3.973876953125,-6.396240234375,0.290283203125
0.007,2.692626953125,-6.396240234375,1.491455078125
0.0075,1.211181640625,-6.436279296875,3.012939453125
0.008,-0.310302734375,-6.436279296875,4.494384765625
0.0085,-1.071044921875,-6.716552734375,5.495361328125
0.009,-1.751708984375,-6.756591796875,6.376220703125
0.0095,-2.872802734375,-5.915771484375,6.736572265625
0.01,-4.274169921875,-4.394287109375,6.936767578125
0.0105,-5.435302734375,-2.832763671875,6.896728515625
0.011,-6.276123046875,-1.551513671875,6.816650390625
0.0115,-6.676513671875,-0.790771484375,6.776611328125
0.012,-6.636474609375,0.090087890625,6.336181640625
0.0125,-6.236083984375,1.211181640625,5.135009765625
0.013,-5.835693359375,2.532470703125,3.653564453125
0.0135,-5.475341796875,3.973876953125,2.092041015625
0.014,-5.195068359375,4.974853515625,1.010986328125
0.0145,-4.914794921875,5.655517578125,0.250244140625
0.015,-3.993896484375,5.815673828125,-0.790771484375
0.0155,-2.552490234375,5.815673828125,-2.112060546875
0.016,-1.031005859375,5.815673828125,-3.713623046875
0.0165,0.290283203125,5.895751953125,-4.994873046875
0.017,0.970947265625,6.135986328125,-6.075927734375
0.0175,1.771728515625,5.895751953125,-6.756591796875
0.018,3.012939453125,4.734619140625,-7.036865234375
0.0185,4.414306640625,3.173095703125,-7.116943359375
0.019,5.495361328125,1.571533203125,-7.036865234375
0.0195,6.176025390625,0.530517578125,-6.956787109375
0.02,6.456298828125,-0.310302734375,-6.876708984375
0.0205,6.216064453125,-1.151123046875,-6.115966796875
0.021,5.735595703125,-2.352294921875,-4.754638671875
0.0215,5.375244140625,-3.793701171875,-3.193115234375
0.022,5.014892578125,-5.114990234375,-1.711669921875
0.0225,4.734619140625,-5.955810546875,-0.790771484375
0.023,4.294189453125,-6.436279296875,0.090087890625
0.0235,3.133056640625,-6.476318359375,1.131103515625
0.024,1.611572265625,-6.436279296875,2.572509765625
0.0245,0.130126953125,-6.436279296875,4.134033203125
0.025,-0.950927734375,-6.596435546875,5.255126953125
0.0255,-1.591552734375,-6.836669921875,6.135986328125
0.026,-2.512451171875,-6.236083984375,6.696533203125
0.0265,-3.833740234375,-4.834716796875,6.856689453125
0.027,-5.034912109375,-3.353271484375,6.896728515625
0.0275,-6.035888671875,-1.911865234375,6.736572265625
0.028,-6.476318359375,-0.990966796875,6.696533203125
0.0285,-6.596435546875,-0.310302734375,6.456298828125
0.029,-6.276123046875,0.690673828125,5.575439453125
0.0295,-5.835693359375,1.931884765625,4.174072265625
0.03,-5.475341796875,3.293212890625,2.692626953125
0.0305,-5.155029296875,4.454345703125,1.411376953125
0.031,-4.994873046875,5.255126953125,0.610595703125
0.0315,-4.354248046875,5.535400390625,-0.310302734375
0.032,-3.193115234375,5.575439453125,-1.351318359375
0.0325,-1.751708984375,5.615478515625,-2.792724609375
0.033,-0.390380859375,5.615478515625,-4.234130859375
0.0335,0.490478515625,5.815673828125,-5.275146484375
0.034,1.131103515625,6.055908203125,-6.156005859375
0.0345,2.092041015625,5.295166015625,-6.556396484375
0.035,3.413330078125,3.933837890625,-6.716552734375
0.0355,4.614501953125,2.452392578125,-6.716552734375
0.036,5.455322265625,1.211181640625,-6.676513671875
0.0365,5.935791015625,0.490478515625,-6.756591796875
0.037,5.975830078125,-0.310302734375,-6.436279296875
0.0375,5.615478515625,-1.231201171875,-5.475341796875
0.038,5.295166015625,-2.512451171875,-4.154052734375
0.0385,4.974853515625,-3.873779296875,-2.712646484375
0.039,4.814697265625,-4.954833984375,-1.631591796875
0.0395,4.654541015625,-5.755615234375,-0.910888671875
0.04,3.893798828125,-5.995849609375,0.050048828125
0.0405,2.692626953125,-6.115966796875,1.251220703125
0.041,1.291259765625,-6.156005859375,2.692626953125
0.0415,0.090087890625,-6.356201171875,4.053955078125
0.042,-0.670654296875,-6.636474609375,5.094970703125
0.0425,-1.431396484375,-6.596435546875,5.895751953125
0.043,-2.552490234375,-5.635498046875,6.256103515625
0.0435,-3.873779296875,-4.314208984375,6.456298828125
0.044,-4.994873046875,-2.872802734375,6.456298828125
0.0445,-5.755615234375,-1.791748046875,6.536376953125
0.045,-6.196044921875,-1.151123046875,6.616455078125
0.0455,-6.115966796875,-0.390380859375,6.055908203125
0.046,-5.755615234375,0.770751953125,4.974853515625
0.0465,-5.515380859375,2.052001953125,3.653564453125
0.047,-5.275146484375,3.373291015625,2.252197265625
0.0475,-5.114990234375,4.334228515625,1.411376953125
0.048,-4.834716796875,4.974853515625,0.650634765625
0.0485,-3.913818359375,5.094970703125,-0.350341796875
0.049,-2.672607421875,5.255126953125,-1.671630859375
0.0495,-1.311279296875,5.295166015625,-3.153076171875
0.05,-0.350341796875,5.575439453125,-4.354248046875
0.0505,0.370361328125,5.975830078125,-5.355224609375
0.051,1.251220703125,5.655517578125,-5.955810546875
0.0515,2.412353515625,4.494384765625,-6.276123046875
0.052,3.693603515625,3.173095703125,-6.396240234375
0.0525,4.734619140625,1.891845703125,-6.436279296875
0.053,5.375244140625,1.010986328125,-6.556396484375
0.0535,5.655517578125,0.370361328125,-6.476318359375
0.054,5.455322265625,-0.510498046875,-5.795654296875
0.0545,5.175048828125,-1.591552734375,-4.714599609375
0.055,4.894775390625,-2.912841796875,-3.353271484375
0.0555,4.734619140625,-4.154052734375,-2.232177734375
0.056,4.654541015625,-5.074951171875,-1.431396484375
0.0565,4.214111328125,-5.515380859375,-0.670654296875
0.057,3.253173828125,-5.675537109375,0.370361328125
0.0575,2.011962890625,-5.835693359375,1.651611328125
0.058,0.770751953125,-5.915771484375,3.093017578125
0.0585,0.010009765625,-6.276123046875,4.174072265625
0.059,-0.750732421875,-6.516357421875,5.175048828125
0.0595,-1.671630859375,-6.035888671875,5.695556640625
0.06,-2.872802734375,-4.874755859375,5.935791015625
0.0605,-4.073974609375,-3.593505859375,6.095947265625
0.061,-5.034912109375,-2.432373046875,6.176025390625
0.0615,-5.635498046875,-1.751708984375,6.376220703125
0.062,-5.755615234375,-1.151123046875,6.216064453125
0.0625,-5.555419921875,-0.270263671875,5.415283203125
0.063,-5.355224609375,0.970947265625,4.334228515625
0.0635,-5.155029296875,2.292236328125,3.093017578125
0.064,-5.074951171875,3.373291015625,2.092041015625
0.0645,-4.994873046875,4.214111328125,1.331298828125
0.065,-4.474365234375,4.614501953125,0.610595703125
0.0655,-3.473388671875,4.774658203125,-0.630615234375
0.066,-2.272216796875,5.014892578125,-1.951904296875
0.0665,-1.191162109375,5.255126953125,-3.193115234375
0.067,-0.510498046875,5.655517578125,-4.354248046875
0.0675,0.290283203125,5.815673828125,-5.195068359375
0.068,1.331298828125,5.094970703125,-5.635498046875
0.0685,2.572509765625,3.973876953125,-5.915771484375
0.069,3.773681640625,2.692626953125,-6.035888671875
0.0695,4.614501953125,1.731689453125,-6.236083984375
0.07,5.094970703125,1.131103515625,-6.436279296875
0.0705,5.135009765625,0.450439453125,-6.115966796875
0.071,4.974853515625,-0.510498046875,-5.315185546875
0.0715,4.814697265625,-1.711669921875,-4.194091796875
0.072,4.694580078125,-2.952880859375,-3.072998046875
0.0725,4.654541015625,-4.033935546875,-2.232177734375
0.073,4.574462890625,-4.834716796875,-1.551513671875
0.0735,3.853759765625,-5.114990234375,-0.710693359375
0.074,2.852783203125,-5.315185546875,0.570556640625
0.0745,1.771728515625,-5.595458984375,1.931884765625
0.075,0.850830078125,-5.915771484375,3.093017578125
0.0755,0.250244140625,-6.396240234375,4.174072265625
0.076,-0.670654296875,-6.276123046875,4.934814453125
0.0765,-1.791748046875,-5.435302734375,5.335205078125
0.077,-2.992919921875,-4.394287109375,5.615478515625
0.0775,-4.114013671875,-3.193115234375,5.775634765625
0.078,-4.874755859375,-2.432373046875,6.095947265625
0.0785,-5.315185546875,-1.791748046875,6.256103515625
0.079,-5.315185546875,-1.111083984375,5.775634765625
0.0795,-5.195068359375,0.010009765625,4.934814453125
0.08,-5.114990234375,1.211181640625,3.853759765625
0.0805,-5.034912109375,2.412353515625,2.852783203125
0.081,-5.114990234375,3.373291015625,2.092041015625
0.0815,-4.834716796875,3.973876953125,1.411376953125
0.082,-4.073974609375,4.334228515625,0.450439453125
0.0825,-3.072998046875,4.694580078125,-0.910888671875
0.083,-1.951904296875,4.974853515625,-2.232177734375
0.0835,-1.151123046875,5.415283203125,-3.393310546875
0.084,-0.510498046875,5.855712890625,-4.474365234375
0.0845,0.490478515625,5.455322265625,-5.114990234375
0.085,1.731689453125,4.534423828125,-5.515380859375
0.0855,2.932861328125,3.373291015625,-5.755615234375
0.086,3.973876953125,2.252197265625,-5.995849609375
0.0865,4.694580078125,1.571533203125,-6.316162109375
0.087,5.014892578125,0.970947265625,-6.276123046875
0.0875,4.934814453125,0.130126953125,-5.635498046875
0.088,4.814697265625,-1.071044921875,-4.714599609375
0.0885,4.734619140625,-2.432373046875,-3.553466796875
0.089,4.694580078125,-3.553466796875,-2.592529296875
0.0895,4.734619140625,-4.514404296875,-1.951904296875
0.09,4.214111328125,-4.874755859375,-1.151123046875
0.0905,3.333251953125,-5.155029296875,0.010009765625
0.091,2.212158203125,-5.475341796875,1.331298828125
0.0915,1.211181640625,-5.755615234375,2.652587890625
0.092,0.490478515625,-6.276123046875,3.853759765625
0.0925,-0.390380859375,-6.396240234375,4.774658203125
0.093,-1.431396484375,-5.755615234375,5.255126953125
0.0935,-2.712646484375,-4.674560546875,5.615478515625
0.094,-3.873779296875,-3.433349609375,5.775634765625
0.0945,-4.794677734375,-2.472412109375,6.015869140625
0.095,-5.355224609375,-1.871826171875,6.256103515625
0.0955,-5.435302734375,-1.151123046875,5.935791015625
0.096,-5.275146484375,-0.230224609375,5.094970703125
0.0965,-5.155029296875,1.051025390625,3.973876953125
0.097,-5.034912109375,2.372314453125,2.852783203125
0.0975,-5.074951171875,3.373291015625,1.971923828125
0.098,-4.874755859375,4.134033203125,1.291259765625
0.0985,-4.154052734375,4.494384765625,0.450439453125
0.099,-3.153076171875,4.734619140625,-0.870849609375
0.0995,-1.951904296875,4.974853515625,-2.232177734375
0.1,-1.111083984375,5.295166015625,-3.433349609375
0.1005,-0.430419921875,5.735595703125,-4.514404296875
0.101,0.530517578125,5.615478515625,-5.275146484375
0.1015,1.691650390625,4.654541015625,-5.635498046875
0.102,2.932861328125,3.493408203125,-5.915771484375
0.1025,4.093994140625,2.252197265625,-6.075927734375
0.103,4.814697265625,1.411376953125,-6.276123046875
0.1035,5.175048828125,0.810791015625,-6.356201171875
0.104,5.094970703125,0.050048828125,-5.755615234375
0.1045,4.934814453125,-1.151123046875,-4.834716796875
0.105,4.774658203125,-2.392333984375,-3.633544921875
0.1055,4.614501953125,-3.633544921875,-2.552490234375
0.106,4.654541015625,-4.514404296875,-1.791748046875
0.1065,4.334228515625,-5.074951171875,-1.071044921875
0.107,3.413330078125,-5.275146484375,0.010009765625
0.1075,2.292236328125,-5.515380859375,1.291259765625
0.108,1.131103515625,-5.755615234375,2.652587890625
0.1085,0.370361328125,-6.156005859375,3.853759765625
0.109,-0.390380859375,-6.476318359375,4.814697265625
0.1095,-1.351318359375,-6.035888671875,5.415283203125
0.11,-2.632568359375,-4.914794921875,5.735595703125
0.1105,-3.873779296875,-3.673583984375,5.935791015625
0.111,-4.834716796875,-2.512451171875,6.095947265625
0.1115,-5.475341796875,-1.791748046875,6.336181640625
0.112,-5.675537109375,-1.151123046875,6.135986328125
0.1125,-5.475341796875,-0.270263671875,5.335205078125
0.113,-5.315185546875,0.970947265625,4.214111328125
0.1135,-5.195068359375,2.292236328125,2.972900390625
0.114,-5.114990234375,3.493408203125,2.011962890625
0.1145,-5.034912109375,4.334228515625,1.291259765625
0.115,-4.394287109375,4.734619140625,0.490478515625
0.1155,-3.313232421875,4.854736328125,-0.790771484375
0.116,-2.072021484375,5.094970703125,-2.192138671875
0.1165,-1.031005859375,5.375244140625,-3.513427734375
0.117,-0.310302734375,5.775634765625,-4.634521484375
0.1175,0.570556640625,5.815673828125,-5.475341796875
0.118,1.731689453125,4.974853515625,-5.915771484375
0.1185,3.052978515625,3.693603515625,-6.196044921875
0.119,4.214111328125,2.332275390625,-6.316162109375
0.1195,5.054931640625,1.331298828125,-6.396240234375
0.12,5.575439453125,0.650634765625,-6.556396484375
0.1205,5.495361328125,-0.230224609375,-6.115966796875
0.121,5.215087890625,-1.271240234375,-5.034912109375
0.1215,4.974853515625,-2.592529296875,-3.753662109375
0.122,4.814697265625,-3.873779296875,-2.432373046875
0.1225,4.734619140625,-4.914794921875,-1.551513671875
0.123,4.494384765625,-5.555419921875,-0.830810546875
0.1235,3.533447265625,-5.755615234375,0.250244140625
0.124,2.252197265625,-5.875732421875,1.571533203125
0.1245,0.930908203125,-6.075927734375,3.052978515625
0.125,0.010009765625,-6.316162109375,4.294189453125
0.1255,-0.790771484375,-6.676513671875,5.375244140625
0.126,-1.751708984375,-6.236083984375,6.015869140625
0.1265,-3.072998046875,-5.074951171875,6.296142578125
0.127,-4.354248046875,-3.593505859375,6.456298828125
0.1275,-5.435302734375,-2.272216796875,6.496337890625
0.128,-6.075927734375,-1.351318359375,6.536376953125
0.1285,-6.316162109375,-0.670654296875,6.416259765625
0.129,-6.075927734375,0.330322265625,5.575439453125
0.1295,-5.755615234375,1.571533203125,4.214111328125
0.13,-5.435302734375,3.052978515625,2.772705078125
0.1305,-5.235107421875,4.214111328125,1.571533203125
0.131,-5.074951171875,5.094970703125,0.770751953125
0.1315,-4.434326171875,5.415283203125,-0.190185546875
0.132,-3.193115234375,5.495361328125,-1.311279296875
0.1325,-1.751708984375,5.575439453125,-2.872802734375
0.133,-0.430419921875,5.655517578125,-4.314208984375
0.1335,0.490478515625,5.895751953125,-5.315185546875
0.134,1.211181640625,6.015869140625,-6.236083984375
0.1345,2.292236328125,5.135009765625,-6.676513671875
0.135,3.693603515625,3.693603515625,-6.836669921875
0.1355,4.854736328125,2.172119140625,-6.836669921875
0.136,5.735595703125,0.890869140625,-6.716552734375
0.1365,6.095947265625,0.090087890625,-6.756591796875
0.137,6.095947265625,-0.750732421875,-6.276123046875
0.1375,5.695556640625,-1.791748046875,-5.155029296875
0.138,5.335205078125,-3.153076171875,-3.713623046875
0.1385,4.974853515625,-4.474365234375,-2.232177734375
0.139,4.734619140625,-5.475341796875,-1.151123046875
0.1395,4.494384765625,-6.156005859375,-0.390380859375
0.14,3.573486328125,-6.276123046875,0.610595703125
0.1405,2.212158203125,-6.276123046875,1.931884765625
0.141,0.690673828125,-6.316162109375,3.413330078125
0.1415,-0.550537109375,-6.396240234375,4.694580078125
0.142,-1.191162109375,-6.676513671875,5.695556640625
0.1425,-1.991943359375,-6.476318359375,6.416259765625
0.143,-3.233154296875,-5.315185546875,6.696533203125
0.1435,-4.554443359375,-3.873779296875,6.816650390625
0.144,-5.635498046875,-2.392333984375,6.736572265625
0.1445,-6.316162109375,-1.311279296875,6.696533203125
0.145,-6.636474609375,-0.630615234375,6.616455078125
0.1455,-6.436279296875,0.290283203125,5.935791015625
0.146,-6.035888671875,1.531494140625,4.614501953125
0.1465,-5.635498046875,2.852783203125,3.173095703125
0.147,-5.315185546875,4.134033203125,1.771728515625
0.1475,-5.114990234375,5.094970703125,0.810791015625
0.148,-4.674560546875,5.615478515625,0.050048828125
0.1485,-3.593505859375,5.695556640625,-1.071044921875
0.149,-2.152099609375,5.735595703125,-2.512451171875
0.1495,-0.630615234375,5.735595703125,-4.033935546875
0.15,0.410400390625,5.895751953125,-5.195068359375
0.1505,1.010986328125,6.216064453125,-6.156005859375
0.151,1.931884765625,5.655517578125,-6.716552734375
0.1515,3.333251953125,4.294189453125,-6.916748046875
0.152,4.614501953125,2.772705078125,-7.036865234375
0.1525,5.615478515625,1.251220703125,-6.916748046875
0.153,6.095947265625,0.330322265625,-6.876708984375
0.1535,6.256103515625,-0.510498046875,-6.676513671875
0.154,6.015869140625,-1.311279296875,-5.755615234375
0.1545,5.575439453125,-2.592529296875,-4.354248046875
0.155,5.175048828125,-3.993896484375,-2.752685546875
0.1555,4.894775390625,-5.195068359375,-1.551513671875
0.156,4.694580078125,-6.035888671875,-0.670654296875
0.1565,4.013916015625,-6.396240234375,0.250244140625
0.157,2.812744140625,-6.396240234375,1.411376953125
0.1575,1.291259765625,-6.396240234375,2.892822265625
0.158,-0.230224609375,-6.436279296875,4.334228515625
0.1585,-0.990966796875,-6.636474609375,5.415283203125
0.159,-1.671630859375,-6.756591796875,6.296142578125
0.1595,-2.752685546875,-5.915771484375,6.696533203125
0.16,-4.154052734375,-4.434326171875,6.856689453125
0.1605,-5.355224609375,-2.912841796875,6.856689453125
0.161,-6.196044921875,-1.631591796875,6.736572265625
0.1615,-6.636474609375,-0.870849609375,6.696533203125
0.162,-6.556396484375,0.010009765625,6.336181640625
0.1625,-6.196044921875,1.091064453125,5.135009765625
0.163,-5.835693359375,2.452392578125,3.693603515625
0.1635,-5.435302734375,3.853759765625,2.172119140625
0.164,-5.195068359375,4.854736328125,1.131103515625
0.1645,-4.954833984375,5.615478515625,0.290283203125
0.165,-4.073974609375,5.735595703125,-0.670654296875
0.1655,-2.672607421875,5.735595703125,-1.991943359375
0.166,-1.151123046875,5.775634765625,-3.553466796875
0.1665,0.170166015625,5.855712890625,-4.874755859375
0.167,0.850830078125,6.095947265625,-5.875732421875
0.1675,1.611572265625,5.975830078125,-6.636474609375
0.168,2.852783203125,4.814697265625,-6.916748046875
0.1685,4.214111328125,3.253173828125,-7.076904296875
0.169,5.335205078125,1.731689453125,-6.996826171875
0.1695,6.015869140625,0.610595703125,-6.916748046875
0.17,6.376220703125,-0.190185546875,-6.876708984375
0.1705,6.176025390625,-0.990966796875,-6.196044921875
0.171,5.775634765625,-2.192138671875,-4.914794921875
0.1715,5.375244140625,-3.593505859375,-3.313232421875
0.172,5.054931640625,-4.914794921875,-1.911865234375
0.1725,4.814697265625,-5.835693359375,-0.910888671875
0.173,4.414306640625,-6.396240234375,0.010009765625
0.1735,3.293212890625,-6.476318359375,0.970947265625
0.174,1.851806640625,-6.476318359375,2.412353515625
0.1745,0.250244140625,-6.436279296875,3.973876953125
0.175,-0.790771484375,-6.596435546875,5.135009765625
0.1755,-1.431396484375,-6.796630859375,6.095947265625
0.176,-2.392333984375,-6.356201171875,6.696533203125
0.1765,-3.753662109375,-4.954833984375,6.896728515625
0.177,-4.994873046875,-3.473388671875,6.936767578125
0.1775,-6.035888671875,-1.991943359375,6.776611328125
0.178,-6.556396484375,-1.031005859375,6.736572265625
0.1785,-6.716552734375,-0.310302734375,6.536376953125
0.179,-6.396240234375,0.690673828125,5.615478515625
0.1795,-5.955810546875,1.931884765625,4.214111328125
0.18,-5.595458984375,3.333251953125,2.692626953125
0.1805,-5.235107421875,4.494384765625,1.411376953125
0.181,-5.034912109375,5.335205078125,0.570556640625
0.1815,-4.394287109375,5.655517578125,-0.310302734375
0.182,-3.193115234375,5.695556640625,-1.431396484375
0.1825,-1.711669921875,5.735595703125,-2.912841796875
0.183,-0.310302734375,5.735595703125,-4.354248046875
0.1835,0.610595703125,5.895751953125,-5.435302734375
0.184,1.251220703125,6.095947265625,-6.316162109375
0.1845,2.252197265625,5.295166015625,-6.716552734375
0.185,3.573486328125,3.853759765625,-6.876708984375
0.1855,4.734619140625,2.332275390625,-6.876708984375
0.186,5.615478515625,1.091064453125,-6.756591796875
0.1865,6.055908203125,0.290283203125,-6.756591796875
0.187,6.095947265625,-0.470458984375,-6.436279296875
0.1875,5.695556640625,-1.431396484375,-5.435302734375
0.188,5.375244140625,-2.712646484375,-4.073974609375
