wavelength,x,y,z
0.0,-5.114990234375,3.213134765625,2.212158203125
0.0005,-4.914794921875,3.973876953125,1.411376953125
0.001,-4.354248046875,4.494384765625,0.610595703125
0.0015,-3.513427734375,4.654541015625,-0.630615234375
0.002,-2.512451171875,5.094970703125,-1.831787109375
0.0025,-1.391357421875,5.375244140625,-3.193115234375
0.003,-0.630615234375,5.615478515625,-4.194091796875
0.0035,0.210205078125,5.655517578125,-5.034912109375
0.004,1.211181640625,5.054931640625,-5.475341796875
0.0045,2.412353515625,3.973876953125,-5.795654296875
0.005,3.653564453125,2.852783203125,-6.115966796875
0.0055,4.574462890625,1.651611328125,-6.196044921875
0.006,5.094970703125,0.850830078125,-6.156005859375
0.0065,5.135009765625,0.090087890625,-5.755615234375
0.007,4.974853515625,-0.990966796875,-4.874755859375
0.0075,4.934814453125,-2.192138671875,-3.913818359375
0.008,4.854736328125,-3.473388671875,-2.832763671875
0.0085,4.694580078125,-4.514404296875,-1.871826171875
0.009,4.454345703125,-5.195068359375,-1.031005859375
0.0095,3.693603515625,-5.475341796875,-0.190185546875
0.01,2.652587890625,-5.715576171875,1.091064453125
0.0105,1.531494140625,-6.035888671875,2.532470703125
0.011,0.490478515625,-6.196044921875,3.733642578125
0.0115,-0.350341796875,-6.396240234375,4.654541015625
0.012,-1.151123046875,-6.196044921875,5.335205078125
0.0125,-2.232177734375,-5.275146484375,5.655517578125
0.013,-3.473388671875,-4.154052734375,5.975830078125
0.0135,-4.634521484375,-2.872802734375,6.176025390625
0.014,-5.395263671875,-1.831787109375,6.135986328125
0.0145,-5.675537109375,-1.071044921875,6.015869140625
0.015,-5.595458984375,-0.230224609375,5.335205078125
0.0155,-5.395263671875,0.930908203125,4.374267578125
0.016,-5.395263671875,2.252197265625,3.333251953125
0.0165,-5.235107421875,3.453369140625,2.212158203125
0.017,-5.034912109375,4.294189453125,1.291259765625
0.0175,-4.594482421875,4.814697265625,0.490478515625
0.018,-3.673583984375,5.054931640625,-0.630615234375
0.0185,-2.512451171875,5.295166015625,-1.951904296875
0.019,-1.311279296875,5.615478515625,-3.393310546875
0.0195,-0.350341796875,5.735595703125,-4.514404296875
0.02,0.410400390625,5.815673828125,-5.355224609375
0.0205,1.331298828125,5.335205078125,-5.875732421875
0.021,2.652587890625,4.134033203125,-6.196044921875
0.0215,3.893798828125,2.932861328125,-6.476318359375
0.022,4.974853515625,1.651611328125,-6.556396484375
0.0225,5.495361328125,0.650634765625,-6.436279296875
0.023,5.655517578125,-0.270263671875,-6.115966796875
0.0235,5.415283203125,-1.271240234375,-5.195068359375
0.024,5.255126953125,-2.472412109375,-3.993896484375
0.0245,5.135009765625,-3.913818359375,-2.752685546875
0.025,4.894775390625,-5.074951171875,-1.631591796875
0.0255,4.494384765625,-5.795654296875,-0.830810546875
0.026,3.853759765625,-6.035888671875,0.210205078125
0.0265,2.612548828125,-6.115966796875,1.411376953125
0.027,1.331298828125,-6.396240234375,2.932861328125
0.0275,0.130126953125,-6.476318359375,4.334228515625
0.028,-0.790771484375,-6.596435546875,5.255126953125
0.0285,-1.551513671875,-6.436279296875,5.895751953125
0.029,-2.632568359375,-5.515380859375,6.296142578125
0.0295,-3.993896484375,-4.154052734375,6.496337890625
0.03,-5.195068359375,-2.752685546875,6.696533203125
0.0305,-5.955810546875,-1.551513671875,6.536376953125
0.031,-6.276123046875,-0.670654296875,6.296142578125
0.0315,-6.156005859375,0.290283203125,5.615478515625
0.032,-5.835693359375,1.491455078125,4.454345703125
0.0325,-5.635498046875,2.732666015625,3.173095703125
0.033,-5.435302734375,4.093994140625,1.891845703125
0.0335,-5.114990234375,4.894775390625,0.810791015625
0.034,-4.594482421875,5.495361328125,0.050048828125
0.0345,-3.673583984375,5.615478515625,-1.031005859375
0.035,-2.272216796875,5.695556640625,-2.432373046875
0.0355,-0.990966796875,5.935791015625,-3.913818359375
0.036,0.250244140625,5.935791015625,-5.114990234375
0.0365,0.930908203125,5.975830078125,-5.915771484375
0.037,1.771728515625,5.575439453125,-6.396240234375
0.0375,3.012939453125,4.334228515625,-6.676513671875
0.038,4.294189453125,2.972900390625,-6.876708984375
0.0385,5.415283203125,1.531494140625,-6.916748046875
0.039,5.935791015625,0.410400390625,-6.676513671875
0.0395,6.095947265625,-0.510498046875,-6.356201171875
0.04,5.855712890625,-1.431396484375,-5.475341796875
0.0405,5.495361328125,-2.752685546875,-4.154052734375
0.041,5.295166015625,-4.073974609375,-2.872802734375
0.0415,5.094970703125,-5.275146484375,-1.671630859375
0.042,4.614501953125,-5.995849609375,-0.630615234375
0.0425,3.973876953125,-6.396240234375,0.290283203125
0.043,2.852783203125,-6.396240234375,1.371337890625
0.0435,1.451416015625,-6.516357421875,2.852783203125
0.044,0.130126953125,-6.676513671875,4.334228515625
0.0445,-0.950927734375,-6.636474609375,5.375244140625
0.045,-1.591552734375,-6.596435546875,6.055908203125
0.0455,-2.512451171875,-5.915771484375,6.416259765625
0.046,-3.833740234375,-4.514404296875,6.656494140625
0.0465,-5.074951171875,-3.193115234375,6.776611328125
0.047,-5.955810546875,-1.831787109375,6.696533203125
0.0475,-6.396240234375,-0.870849609375,6.536376953125
0.048,-6.396240234375,0.090087890625,6.015869140625
0.0485,-6.075927734375,1.051025390625,4.974853515625
0.049,-5.755615234375,2.292236328125,3.693603515625
0.0495,-5.635498046875,3.733642578125,2.412353515625
0.05,-5.275146484375,4.774658203125,1.251220703125
0.0505,-4.874755859375,5.415283203125,0.370361328125
0.051,-4.114013671875,5.695556640625,-0.630615234375
0.0515,-2.832763671875,5.735595703125,-1.831787109375
0.052,-1.551513671875,5.895751953125,-3.313232421875
0.0525,-0.270263671875,5.975830078125,-4.714599609375
0.053,0.650634765625,6.055908203125,-5.635498046875
0.0535,1.371337890625,5.855712890625,-6.276123046875
0.054,2.452392578125,4.974853515625,-6.596435546875
0.0545,3.813720703125,3.573486328125,-6.836669921875
0.055,4.974853515625,2.212158203125,-6.956787109375
0.0555,5.775634765625,0.890869140625,-6.796630859375
0.056,6.095947265625,0.010009765625,-6.596435546875
0.0565,5.975830078125,-1.031005859375,-5.915771484375
0.057,5.655517578125,-2.192138671875,-4.714599609375
0.0575,5.455322265625,-3.553466796875,-3.553466796875
0.058,5.215087890625,-4.794677734375,-2.192138671875
0.0585,4.854736328125,-5.755615234375,-1.071044921875
0.059,4.414306640625,-6.276123046875,-0.190185546875
0.0595,3.413330078125,-6.436279296875,0.850830078125
0.06,2.052001953125,-6.476318359375,2.252197265625
0.0605,0.650634765625,-6.716552734375,3.853759765625
0.061,-0.630615234375,-6.676513671875,5.054931640625
0.0615,-1.311279296875,-6.716552734375,5.895751953125
0.062,-2.112060546875,-6.316162109375,6.416259765625
0.0625,-3.353271484375,-5.114990234375,6.656494140625
0.063,-4.634521484375,-3.713623046875,6.856689453125
0.0635,-5.755615234375,-2.312255859375,6.896728515625
0.064,-6.396240234375,-1.111083984375,6.656494140625
0.0645,-6.516357421875,-0.310302734375,6.296142578125
0.065,-6.276123046875,0.770751953125,5.415283203125
0.0655,-5.915771484375,2.092041015625,4.134033203125
0.066,-5.755615234375,3.413330078125,2.772705078125
0.0665,-5.475341796875,4.614501953125,1.531494140625
0.067,-5.074951171875,5.375244140625,0.570556640625
0.0675,-4.434326171875,5.735595703125,-0.390380859375
0.068,-3.233154296875,5.815673828125,-1.551513671875
0.0685,-1.871826171875,5.935791015625,-2.992919921875
0.069,-0.510498046875,6.055908203125,-4.514404296875
0.0695,0.570556640625,6.055908203125,-5.515380859375
0.07,1.251220703125,6.015869140625,-6.236083984375
0.0705,2.212158203125,5.255126953125,-6.636474609375
0.071,3.533447265625,3.893798828125,-6.836669921875
0.0715,4.774658203125,2.532470703125,-6.996826171875
0.072,5.655517578125,1.131103515625,-6.876708984375
0.0725,6.055908203125,0.130126953125,-6.596435546875
0.073,6.095947265625,-0.830810546875,-6.156005859375
0.0735,5.615478515625,-1.871826171875,-5.034912109375
0.074,5.415283203125,-3.072998046875,-3.833740234375
0.0745,5.215087890625,-4.394287109375,-2.512451171875
0.075,4.894775390625,-5.435302734375,-1.311279296875
0.0755,4.494384765625,-6.075927734375,-0.470458984375
0.076,3.693603515625,-6.316162109375,0.490478515625
0.0765,2.492431640625,-6.356201171875,1.651611328125
0.077,1.171142578125,-6.476318359375,3.173095703125
0.0775,-0.190185546875,-6.556396484375,4.494384765625
0.078,-0.990966796875,-6.596435546875,5.375244140625
0.0785,-1.671630859375,-6.436279296875,6.015869140625
0.079,-2.672607421875,-5.595458984375,6.296142578125
0.0795,-3.873779296875,-4.314208984375,6.496337890625
0.08,-5.114990234375,-2.952880859375,6.656494140625
0.0805,-5.875732421875,-1.791748046875,6.536376953125
0.081,-6.156005859375,-0.910888671875,6.336181640625
0.0815,-6.196044921875,-0.230224609375,5.735595703125
0.082,-5.795654296875,1.051025390625,4.734619140625
0.0825,-5.635498046875,2.292236328125,3.533447265625
0.083,-5.435302734375,3.533447265625,2.372314453125
0.0835,-5.155029296875,4.494384765625,1.291259765625
0.084,-4.794677734375,5.094970703125,0.490478515625
0.0845,-3.953857421875,5.375244140625,-0.510498046875
0.085,-2.792724609375,5.455322265625,-1.711669921875
0.0855,-1.591552734375,5.735595703125,-3.193115234375
0.086,-0.430419921875,5.815673828125,-4.434326171875
0.0865,0.410400390625,5.975830078125,-5.315185546875
0.087,1.211181640625,5.735595703125,-5.955810546875
0.0875,2.332275390625,4.694580078125,-6.276123046875
0.088,3.573486328125,3.493408203125,-6.556396484375
0.0885,4.694580078125,2.132080078125,-6.676513671875
0.089,5.415283203125,0.970947265625,-6.556396484375
0.0895,5.735595703125,0.130126953125,-6.476318359375
0.09,5.615478515625,-0.750732421875,-5.715576171875
0.0905,5.335205078125,-1.831787109375,-4.594482421875
0.091,5.215087890625,-3.153076171875,-3.433349609375
0.0915,5.014892578125,-4.394287109375,-2.272216796875
0.092,4.734619140625,-5.235107421875,-1.311279296875
0.0925,4.254150390625,-5.755615234375,-0.470458984375
0.093,3.293212890625,-5.915771484375,0.610595703125
0.0935,2.092041015625,-6.115966796875,1.931884765625
0.094,0.810791015625,-6.316162109375,3.413330078125
0.0945,-0.270263671875,-6.396240234375,4.494384765625
0.095,-0.910888671875,-6.516357421875,5.295166015625
0.0955,-1.791748046875,-5.995849609375,5.775634765625
0.096,-2.992919921875,-4.874755859375,6.055908203125
0.0965,-4.154052734375,-3.713623046875,6.256103515625
0.097,-5.155029296875,-2.432373046875,6.376220703125
0.0975,-5.635498046875,-1.511474609375,6.095947265625
0.098,-5.835693359375,-0.670654296875,5.895751953125
0.0985,-5.675537109375,0.330322265625,5.094970703125
0.099,-5.475341796875,1.411376953125,4.093994140625
0.0995,-5.355224609375,2.732666015625,2.892822265625
0.1,-5.155029296875,3.813720703125,1.851806640625
0.1005,-4.874755859375,4.534423828125,1.010986328125
0.101,-4.274169921875,4.934814453125,0.210205078125
0.1015,-3.273193359375,5.094970703125,-0.990966796875
0.102,-2.232177734375,5.415283203125,-2.272216796875
0.1025,-1.031005859375,5.535400390625,-3.593505859375
0.103,-0.230224609375,5.735595703125,-4.554443359375
0.1035,0.610595703125,5.695556640625,-5.315185546875
0.104,1.531494140625,5.054931640625,-5.755615234375
0.1045,2.692626953125,3.973876953125,-6.075927734375
0.105,3.893798828125,2.732666015625,-6.316162109375
0.1055,4.694580078125,1.651611328125,-6.196044921875
0.106,5.215087890625,0.810791015625,-6.236083984375
0.1065,5.255126953125,0.010009765625,-5.835693359375
0.107,5.094970703125,-1.031005859375,-4.994873046875
0.1075,4.974853515625,-2.112060546875,-4.073974609375
0.108,4.894775390625,-3.393310546875,-2.912841796875
0.1085,4.734619140625,-4.354248046875,-1.951904296875
0.109,4.454345703125,-5.114990234375,-1.191162109375
0.1095,3.773681640625,-5.435302734375,-0.310302734375
0.11,2.812744140625,-5.635498046875,0.890869140625
0.1105,1.691650390625,-5.955810546875,2.252197265625
0.111,0.650634765625,-6.115966796875,3.453369140625
0.1115,-0.150146484375,-6.356201171875,4.414306640625
0.112,-0.910888671875,-6.236083984375,5.094970703125
0.1125,-1.951904296875,-5.475341796875,5.455322265625
0.113,-3.072998046875,-4.514404296875,5.775634765625
0.1135,-4.394287109375,-3.353271484375,6.055908203125
0.114,-4.994873046875,-2.272216796875,6.055908203125
0.1145,-5.395263671875,-1.471435546875,5.975830078125
0.115,-5.435302734375,-0.670654296875,5.455322265625
0.1155,-5.275146484375,0.330322265625,4.654541015625
0.116,-5.235107421875,1.531494140625,3.733642578125
0.1165,-5.155029296875,2.692626953125,2.692626953125
0.117,-4.994873046875,3.613525390625,1.851806640625
0.1175,-4.674560546875,4.254150390625,1.091064453125
0.118,-3.913818359375,4.534423828125,0.130126953125
0.1185,-3.032958984375,4.894775390625,-1.111083984375
0.119,-1.951904296875,5.215087890625,-2.432373046875
0.1195,-1.071044921875,5.415283203125,-3.553466796875
0.12,-0.350341796875,5.655517578125,-4.474365234375
0.1205,0.570556640625,5.295166015625,-5.114990234375
0.121,1.651611328125,4.494384765625,-5.475341796875
0.1215,2.892822265625,3.453369140625,-5.995849609375
0.122,3.893798828125,2.412353515625,-6.035888671875
0.1225,4.574462890625,1.531494140625,-6.115966796875
0.123,4.854736328125,0.770751953125,-5.955810546875
0.1235,4.854736328125,-0.150146484375,-5.355224609375
0.124,4.814697265625,-1.151123046875,-4.594482421875
0.1245,4.814697265625,-2.352294921875,-3.633544921875
0.125,4.694580078125,-3.473388671875,-2.672607421875
0.1255,4.574462890625,-4.314208984375,-1.911865234375
0.126,4.174072265625,-4.834716796875,-1.071044921875
0.1265,3.373291015625,-5.155029296875,0.010009765625
0.127,2.452392578125,-5.555419921875,1.211181640625
0.1275,1.411376953125,-5.835693359375,2.492431640625
0.128,0.610595703125,-6.115966796875,3.573486328125
0.1285,-0.190185546875,-6.316162109375,4.334228515625
0.129,-1.151123046875,-5.795654296875,4.934814453125
0.1295,-2.192138671875,-4.994873046875,5.215087890625
0.13,-3.473388671875,-3.873779296875,5.735595703125
0.1305,-4.394287109375,-2.832763671875,5.855712890625
0.131,-4.994873046875,-2.031982421875,5.935791015625
0.1315,-5.155029296875,-1.271240234375,5.615478515625
0.132,-5.114990234375,-0.350341796875,4.974853515625
0.1325,-5.114990234375,0.770751953125,4.174072265625
0.133,-5.155029296875,2.052001953125,3.213134765625
0.1335,-5.074951171875,3.052978515625,2.292236328125
0.134,-4.874755859375,3.853759765625,1.571533203125
0.1345,-4.314208984375,4.294189453125,0.690673828125
0.135,-3.473388671875,4.614501953125,-0.510498046875
0.1355,-2.552490234375,5.054931640625,-1.791748046875
0.136,-1.511474609375,5.295166015625,-2.992919921875
0.1365,-0.790771484375,5.615478515625,-3.993896484375
0.137,0.130126953125,5.455322265625,-4.794677734375
0.1375,1.211181640625,4.854736328125,-5.195068359375
0.138,2.412353515625,3.853759765625,-5.675537109375
0.1385,3.533447265625,2.732666015625,-5.955810546875
0.139,4.374267578125,1.731689453125,-6.075927734375
0.1395,4.814697265625,1.010986328125,-6.035888671875
0.14,4.894775390625,0.210205078125,-5.595458984375
0.1405,4.814697265625,-0.910888671875,-4.794677734375
0.141,4.814697265625,-2.072021484375,-3.873779296875
0.1415,4.814697265625,-3.273193359375,-2.872802734375
0.142,4.654541015625,-4.194091796875,-1.991943359375
0.1425,4.334228515625,-4.834716796875,-1.231201171875
0.143,3.573486328125,-5.155029296875,-0.270263671875
0.1435,2.612548828125,-5.515380859375,0.970947265625
0.144,1.571533203125,-5.835693359375,2.412353515625
0.1445,0.650634765625,-6.115966796875,3.533447265625
0.145,0.010009765625,-6.316162109375,4.374267578125
0.1455,-1.151123046875,-6.075927734375,5.054931640625
0.146,-2.192138671875,-5.034912109375,5.375244140625
0.1465,-3.353271484375,-3.993896484375,5.735595703125
0.147,-4.434326171875,-2.872802734375,5.895751953125
0.1475,-5.034912109375,-1.991943359375,5.975830078125
0.148,-5.275146484375,-1.231201171875,5.735595703125
0.1485,-5.275146484375,-0.350341796875,5.094970703125
0.149,-5.155029296875,0.770751953125,4.294189453125
0.1495,-5.155029296875,2.011962890625,3.253173828125
0.15,-5.074951171875,3.093017578125,2.292236328125
0.1505,-4.874755859375,3.893798828125,1.491455078125
0.151,-4.434326171875,4.414306640625,0.650634765625
0.1515,-3.513427734375,4.654541015625,-0.510498046875
0.152,-2.552490234375,5.094970703125,-1.751708984375
0.1525,-1.431396484375,5.295166015625,-3.113037109375
0.153,-0.710693359375,5.575439453125,-4.073974609375
0.1535,0.250244140625,5.695556640625,-4.954833984375
0.154,1.131103515625,5.054931640625,-5.395263671875
0.1545,2.372314453125,4.013916015625,-5.755615234375
0.155,3.573486328125,2.852783203125,-6.115966796875
0.1555,4.454345703125,1.771728515625,-6.115966796875
0.156,4.974853515625,0.970947265625,-6.156005859375
0.1565,5.094970703125,0.210205078125,-5.755615234375
0.157,4.974853515625,-0.910888671875,-4.914794921875
0.1575,4.934814453125,-2.031982421875,-3.993896484375
0.158,4.854736328125,-3.353271484375,-2.912841796875
0.1585,4.734619140625,-4.354248046875,-1.951904296875
0.159,4.494384765625,-5.034912109375,-1.231201171875
0.1595,3.733642578125,-5.395263671875,-0.310302734375
0.16,2.692626953125,-5.635498046875,1.010986328125
0.1605,1.611572265625,-5.915771484375,2.412353515625
0.161,0.570556640625,-6.196044921875,3.613525390625
0.1615,-0.310302734375,-6.436279296875,4.614501953125
0.162,-1.071044921875,-6.115966796875,5.215087890625
0.1625,-2.192138671875,-5.235107421875,5.615478515625
0.163,-3.433349609375,-4.154052734375,5.975830078125
0.1635,-4.634521484375,-2.912841796875,6.135986328125
0.164,-5.315185546875,-1.911865234375,6.135986328125
0.1645,-5.635498046875,-1.151123046875,5.975830078125
0.165,-5.555419921875,-0.270263671875,5.335205078125
0.1655,-5.435302734375,0.930908203125,4.334228515625
0.166,-5.315185546875,2.252197265625,3.293212890625
0.1665,-5.235107421875,3.413330078125,2.212158203125
0.167,-4.994873046875,4.254150390625,1.291259765625
0.1675,-4.514404296875,4.774658203125,0.490478515625
0.168,-3.593505859375,5.014892578125,-0.630615234375
0.1685,-2.552490234375,5.255126953125,-1.911865234375
0.169,-1.311279296875,5.495361328125,-3.393310546875
0.1695,-0.390380859375,5.695556640625,-4.514404296875
0.17,0.410400390625,5.815673828125,-5.275146484375
0.1705,1.371337890625,5.255126953125,-5.795654296875
0.171,2.692626953125,4.093994140625,-6.156005859375
0.1715,3.933837890625,2.852783203125,-6.436279296875
0.172,4.934814453125,1.571533203125,-6.476318359375
0.1725,5.455322265625,0.650634765625,-6.396240234375
0.173,5.575439453125,-0.270263671875,-6.075927734375
0.1735,5.415283203125,-1.271240234375,-5.114990234375
0.174,5.215087890625,-2.512451171875,-3.993896484375
0.1745,5.094970703125,-3.873779296875,-2.752685546875
0.175,4.854736328125,-4.954833984375,-1.631591796875
0.1755,4.534423828125,-5.635498046875,-0.790771484375
0.176,3.813720703125,-5.955810546875,0.210205078125
0.1765,2.612548828125,-6.236083984375,1.371337890625
0.177,1.291259765625,-6.396240234375,2.932861328125
0.1775,0.130126953125,-6.516357421875,4.294189453125
0.178,-0.790771484375,-6.556396484375,5.215087890625
0.1785,-1.511474609375,-6.396240234375,5.895751953125
0.179,-2.632568359375,-5.475341796875,6.256103515625
0.1795,-3.993896484375,-4.114013671875,6.496337890625
0.18,-5.195068359375,-2.752685546875,6.656494140625
0.1805,-5.915771484375,-1.551513671875,6.496337890625
0.181,-6.236083984375,-0.670654296875,6.256103515625
0.1815,-6.115966796875,0.290283203125,5.575439453125
0.182,-5.795654296875,1.491455078125,4.414306640625
0.1825,-5.635498046875,2.812744140625,3.173095703125
0.183,-5.435302734375,4.053955078125,1.931884765625
0.1835,-5.074951171875,4.934814453125,0.930908203125
0.184,-4.594482421875,5.415283203125,0.130126953125
0.1845,-3.553466796875,5.535400390625,-1.071044921875
0.185,-2.272216796875,5.655517578125,-2.392333984375
0.1855,-0.990966796875,5.895751953125,-3.913818359375
0.186,0.170166015625,5.895751953125,-5.034912109375
0.1865,0.890869140625,5.975830078125,-5.835693359375
0.187,1.731689453125,5.495361328125,-6.396240234375
0.1875,3.052978515625,4.214111328125,-6.676513671875
0.188,4.294189453125,2.892822265625,-6.836669921875
