wavelength,x,y,z
0.0,6.015869140625,-22.572021484375,16.546142578125
0.0005,10.300048828125,-22.772216796875,12.462158203125
0.001,14.343994140625,-22.451904296875,8.137939453125
0.0015,17.226806640625,-22.331787109375,5.175048828125
0.002,20.269775390625,-20.489990234375,0.330322265625
0.0025,22.471923828125,-18.768310546875,-3.673583984375
0.003,22.752197265625,-15.044677734375,-7.717529296875
0.0035,23.512939453125,-11.721435546875,-11.841552734375
0.004,22.231689453125,-7.397216796875,-14.964599609375
0.0045,21.791259765625,-3.713623046875,-18.247802734375
0.005,19.869384765625,0.650634765625,-20.650146484375
0.0055,17.907470703125,5.375244140625,-23.372802734375
0.006,13.262939453125,9.619384765625,-22.932373046875
0.0065,9.579345703125,13.623291015625,-23.252685546875
0.007,5.935791015625,16.345947265625,-22.451904296875
0.0075,0.850830078125,19.589111328125,-20.650146484375
0.008,-3.072998046875,21.510986328125,-18.728271484375
0.0085,-8.157958984375,23.072509765625,-15.284912109375
0.009,-12.041748046875,23.192626953125,-11.681396484375
0.0095,-15.965576171875,22.431884765625,-7.116943359375
0.01,-18.768310546875,21.951416015625,-3.713623046875
0.0105,-21.490966796875,20.109619140625,0.890869140625
0.011,-23.613037109375,17.867431640625,5.335205078125
0.0115,-23.212646484375,13.423095703125,9.419189453125
0.012,-23.893310546875,10.219970703125,13.343017578125
0.0125,-22.531982421875,5.935791015625,16.345947265625
0.013,-21.531005859375,1.571533203125,19.709228515625
0.0135,-19.569091796875,-2.632568359375,21.911376953125
0.014,-16.606201171875,-7.877685546875,24.193603515625
0.0145,-12.001708984375,-11.761474609375,23.472900390625
0.015,-7.997802734375,-15.605224609375,23.312744140625
0.0155,-4.114013671875,-18.167724609375,22.031494140625
0.016,1.131103515625,-21.250732421875,19.989501953125
0.0165,5.335205078125,-23.012451171875,17.627197265625
0.017,10.540283203125,-23.813232421875,13.302978515625
0.0175,14.103759765625,-23.933349609375,9.859619140625
0.018,17.987548828125,-22.852294921875,5.014892578125
0.0185,20.750244140625,-21.731201171875,1.131103515625
0.019,23.032470703125,-19.729248046875,-3.193115234375
0.0195,24.794189453125,-16.766357421875,-8.037841796875
0.02,23.833251953125,-11.881591796875,-12.041748046875
0.0205,24.233642578125,-8.718505859375,-15.645263671875
0.021,22.552001953125,-4.194091796875,-18.528076171875
0.0215,21.190673828125,0.490478515625,-21.771240234375
0.022,18.708251953125,4.734619140625,-23.532958984375
0.0225,14.864501953125,10.179931640625,-25.094482421875
0.023,10.460205078125,13.663330078125,-24.213623046875
0.0235,6.055908203125,17.427001953125,-23.572998046875
0.024,1.931884765625,19.709228515625,-21.811279296875
0.0245,-3.032958984375,22.552001953125,-19.889404296875
0.025,-7.717529296875,24.033447265625,-16.686279296875
0.0255,-12.642333984375,24.073486328125,-12.001708984375
0.026,-15.925537109375,24.153564453125,-8.798583984375
0.0265,-19.569091796875,22.712158203125,-3.713623046875
0.027,-22.091552734375,21.150634765625,0.450439453125
0.0275,-23.853271484375,18.908447265625,4.494384765625
0.028,-25.254638671875,15.304931640625,9.539306640625
0.0285,-24.013427734375,10.460205078125,13.262939453125
0.029,-24.053466796875,7.056884765625,16.666259765625
0.0295,-22.171630859375,2.572509765625,19.348876953125
0.03,-20.770263671875,-2.152099609375,22.592041015625
0.0305,-17.647216796875,-6.476318359375,23.833251953125
0.031,-13.443115234375,-11.681396484375,24.834228515625
0.0315,-9.439208984375,-14.844482421875,23.993408203125
0.032,-4.594482421875,-18.488037109375,22.792236328125
0.0325,-0.390380859375,-20.610107421875,20.790283203125
0.033,4.093994140625,-23.092529296875,18.948486328125
0.0335,9.178955078125,-24.333740234375,15.064697265625
0.034,13.583251953125,-23.773193359375,10.300048828125
0.0345,16.786376953125,-23.973388671875,7.297119140625
0.035,20.229736328125,-22.251708984375,2.172119140625
0.0355,22.752197265625,-20.610107421875,-2.072021484375
0.036,23.953369140625,-17.967529296875,-5.915771484375
0.0365,25.034423828125,-14.123779296875,-10.920654296875
0.037,23.833251953125,-9.559326171875,-14.364013671875
0.0375,23.552978515625,-5.915771484375,-17.807373046875
0.038,21.591064453125,-1.511474609375,-20.209716796875
0.0385,20.189697265625,3.133056640625,-23.412841796875
0.039,16.265869140625,7.817626953125,-24.173583984375
0.0395,11.981689453125,12.582275390625,-24.654052734375
0.04,8.378173828125,15.625244140625,-24.093505859375
0.0405,3.253173828125,19.148681640625,-22.531982421875
0.041,-1.031005859375,21.270751953125,-20.489990234375
0.0415,-5.395263671875,23.352783203125,-18.447998046875
0.042,-10.680419921875,24.473876953125,-14.243896484375
0.0425,-14.644287109375,23.593017578125,-9.439208984375
0.043,-17.967529296875,23.753173828125,-6.396240234375
0.0435,-21.010498046875,21.751220703125,-1.271240234375
0.044,-23.693115234375,20.029541015625,3.133056640625
0.0445,-24.173583984375,16.626220703125,7.096923828125
0.045,-25.094482421875,12.782470703125,12.021728515625
0.0455,-23.933349609375,8.378173828125,15.304931640625
0.046,-23.372802734375,4.214111328125,18.908447265625
0.0465,-21.250732421875,-0.270263671875,21.230712890625
0.047,-19.569091796875,-4.994873046875,24.313720703125
0.0475,-15.044677734375,-9.879638671875,24.593994140625
0.048,-10.600341796875,-14.243896484375,24.513916015625
0.0485,-7.076904296875,-17.246826171875,23.993408203125
0.049,-1.391357421875,-20.690185546875,21.791259765625
0.0495,2.932861328125,-22.812255859375,19.709228515625
0.05,7.697509765625,-24.373779296875,16.666259765625
0.0505,12.662353515625,-25.174560546875,12.622314453125
0.051,16.626220703125,-24.053466796875,7.537353515625
0.0515,19.949462890625,-23.853271484375,4.053955078125
0.052,22.752197265625,-21.490966796875,-1.151123046875
0.0525,25.354736328125,-19.529052734375,-5.795654296875
0.053,25.074462890625,-15.124755859375,-9.959716796875
0.0535,25.795166015625,-11.281005859375,-14.604248046875
0.054,24.353759765625,-6.916748046875,-17.567138671875
0.0545,23.232666015625,-2.112060546875,-21.290771484375
0.055,20.830322265625,2.452392578125,-23.372802734375
0.0555,18.267822265625,7.697509765625,-26.015380859375
0.056,13.383056640625,12.302001953125,-25.775146484375
0.0565,8.618408203125,16.506103515625,-25.254638671875
0.057,4.974853515625,19.228759765625,-24.333740234375
0.0575,-1.111083984375,22.511962890625,-21.771240234375
0.058,-5.515380859375,24.634033203125,-19.448974609375
0.0585,-10.760498046875,25.474853515625,-15.164794921875
0.059,-15.084716796875,25.915283203125,-11.401123046875
0.0595,-18.888427734375,24.393798828125,-6.115966796875
0.06,-22.051513671875,23.593017578125,-2.112060546875
0.0605,-24.373779296875,20.990478515625,2.852783203125
0.061,-26.696044921875,18.387939453125,7.897705078125
0.0615,-25.695068359375,13.302978515625,12.101806640625
0.062,-26.135498046875,9.499267578125,16.305908203125
0.0625,-24.413818359375,5.135009765625,19.028564453125
0.063,-22.812255859375,-0.110107421875,22.672119140625
0.0635,-20.249755859375,-4.554443359375,24.593994140625
0.064,-16.606201171875,-10.159912109375,26.435791015625
0.0645,-12.041748046875,-14.243896484375,25.915283203125
0.065,-7.076904296875,-18.127685546875,24.874267578125
0.0655,-3.193115234375,-20.610107421875,23.432861328125
0.066,2.572509765625,-23.532958984375,20.870361328125
0.0665,7.257080078125,-25.454833984375,18.227783203125
0.067,12.422119140625,-25.494873046875,13.102783203125
0.0675,16.305908203125,-25.815185546875,9.659423828125
0.068,19.869384765625,-24.213623046875,4.494384765625
0.0685,22.912353515625,-22.892333984375,0.170166015625
0.069,24.794189453125,-20.369873046875,-4.354248046875
0.0695,26.756103515625,-17.206787109375,-9.559326171875
0.07,25.514892578125,-12.121826171875,-13.443115234375
0.0705,25.554931640625,-8.318115234375,-17.366943359375
0.071,23.873291015625,-4.154052734375,-19.849365234375
0.0715,22.071533203125,1.091064453125,-23.292724609375
0.072,19.348876953125,5.615478515625,-25.054443359375
0.0725,14.864501953125,11.100830078125,-26.135498046875
0.073,10.940673828125,14.744384765625,-25.895263671875
0.0735,5.815673828125,18.508056640625,-24.493896484375
0.074,1.851806640625,20.870361328125,-22.852294921875
0.0745,-3.353271484375,23.512939453125,-20.489990234375
0.075,-8.478271484375,25.474853515625,-17.406982421875
0.0755,-13.202880859375,24.914306640625,-12.201904296875
0.076,-16.926513671875,25.314697265625,-8.958740234375
0.0765,-20.209716796875,23.633056640625,-3.993896484375
0.077,-23.132568359375,22.031494140625,0.610595703125
0.0775,-24.654052734375,19.468994140625,4.774658203125
0.078,-26.255615234375,15.705322265625,10.099853515625
0.0785,-25.134521484375,11.020751953125,13.823486328125
0.079,-24.934326171875,6.976806640625,17.667236328125
0.0795,-23.252685546875,2.892822265625,20.109619140625
0.08,-21.531005859375,-2.272216796875,23.512939453125
0.0805,-18.327880859375,-7.076904296875,25.114501953125
0.081,-13.523193359375,-12.322021484375,25.474853515625
0.0815,-10.079833984375,-15.725341796875,25.434814453125
0.082,-4.634521484375,-19.368896484375,23.673095703125
0.0825,-0.270263671875,-21.651123046875,21.711181640625
0.083,4.454345703125,-24.013427734375,19.509033203125
0.0835,10.099853515625,-25.735107421875,15.665283203125
0.084,14.424072265625,-24.854248046875,10.540283203125
0.0845,18.187744140625,-25.174560546875,7.136962890625
0.085,21.430908203125,-23.292724609375,2.052001953125
0.0855,24.313720703125,-21.490966796875,-2.712646484375
0.086,25.354736328125,-18.447998046875,-6.876708984375
0.0865,26.515869140625,-14.323974609375,-12.241943359375
0.087,25.474853515625,-9.799560546875,-15.765380859375
0.0875,24.794189453125,-5.435302734375,-19.529052734375
0.088,22.672119140625,-0.990966796875,-21.851318359375
0.0885,20.950439453125,4.053955078125,-25.054443359375
0.089,16.666259765625,9.299072265625,-26.135498046875
0.0895,11.661376953125,14.223876953125,-26.055419921875
0.09,8.258056640625,17.427001953125,-25.775146484375
0.0905,2.452392578125,21.070556640625,-23.653076171875
0.091,-2.232177734375,23.312744140625,-21.410888671875
0.0915,-6.836669921875,25.154541015625,-18.728271484375
0.092,-12.562255859375,26.515869140625,-14.404052734375
0.0925,-16.606201171875,25.194580078125,-9.158935546875
0.093,-20.169677734375,25.194580078125,-5.635498046875
0.0935,-23.052490234375,22.752197265625,-0.270263671875
0.094,-25.815185546875,20.790283203125,4.574462890625
0.0945,-26.135498046875,16.826416015625,8.858642578125
0.095,-26.856201171875,12.502197265625,14.023681640625
0.0955,-25.574951171875,8.137939453125,17.186767578125
0.096,-24.614013671875,3.293212890625,21.070556640625
0.0965,-22.051513671875,-1.431396484375,23.192626953125
0.097,-19.969482421875,-6.396240234375,25.995361328125
0.0975,-15.204833984375,-11.681396484375,26.475830078125
0.098,-10.119873046875,-16.005615234375,25.755126953125
0.0985,-6.716552734375,-18.888427734375,25.314697265625
0.099,-0.630615234375,-22.251708984375,22.592041015625
0.0995,4.013916015625,-24.413818359375,20.349853515625
0.1,8.818603515625,-25.574951171875,16.786376953125
0.1005,14.103759765625,-26.575927734375,12.542236328125
0.101,17.787353515625,-25.054443359375,7.377197265625
0.1015,21.390869140625,-24.694091796875,3.533447265625
0.102,23.833251953125,-22.091552734375,-1.631591796875
0.1025,26.435791015625,-19.929443359375,-6.396240234375
0.103,26.075439453125,-15.364990234375,-10.720458984375
0.1035,26.475830078125,-11.040771484375,-15.485107421875
0.104,25.234619140625,-7.197021484375,-18.207763671875
0.1045,23.713134765625,-1.951904296875,-21.931396484375
0.105,21.310791015625,2.492431640625,-23.933349609375
0.1055,18.387939453125,7.617431640625,-26.135498046875
0.106,13.783447265625,12.622314453125,-26.455810546875
0.1065,8.618408203125,16.626220703125,-25.334716796875
0.107,5.335205078125,19.388916015625,-24.854248046875
0.1075,-0.670654296875,22.391845703125,-21.971435546875
0.108,-5.155029296875,24.714111328125,-19.929443359375
0.1085,-10.119873046875,25.074462890625,-15.405029296875
0.109,-14.844482421875,25.955322265625,-11.641357421875
0.1095,-18.247802734375,24.473876953125,-6.876708984375
0.11,-21.691162109375,23.673095703125,-2.552490234375
0.1105,-23.693115234375,21.150634765625,2.052001953125
0.111,-26.095458984375,18.708251953125,6.976806640625
0.1115,-25.454833984375,13.903564453125,11.220947265625
0.112,-25.614990234375,9.619384765625,15.665283203125
0.1125,-24.654052734375,6.135986328125,18.227783203125
0.113,-22.772216796875,0.690673828125,21.831298828125
0.1135,-20.650146484375,-3.713623046875,23.953369140625
0.114,-16.806396484375,-8.878662109375,25.314697265625
0.1145,-12.762451171875,-13.363037109375,25.795166015625
0.115,-7.597412109375,-17.086669921875,24.353759765625
0.1155,-3.953857421875,-19.809326171875,23.512939453125
0.116,1.531494140625,-22.451904296875,20.830322265625
0.1165,6.296142578125,-24.934326171875,18.588134765625
0.117,11.220947265625,-24.614013671875,13.463134765625
0.1175,15.545166015625,-25.374755859375,9.939697265625
0.118,18.828369140625,-24.053466796875,5.455322265625
0.1185,22.151611328125,-22.812255859375,0.810791015625
0.119,23.953369140625,-20.329833984375,-3.553466796875
0.1195,25.875244140625,-17.246826171875,-8.598388671875
0.12,25.234619140625,-12.642333984375,-12.642333984375
0.1205,24.834228515625,-8.318115234375,-16.686279296875
0.121,23.953369140625,-4.954833984375,-19.168701171875
0.1215,21.911376953125,0.490478515625,-22.531982421875
0.122,19.468994140625,5.135009765625,-24.694091796875
0.1225,14.784423828125,10.340087890625,-25.174560546875
0.123,11.260986328125,14.343994140625,-25.695068359375
0.1235,6.095947265625,17.907470703125,-24.093505859375
0.124,2.052001953125,20.550048828125,-22.772216796875
0.1245,-2.832763671875,22.872314453125,-20.329833984375
0.125,-8.157958984375,25.154541015625,-17.447021484375
0.1255,-12.642333984375,24.433837890625,-12.241943359375
0.126,-16.686279296875,24.834228515625,-8.678466796875
0.1265,-19.689208984375,23.512939453125,-4.394287109375
0.127,-22.812255859375,21.911376953125,0.410400390625
0.1275,-24.333740234375,19.268798828125,4.614501953125
0.128,-25.574951171875,15.425048828125,9.739501953125
0.1285,-25.134521484375,11.220947265625,13.583251953125
0.129,-24.333740234375,6.696533203125,17.306884765625
0.1295,-23.212646484375,3.133056640625,19.829345703125
0.13,-21.250732421875,-2.031982421875,22.992431640625
0.1305,-18.247802734375,-7.076904296875,24.994384765625
0.131,-13.202880859375,-11.841552734375,24.714111328125
0.1315,-9.959716796875,-15.485107421875,25.154541015625
0.132,-4.794677734375,-18.768310546875,23.312744140625
0.1325,-0.310302734375,-21.490966796875,21.631103515625
0.133,4.053955078125,-23.332763671875,19.228759765625
0.1335,9.819580078125,-25.254638671875,15.505126953125
0.134,13.783447265625,-24.293701171875,10.620361328125
0.1345,17.827392578125,-24.493896484375,6.816650390625
0.135,20.630126953125,-22.972412109375,2.532470703125
0.1355,23.593017578125,-21.210693359375,-2.272216796875
0.136,24.674072265625,-18.207763671875,-6.476318359375
0.1365,25.314697265625,-13.923583984375,-11.481201171875
0.137,25.034423828125,-10.199951171875,-15.004638671875
0.1375,23.833251953125,-5.435302734375,-18.608154296875
0.138,22.391845703125,-1.511474609375,-21.090576171875
0.1385,20.429931640625,3.253173828125,-23.733154296875
0.139,16.666259765625,8.658447265625,-25.414794921875
0.1395,11.581298828125,13.022705078125,-24.654052734375
0.14,8.298095703125,16.586181640625,-24.974365234375
0.1405,3.173095703125,19.589111328125,-22.932373046875
0.141,-1.471435546875,22.311767578125,-21.090576171875
0.1415,-5.635498046875,23.673095703125,-18.407958984375
0.142,-11.401123046875,25.154541015625,-14.203857421875
0.1425,-14.964599609375,24.153564453125,-9.679443359375
0.143,-18.928466796875,24.033447265625,-5.635498046875
0.1435,-21.410888671875,22.151611328125,-1.391357421875
0.144,-24.093505859375,20.349853515625,3.253173828125
0.1445,-24.814208984375,16.706298828125,7.657470703125
0.145,-24.894287109375,12.181884765625,12.342041015625
0.1455,-24.814208984375,8.818603515625,15.625244140625
0.146,-23.332763671875,3.853759765625,19.228759765625
0.1465,-21.691162109375,-0.310302734375,21.751220703125
0.147,-19.448974609375,-4.794677734375,23.913330078125
0.1475,-15.405029296875,-10.280029296875,25.354736328125
0.148,-10.320068359375,-14.123779296875,24.153564453125
0.1485,-6.916748046875,-17.647216796875,24.273681640625
0.149,-1.711669921875,-20.369873046875,21.831298828125
0.1495,2.892822265625,-23.092529296875,20.149658203125
0.15,7.337158203125,-23.893310546875,16.586181640625
0.1505,12.702392578125,-25.014404296875,12.382080078125
0.151,16.105712890625,-24.093505859375,8.177978515625
0.1515,20.029541015625,-23.572998046875,3.693603515625
0.152,22.231689453125,-21.531005859375,-0.630615234375
0.1525,24.634033203125,-19.569091796875,-5.034912109375
0.153,24.994384765625,-15.445068359375,-9.639404296875
0.1535,24.634033203125,-10.800537109375,-14.083740234375
0.154,24.513916015625,-7.677490234375,-17.006591796875
0.1545,22.672119140625,-2.352294921875,-20.449951171875
0.155,21.070556640625,1.851806640625,-22.972412109375
0.1555,17.867431640625,6.456298828125,-24.373779296875
0.156,13.743408203125,11.741455078125,-25.614990234375
0.1565,8.778564453125,15.304931640625,-24.173583984375
0.157,5.094970703125,18.748291015625,-23.893310546875
0.1575,0.010009765625,21.110595703125,-21.290771484375
0.158,-4.554443359375,23.833251953125,-19.689208984375
0.1585,-9.279052734375,24.033447265625,-15.164794921875
0.159,-14.123779296875,24.674072265625,-11.040771484375
0.1595,-17.246826171875,23.953369140625,-7.317138671875
0.16,-21.010498046875,22.792236328125,-2.432373046875
0.1605,-22.932373046875,20.630126953125,1.811767578125
0.161,-24.774169921875,18.107666015625,6.216064453125
0.1615,-24.974365234375,13.823486328125,10.740478515625
0.162,-24.253662109375,9.098876953125,14.784423828125
0.1625,-24.053466796875,6.095947265625,17.707275390625
0.163,-21.891357421875,0.770751953125,20.870361328125
0.1635,-20.329833984375,-3.553466796875,23.552978515625
0.164,-16.165771484375,-8.238037109375,24.033447265625
0.1645,-12.362060546875,-12.882568359375,24.954345703125
0.165,-7.717529296875,-16.125732421875,23.552978515625
0.1655,-3.393310546875,-19.489013671875,22.632080078125
0.166,1.291259765625,-21.531005859375,20.149658203125
0.1665,5.895751953125,-24.053466796875,18.147705078125
0.167,10.540283203125,-23.853271484375,13.383056640625
0.1675,14.904541015625,-24.013427734375,9.218994140625
0.168,17.867431640625,-23.572998046875,5.815673828125
0.1685,21.230712890625,-21.971435546875,0.810791015625
0.169,23.192626953125,-19.889404296875,-3.273193359375
0.1695,24.193603515625,-16.646240234375,-7.637451171875
0.17,24.513916015625,-12.682373046875,-11.881591796875
0.1705,23.432861328125,-8.077880859375,-15.445068359375
0.171,23.072509765625,-4.834716796875,-18.407958984375
0.1715,20.990478515625,0.050048828125,-21.090576171875
0.172,19.188720703125,4.534423828125,-23.853271484375
0.1725,14.424072265625,9.098876953125,-23.613037109375
0.173,10.860595703125,13.343017578125,-24.293701171875
0.1735,6.776611328125,16.305908203125,-23.172607421875
0.174,2.132080078125,19.509033203125,-21.771240234375
0.1745,-1.951904296875,21.310791015625,-19.649169921875
0.175,-6.916748046875,23.392822265625,-16.926513671875
0.1755,-11.160888671875,23.352783203125,-12.602294921875
0.176,-15.164794921875,22.992431640625,-8.318115234375
0.1765,-17.967529296875,22.632080078125,-5.275146484375
0.177,-20.850341796875,20.830322265625,-0.550537109375
0.1775,-22.932373046875,18.828369140625,3.613525390625
0.178,-23.092529296875,14.864501953125,7.817626953125
0.1785,-23.853271484375,11.541259765625,11.941650390625
0.179,-22.612060546875,7.217041015625,15.104736328125
0.1795,-22.091552734375,3.613525390625,18.227783203125
0.18,-20.169677734375,-0.710693359375,20.630126953125
0.1805,-17.967529296875,-5.515380859375,23.192626953125
