wavelength,x,y,z
0.0,12.096801757812,8.2930908203125,-19.734252929688
0.0005,8.2930908203125,11.856567382812,-19.614135742188
0.001,3.0479736328125,15.620239257812,-18.252807617188
0.0015,-1.8768310546875,18.543090820312,-16.651245117188
0.002,-5.0399169921875,20.184692382812,-15.249877929688
0.0025,-7.7625732421875,20.945434570312,-13.448120117188
0.003,-10.645385742188,20.785278320312,-10.885620117188
0.0035,-14.168823242188,20.024536132812,-6.5614013671875
0.004,-17.371948242188,18.783325195312,-2.2772216796875
0.0045,-20.014526367188,16.981567382812,2.1270751953125
0.005,-20.655151367188,14.899536132812,4.8096923828125
0.0055,-20.975463867188,12.296997070312,7.7325439453125
0.006,-20.655151367188,8.6534423828125,11.095825195312
0.0065,-19.654174804688,3.8887939453125,14.779418945312
0.007,-18.212768554688,-0.5555419921875,17.822387695312
0.0075,-16.611206054688,-4.1190185546875,19.824340820312
0.008,-14.369018554688,-7.0418701171875,20.505004882812
0.0085,-10.965698242188,-10.084838867188,20.264770507812
0.009,-6.4012451171875,-13.888549804688,19.584106445312
0.0095,-1.1561279296875,-17.452026367188,18.142700195312
0.01,3.6485595703125,-19.934448242188,16.380981445312
0.0105,6.4112548828125,-21.015502929688,14.739379882812
0.011,9.2540283203125,-21.816284179688,12.617309570312
0.0115,12.457153320312,-21.175659179688,9.2540283203125
0.012,15.980590820312,-20.054565429688,4.8096923828125
0.0125,19.063598632812,-18.493041992188,0.2852783203125
0.013,21.105590820312,-16.651245117188,-3.5985107421875
0.0135,21.345825195312,-14.248901367188,-6.2010498046875
0.014,21.305786132812,-11.165893554688,-9.3240966796875
0.0145,20.665161132812,-6.9217529296875,-12.927612304688
0.015,19.544067382812,-2.3572998046875,-16.370971679688
0.0155,17.822387695312,2.0870361328125,-18.973510742188
0.016,15.860473632812,5.2501220703125,-20.334838867188
0.0165,13.418090820312,8.2130126953125,-20.855346679688
0.017,9.2540283203125,11.656372070312,-20.334838867188
0.0175,4.4093017578125,15.219848632812,-19.253784179688
0.018,-0.7957763671875,18.543090820312,-17.972534179688
0.0185,-4.9998779296875,20.825317382812,-15.930541992188
0.019,-7.5623779296875,21.385864257812,-14.048706054688
0.0195,-10.605346679688,21.666137695312,-11.566284179688
0.02,-14.048706054688,21.025512695312,-7.7225341796875
0.0205,-17.291870117188,19.624145507812,-3.1981201171875
0.021,-20.054565429688,17.862426757812,1.3262939453125
0.0215,-21.495971679688,15.860473632812,4.6495361328125
0.022,-21.656127929688,13.297973632812,7.3721923828125
0.0225,-21.375854492188,9.7344970703125,10.615356445312
0.023,-20.454956054688,5.2501220703125,14.218872070312
0.0235,-19.133666992188,0.7257080078125,17.502075195312
0.024,-17.331909179688,-3.5184326171875,19.864379882812
0.0245,-15.129760742188,-6.3211669921875,20.545043945312
0.025,-12.527221679688,-9.2840576171875,20.945434570312
0.0255,-7.8026123046875,-13.127807617188,20.144653320312
0.026,-2.8377685546875,-16.370971679688,18.663208007812
0.0265,2.0069580078125,-19.293823242188,17.101684570312
0.027,5.7305908203125,-21.135620117188,15.420043945312
0.0275,8.3731689453125,-21.495971679688,13.297973632812
0.028,11.255981445312,-21.495971679688,10.735473632812
0.0285,14.979614257812,-20.695190429688,6.4112548828125
0.029,18.102661132812,-19.213745117188,1.9268798828125
0.0295,20.464965820312,-17.411987304688,-2.1971435546875
0.03,21.265747070312,-15.369995117188,-5.0799560546875
0.0305,21.425903320312,-12.647338867188,-7.9627685546875
0.031,20.945434570312,-8.5233154296875,-11.606323242188
0.0315,19.904418945312,-4.1590576171875,-14.889526367188
0.032,18.503051757812,0.3253173828125,-17.972534179688
0.0325,16.661254882812,4.1690673828125,-20.054565429688
0.033,14.138793945312,6.8917236328125,-20.334838867188
0.0335,11.336059570312,9.8946533203125,-20.615112304688
0.034,6.1710205078125,14.058715820312,-19.734252929688
0.0345,1.1260986328125,17.341918945312,-18.132690429688
0.035,-3.1981201171875,19.824340820312,-16.531127929688
0.0355,-6.4012451171875,21.185668945312,-14.929565429688
0.036,-9.2039794921875,21.425903320312,-12.647338867188
0.0365,-12.327026367188,21.105590820312,-9.4442138671875
0.037,-15.770385742188,20.184692382812,-5.1600341796875
0.0375,-18.973510742188,18.503051757812,-0.3953857421875
0.038,-20.895385742188,16.621215820312,3.4083251953125
0.0385,-21.295776367188,14.338989257812,6.0108642578125
0.039,-21.495971679688,11.496215820312,9.0137939453125
0.0395,-20.655151367188,6.6915283203125,13.057739257812
0.04,-19.494018554688,2.4073486328125,16.180786132812
0.0405,-17.932495117188,-1.8768310546875,18.863403320312
0.041,-16.050659179688,-5.4403076171875,20.545043945312
0.0415,-13.368041992188,-8.2030029296875,20.585083007812
0.042,-9.7244873046875,-11.406127929688,20.424926757812
0.0425,-4.6795654296875,-15.249877929688,19.343872070312
0.043,0.6456298828125,-18.493041992188,17.622192382812
0.0435,4.5294189453125,-20.494995117188,15.940551757812
0.044,7.3721923828125,-21.335815429688,14.138793945312
0.0445,10.255004882812,-21.616088867188,11.736450195312
0.045,13.818481445312,-20.855346679688,7.6124267578125
0.0455,16.861450195312,-19.734252929688,3.5684814453125
0.046,19.824340820312,-18.012573242188,-0.9959716796875
0.0465,21.265747070312,-16.010620117188,-4.3992919921875
0.047,21.185668945312,-13.408081054688,-7.0018310546875
0.0475,21.185668945312,-10.325073242188,-10.044799804688
0.048,20.304809570312,-5.4803466796875,-14.008666992188
0.0485,18.903442382812,-0.9959716796875,-17.171752929688
0.049,17.181762695312,2.8477783203125,-19.253784179688
0.0495,15.179809570312,6.0509033203125,-20.494995117188
0.05,12.256958007812,8.9737548828125,-20.535034179688
0.0505,7.6524658203125,12.777465820312,-19.854370117188
0.051,3.1280517578125,16.020629882812,-18.693237304688
0.0515,-1.9569091796875,19.183715820312,-17.011596679688
0.052,-5.4803466796875,20.745239257812,-15.369995117188
0.0525,-8.0828857421875,21.065551757812,-13.328002929688
0.053,-10.765502929688,21.305786132812,-11.165893554688
0.0535,-14.849487304688,20.184692382812,-6.3612060546875
0.054,-17.692260742188,18.823364257812,-1.9569091796875
0.0545,-20.014526367188,17.221801757812,1.9268798828125
0.055,-21.135620117188,15.179809570312,4.9698486328125
0.0555,-20.935424804688,12.337036132812,7.6524658203125
0.056,-20.695190429688,8.6134033203125,11.175903320312
0.0565,-19.734252929688,4.2091064453125,14.579223632812
0.057,-18.332885742188,-0.3553466796875,17.782348632812
0.0575,-16.451049804688,-3.9989013671875,19.504028320312
0.058,-14.369018554688,-6.6414794921875,20.144653320312
0.0585,-11.646362304688,-9.5242919921875,20.424926757812
0.059,-6.1610107421875,-13.728393554688,19.223754882812
0.0595,-1.5965576171875,-16.731323242188,17.902465820312
0.06,2.7276611328125,-19.293823242188,16.421020507812
0.0605,5.9307861328125,-20.735229492188,14.859497070312
0.061,8.5733642578125,-20.815307617188,12.497192382812
0.0615,11.456176757812,-20.855346679688,9.9346923828125
0.062,15.179809570312,-19.894409179688,5.3702392578125
0.0625,18.182739257812,-18.332885742188,0.6856689453125
0.063,19.984497070312,-16.571166992188,-2.5975341796875
0.0635,20.745239257812,-14.489135742188,-5.4002685546875
0.064,20.665161132812,-11.726440429688,-8.1629638671875
0.0645,20.104614257812,-7.0819091796875,-12.246948242188
0.065,19.143676757812,-3.1981201171875,-15.209838867188
0.0655,17.782348632812,1.0860595703125,-18.092651367188
0.066,15.860473632812,4.5694580078125,-19.614135742188
0.0665,13.257934570312,7.1719970703125,-19.694213867188
0.067,10.214965820312,10.375122070312,-19.934448242188
0.0675,4.7696533203125,14.539184570312,-18.773315429688
0.068,-0.3153076171875,17.702270507812,-17.171752929688
0.0685,-3.8787841796875,19.704223632812,-15.770385742188
0.069,-6.8817138671875,20.865356445312,-14.168823242188
0.0695,-9.7244873046875,20.865356445312,-11.606323242188
0.07,-13.127807617188,20.424926757812,-7.9627685546875
0.0705,-16.370971679688,19.463989257812,-3.8787841796875
0.071,-19.373901367188,17.662231445312,0.8057861328125
0.0715,-20.575073242188,15.820434570312,3.8487548828125
0.072,-20.855346679688,13.418090820312,6.4512939453125
0.0725,-20.935424804688,10.535278320312,9.4141845703125
0.073,-20.174682617188,5.5303955078125,13.778442382812
0.0735,-18.733276367188,1.1661376953125,16.621215820312
0.074,-17.251831054688,-2.5574951171875,18.863403320312
0.0745,-15.329956054688,-5.8406982421875,20.344848632812
0.075,-12.206909179688,-8.6834716796875,20.024536132812
0.0755,-8.2030029296875,-12.286987304688,19.784301757812
0.076,-3.0780029296875,-16.010620117188,18.583129882812
0.0765,2.0870361328125,-19.133666992188,16.821411132812
0.077,5.2501220703125,-20.494995117188,15.299926757812
0.0775,8.0928955078125,-21.295776367188,13.418090820312
0.078,10.855590820312,-21.335815429688,10.975708007812
0.0785,14.739379882812,-20.294799804688,6.2110595703125
0.079,17.782348632812,-19.053588867188,2.0469970703125
0.0795,20.224731445312,-17.371948242188,-2.0369873046875
0.08,21.105590820312,-15.289916992188,-4.9598388671875
0.0805,20.905395507812,-12.407104492188,-7.7225341796875
0.081,20.825317382812,-9.0838623046875,-11.165893554688
0.0815,19.864379882812,-4.2391357421875,-14.889526367188
0.082,18.463012695312,0.6456298828125,-17.972534179688
0.0825,16.421020507812,3.9288330078125,-19.534057617188
0.083,14.379028320312,7.0118408203125,-20.615112304688
0.0835,11.095825195312,9.9346923828125,-20.334838867188
0.084,5.8907470703125,14.018676757812,-19.373901367188
0.0845,1.2862548828125,17.301879882812,-18.172729492188
0.085,-3.5584716796875,20.024536132812,-16.451049804688
0.0855,-6.4813232421875,21.065551757812,-14.769409179688
0.086,-9.3641357421875,21.265747070312,-12.327026367188
0.0865,-12.166870117188,21.265747070312,-9.7645263671875
0.087,-16.010620117188,19.984497070312,-4.7596435546875
0.0875,-19.093627929688,18.222778320312,0.0450439453125
0.088,-20.815307617188,16.501098632812,3.3682861328125
0.0885,-21.495971679688,14.258911132812,6.2510986328125
0.089,-21.135620117188,11.055786132812,9.0938720703125
0.0895,-20.575073242188,6.7716064453125,12.817504882812
0.09,-19.534057617188,2.4073486328125,16.140747070312
0.0905,-17.932495117188,-2.1571044921875,19.183715820312
0.091,-15.770385742188,-5.3201904296875,20.184692382812
0.0915,-13.408081054688,-8.1629638671875,20.745239257812
0.092,-9.9246826171875,-11.406127929688,20.505004882812
0.0925,-4.1990966796875,-15.450073242188,19.103637695312
0.093,0.6856689453125,-18.573120117188,17.582153320312
0.0935,4.6495361328125,-20.735229492188,15.980590820312
0.094,7.5323486328125,-21.576049804688,14.218872070312
0.0945,10.575317382812,-21.536010742188,11.336059570312
0.095,13.698364257812,-21.135620117188,8.0128173828125
0.0955,17.141723632812,-19.854370117188,3.4884033203125
0.096,20.104614257812,-17.892456054688,-1.3963623046875
0.0965,21.105590820312,-16.010620117188,-4.3192138671875
0.097,21.546020507812,-13.608276367188,-7.1219482421875
0.0975,21.185668945312,-10.285034179688,-10.124877929688
0.098,20.224731445312,-5.2801513671875,-14.128784179688
0.0985,18.943481445312,-1.0360107421875,-17.131713867188
0.099,17.381958007812,3.0880126953125,-19.614135742188
0.0995,15.059692382812,6.2110595703125,-20.494995117188
0.1,12.096801757812,9.0938720703125,-20.494995117188
0.1005,8.0528564453125,12.777465820312,-20.214721679688
0.101,2.6075439453125,16.501098632812,-18.733276367188
0.1015,-2.3973388671875,19.463989257812,-16.931518554688
0.102,-5.6004638671875,20.905395507812,-15.410034179688
0.1025,-8.4832763671875,21.626098632812,-13.448120117188
0.103,-11.446166992188,21.385864257812,-10.525268554688
0.1035,-14.969604492188,20.464965820312,-6.2410888671875
0.104,-18.132690429688,19.143676757812,-1.9168701171875
0.1045,-20.655151367188,17.221801757812,2.4874267578125
0.105,-21.215698242188,15.099731445312,5.1700439453125
0.1055,-21.415893554688,12.296997070312,8.0928955078125
0.106,-21.055541992188,8.6934814453125,11.376098632812
0.1065,-19.934448242188,3.8087158203125,15.219848632812
0.107,-18.332885742188,-0.7557373046875,18.182739257812
0.1075,-16.651245117188,-4.3192138671875,20.064575195312
0.108,-14.409057617188,-7.2420654296875,20.825317382812
0.1085,-11.085815429688,-10.325073242188,20.464965820312
0.109,-6.3612060546875,-14.088745117188,19.824340820312
0.1095,-1.1561279296875,-17.612182617188,18.302856445312
0.11,3.5684814453125,-20.214721679688,16.501098632812
0.1105,6.4112548828125,-21.175659179688,14.859497070312
0.111,9.3741455078125,-21.776245117188,12.697387695312
0.1115,12.537231445312,-21.375854492188,9.4141845703125
0.112,16.100708007812,-20.214721679688,4.8497314453125
0.1125,19.143676757812,-18.653198242188,0.3653564453125
0.113,21.105590820312,-16.851440429688,-3.4783935546875
0.1135,21.425903320312,-14.529174804688,-6.1209716796875
0.114,21.305786132812,-11.286010742188,-9.2039794921875
0.1145,20.745239257812,-7.0819091796875,-12.807495117188
0.115,19.584106445312,-2.4774169921875,-16.290893554688
0.1155,17.822387695312,2.0469970703125,-19.013549804688
0.116,15.860473632812,5.2100830078125,-20.214721679688
0.1165,13.418090820312,8.1329345703125,-21.175659179688
0.117,9.3341064453125,11.576293945312,-20.294799804688
0.1175,4.4093017578125,15.219848632812,-19.213745117188
0.118,-0.6756591796875,18.543090820312,-17.692260742188
0.1185,-4.8797607421875,20.785278320312,-15.970581054688
0.119,-7.4822998046875,21.345825195312,-14.128784179688
0.1195,-10.485229492188,21.626098632812,-11.646362304688
0.12,-13.928588867188,21.025512695312,-7.8826904296875
0.1205,-17.251831054688,19.704223632812,-3.2781982421875
0.121,-20.014526367188,17.862426757812,1.3262939453125
0.1215,-21.536010742188,15.980590820312,4.6094970703125
0.122,-21.736206054688,13.418090820312,7.3721923828125
0.1225,-21.495971679688,9.8546142578125,10.695434570312
0.123,-20.535034179688,5.3302001953125,14.258911132812
0.1235,-19.253784179688,0.7657470703125,17.582153320312
0.124,-17.411987304688,-3.5184326171875,19.984497070312
0.1245,-15.209838867188,-6.3612060546875,20.625122070312
0.125,-12.527221679688,-9.3240966796875,21.025512695312
0.1255,-7.6024169921875,-13.167846679688,20.184692382812
0.126,-2.6776123046875,-16.651245117188,18.823364257812
0.1265,2.1671142578125,-19.534057617188,17.221801757812
0.127,5.8907470703125,-21.415893554688,15.580200195312
0.1275,8.5733642578125,-21.696166992188,13.418090820312
0.128,11.456176757812,-21.976440429688,10.575317382812
0.1285,15.179809570312,-20.895385742188,6.3712158203125
0.129,18.463012695312,-19.373901367188,1.7667236328125
0.1295,20.825317382812,-17.492065429688,-2.5174560546875
0.13,21.626098632812,-15.329956054688,-5.4403076171875
0.1305,21.786254882812,-12.527221679688,-8.3231201171875
0.131,21.185668945312,-8.2830810546875,-12.126831054688
0.1315,20.104614257812,-3.9188232421875,-15.329956054688
0.132,18.583129882812,0.6456298828125,-18.372924804688
0.1325,16.701293945312,4.5294189453125,-20.454956054688
0.133,14.138793945312,7.2921142578125,-20.655151367188
0.1335,11.215942382812,10.295043945312,-20.855346679688
0.134,6.0509033203125,14.379028320312,-19.894409179688
0.1345,0.8858642578125,17.702270507812,-18.252807617188
0.135,-3.5184326171875,20.144653320312,-16.571166992188
0.1355,-6.7215576171875,21.465942382812,-14.929565429688
0.136,-9.4442138671875,21.706176757812,-12.807495117188
0.1365,-12.647338867188,21.265747070312,-9.2440185546875
0.137,-16.010620117188,20.224731445312,-4.9998779296875
0.1375,-19.213745117188,18.543090820312,-0.2752685546875
0.138,-21.135620117188,16.661254882812,3.5684814453125
0.1385,-21.455932617188,14.258911132812,6.2110595703125
0.139,-21.616088867188,11.376098632812,9.2139892578125
0.1395,-20.815307617188,6.6514892578125,13.257934570312
0.14,-19.614135742188,2.2872314453125,16.340942382812
0.1405,-18.012573242188,-1.9569091796875,18.943481445312
0.141,-16.170776367188,-5.4002685546875,20.665161132812
0.1415,-13.448120117188,-8.1229248046875,20.705200195312
0.142,-9.8045654296875,-11.406127929688,20.464965820312
0.1425,-4.8397216796875,-15.169799804688,19.383911132812
0.143,0.4854736328125,-18.533081054688,17.742309570312
0.1435,4.4893798828125,-20.535034179688,16.020629882812
0.144,7.3321533203125,-21.335815429688,14.379028320312
0.1445,10.214965820312,-21.776245117188,11.896606445312
0.145,13.818481445312,-21.015502929688,7.8526611328125
0.1455,16.901489257812,-19.854370117188,3.6885986328125
0.146,19.784301757812,-18.132690429688,-0.8358154296875
0.1465,21.305786132812,-16.210815429688,-4.2791748046875
0.147,21.265747070312,-13.568237304688,-6.8416748046875
0.1475,21.265747070312,-10.405151367188,-10.004760742188
0.148,20.384887695312,-5.6004638671875,-13.968627929688
0.1485,19.063598632812,-1.1160888671875,-17.171752929688
0.149,17.261840820312,2.8477783203125,-19.253784179688
0.1495,15.219848632812,5.9708251953125,-20.454956054688
0.15,12.377075195312,8.9337158203125,-20.575073242188
0.1505,7.6524658203125,12.817504882812,-19.854370117188
0.151,3.1280517578125,16.020629882812,-18.733276367188
0.1515,-1.9569091796875,19.183715820312,-17.051635742188
0.152,-5.6004638671875,20.825317382812,-15.369995117188
0.1525,-8.0828857421875,21.105590820312,-13.328002929688
0.153,-10.965698242188,21.465942382812,-11.045776367188
0.1535,-14.889526367188,20.424926757812,-6.2811279296875
0.154,-17.892456054688,18.903442382812,-1.8768310546875
0.1545,-20.134643554688,17.301879882812,1.9669189453125
0.155,-21.295776367188,15.259887695312,5.0899658203125
0.1555,-21.135620117188,12.417114257812,7.8126220703125
0.156,-20.895385742188,8.5333251953125,11.416137695312
0.1565,-19.934448242188,4.2091064453125,14.739379882812
0.157,-18.533081054688,-0.4754638671875,18.022583007812
0.1575,-16.571166992188,-4.1190185546875,19.784301757812
0.158,-14.409057617188,-6.8016357421875,20.344848632812
0.1585,-11.566284179688,-9.7645263671875,20.625122070312
0.159,-6.0809326171875,-14.048706054688,19.463989257812
0.1595,-1.3963623046875,-17.051635742188,17.982543945312
0.16,2.8878173828125,-19.734252929688,16.501098632812
0.1605,6.2510986328125,-21.135620117188,14.899536132812
0.161,8.9737548828125,-21.175659179688,12.417114257812
0.1615,11.856567382812,-21.135620117188,9.7344970703125
0.162,15.620239257812,-20.134643554688,5.1700439453125
0.1625,18.743286132812,-18.453002929688,0.4854736328125
0.163,20.424926757812,-16.691284179688,-2.9178466796875
0.1635,21.065551757812,-14.489135742188,-5.6805419921875
0.164,21.025512695312,-11.686401367188,-8.4832763671875
0.1645,20.384887695312,-6.8817138671875,-12.687377929688
0.165,19.303833007812,-2.9178466796875,-15.570190429688
0.1655,17.942504882812,1.4063720703125,-18.453002929688
0.166,15.940551757812,4.8897705078125,-20.014526367188
0.1665,13.217895507812,7.5323486328125,-20.014526367188
0.167,10.054809570312,10.735473632812,-20.214721679688
0.1675,4.5694580078125,14.859497070312,-19.053588867188
0.168,-0.5155029296875,18.062622070312,-17.331909179688
0.1685,-4.1590576171875,19.984497070312,-15.810424804688
0.169,-7.1219482421875,21.105590820312,-14.248901367188
0.1695,-9.9647216796875,21.065551757812,-11.606323242188
0.17,-13.328002929688,20.464965820312,-7.8426513671875
0.1705,-16.491088867188,19.504028320312,-3.7987060546875
0.171,-19.494018554688,17.702270507812,0.9259033203125
0.1715,-20.775268554688,15.780395507812,4.0089111328125
0.172,-20.895385742188,13.338012695312,6.6114501953125
0.1725,-21.015502929688,10.495239257812,9.5743408203125
0.173,-20.094604492188,5.2901611328125,13.818481445312
0.1735,-18.733276367188,1.1260986328125,16.781372070312
0.174,-17.251831054688,-2.6375732421875,18.903442382812
0.1745,-15.410034179688,-5.8406982421875,20.344848632812
0.175,-12.327026367188,-8.6033935546875,20.064575195312
0.1755,-8.2030029296875,-12.206909179688,19.704223632812
0.176,-3.1981201171875,-15.850463867188,18.503051757812
0.1765,1.9268798828125,-18.933471679688,16.781372070312
0.177,5.0899658203125,-20.374877929688,15.219848632812
0.1775,7.9327392578125,-21.095581054688,13.378051757812
0.178,10.615356445312,-21.175659179688,10.975708007812
