wavelength,x,y,z
0.0,-4.514404296875,-16.686279296875,20.229736328125
0.0005,0.610595703125,-19.729248046875,18.027587890625
0.001,4.494384765625,-21.771240234375,16.265869140625
0.0015,9.379150390625,-22.491943359375,12.221923828125
0.002,12.502197265625,-22.371826171875,9.098876953125
0.0025,15.505126953125,-21.811279296875,5.695556640625
0.003,18.307861328125,-20.770263671875,1.851806640625
0.0035,20.429931640625,-18.808349609375,-2.192138671875
0.004,22.431884765625,-16.205810546875,-6.796630859375
0.0045,21.671142578125,-11.921630859375,-10.239990234375
0.005,21.991455078125,-9.038818359375,-13.443115234375
0.0055,20.950439453125,-5.555419921875,-15.845458984375
0.006,19.428955078125,-0.950927734375,-18.848388671875
0.0065,17.627197265625,3.012939453125,-20.770263671875
0.007,14.063720703125,7.977783203125,-22.051513671875
0.0075,10.380126953125,11.180908203125,-21.410888671875
0.008,6.896728515625,14.424072265625,-21.090576171875
0.0085,2.812744140625,16.946533203125,-19.489013671875
0.009,-2.031982421875,19.589111328125,-17.487060546875
0.0095,-6.115966796875,21.470947265625,-15.324951171875
0.01,-10.720458984375,21.510986328125,-10.880615234375
0.0105,-13.443115234375,21.591064453125,-8.318115234375
0.011,-16.606201171875,20.870361328125,-4.554443359375
0.0115,-19.328857421875,19.428955078125,-0.390380859375
0.012,-21.050537109375,17.507080078125,3.253173828125
0.0125,-22.732177734375,14.343994140625,8.057861328125
0.013,-21.811279296875,10.219970703125,11.180908203125
0.0135,-21.931396484375,7.337158203125,14.143798828125
0.014,-20.770263671875,3.653564453125,16.626220703125
0.0145,-19.168701171875,-1.151123046875,19.549072265625
0.015,-16.966552734375,-4.914794921875,21.030517578125
0.0155,-12.842529296875,-9.959716796875,21.831298828125
0.016,-9.679443359375,-12.802490234375,21.270751953125
0.0165,-5.715576171875,-16.045654296875,20.550048828125
0.017,-1.391357421875,-18.488037109375,18.628173828125
0.0175,2.932861328125,-20.890380859375,16.986572265625
0.018,7.537353515625,-22.451904296875,14.023681640625
0.0185,11.661376953125,-22.091552734375,9.619384765625
0.019,14.384033203125,-22.251708984375,7.177001953125
0.0195,17.547119140625,-21.170654296875,3.052978515625
0.02,20.109619140625,-19.448974609375,-1.271240234375
0.0205,21.270751953125,-17.326904296875,-4.514404296875
0.021,22.552001953125,-13.643310546875,-9.439208984375
0.0215,21.631103515625,-9.959716796875,-12.201904296875
0.022,21.470947265625,-6.676513671875,-15.244873046875
0.0225,19.909423828125,-2.592529296875,-17.647216796875
0.023,18.427978515625,1.971923828125,-20.489990234375
0.0235,15.545166015625,6.015869140625,-21.531005859375
0.024,11.341064453125,10.580322265625,-21.971435546875
0.0245,8.338134765625,13.302978515625,-21.490966796875
0.025,3.933837890625,16.546142578125,-20.249755859375
0.0255,-0.870849609375,19.068603515625,-18.007568359375
0.026,-4.434326171875,20.950439453125,-16.486083984375
0.0265,-9.479248046875,22.151611328125,-12.682373046875
0.027,-12.882568359375,21.510986328125,-8.718505859375
0.0275,-15.925537109375,21.591064453125,-5.875732421875
0.028,-18.768310546875,20.109619140625,-1.631591796875
0.0285,-21.531005859375,18.267822265625,2.932861328125
0.029,-22.051513671875,15.585205078125,6.135986328125
0.0295,-23.012451171875,11.701416015625,10.860595703125
0.03,-22.131591796875,8.298095703125,13.383056640625
0.0305,-21.651123046875,4.614501953125,16.546142578125
0.031,-19.609130859375,0.210205078125,18.868408203125
0.0315,-18.207763671875,-4.033935546875,21.390869140625
0.032,-14.404052734375,-8.518310546875,21.951416015625
0.0325,-10.320068359375,-12.642333984375,21.831298828125
0.033,-7.237060546875,-15.405029296875,21.390869140625
0.0335,-2.432373046875,-18.447998046875,19.709228515625
0.034,2.372314453125,-20.970458984375,17.587158203125
0.0345,5.935791015625,-22.251708984375,15.304931640625
0.035,11.020751953125,-23.172607421875,11.301025390625
0.0355,14.023681640625,-22.291748046875,7.617431640625
0.036,17.306884765625,-22.211669921875,4.334228515625
0.0365,19.709228515625,-20.209716796875,0.010009765625
0.037,22.231689453125,-18.407958984375,-4.434326171875
0.0375,22.271728515625,-14.884521484375,-7.957763671875
0.038,22.872314453125,-11.040771484375,-12.241943359375
0.0385,21.991455078125,-7.757568359375,-14.684326171875
0.039,21.110595703125,-3.593505859375,-17.887451171875
0.0395,18.908447265625,1.131103515625,-20.209716796875
0.04,16.946533203125,5.094970703125,-22.131591796875
0.0405,12.982666015625,9.619384765625,-22.572021484375
0.041,8.898681640625,13.182861328125,-21.931396484375
0.0415,5.575439453125,16.025634765625,-21.330810546875
0.042,0.370361328125,18.868408203125,-18.968505859375
0.0425,-4.154052734375,21.470947265625,-17.246826171875
0.043,-8.197998046875,21.951416015625,-13.763427734375
0.0435,-12.602294921875,22.712158203125,-10.239990234375
0.044,-15.244873046875,21.711181640625,-6.676513671875
0.0445,-18.728271484375,21.270751953125,-2.832763671875
0.045,-20.850341796875,18.908447265625,1.691650390625
0.0455,-23.212646484375,16.866455078125,6.015869140625
0.046,-22.812255859375,12.822509765625,9.619384765625
0.0465,-23.092529296875,9.218994140625,13.463134765625
0.047,-22.171630859375,6.055908203125,15.665283203125
0.0475,-20.770263671875,1.411376953125,18.788330078125
0.048,-18.768310546875,-3.193115234375,21.150634765625
0.0485,-15.685302734375,-7.437255859375,22.191650390625
0.049,-11.961669921875,-11.801513671875,22.712158203125
0.0495,-7.877685546875,-14.924560546875,21.671142578125
0.05,-4.154052734375,-17.847412109375,20.830322265625
0.0505,0.970947265625,-20.209716796875,18.187744140625
0.051,5.375244140625,-22.972412109375,16.626220703125
0.0515,9.779541015625,-22.732177734375,12.021728515625
0.052,13.583251953125,-23.332763671875,8.978759765625
0.0525,16.145751953125,-22.291748046875,5.535400390625
0.053,19.388916015625,-21.290771484375,1.331298828125
0.0535,21.390869140625,-18.968505859375,-2.992919921875
0.054,23.152587890625,-16.325927734375,-7.397216796875
0.0545,22.712158203125,-12.281982421875,-10.920654296875
0.055,22.592041015625,-8.678466796875,-14.444091796875
0.0555,21.791259765625,-5.475341796875,-16.686279296875
0.056,19.789306640625,-0.510498046875,-19.569091796875
0.0565,18.067626953125,3.893798828125,-22.091552734375
0.057,13.943603515625,8.378173828125,-22.251708984375
0.0575,10.700439453125,12.261962890625,-22.772216796875
0.058,6.656494140625,15.144775390625,-21.531005859375
0.0585,2.372314453125,18.147705078125,-20.209716796875
0.059,-2.552490234375,20.309814453125,-17.647216796875
0.0595,-7.076904296875,22.872314453125,-15.685302734375
0.06,-11.321044921875,22.151611328125,-10.840576171875
0.0605,-14.684326171875,22.552001953125,-8.037841796875
0.061,-17.447021484375,21.591064453125,-4.434326171875
0.0615,-20.329833984375,19.989501953125,0.050048828125
0.062,-22.411865234375,17.627197265625,4.494384765625
0.0625,-23.452880859375,14.223876953125,8.818603515625
0.063,-23.212646484375,10.580322265625,12.181884765625
0.0635,-22.652099609375,6.976806640625,15.224853515625
0.064,-21.611083984375,3.373291015625,17.667236328125
0.0645,-19.408935546875,-1.591552734375,20.269775390625
0.065,-17.447021484375,-6.115966796875,22.592041015625
0.0655,-12.562255859375,-10.640380859375,22.271728515625
0.066,-9.719482421875,-13.963623046875,22.552001953125
0.0665,-5.635498046875,-16.726318359375,21.190673828125
0.067,-0.990966796875,-19.569091796875,19.388916015625
0.0675,3.493408203125,-21.651123046875,17.146728515625
0.068,8.538330078125,-23.693115234375,14.223876953125
0.0685,12.382080078125,-22.892333984375,9.699462890625
0.069,15.505126953125,-22.972412109375,6.776611328125
0.0695,18.267822265625,-21.851318359375,2.972900390625
0.07,20.830322265625,-20.009521484375,-1.471435546875
0.0705,22.752197265625,-17.567138671875,-5.755615234375
0.071,23.072509765625,-13.403076171875,-10.199951171875
0.0715,23.032470703125,-10.280029296875,-13.242919921875
0.072,22.071533203125,-6.516357421875,-16.085693359375
0.0725,20.790283203125,-2.512451171875,-18.648193359375
0.073,18.708251953125,2.212158203125,-21.130615234375
0.0735,15.985595703125,7.056884765625,-23.012451171875
0.074,11.260986328125,11.180908203125,-22.331787109375
0.0745,8.298095703125,14.343994140625,-22.411865234375
0.075,4.053955078125,17.026611328125,-20.770263671875
0.0755,-1.071044921875,19.869384765625,-18.648193359375
0.076,-4.994873046875,21.711181640625,-16.606201171875
0.0765,-10.320068359375,23.032470703125,-12.642333984375
0.077,-13.403076171875,22.311767578125,-9.078857421875
0.0775,-16.646240234375,22.151611328125,-5.755615234375
0.078,-19.328857421875,20.630126953125,-1.591552734375
0.0785,-21.771240234375,18.708251953125,2.772705078125
0.079,-23.372802734375,15.865478515625,7.177001953125
0.0795,-23.212646484375,11.381103515625,11.421142578125
0.08,-23.252685546875,8.618408203125,14.143798828125
0.0805,-22.051513671875,4.574462890625,16.906494140625
0.081,-20.289794921875,0.210205078125,19.589111328125
0.0815,-18.407958984375,-4.033935546875,21.631103515625
0.082,-14.764404296875,-9.359130859375,23.112548828125
0.0825,-10.400146484375,-12.842529296875,22.191650390625
0.083,-7.237060546875,-16.085693359375,22.151611328125
0.0835,-2.632568359375,-18.568115234375,20.029541015625
0.084,2.292236328125,-21.410888671875,18.067626953125
0.0845,6.336181640625,-22.852294921875,15.585205078125
0.085,11.661376953125,-23.653076171875,11.060791015625
0.0855,14.343994140625,-23.092529296875,8.017822265625
0.086,17.667236328125,-22.572021484375,4.214111328125
0.0865,20.149658203125,-20.570068359375,-0.150146484375
0.087,22.231689453125,-18.728271484375,-4.073974609375
0.0875,23.512939453125,-15.244873046875,-8.798583984375
0.088,22.872314453125,-10.880615234375,-12.562255859375
0.0885,22.912353515625,-8.157958984375,-15.284912109375
0.089,21.230712890625,-3.873779296875,-17.967529296875
0.0895,19.509033203125,1.010986328125,-20.690185546875
0.09,17.186767578125,4.974853515625,-22.131591796875
0.0905,13.182861328125,10.260009765625,-23.412841796875
0.091,9.098876953125,13.343017578125,-22.251708984375
0.0915,5.615478515625,16.626220703125,-21.931396484375
0.092,0.490478515625,18.988525390625,-19.208740234375
0.0925,-3.873779296875,21.671142578125,-17.647216796875
0.093,-8.318115234375,22.632080078125,-14.243896484375
0.0935,-13.082763671875,22.872314453125,-9.919677734375
0.094,-15.565185546875,22.511962890625,-7.197021484375
0.0945,-19.048583984375,21.510986328125,-2.792724609375
0.095,-21.410888671875,19.268798828125,1.811767578125
0.0955,-22.972412109375,17.106689453125,5.535400390625
0.096,-23.973388671875,13.302978515625,10.219970703125
0.0965,-23.092529296875,9.058837890625,13.583251953125
0.097,-23.052490234375,6.256103515625,16.345947265625
0.0975,-20.930419921875,1.411376953125,18.908447265625
0.098,-19.408935546875,-3.072998046875,21.711181640625
0.0985,-16.045654296875,-7.197021484375,22.311767578125
0.099,-12.041748046875,-12.322021484375,23.312744140625
0.0995,-8.318115234375,-15.004638671875,22.151611328125
0.1,-4.194091796875,-18.367919921875,21.390869140625
0.1005,1.010986328125,-20.489990234375,18.427978515625
0.101,5.014892578125,-23.012451171875,16.946533203125
0.1015,9.859619140625,-23.492919921875,12.742431640625
0.102,14.023681640625,-23.412841796875,8.658447265625
0.1025,16.546142578125,-23.092529296875,5.935791015625
0.103,19.749267578125,-21.611083984375,1.291259765625
0.1035,22.071533203125,-19.408935546875,-3.193115234375
0.104,22.992431640625,-16.646240234375,-6.956787109375
0.1045,23.753173828125,-12.802490234375,-11.561279296875
0.105,22.792236328125,-8.718505859375,-14.604248046875
0.1055,22.511962890625,-5.515380859375,-17.406982421875
0.106,19.989501953125,-0.430419921875,-19.849365234375
0.1065,18.628173828125,3.973876953125,-22.652099609375
0.107,14.384033203125,8.258056640625,-22.572021484375
0.1075,10.500244140625,12.942626953125,-23.212646484375
0.108,7.056884765625,15.465087890625,-22.171630859375
0.1085,2.252197265625,18.788330078125,-20.730224609375
0.109,-2.752685546875,20.830322265625,-17.927490234375
0.1095,-6.876708984375,22.832275390625,-15.885498046875
0.11,-11.601318359375,23.032470703125,-11.481201171875
0.1105,-15.084716796875,22.592041015625,-7.717529296875
0.111,-17.887451171875,22.351806640625,-4.714599609375
0.1115,-20.650146484375,20.229736328125,0.250244140625
0.112,-23.092529296875,18.067626953125,4.734619140625
0.1125,-23.332763671875,14.384033203125,8.498291015625
0.113,-24.053466796875,10.740478515625,12.782470703125
0.1135,-22.852294921875,7.016845703125,15.385009765625
0.114,-22.211669921875,3.293212890625,18.387939453125
0.1145,-19.529052734375,-1.751708984375,20.550048828125
0.115,-17.847412109375,-6.035888671875,22.992431640625
0.1155,-13.122802734375,-10.520263671875,22.632080078125
0.116,-9.359130859375,-14.484130859375,22.752197265625
0.1165,-6.075927734375,-16.966552734375,21.791259765625
0.117,-0.990966796875,-19.969482421875,19.789306640625
0.1175,3.853759765625,-22.131591796875,17.266845703125
0.118,8.258056640625,-23.412841796875,14.223876953125
0.1185,12.622314453125,-23.653076171875,10.219970703125
0.119,15.665283203125,-22.932373046875,6.576416015625
0.1195,18.588134765625,-22.411865234375,3.173095703125
0.12,20.910400390625,-20.089599609375,-1.471435546875
0.1205,23.192626953125,-17.887451171875,-5.915771484375
0.121,22.792236328125,-13.643310546875,-9.759521484375
0.1215,23.472900390625,-10.320068359375,-13.603271484375
0.122,22.151611328125,-6.716552734375,-15.925537109375
0.1225,21.150634765625,-2.552490234375,-18.968505859375
0.123,18.628173828125,2.292236328125,-21.090576171875
0.1235,16.145751953125,6.776611328125,-22.932373046875
0.124,11.821533203125,10.900634765625,-22.612060546875
0.1245,8.057861328125,14.584228515625,-22.371826171875
0.125,4.534423828125,17.026611328125,-21.250732421875
0.1255,-0.710693359375,19.709228515625,-18.848388671875
0.126,-5.114990234375,22.031494140625,-16.806396484375
0.1265,-9.839599609375,22.431884765625,-12.602294921875
0.127,-13.443115234375,22.792236328125,-9.519287109375
0.1275,-16.406005859375,22.031494140625,-5.795654296875
0.128,-19.408935546875,21.070556640625,-1.951904296875
0.1285,-21.450927734375,18.668212890625,2.492431640625
0.129,-23.653076171875,16.065673828125,7.177001953125
0.1295,-22.852294921875,11.661376953125,10.780517578125
0.13,-23.372802734375,8.618408203125,14.343994140625
0.1305,-22.171630859375,5.175048828125,16.546142578125
0.131,-20.650146484375,0.530517578125,19.509033203125
0.1315,-18.447998046875,-3.993896484375,21.591064453125
0.132,-14.764404296875,-8.878662109375,22.672119140625
0.1325,-11.000732421875,-12.562255859375,22.511962890625
0.133,-7.197021484375,-15.925537109375,21.951416015625
0.1335,-3.193115234375,-18.447998046875,20.469970703125
0.134,1.731689453125,-20.850341796875,18.107666015625
0.1345,6.336181640625,-23.092529296875,15.865478515625
0.135,11.020751953125,-22.852294921875,10.980712890625
0.1355,14.223876953125,-23.332763671875,8.378173828125
0.136,17.226806640625,-22.451904296875,4.534423828125
0.1365,19.909423828125,-21.010498046875,0.450439453125
0.137,21.711181640625,-18.648193359375,-3.713623046875
0.1375,23.352783203125,-15.405029296875,-8.478271484375
0.138,22.552001953125,-11.160888671875,-11.881591796875
0.1385,22.752197265625,-7.997802734375,-15.204833984375
0.139,21.470947265625,-4.354248046875,-17.487060546875
0.1395,19.709228515625,0.370361328125,-20.209716796875
0.14,17.306884765625,4.814697265625,-22.131591796875
0.1405,12.982666015625,9.619384765625,-22.531982421875
0.141,9.739501953125,12.902587890625,-22.451904296875
0.1415,5.695556640625,16.145751953125,-21.490966796875
0.142,1.131103515625,18.668212890625,-19.489013671875
0.1425,-3.072998046875,20.790283203125,-17.607177734375
0.143,-8.157958984375,22.752197265625,-14.604248046875
0.1435,-12.161865234375,21.991455078125,-9.919677734375
0.144,-15.244873046875,22.471923828125,-7.437255859375
0.1445,-18.327880859375,21.270751953125,-3.233154296875
0.145,-20.850341796875,19.509033203125,1.010986328125
0.1455,-22.371826171875,17.106689453125,4.934814453125
0.146,-23.452880859375,13.383056640625,9.699462890625
0.1465,-22.852294921875,9.619384765625,12.782470703125
0.147,-22.612060546875,6.256103515625,15.905517578125
0.1475,-21.010498046875,2.132080078125,18.307861328125
0.148,-19.408935546875,-2.072021484375,20.790283203125
0.1485,-16.285888671875,-6.956787109375,22.351806640625
0.149,-11.801513671875,-11.481201171875,22.231689453125
0.1495,-8.958740234375,-14.444091796875,22.311767578125
0.15,-4.514404296875,-17.607177734375,20.950439453125
0.1505,0.290283203125,-20.049560546875,18.708251953125
0.151,4.053955078125,-21.931396484375,16.866455078125
0.1515,9.459228515625,-23.532958984375,13.102783203125
0.152,13.022705078125,-22.612060546875,8.778564453125
0.1525,16.145751953125,-23.012451171875,6.135986328125
0.153,19.028564453125,-21.410888671875,1.691650390625
0.1535,21.310791015625,-19.569091796875,-2.312255859375
0.154,22.431884765625,-16.686279296875,-6.396240234375
0.1545,22.992431640625,-12.562255859375,-10.920654296875
0.155,22.632080078125,-9.319091796875,-13.803466796875
0.1555,21.951416015625,-5.515380859375,-16.846435546875
0.156,19.989501953125,-1.151123046875,-19.168701171875
0.1565,18.468017578125,2.892822265625,-21.450927734375
0.157,14.784423828125,7.857666015625,-22.612060546875
0.1575,10.300048828125,11.901611328125,-22.091552734375
0.158,7.617431640625,14.824462890625,-22.171630859375
0.1585,2.612548828125,17.907470703125,-20.209716796875
0.159,-2.031982421875,20.349853515625,-18.127685546875
0.1595,-5.715576171875,21.711181640625,-15.885498046875
0.16,-11.040771484375,22.752197265625,-11.761474609375
0.1605,-14.043701171875,21.911376953125,-8.077880859375
0.161,-17.447021484375,21.911376953125,-4.794677734375
0.1615,-20.009521484375,19.949462890625,-0.310302734375
0.162,-22.211669921875,18.227783203125,3.653564453125
0.1625,-22.972412109375,14.784423828125,7.817626953125
0.163,-23.052490234375,10.620361328125,12.021728515625
0.1635,-22.852294921875,7.737548828125,14.664306640625
0.164,-21.771240234375,3.493408203125,17.747314453125
0.1645,-19.689208984375,-1.111083984375,20.029541015625
0.165,-17.767333984375,-4.834716796875,21.711181640625
0.1655,-13.723388671875,-9.959716796875,22.752197265625
0.166,-9.399169921875,-13.483154296875,21.791259765625
0.1665,-6.356201171875,-16.526123046875,21.711181640625
0.167,-1.271240234375,-19.248779296875,19.348876953125
0.1675,3.052978515625,-21.731201171875,17.627197265625
0.168,7.217041015625,-22.491943359375,14.263916015625
0.1685,12.061767578125,-23.252685546875,10.300048828125
0.169,14.824462890625,-22.692138671875,7.056884765625
0.1695,18.227783203125,-22.091552734375,3.253173828125
0.17,20.469970703125,-19.889404296875,-1.231201171875
0.1705,22.271728515625,-17.967529296875,-4.834716796875
0.171,22.712158203125,-14.083740234375,-9.158935546875
0.1715,22.431884765625,-9.999755859375,-12.882568359375
0.172,22.311767578125,-7.317138671875,-15.445068359375
0.1725,20.750244140625,-2.632568359375,-18.447998046875
0.173,18.908447265625,1.851806640625,-20.850341796875
0.1735,15.985595703125,5.735595703125,-21.771240234375
0.174,12.302001953125,10.540283203125,-22.692138671875
0.1745,8.097900390625,13.743408203125,-21.611083984375
0.175,4.654541015625,16.826416015625,-21.170654296875
0.1755,-0.590576171875,19.228759765625,-18.447998046875
0.176,-4.474365234375,21.631103515625,-17.086669921875
0.1765,-9.038818359375,21.791259765625,-12.762451171875
0.177,-13.082763671875,22.231689453125,-9.319091796875
0.1775,-15.845458984375,21.871337890625,-6.276123046875
0.178,-19.168701171875,20.790283203125,-1.991943359375
0.1785,-21.290771484375,18.548095703125,2.452392578125
0.179,-22.572021484375,16.105712890625,6.135986328125
0.1795,-22.932373046875,12.221923828125,10.260009765625
0.18,-22.411865234375,8.258056640625,13.703369140625
0.1805,-22.211669921875,5.575439453125,16.145751953125
