wavelength,x,y,z
0.0,-4.033935546875,0.610595703125,2.932861328125
0.0005,-3.273193359375,-0.590576171875,3.253173828125
0.001,-3.113037109375,-1.271240234375,3.693603515625
0.0015,-2.432373046875,-2.272216796875,3.973876953125
0.002,-2.031982421875,-2.552490234375,3.973876953125
0.0025,-1.231201171875,-3.233154296875,3.853759765625
0.003,-0.470458984375,-3.553466796875,3.333251953125
0.0035,0.330322265625,-3.993896484375,3.052978515625
0.004,1.291259765625,-4.234130859375,2.332275390625
0.0045,1.971923828125,-4.554443359375,1.931884765625
0.005,2.372314453125,-4.234130859375,1.291259765625
0.0055,2.852783203125,-4.234130859375,0.810791015625
0.006,3.052978515625,-3.553466796875,0.010009765625
0.0065,3.413330078125,-3.353271484375,-0.630615234375
0.007,3.653564453125,-2.672607421875,-1.511474609375
0.0075,3.733642578125,-2.392333984375,-1.871826171875
0.008,3.493408203125,-1.511474609375,-2.512451171875
0.0085,3.173095703125,-0.830810546875,-2.872802734375
0.009,2.692626953125,0.130126953125,-3.313232421875
0.0095,2.252197265625,0.850830078125,-3.673583984375
0.01,1.931884765625,1.691650390625,-3.993896484375
0.0105,1.331298828125,2.011962890625,-3.753662109375
0.011,0.730712890625,2.692626953125,-3.793701171875
0.0115,-0.150146484375,2.892822265625,-3.193115234375
0.012,-0.830810546875,3.493408203125,-2.992919921875
0.0125,-1.871826171875,3.733642578125,-2.272216796875
0.013,-2.432373046875,3.973876953125,-1.951904296875
0.0135,-2.872802734375,3.693603515625,-1.191162109375
0.014,-3.273193359375,3.653564453125,-0.750732421875
0.0145,-3.553466796875,3.012939453125,0.170166015625
0.015,-3.913818359375,2.732666015625,0.770751953125
0.0155,-4.274169921875,2.132080078125,1.691650390625
0.016,-4.154052734375,1.651611328125,2.052001953125
0.0165,-4.114013671875,0.770751953125,2.852783203125
0.017,-3.513427734375,-0.230224609375,3.133056640625
0.0175,-3.193115234375,-1.031005859375,3.573486328125
0.018,-2.552490234375,-1.911865234375,3.853759765625
0.0185,-2.112060546875,-2.632568359375,4.134033203125
0.019,-1.311279296875,-2.952880859375,3.693603515625
0.0195,-0.710693359375,-3.593505859375,3.693603515625
0.02,0.210205078125,-3.793701171875,2.972900390625
0.0205,0.930908203125,-4.234130859375,2.692626953125
0.021,2.011962890625,-4.514404296875,1.891845703125
0.0215,2.412353515625,-4.434326171875,1.411376953125
0.022,2.892822265625,-4.154052734375,0.690673828125
0.0225,3.173095703125,-3.833740234375,0.130126953125
0.023,3.373291015625,-3.313232421875,-0.630615234375
0.0235,3.573486328125,-2.832763671875,-1.311279296875
0.024,3.893798828125,-2.312255859375,-2.112060546875
0.0245,3.493408203125,-1.591552734375,-2.432373046875
0.025,3.453369140625,-0.910888671875,-3.113037109375
0.0255,2.652587890625,0.090087890625,-3.233154296875
0.026,2.492431640625,0.810791015625,-3.713623046875
0.0265,1.771728515625,1.771728515625,-3.913818359375
0.027,1.411376953125,2.252197265625,-3.993896484375
0.0275,0.610595703125,2.692626953125,-3.553466796875
0.028,0.010009765625,3.133056640625,-3.473388671875
0.0285,-0.910888671875,3.333251953125,-2.832763671875
0.029,-1.671630859375,3.773681640625,-2.472412109375
0.0295,-2.632568359375,4.053955078125,-1.791748046875
0.03,-2.952880859375,3.773681640625,-1.231201171875
0.0305,-3.553466796875,3.693603515625,-0.590576171875
0.031,-3.673583984375,3.133056640625,0.130126953125
0.0315,-4.033935546875,2.812744140625,0.810791015625
0.032,-4.234130859375,2.172119140625,1.611572265625
0.0325,-4.514404296875,1.651611328125,2.332275390625
0.033,-3.953857421875,0.690673828125,2.692626953125
0.0335,-3.993896484375,0.010009765625,3.413330078125
0.034,-3.113037109375,-1.031005859375,3.533447265625
0.0345,-2.872802734375,-1.751708984375,4.013916015625
0.035,-2.072021484375,-2.792724609375,4.254150390625
0.0355,-1.471435546875,-3.233154296875,4.093994140625
0.036,-0.630615234375,-3.753662109375,3.733642578125
0.0365,0.130126953125,-4.154052734375,3.373291015625
0.037,1.131103515625,-4.394287109375,2.652587890625
0.0375,1.931884765625,-4.714599609375,2.172119140625
0.038,2.932861328125,-4.914794921875,1.411376953125
0.0385,3.173095703125,-4.354248046875,0.610595703125
0.039,3.693603515625,-4.274169921875,0.050048828125
0.0395,3.773681640625,-3.473388671875,-0.830810546875
0.04,3.973876953125,-2.992919921875,-1.551513671875
0.0405,4.134033203125,-2.272216796875,-2.432373046875
0.041,4.134033203125,-1.631591796875,-3.072998046875
0.0415,3.453369140625,-0.590576171875,-3.393310546875
0.042,3.213134765625,0.210205078125,-3.873779296875
0.0425,2.252197265625,1.291259765625,-3.953857421875
0.043,1.931884765625,1.931884765625,-4.234130859375
0.0435,1.131103515625,2.892822265625,-4.394287109375
0.044,0.290283203125,3.213134765625,-3.873779296875
0.0445,-0.350341796875,3.653564453125,-3.673583984375
0.045,-1.311279296875,3.893798828125,-2.992919921875
0.0455,-2.232177734375,4.134033203125,-2.272216796875
0.046,-2.952880859375,4.294189453125,-1.671630859375
0.0465,-3.753662109375,4.374267578125,-0.990966796875
0.047,-3.873779296875,3.653564453125,-0.150146484375
0.0475,-4.354248046875,3.573486328125,0.330322265625
0.048,-4.354248046875,2.612548828125,1.331298828125
0.0485,-4.634521484375,2.212158203125,1.931884765625
0.049,-4.754638671875,1.371337890625,2.852783203125
0.0495,-4.514404296875,0.650634765625,3.333251953125
0.05,-3.873779296875,-0.390380859375,3.773681640625
0.0505,-3.593505859375,-1.151123046875,4.174072265625
0.051,-2.592529296875,-2.312255859375,4.334228515625
0.0515,-2.272216796875,-2.952880859375,4.534423828125
0.052,-1.271240234375,-3.953857421875,4.614501953125
0.0525,-0.350341796875,-4.234130859375,3.973876953125
0.053,0.330322265625,-4.714599609375,3.733642578125
0.0535,1.571533203125,-4.994873046875,2.812744140625
0.054,2.492431640625,-5.155029296875,2.092041015625
0.0545,3.173095703125,-5.195068359375,1.371337890625
0.055,3.973876953125,-5.114990234375,0.610595703125
0.0555,4.013916015625,-4.314208984375,-0.310302734375
0.056,4.494384765625,-4.114013671875,-0.910888671875
0.0565,4.534423828125,-2.912841796875,-2.192138671875
0.057,4.614501953125,-2.472412109375,-2.712646484375
0.0575,4.534423828125,-1.551513671875,-3.593505859375
0.058,4.093994140625,-0.550537109375,-3.993896484375
0.0585,3.333251953125,0.530517578125,-4.234130859375
0.059,2.732666015625,1.491455078125,-4.634521484375
0.0595,1.651611328125,2.692626953125,-4.714599609375
0.06,1.251220703125,3.133056640625,-4.674560546875
0.0605,0.290283203125,3.973876953125,-4.594482421875
0.061,-0.670654296875,4.134033203125,-3.793701171875
0.0615,-1.391357421875,4.494384765625,-3.473388671875
0.062,-2.752685546875,4.734619140625,-2.312255859375
0.0625,-3.513427734375,4.814697265625,-1.671630859375
0.063,-4.114013671875,4.614501953125,-0.870849609375
0.0635,-4.674560546875,4.414306640625,-0.150146484375
0.064,-4.674560546875,3.533447265625,0.730712890625
0.0645,-4.994873046875,3.173095703125,1.331298828125
0.065,-5.114990234375,1.931884765625,2.652587890625
0.0655,-5.074951171875,1.531494140625,3.012939453125
0.066,-4.994873046875,0.570556640625,3.893798828125
0.0665,-4.354248046875,-0.470458984375,4.214111328125
0.067,-3.713623046875,-1.431396484375,4.534423828125
0.0675,-2.952880859375,-2.432373046875,4.814697265625
0.068,-2.031982421875,-3.553466796875,4.934814453125
0.0685,-1.431396484375,-3.993896484375,4.734619140625
0.069,-0.390380859375,-4.834716796875,4.534423828125
0.0695,0.610595703125,-4.994873046875,3.693603515625
0.07,1.331298828125,-5.395263671875,3.333251953125
0.0705,2.812744140625,-5.555419921875,2.092041015625
0.071,3.493408203125,-5.635498046875,1.531494140625
0.0715,4.093994140625,-5.275146484375,0.610595703125
0.072,4.614501953125,-4.994873046875,-0.270263671875
0.0725,4.614501953125,-4.073974609375,-1.191162109375
0.073,4.934814453125,-3.673583984375,-1.911865234375
0.0735,5.054931640625,-2.432373046875,-3.193115234375
0.074,4.814697265625,-1.791748046875,-3.513427734375
0.0745,4.574462890625,-0.710693359375,-4.314208984375
0.075,3.813720703125,0.410400390625,-4.594482421875
0.0755,3.052978515625,1.411376953125,-4.834716796875
0.076,2.212158203125,2.532470703125,-5.034912109375
0.0765,1.291259765625,3.573486328125,-5.155029296875
0.077,0.490478515625,3.853759765625,-4.674560546875
0.0775,-0.470458984375,4.614501953125,-4.474365234375
0.078,-1.471435546875,4.614501953125,-3.513427734375
0.0785,-2.272216796875,4.974853515625,-3.072998046875
0.079,-3.713623046875,5.094970703125,-1.791748046875
0.0795,-4.274169921875,5.054931640625,-1.151123046875
0.08,-4.754638671875,4.534423828125,-0.150146484375
0.0805,-5.195068359375,4.134033203125,0.610595703125
0.081,-5.114990234375,3.173095703125,1.451416015625
0.0815,-5.315185546875,2.572509765625,2.212158203125
0.082,-5.475341796875,1.531494140625,3.453369140625
0.0825,-5.074951171875,0.890869140625,3.693603515625
0.083,-4.834716796875,-0.190185546875,4.454345703125
0.0835,-3.913818359375,-1.271240234375,4.614501953125
0.084,-3.313232421875,-2.192138671875,4.854736328125
0.0845,-2.352294921875,-3.273193359375,4.974853515625
0.085,-1.591552734375,-4.194091796875,5.094970703125
0.0855,-0.630615234375,-4.514404296875,4.454345703125
0.086,0.250244140625,-5.195068359375,4.294189453125
0.0865,1.291259765625,-5.155029296875,3.253173828125
0.087,2.052001953125,-5.515380859375,2.852783203125
0.0875,3.453369140625,-5.715576171875,1.611572265625
0.088,3.893798828125,-5.515380859375,0.970947265625
0.0885,4.414306640625,-5.034912109375,0.010009765625
0.089,4.774658203125,-4.594482421875,-0.790771484375
0.0895,4.774658203125,-3.713623046875,-1.671630859375
0.09,4.894775390625,-2.952880859375,-2.472412109375
0.0905,5.094970703125,-2.031982421875,-3.593505859375
0.091,4.494384765625,-1.151123046875,-3.793701171875
0.0915,4.294189453125,-0.190185546875,-4.554443359375
0.092,3.213134765625,1.010986328125,-4.634521484375
0.0925,2.692626953125,1.851806640625,-4.914794921875
0.093,1.731689453125,2.972900390625,-4.994873046875
0.0935,1.010986328125,3.773681640625,-5.074951171875
0.094,0.010009765625,4.013916015625,-4.314208984375
0.0945,-0.830810546875,4.614501953125,-4.154052734375
0.095,-1.871826171875,4.614501953125,-3.072998046875
0.0955,-2.632568359375,4.934814453125,-2.592529296875
0.096,-3.993896484375,5.094970703125,-1.471435546875
0.0965,-4.314208984375,4.614501953125,-0.790771484375
0.097,-4.794677734375,4.174072265625,0.130126953125
0.0975,-4.994873046875,3.613525390625,0.890869140625
0.098,-5.034912109375,2.892822265625,1.691650390625
0.0985,-5.114990234375,2.092041015625,2.532470703125
0.099,-5.315185546875,1.331298828125,3.493408203125
0.0995,-4.554443359375,0.370361328125,3.693603515625
0.1,-4.474365234375,-0.510498046875,4.414306640625
0.1005,-3.353271484375,-1.631591796875,4.414306640625
0.101,-2.992919921875,-2.352294921875,4.694580078125
0.1015,-1.951904296875,-3.513427734375,4.814697265625
0.102,-1.311279296875,-4.033935546875,4.694580078125
0.1025,-0.310302734375,-4.434326171875,4.013916015625
0.103,0.450439453125,-4.874755859375,3.853759765625
0.1035,1.451416015625,-4.954833984375,2.852783203125
0.104,2.212158203125,-5.235107421875,2.372314453125
0.1045,3.373291015625,-5.475341796875,1.411376953125
0.105,3.613525390625,-4.954833984375,0.690673828125
0.1055,4.134033203125,-4.714599609375,-0.150146484375
0.106,4.214111328125,-3.873779296875,-0.910888671875
0.1065,4.454345703125,-3.353271484375,-1.631591796875
0.107,4.494384765625,-2.552490234375,-2.512451171875
0.1075,4.654541015625,-1.911865234375,-3.233154296875
0.108,3.893798828125,-0.830810546875,-3.553466796875
0.1085,3.773681640625,0.010009765625,-4.154052734375
0.109,2.692626953125,1.091064453125,-4.154052734375
0.1095,2.412353515625,1.771728515625,-4.514404296875
0.11,1.531494140625,2.852783203125,-4.674560546875
0.1105,0.810791015625,3.213134765625,-4.394287109375
0.111,-0.070068359375,3.693603515625,-3.953857421875
0.1115,-0.830810546875,4.013916015625,-3.553466796875
0.112,-1.791748046875,4.214111328125,-2.752685546875
0.1125,-2.592529296875,4.454345703125,-2.232177734375
0.113,-3.553466796875,4.614501953125,-1.431396484375
0.1135,-3.713623046875,3.933837890625,-0.670654296875
0.114,-4.314208984375,3.893798828125,0.010009765625
0.1145,-4.314208984375,3.052978515625,0.810791015625
0.115,-4.594482421875,2.692626953125,1.451416015625
0.1155,-4.674560546875,1.891845703125,2.332275390625
0.116,-4.754638671875,1.331298828125,2.892822265625
0.1165,-4.114013671875,0.250244140625,3.333251953125
0.117,-3.913818359375,-0.470458984375,3.853759765625
0.1175,-3.032958984375,-1.551513671875,3.973876953125
0.118,-2.712646484375,-2.192138671875,4.334228515625
0.1185,-1.871826171875,-3.193115234375,4.454345703125
0.119,-1.151123046875,-3.513427734375,3.973876953125
0.1195,-0.430419921875,-4.073974609375,3.853759765625
0.12,0.490478515625,-4.314208984375,3.173095703125
0.1205,1.291259765625,-4.634521484375,2.652587890625
0.121,2.172119140625,-4.834716796875,2.011962890625
0.1215,2.932861328125,-4.994873046875,1.331298828125
0.122,3.173095703125,-4.354248046875,0.570556640625
0.1225,3.693603515625,-4.314208984375,0.050048828125
0.123,3.693603515625,-3.393310546875,-0.870849609375
0.1235,4.013916015625,-3.153076171875,-1.431396484375
0.124,4.174072265625,-2.312255859375,-2.352294921875
0.1245,3.933837890625,-1.671630859375,-2.712646484375
0.125,3.493408203125,-0.670654296875,-3.233154296875
0.1255,3.052978515625,0.130126953125,-3.593505859375
0.126,2.412353515625,1.010986328125,-3.833740234375
0.1265,2.052001953125,1.691650390625,-4.154052734375
0.127,1.411376953125,2.532470703125,-4.274169921875
0.1275,0.610595703125,2.732666015625,-3.713623046875
0.128,0.010009765625,3.333251953125,-3.713623046875
0.1285,-0.990966796875,3.493408203125,-2.912841796875
0.129,-1.671630859375,3.853759765625,-2.632568359375
0.1295,-2.552490234375,3.973876953125,-1.951904296875
0.13,-3.032958984375,4.013916015625,-1.391357421875
0.1305,-3.353271484375,3.573486328125,-0.630615234375
0.131,-3.713623046875,3.493408203125,-0.150146484375
0.1315,-3.913818359375,2.692626953125,0.770751953125
0.132,-4.194091796875,2.452392578125,1.291259765625
0.1325,-4.434326171875,1.771728515625,2.212158203125
0.133,-4.073974609375,1.131103515625,2.492431640625
0.1335,-3.873779296875,0.250244140625,3.173095703125
0.134,-3.273193359375,-0.630615234375,3.373291015625
0.1345,-2.952880859375,-1.431396484375,3.813720703125
0.135,-2.432373046875,-2.232177734375,4.013916015625
0.1355,-1.831787109375,-2.872802734375,4.093994140625
0.136,-0.990966796875,-3.193115234375,3.573486328125
0.1365,-0.470458984375,-3.833740234375,3.573486328125
0.137,0.610595703125,-4.033935546875,2.732666015625
0.1375,1.291259765625,-4.514404296875,2.532470703125
0.138,2.212158203125,-4.594482421875,1.771728515625
0.1385,2.532470703125,-4.394287109375,1.291259765625
0.139,3.012939453125,-4.114013671875,0.530517578125
0.1395,3.253173828125,-3.753662109375,0.010009765625
0.14,3.533447265625,-3.193115234375,-0.910888671875
0.1405,3.773681640625,-2.752685546875,-1.551513671875
0.141,3.933837890625,-2.192138671875,-2.272216796875
0.1415,3.373291015625,-1.271240234375,-2.552490234375
0.142,3.293212890625,-0.550537109375,-3.193115234375
0.1425,2.532470703125,0.450439453125,-3.353271484375
0.143,2.332275390625,1.091064453125,-3.833740234375
0.1435,1.771728515625,1.891845703125,-3.953857421875
0.144,1.171142578125,2.332275390625,-3.833740234375
0.1445,0.410400390625,2.652587890625,-3.473388671875
0.145,-0.270263671875,3.133056640625,-3.273193359375
0.1455,-1.271240234375,3.333251953125,-2.552490234375
0.146,-1.871826171875,3.773681640625,-2.272216796875
0.1465,-2.632568359375,3.853759765625,-1.591552734375
0.147,-2.872802734375,3.533447265625,-1.031005859375
0.1475,-3.353271484375,3.453369140625,-0.510498046875
0.148,-3.553466796875,2.852783203125,0.250244140625
0.1485,-3.913818359375,2.572509765625,0.930908203125
0.149,-4.033935546875,2.011962890625,1.571533203125
0.1495,-4.194091796875,1.571533203125,2.212158203125
0.15,-3.633544921875,0.570556640625,2.572509765625
0.1505,-3.713623046875,-0.070068359375,3.213134765625
0.151,-2.872802734375,-1.111083984375,3.413330078125
0.1515,-2.792724609375,-1.711669921875,3.893798828125
0.152,-2.031982421875,-2.552490234375,3.933837890625
0.1525,-1.431396484375,-3.032958984375,3.693603515625
0.153,-0.670654296875,-3.553466796875,3.493408203125
0.1535,0.210205078125,-3.953857421875,3.052978515625
0.154,1.131103515625,-4.234130859375,2.492431640625
0.1545,1.771728515625,-4.474365234375,2.092041015625
0.155,2.492431640625,-4.554443359375,1.451416015625
0.1555,2.772705078125,-4.073974609375,0.690673828125
0.156,3.253173828125,-3.993896484375,0.170166015625
0.1565,3.413330078125,-3.193115234375,-0.790771484375
0.157,3.773681640625,-2.912841796875,-1.351318359375
0.1575,3.813720703125,-2.192138671875,-2.112060546875
0.158,3.733642578125,-1.551513671875,-2.632568359375
0.1585,3.093017578125,-0.550537109375,-3.032958984375
0.159,2.852783203125,0.170166015625,-3.513427734375
0.1595,2.052001953125,1.251220703125,-3.713623046875
0.16,1.931884765625,1.771728515625,-3.993896484375
0.1605,1.131103515625,2.412353515625,-3.993896484375
0.161,0.410400390625,2.732666015625,-3.553466796875
0.1615,-0.270263671875,3.173095703125,-3.353271484375
0.162,-1.271240234375,3.533447265625,-2.592529296875
0.1625,-1.991943359375,3.813720703125,-2.112060546875
0.163,-2.592529296875,3.813720703125,-1.591552734375
0.1635,-3.153076171875,3.813720703125,-1.071044921875
0.164,-3.313232421875,3.213134765625,-0.350341796875
0.1645,-3.713623046875,3.173095703125,0.130126953125
0.165,-3.873779296875,2.292236328125,1.131103515625
0.1655,-4.154052734375,2.172119140625,1.571533203125
0.166,-4.154052734375,1.371337890625,2.332275390625
0.1665,-3.873779296875,0.690673828125,2.692626953125
0.167,-3.473388671875,-0.270263671875,3.173095703125
0.1675,-3.072998046875,-0.990966796875,3.533447265625
0.168,-2.512451171875,-1.951904296875,3.853759765625
0.1685,-2.152099609375,-2.512451171875,3.973876953125
0.169,-1.431396484375,-3.193115234375,3.933837890625
0.1695,-0.630615234375,-3.553466796875,3.453369140625
0.17,0.050048828125,-4.033935546875,3.333251953125
0.1705,1.251220703125,-4.314208984375,2.452392578125
0.171,1.931884765625,-4.634521484375,2.172119140625
0.1715,2.572509765625,-4.554443359375,1.411376953125
0.172,3.052978515625,-4.474365234375,0.810791015625
0.1725,3.333251953125,-3.873779296875,0.010009765625
0.173,3.693603515625,-3.633544921875,-0.630615234375
0.1735,3.933837890625,-2.752685546875,-1.711669921875
0.174,4.013916015625,-2.392333984375,-2.192138671875
0.1745,3.973876953125,-1.551513671875,-2.952880859375
0.175,3.413330078125,-0.630615234375,-3.273193359375
0.1755,2.972900390625,0.330322265625,-3.713623046875
0.176,2.292236328125,1.291259765625,-3.993896484375
0.1765,1.771728515625,2.172119140625,-4.314208984375
0.177,1.131103515625,2.572509765625,-4.154052734375
0.1775,0.370361328125,3.253173828125,-4.033935546875
0.178,-0.510498046875,3.453369140625,-3.313232421875
0.1785,-1.231201171875,3.893798828125,-3.072998046875
0.179,-2.512451171875,4.134033203125,-1.991943359375
0.1795,-3.072998046875,4.214111328125,-1.591552734375
0.18,-3.593505859375,3.973876953125,-0.750732421875
0.1805,-3.953857421875,3.693603515625,-0.150146484375
0.181,-4.033935546875,3.052978515625,0.610595703125
0.1815,-4.314208984375,2.572509765625,1.291259765625
0.182,-4.514404296875,1.811767578125,2.292236328125
0.1825,-4.354248046875,1.251220703125,2.612548828125
0.183,-4.314208984375,0.450439453125,3.333251953125
0.1835,-3.553466796875,-0.590576171875,3.533447265625
0.184,-3.233154296875,-1.311279296875,3.933837890625
0.1845,-2.352294921875,-2.432373046875,4.093994140625
0.185,-1.911865234375,-3.153076171875,4.334228515625
0.1855,-1.111083984375,-3.593505859375,3.973876953125
0.186,-0.390380859375,-4.154052734375,3.893798828125
0.1865,0.530517578125,-4.274169921875,3.173095703125
0.187,1.291259765625,-4.754638671875,2.852783203125
0.1875,2.572509765625,-4.994873046875,1.771728515625
0.188,3.012939453125,-4.954833984375,1.291259765625
