wavelength,x,y,z
0.0,-1.0059814453125,-17.141723632812,17.772338867188
0.0005,2.6776123046875,-18.743286132812,15.930541992188
0.001,5.8807373046875,-19.704223632812,13.968627929688
0.0015,8.8836669921875,-19.544067382812,11.005737304688
0.002,12.607299804688,-18.943481445312,6.8817138671875
0.0025,15.730346679688,-18.422973632812,3.3182373046875
0.003,18.212768554688,-16.701293945312,-0.8057861328125
0.0035,19.814331054688,-14.859497070312,-4.2091064453125
0.004,19.974487304688,-12.056762695312,-7.1319580078125
0.0045,20.294799804688,-9.3341064453125,-10.134887695312
0.005,19.814331054688,-5.0098876953125,-14.058715820312
0.0055,18.813354492188,-1.3262939453125,-16.741333007812
0.006,17.131713867188,2.1971435546875,-18.543090820312
0.0065,15.329956054688,5.3602294921875,-19.984497070312
0.007,12.166870117188,8.2830810546875,-19.824340820312
0.0075,8.4031982421875,11.646362304688,-19.544067382812
0.008,4.3192138671875,14.969604492188,-18.943481445312
0.0085,-0.3653564453125,17.532104492188,-17.061645507812
0.009,-2.5675048828125,18.773315429688,-15.339965820312
0.0095,-6.7315673828125,19.253784179688,-12.937622070312
0.01,-9.7344970703125,19.373901367188,-8.9737548828125
0.0105,-13.818481445312,18.613159179688,-5.6104736328125
0.011,-15.380004882812,17.612182617188,-1.8868408203125
0.0115,-18.743286132812,15.970581054688,1.9168701171875
0.012,-20.024536132812,14.048706054688,5.0799560546875
0.0125,-20.024536132812,11.005737304688,8.0428466796875
0.013,-20.144653320312,7.8826904296875,11.326049804688
0.0135,-19.784301757812,3.9588623046875,14.889526367188
0.014,-18.463012695312,1.2762451171875,17.612182617188
0.0145,-16.621215820312,-3.4083251953125,19.133666992188
0.015,-14.499145507812,-6.3712158203125,20.014526367188
0.0155,-11.616333007812,-9.2540283203125,20.134643554688
0.016,-6.8116455078125,-13.137817382812,19.333862304688
0.0165,-2.8878173828125,-15.980590820312,18.412963867188
0.017,1.3162841796875,-18.302856445312,16.611206054688
0.0175,4.6795654296875,-19.423950195312,14.769409179688
0.018,7.7225341796875,-19.263793945312,11.846557617188
0.0185,10.885620117188,-19.303833007812,8.9237060546875
0.019,14.809448242188,-18.703247070312,4.4793701171875
0.0195,17.572143554688,-17.181762695312,0.3953857421875
0.02,20.494995117188,-15.460083007812,-2.9678955078125
0.0205,20.134643554688,-13.297973632812,-6.0909423828125
0.021,20.054565429688,-10.295043945312,-7.6925048828125
0.0215,19.814331054688,-5.1300048828125,-12.657348632812
0.022,19.293823242188,-2.9278564453125,-15.660278320312
0.0225,17.892456054688,1.0760498046875,-18.142700195312
0.023,15.930541992188,4.2791748046875,-19.504028320312
0.0235,13.167846679688,7.2020263671875,-19.784301757812
0.024,10.365112304688,10.204956054688,-20.024536132812
0.0245,5.2401123046875,14.248901367188,-19.143676757812
0.025,0.9559326171875,16.691284179688,-17.662231445312
0.0255,-2.6075439453125,18.533081054688,-16.020629882812
0.026,-5.8507080078125,19.534057617188,-13.978637695312
0.0265,-8.9337158203125,19.253784179688,-10.775512695312
0.027,-12.457153320312,18.933471679688,-7.2120361328125
0.0275,-15.860473632812,18.292846679688,-3.2882080078125
0.028,-18.422973632812,16.491088867188,1.0760498046875
0.0285,-19.704223632812,14.689331054688,4.1190185546875
0.029,-20.224731445312,12.006713867188,7.2821044921875
0.0295,-20.344848632812,9.1239013671875,10.204956054688
0.03,-19.904418945312,4.7996826171875,14.208862304688
0.0305,-18.943481445312,1.1961669921875,16.851440429688
0.031,-17.381958007812,-2.5274658203125,19.013549804688
0.0315,-15.420043945312,-5.6505126953125,20.174682617188
0.032,-12.136840820312,-8.6934814453125,19.974487304688
0.0325,-8.8536376953125,-11.856567382812,20.014526367188
0.033,-4.0089111328125,-15.660278320312,19.053588867188
0.0335,0.6756591796875,-17.982543945312,17.011596679688
0.034,5.1199951171875,-19.183715820312,16.651245117188
0.0345,7.0418701171875,-19.824340820312,13.047729492188
0.035,10.084838867188,-19.544067382812,9.8045654296875
0.0355,13.928588867188,-18.863403320312,5.4803466796875
0.036,16.931518554688,-17.902465820312,1.7567138671875
0.0365,19.173706054688,-16.020629882812,-2.4073486328125
0.037,20.054565429688,-13.978637695312,-5.2901611328125
0.0375,20.214721679688,-10.935668945312,-8.4932861328125
0.038,20.174682617188,-7.9327392578125,-11.496215820312
0.0385,19.734252929688,-3.7686767578125,-15.179809570312
0.039,18.212768554688,0.1951904296875,-17.662231445312
0.0395,16.531127929688,3.4783935546875,-19.263793945312
0.04,14.369018554688,6.4813232421875,-20.224731445312
0.0405,11.005737304688,9.5643310546875,-19.944458007812
0.041,6.6815185546875,13.127807617188,-19.383911132812
0.0415,3.8387451171875,16.290893554688,-18.583129882812
0.042,-2.0069580078125,18.493041992188,-16.541137695312
0.0425,-4.9298095703125,19.373901367188,-14.699340820312
0.043,-8.1729736328125,19.574096679688,-11.936645507812
0.0435,-11.456176757812,19.373901367188,-8.6134033203125
0.044,-15.179809570312,18.613159179688,-4.2491455078125
0.0445,-17.902465820312,17.131713867188,-0.2052001953125
0.045,-19.744262695312,16.651245117188,3.4783935546875
0.0455,-20.464965820312,13.087768554688,7.6824951171875
0.046,-20.424926757812,9.8446044921875,9.6043701171875
0.0465,-20.144653320312,6.2010498046875,12.967651367188
0.047,-19.624145507812,2.3973388671875,16.290893554688
0.0475,-16.661254882812,-1.7667236328125,18.733276367188
0.048,-16.020629882812,-4.8096923828125,19.854370117188
0.0485,-13.498168945312,-7.8126220703125,20.454956054688
0.049,-10.094848632812,-10.975708007812,20.294799804688
0.0495,-5.1700439453125,-14.659301757812,19.293823242188
0.05,-0.9659423828125,-17.341918945312,19.213745117188
0.0505,3.1580810546875,-19.263793945312,16.010620117188
0.051,6.1209716796875,-19.824340820312,13.808471679688
0.0515,9.4041748046875,-19.744262695312,10.685424804688
0.052,12.847534179688,-19.383911132812,7.0819091796875
0.0525,16.330932617188,-18.543090820312,2.8778076171875
0.053,18.813354492188,-16.701293945312,-1.3262939453125
0.0535,20.174682617188,-14.779418945312,-4.5294189453125
0.054,20.615112304688,-12.176879882812,-6.4112548828125
0.0545,20.535034179688,-8.8536376953125,-10.855590820312
0.055,20.054565429688,-4.8897705078125,-14.419067382812
0.0555,19.133666992188,-1.1661376953125,-17.301879882812
0.056,17.411987304688,2.8778076171875,-19.544067382812
0.0565,15.129760742188,5.7606201171875,-20.224731445312
0.057,12.166870117188,8.9237060546875,-20.585083007812
0.0575,8.3631591796875,12.487182617188,-20.344848632812
0.058,3.5985107421875,15.970581054688,-19.263793945312
0.0585,-0.8057861328125,18.252807617188,-17.381958007812
0.059,-4.3692626953125,19.814331054688,-15.660278320312
0.0595,-7.4923095703125,20.134643554688,-13.097778320312
0.06,-10.815551757812,19.854370117188,-9.6544189453125
0.0605,-14.499145507812,19.253784179688,-5.6104736328125
0.061,-17.662231445312,18.132690429688,-1.3663330078125
0.0615,-19.944458007812,16.130737304688,2.8377685546875
0.062,-20.825317382812,14.008666992188,5.8406982421875
0.0625,-21.185668945312,11.045776367188,9.1639404296875
0.063,-20.985473632812,7.3621826171875,12.687377929688
0.0635,-20.384887695312,3.3182373046875,16.130737304688
0.064,-18.943481445312,-0.6456298828125,18.613159179688
0.0645,-17.181762695312,-4.4493408203125,20.655151367188
0.065,-14.579223632812,-7.4122314453125,20.975463867188
0.0655,-11.255981445312,-10.535278320312,21.015502929688
0.066,-6.7716064453125,-14.218872070312,20.414916992188
0.0665,-1.9669189453125,-17.462036132812,19.053588867188
0.067,2.4774169921875,-19.423950195312,16.891479492188
0.0675,5.6004638671875,-19.223754882812,15.009643554688
0.068,8.8836669921875,-20.625122070312,12.126831054688
0.0685,12.447143554688,-20.024536132812,8.1229248046875
0.069,15.970581054688,-19.383911132812,4.1190185546875
0.0695,18.733276367188,-17.822387695312,-0.1651611328125
0.07,20.735229492188,-15.740356445312,-4.1690673828125
0.0705,21.055541992188,-13.137817382812,-7.0118408203125
0.071,21.255737304688,-10.094848632812,-10.295043945312
0.0715,20.735229492188,-5.9708251953125,-13.978637695312
0.072,20.014526367188,-2.1270751953125,-17.141723632812
0.0725,18.212768554688,1.8367919921875,-19.263793945312
0.073,16.330932617188,5.1600341796875,-20.825317382812
0.0735,13.408081054688,8.2430419921875,-20.985473632812
0.074,9.6444091796875,11.606323242188,-20.705200195312
0.0745,5.2401123046875,15.089721679688,-19.944458007812
0.075,0.5555419921875,17.972534179688,-18.342895507812
0.0755,-3.5684814453125,19.774291992188,-16.260864257812
0.076,-6.4512939453125,20.174682617188,-14.018676757812
0.0765,-9.7344970703125,20.294799804688,-11.095825195312
0.077,-13.538208007812,19.494018554688,-6.7315673828125
0.0775,-16.701293945312,18.693237304688,-2.8477783203125
0.078,-19.143676757812,16.931518554688,2.5574951171875
0.0785,-20.785278320312,14.969604492188,4.8797607421875
0.079,-20.865356445312,12.086791992188,7.8826904296875
0.0795,-21.025512695312,8.8035888671875,11.245971679688
0.08,-19.223754882812,4.7596435546875,14.769409179688
0.0805,-19.544067382812,0.8358154296875,17.852416992188
0.081,-17.622192382812,-3.1280517578125,19.694213867188
0.0815,-15.620239257812,-6.0108642578125,20.655151367188
0.082,-12.697387695312,-9.1339111328125,20.935424804688
0.0825,-8.2930908203125,-12.737426757812,20.374877929688
0.083,-4.0489501953125,-15.900512695312,19.413940429688
0.0835,0.5955810546875,-18.342895507812,17.612182617188
0.084,4.3592529296875,-19.984497070312,15.690307617188
0.0845,7.2420654296875,-20.024536132812,13.007690429688
0.085,10.405151367188,-20.064575195312,10.084838867188
0.0855,14.369018554688,-19.383911132812,5.6405029296875
0.086,17.411987304688,-18.182739257812,1.5565185546875
0.0865,19.494018554688,-16.380981445312,-2.4073486328125
0.087,20.655151367188,-14.298950195312,-5.5303955078125
0.0875,20.775268554688,-11.296020507812,-8.6534423828125
0.088,20.655151367188,-7.5723876953125,-12.256958007812
0.0885,20.134643554688,-3.9288330078125,-15.420043945312
0.089,18.853393554688,0.1151123046875,-18.262817382812
0.0895,16.931518554688,3.8787841796875,-20.064575195312
0.09,14.369018554688,6.7215576171875,-20.384887695312
0.0905,11.606323242188,9.8045654296875,-20.785278320312
0.091,6.6014404296875,13.848510742188,-19.944458007812
0.0915,2.3572998046875,16.691284179688,-18.823364257812
0.092,-1.8067626953125,18.733276367188,-16.941528320312
0.0925,-5.2901611328125,20.134643554688,-15.099731445312
0.093,-8.3331298828125,19.894409179688,-12.056762695312
0.0935,-11.816528320312,19.694213867188,-8.5333251953125
0.094,-15.460083007812,19.173706054688,-4.5294189453125
0.0945,-18.342895507812,17.532104492188,1.2762451171875
0.095,-20.184692382812,15.610229492188,3.6385498046875
0.0955,-20.825317382812,13.127807617188,6.6815185546875
0.096,-21.025512695312,11.526245117188,9.7645263671875
0.0965,-20.625122070312,5.8807373046875,13.768432617188
0.097,-19.944458007812,2.2371826171875,16.691284179688
0.0975,-18.382934570312,-1.6466064453125,19.053588867188
0.098,-16.541137695312,-5.1700439453125,20.815307617188
0.0985,-13.418090820312,-8.0928955078125,20.695190429688
0.099,-10.375122070312,-11.215942382812,20.855346679688
0.0995,-5.4102783203125,-15.139770507812,19.974487304688
0.1,-0.6456298828125,-17.902465820312,18.252807617188
0.1005,3.1580810546875,-19.544067382812,16.290893554688
0.101,6.4412841796875,-20.464965820312,14.208862304688
0.1015,9.6043701171875,-20.264770507812,11.045776367188
0.102,13.448120117188,-19.624145507812,6.7215576171875
0.1025,16.691284179688,-18.943481445312,2.9979248046875
0.103,19.333862304688,-17.181762695312,-1.3262939453125
0.1035,20.775268554688,-15.179809570312,-4.8497314453125
0.104,20.935424804688,-12.256958007812,-7.8526611328125
0.1045,21.135620117188,-9.3741455078125,-10.975708007812
0.105,20.575073242188,-4.8497314453125,-15.059692382812
0.1055,19.494018554688,-0.9659423828125,-17.822387695312
0.106,17.732299804688,2.7977294921875,-19.664184570312
0.1065,15.730346679688,6.0809326171875,-21.065551757812
0.107,12.286987304688,9.2039794921875,-20.825317382812
0.1075,8.2830810546875,12.767456054688,-19.223754882812
0.108,3.9588623046875,16.130737304688,-19.744262695312
0.1085,-1.0059814453125,18.693237304688,-17.702270507812
0.109,-4.4893798828125,20.054565429688,-15.740356445312
0.1095,-7.5723876953125,20.334838867188,-13.137817382812
0.11,-10.735473632812,20.334838867188,-10.214965820312
0.1105,-14.979614257812,19.453979492188,-5.2901611328125
0.111,-17.862426757812,18.252807617188,-1.3262939453125
0.1115,-20.024536132812,16.451049804688,2.5975341796875
0.112,-21.225708007812,14.328979492188,5.9207763671875
0.1125,-21.105590820312,11.045776367188,9.0438232421875
0.113,-21.145629882812,7.6024169921875,12.487182617188
0.1135,-20.625122070312,3.5584716796875,16.050659179688
0.114,-19.143676757812,-0.6456298828125,18.813354492188
0.1145,-17.101684570312,-4.0889892578125,20.294799804688
0.115,-14.819458007812,-7.0919189453125,21.095581054688
0.1155,-11.616333007812,-10.134887695312,21.055541992188
0.116,-6.4913330078125,-14.178833007812,20.094604492188
0.1165,-2.4874267578125,-16.981567382812,19.013549804688
0.117,2.0369873046875,-19.143676757812,17.091674804688
0.1175,5.3602294921875,-20.264770507812,15.049682617188
0.118,8.4432373046875,-20.024536132812,11.926635742188
0.1185,11.766479492188,-19.904418945312,8.7635498046875
0.119,15.650268554688,-17.942504882812,4.2391357421875
0.1195,18.372924804688,-17.582153320312,1.2762451171875
0.12,19.974487304688,-15.740356445312,-3.4884033203125
0.1205,20.815307617188,-13.418090820312,-6.6114501953125
0.121,20.655151367188,-10.295043945312,-9.6544189453125
0.1215,20.294799804688,-6.2110595703125,-13.297973632812
0.122,19.734252929688,-2.6876220703125,-16.300903320312
0.1225,18.212768554688,1.3563232421875,-18.783325195312
0.123,16.210815429688,4.6395263671875,-20.064575195312
0.1235,13.368041992188,7.6024169921875,-20.264770507812
0.124,10.405151367188,10.645385742188,-19.223754882812
0.1245,5.1600341796875,14.729370117188,-19.504028320312
0.125,0.9559326171875,17.251831054688,-17.982543945312
0.1255,-2.8077392578125,18.933471679688,-16.260864257812
0.126,-6.0909423828125,19.894409179688,-14.138793945312
0.1265,-9.1739501953125,19.534057617188,-10.895629882812
0.127,-12.737426757812,19.173706054688,-7.1319580078125
0.1275,-16.180786132812,18.533081054688,-3.2081298828125
0.128,-18.663208007812,16.691284179688,1.1561279296875
0.1285,-19.944458007812,14.769409179688,4.2791748046875
0.129,-20.545043945312,12.086791992188,7.4422607421875
0.1295,-20.585083007812,9.2039794921875,10.365112304688
0.13,-20.064575195312,4.7596435546875,14.369018554688
0.1305,-19.103637695312,1.0760498046875,17.091674804688
0.131,-17.542114257812,-2.6075439453125,20.494995117188
0.1315,-15.540161132812,-5.7305908203125,20.374877929688
0.132,-12.216918945312,-8.7335205078125,20.134643554688
0.1325,-8.8536376953125,-11.936645507812,20.174682617188
0.133,-4.0089111328125,-15.660278320312,20.494995117188
0.1335,0.6756591796875,-18.062622070312,17.171752929688
0.134,3.8787841796875,-19.303833007812,15.490112304688
0.1345,7.0418701171875,-19.944458007812,13.087768554688
0.135,10.204956054688,-19.624145507812,9.9246826171875
0.1355,15.369995117188,-18.983520507812,5.4803466796875
0.136,17.051635742188,-18.102661132812,1.7567138671875
0.1365,19.333862304688,-16.220825195312,-2.3272705078125
0.137,20.174682617188,-14.178833007812,-5.2901611328125
0.1375,20.334838867188,-11.095825195312,-8.4932861328125
0.138,20.334838867188,-8.0128173828125,-11.616333007812
0.1385,19.854370117188,-2.5675048828125,-15.299926757812
0.139,18.372924804688,0.1951904296875,-17.782348632812
0.1395,17.932495117188,3.4783935546875,-19.383911132812
0.14,14.449096679688,6.5614013671875,-20.344848632812
0.1405,11.045776367188,9.6043701171875,-20.064575195312
0.141,6.7615966796875,13.247924804688,-19.504028320312
0.1415,3.8387451171875,16.330932617188,-18.583129882812
0.142,-1.9669189453125,18.533081054688,-16.621215820312
0.1425,-4.9298095703125,19.413940429688,-14.739379882812
0.143,-8.1729736328125,19.654174804688,-11.936645507812
0.1435,-11.416137695312,19.413940429688,-8.6534423828125
0.144,-15.179809570312,18.693237304688,-4.2491455078125
0.1445,-17.902465820312,17.211791992188,-0.2852783203125
0.145,-19.744262695312,15.410034179688,3.3582763671875
0.1455,-20.424926757812,13.087768554688,6.3612060546875
0.146,-20.384887695312,9.9246826171875,9.5242919921875
0.1465,-20.104614257812,6.2410888671875,12.887573242188
0.147,-19.624145507812,2.5174560546875,16.210815429688
0.1475,-16.661254882812,-1.6065673828125,18.573120117188
0.148,-16.020629882812,-4.5694580078125,19.694213867188
0.1485,-13.578247070312,-7.5723876953125,20.334838867188
0.149,-10.134887695312,-10.735473632812,20.134643554688
0.1495,-5.2501220703125,-14.459106445312,19.173706054688
0.15,-1.1260986328125,-17.061645507812,17.852416992188
0.1505,2.9578857421875,-18.983520507812,15.970581054688
0.151,5.8406982421875,-19.544067382812,13.848510742188
0.1515,9.0838623046875,-19.504028320312,10.765502929688
0.152,12.567260742188,-17.942504882812,7.1619873046875
0.1525,15.970581054688,-18.463012695312,3.0780029296875
0.153,18.412963867188,-15.380004882812,-1.0860595703125
0.1535,19.694213867188,-14.819458007812,-4.1690673828125
0.154,20.174682617188,-12.216918945312,-7.2120361328125
0.1545,20.134643554688,-7.6925048828125,-10.415161132812
0.155,19.694213867188,-5.0098876953125,-13.938598632812
0.1555,18.853393554688,-1.4464111328125,-16.701293945312
0.156,17.251831054688,2.4373779296875,-18.943481445312
0.1565,15.049682617188,5.2801513671875,-19.704223632812
0.157,12.206909179688,8.2830810546875,-19.904418945312
0.1575,8.5633544921875,11.726440429688,-19.784301757812
0.158,3.8787841796875,15.249877929688,-18.863403320312
0.1585,-0.4454345703125,17.532104492188,-17.021606445312
0.159,-3.7686767578125,19.053588867188,-15.420043945312
0.1595,-6.7716064453125,19.453979492188,-13.017700195312
0.16,-9.9747314453125,20.494995117188,-9.7344970703125
0.1605,-13.738403320312,18.693237304688,-5.8106689453125
0.161,-16.781372070312,17.732299804688,-1.8868408203125
0.1615,-18.983520507812,15.890502929688,2.2371826171875
0.162,-19.904418945312,13.888549804688,5.0799560546875
0.1625,-20.304809570312,11.085815429688,8.2030029296875
0.163,-20.184692382812,7.6424560546875,11.566284179688
0.1635,-19.664184570312,3.7186279296875,15.049682617188
0.164,-18.342895507812,-0.1251220703125,17.532104492188
0.1645,-16.741333007812,-3.6085205078125,19.494018554688
0.165,-14.419067382812,-6.4913330078125,20.054565429688
0.1655,-11.255981445312,-9.5343017578125,20.014526367188
0.166,-7.0919189453125,-13.097778320312,19.574096679688
0.1665,-2.5274658203125,-16.340942382812,18.493041992188
0.167,1.8367919921875,-18.382934570312,16.411010742188
0.1675,4.7196044921875,-19.423950195312,14.729370117188
0.168,7.9627685546875,-19.704223632812,12.046752929688
0.1685,11.366088867188,-19.303833007812,8.3231201171875
0.169,14.889526367188,-18.743286132812,4.3992919921875
0.1695,17.612182617188,-17.341918945312,0.4354248046875
0.17,19.654174804688,-15.460083007812,-3.5284423828125
0.1705,20.054565429688,-13.017700195312,-6.2510986328125
0.171,20.294799804688,-10.094848632812,-9.4141845703125
0.1715,19.894409179688,-6.2911376953125,-12.897583007812
0.172,19.413940429688,-2.4874267578125,-16.100708007812
0.1725,17.732299804688,1.3963623046875,-18.262817382812
0.173,15.930541992188,4.5994873046875,-19.744262695312
0.1735,13.207885742188,7.5623779296875,-20.104614257812
0.174,9.6043701171875,10.805541992188,-19.864379882812
0.1745,5.3602294921875,14.288940429688,-17.942504882812
0.175,0.9158935546875,17.131713867188,-17.822387695312
0.1755,-3.2081298828125,18.893432617188,-15.900512695312
0.176,-5.9307861328125,19.333862304688,-13.738403320312
0.1765,-9.1339111328125,19.534057617188,-10.895629882812
0.177,-12.897583007812,18.893432617188,-6.8116455078125
0.1775,-16.060668945312,18.132690429688,-2.9278564453125
0.178,-18.463012695312,16.531127929688,1.0360107421875
