wavelength,x,y,z
0.0,-5.595458984375,0.930908203125,4.694580078125
0.0005,-5.315185546875,2.372314453125,3.213134765625
0.001,-5.275146484375,3.813720703125,1.931884765625
0.0015,-5.195068359375,4.694580078125,1.131103515625
0.002,-4.674560546875,5.094970703125,0.450439453125
0.0025,-3.593505859375,5.215087890625,-0.670654296875
0.003,-2.272216796875,5.375244140625,-2.192138671875
0.0035,-0.910888671875,5.655517578125,-3.793701171875
0.004,0.010009765625,6.055908203125,-5.034912109375
0.0045,0.610595703125,6.256103515625,-5.835693359375
0.005,1.531494140625,5.695556640625,-6.276123046875
0.0055,2.852783203125,4.374267578125,-6.556396484375
0.006,4.134033203125,2.932861328125,-6.676513671875
0.0065,5.255126953125,1.571533203125,-6.796630859375
0.007,5.735595703125,0.890869140625,-6.876708984375
0.0075,5.695556640625,0.250244140625,-6.516357421875
0.008,5.295166015625,-0.670654296875,-5.595458984375
0.0085,4.974853515625,-1.951904296875,-4.314208984375
0.009,4.774658203125,-3.393310546875,-2.872802734375
0.0095,4.774658203125,-4.634521484375,-1.871826171875
0.01,4.614501953125,-5.315185546875,-1.151123046875
0.0105,3.973876953125,-5.595458984375,-0.430419921875
0.011,2.852783203125,-5.675537109375,0.770751953125
0.0115,1.571533203125,-5.835693359375,2.252197265625
0.012,0.370361328125,-6.196044921875,3.773681640625
0.0125,-0.350341796875,-6.676513671875,4.854736328125
0.013,-0.990966796875,-6.676513671875,5.575439453125
0.0135,-1.951904296875,-5.915771484375,5.935791015625
0.014,-3.273193359375,-4.674560546875,6.216064453125
0.0145,-4.554443359375,-3.273193359375,6.376220703125
0.015,-5.475341796875,-2.272216796875,6.576416015625
0.0155,-5.835693359375,-1.631591796875,6.616455078125
0.016,-5.715576171875,-1.031005859375,6.135986328125
0.0165,-5.355224609375,0.010009765625,5.135009765625
0.017,-5.114990234375,1.211181640625,3.973876953125
0.0175,-5.114990234375,2.612548828125,2.612548828125
0.018,-5.114990234375,3.813720703125,1.811767578125
0.0185,-4.874755859375,4.454345703125,1.171142578125
0.019,-4.194091796875,4.654541015625,0.370361328125
0.0195,-3.113037109375,4.854736328125,-0.950927734375
0.02,-1.791748046875,5.135009765625,-2.432373046875
0.0205,-0.910888671875,5.615478515625,-3.833740234375
0.021,-0.310302734375,6.055908203125,-4.874755859375
0.0215,0.530517578125,5.935791015625,-5.515380859375
0.022,1.611572265625,5.014892578125,-5.835693359375
0.0225,2.932861328125,3.813720703125,-6.156005859375
0.023,4.214111328125,2.532470703125,-6.396240234375
0.0235,5.014892578125,1.651611328125,-6.636474609375
0.024,5.255126953125,1.051025390625,-6.636474609375
0.0245,5.135009765625,0.290283203125,-6.075927734375
0.025,4.854736328125,-0.790771484375,-5.074951171875
0.0255,4.654541015625,-2.112060546875,-3.833740234375
0.026,4.734619140625,-3.473388671875,-2.672607421875
0.0265,4.774658203125,-4.434326171875,-1.951904296875
0.027,4.454345703125,-4.994873046875,-1.271240234375
0.0275,3.613525390625,-5.155029296875,-0.350341796875
0.028,2.492431640625,-5.435302734375,1.010986328125
0.0285,1.291259765625,-5.795654296875,2.532470703125
0.029,0.530517578125,-6.356201171875,3.853759765625
0.0295,-0.190185546875,-6.676513671875,4.774658203125
0.03,-1.031005859375,-6.276123046875,5.335205078125
0.0305,-2.272216796875,-5.315185546875,5.695556640625
0.031,-3.553466796875,-4.033935546875,5.975830078125
0.0315,-4.674560546875,-2.872802734375,6.256103515625
0.032,-5.315185546875,-2.232177734375,6.456298828125
0.0325,-5.435302734375,-1.631591796875,6.256103515625
0.033,-5.195068359375,-0.910888671875,5.495361328125
0.0335,-5.074951171875,0.290283203125,4.494384765625
0.034,-4.954833984375,1.691650390625,3.333251953125
0.0345,-5.074951171875,2.972900390625,2.412353515625
0.035,-4.994873046875,3.813720703125,1.731689453125
0.0355,-4.554443359375,4.174072265625,1.010986328125
0.036,-3.593505859375,4.454345703125,0.010009765625
0.0365,-2.552490234375,4.774658203125,-1.471435546875
0.037,-1.471435546875,5.255126953125,-2.912841796875
0.0375,-0.830810546875,5.735595703125,-4.073974609375
0.038,-0.190185546875,5.895751953125,-4.914794921875
0.0385,0.850830078125,5.375244140625,-5.395263671875
0.039,2.052001953125,4.334228515625,-5.755615234375
0.0395,3.333251953125,3.093017578125,-6.035888671875
0.04,4.414306640625,2.092041015625,-6.356201171875
0.0405,4.854736328125,1.531494140625,-6.556396484375
0.041,4.854736328125,0.890869140625,-6.236083984375
0.0415,4.654541015625,0.010009765625,-5.435302734375
0.042,4.614501953125,-1.191162109375,-4.394287109375
0.0425,4.614501953125,-2.592529296875,-3.233154296875
0.043,4.734619140625,-3.753662109375,-2.472412109375
0.0435,4.614501953125,-4.474365234375,-1.831787109375
0.044,4.013916015625,-4.834716796875,-1.031005859375
0.0445,3.052978515625,-5.114990234375,0.250244140625
0.045,1.931884765625,-5.515380859375,1.651611328125
0.0455,1.091064453125,-6.075927734375,3.052978515625
0.046,0.490478515625,-6.556396484375,4.134033203125
0.0465,-0.390380859375,-6.476318359375,4.854736328125
0.047,-1.471435546875,-5.755615234375,5.295166015625
0.0475,-2.792724609375,-4.634521484375,5.695556640625
0.048,-4.073974609375,-3.473388671875,6.015869140625
0.0485,-4.914794921875,-2.632568359375,6.336181640625
0.049,-5.275146484375,-2.072021484375,6.376220703125
0.0495,-5.195068359375,-1.431396484375,5.895751953125
0.05,-5.034912109375,-0.350341796875,4.974853515625
0.0505,-4.994873046875,1.010986328125,3.853759765625
0.051,-5.074951171875,2.412353515625,2.812744140625
0.0515,-5.114990234375,3.413330078125,2.092041015625
0.052,-4.834716796875,3.973876953125,1.411376953125
0.0525,-4.033935546875,4.294189453125,0.490478515625
0.053,-3.032958984375,4.654541015625,-0.950927734375
0.0535,-1.911865234375,5.094970703125,-2.432373046875
0.054,-1.151123046875,5.615478515625,-3.713623046875
0.0545,-0.510498046875,5.975830078125,-4.714599609375
0.055,0.490478515625,5.615478515625,-5.275146484375
0.0555,1.731689453125,4.614501953125,-5.675537109375
0.056,3.052978515625,3.413330078125,-5.995849609375
0.0565,4.214111328125,2.252197265625,-6.276123046875
0.057,4.854736328125,1.571533203125,-6.556396484375
0.0575,4.974853515625,0.930908203125,-6.396240234375
0.058,4.814697265625,0.130126953125,-5.635498046875
0.0585,4.654541015625,-1.031005859375,-4.594482421875
0.059,4.614501953125,-2.432373046875,-3.353271484375
0.0595,4.734619140625,-3.713623046875,-2.432373046875
0.06,4.654541015625,-4.554443359375,-1.791748046875
0.0605,4.134033203125,-4.954833984375,-0.990966796875
0.061,3.173095703125,-5.155029296875,0.130126953125
0.0615,2.052001953125,-5.475341796875,1.571533203125
0.062,1.010986328125,-5.955810546875,3.012939453125
0.0625,0.330322265625,-6.476318359375,4.174072265625
0.063,-0.510498046875,-6.556396484375,5.054931640625
0.0635,-1.471435546875,-5.915771484375,5.455322265625
0.064,-2.832763671875,-4.754638671875,5.815673828125
0.0645,-4.154052734375,-3.473388671875,6.095947265625
0.065,-5.114990234375,-2.472412109375,6.416259765625
0.0655,-5.555419921875,-1.871826171875,6.456298828125
0.066,-5.435302734375,-1.191162109375,6.055908203125
0.0665,-5.195068359375,-0.230224609375,5.094970703125
0.067,-5.034912109375,1.131103515625,3.893798828125
0.0675,-5.034912109375,2.572509765625,2.692626953125
0.068,-5.074951171875,3.693603515625,1.851806640625
0.0685,-4.834716796875,4.334228515625,1.171142578125
0.069,-4.114013671875,4.534423828125,0.330322265625
0.0695,-2.992919921875,4.774658203125,-1.031005859375
0.07,-1.751708984375,5.135009765625,-2.592529296875
0.0705,-0.870849609375,5.655517578125,-3.993896484375
0.071,-0.270263671875,6.055908203125,-4.994873046875
0.0715,0.650634765625,5.775634765625,-5.635498046875
0.072,1.891845703125,4.814697265625,-5.955810546875
0.0725,3.213134765625,3.453369140625,-6.276123046875
0.073,4.494384765625,2.172119140625,-6.476318359375
0.0735,5.175048828125,1.291259765625,-6.716552734375
0.074,5.415283203125,0.730712890625,-6.556396484375
0.0745,5.175048828125,0.010009765625,-5.795654296875
0.075,4.854736328125,-1.271240234375,-4.674560546875
0.0755,4.734619140625,-2.632568359375,-3.353271484375
0.076,4.774658203125,-4.033935546875,-2.232177734375
0.0765,4.694580078125,-4.954833984375,-1.471435546875
0.077,4.214111328125,-5.395263671875,-0.790771484375
0.0775,3.213134765625,-5.475341796875,0.330322265625
0.078,1.931884765625,-5.715576171875,1.771728515625
0.0785,0.770751953125,-6.075927734375,3.293212890625
0.079,0.010009765625,-6.556396484375,4.534423828125
0.0795,-0.710693359375,-6.716552734375,5.415283203125
0.08,-1.671630859375,-6.115966796875,5.855712890625
0.0805,-3.072998046875,-4.914794921875,6.176025390625
0.081,-4.394287109375,-3.553466796875,6.416259765625
0.0815,-5.475341796875,-2.352294921875,6.536376953125
0.082,-5.915771484375,-1.591552734375,6.696533203125
0.0825,-5.915771484375,-0.950927734375,6.296142578125
0.083,-5.555419921875,0.090087890625,5.295166015625
0.0835,-5.275146484375,1.411376953125,4.013916015625
0.084,-5.155029296875,2.852783203125,2.612548828125
0.0845,-5.195068359375,4.134033203125,1.571533203125
0.085,-4.994873046875,4.814697265625,0.890869140625
0.0855,-4.234130859375,5.054931640625,0.050048828125
0.086,-2.992919921875,5.135009765625,-1.271240234375
0.0865,-1.631591796875,5.415283203125,-2.872802734375
0.087,-0.550537109375,5.775634765625,-4.354248046875
0.0875,0.250244140625,6.216064453125,-5.435302734375
0.088,0.970947265625,6.055908203125,-6.196044921875
0.0885,2.172119140625,5.014892578125,-6.516357421875
0.089,3.613525390625,3.573486328125,-6.756591796875
0.0895,4.934814453125,2.052001953125,-6.916748046875
0.09,5.775634765625,1.010986328125,-7.036865234375
0.0905,6.015869140625,0.370361328125,-6.916748046875
0.091,5.735595703125,-0.510498046875,-6.156005859375
0.0915,5.295166015625,-1.631591796875,-4.834716796875
0.092,5.054931640625,-3.153076171875,-3.353271484375
0.0925,4.894775390625,-4.674560546875,-1.951904296875
0.093,4.814697265625,-5.635498046875,-1.031005859375
0.0935,4.334228515625,-6.115966796875,-0.310302734375
0.094,3.253173828125,-6.156005859375,0.770751953125
0.0945,1.771728515625,-6.236083984375,2.292236328125
0.095,0.290283203125,-6.396240234375,3.973876953125
0.0955,-0.670654296875,-6.796630859375,5.255126953125
0.096,-1.311279296875,-6.956787109375,6.135986328125
0.0965,-2.272216796875,-6.396240234375,6.656494140625
0.097,-3.633544921875,-4.994873046875,6.816650390625
0.0975,-5.034912109375,-3.473388671875,6.976806640625
0.098,-6.115966796875,-1.951904296875,7.016845703125
0.0985,-6.636474609375,-1.031005859375,6.976806640625
0.099,-6.556396484375,-0.390380859375,6.536376953125
0.0995,-6.115966796875,0.610595703125,5.535400390625
0.1,-5.635498046875,1.931884765625,3.973876953125
0.1005,-5.355224609375,3.453369140625,2.412353515625
0.101,-5.195068359375,4.774658203125,1.131103515625
0.1015,-4.954833984375,5.455322265625,0.370361328125
0.102,-4.194091796875,5.695556640625,-0.510498046875
0.1025,-2.912841796875,5.615478515625,-1.631591796875
0.103,-1.391357421875,5.735595703125,-3.273193359375
0.1035,0.050048828125,5.935791015625,-4.834716796875
0.104,0.810791015625,6.256103515625,-5.955810546875
0.1045,1.411376953125,6.176025390625,-6.676513671875
0.105,2.452392578125,5.295166015625,-7.036865234375
0.1055,3.853759765625,3.773681640625,-7.116943359375
0.106,5.135009765625,2.212158203125,-7.156982421875
0.1065,6.095947265625,0.890869140625,-7.156982421875
0.107,6.376220703125,0.170166015625,-7.076904296875
0.1075,6.135986328125,-0.630615234375,-6.436279296875
0.108,5.615478515625,-1.631591796875,-5.195068359375
0.1085,5.175048828125,-2.992919921875,-3.713623046875
0.109,4.934814453125,-4.514404296875,-2.112060546875
0.1095,4.854736328125,-5.675537109375,-1.111083984375
0.11,4.494384765625,-6.276123046875,-0.390380859375
0.1105,3.613525390625,-6.356201171875,0.570556640625
0.111,2.212158203125,-6.276123046875,1.891845703125
0.1115,0.650634765625,-6.396240234375,3.533447265625
0.112,-0.590576171875,-6.676513671875,4.974853515625
0.1125,-1.231201171875,-6.996826171875,6.015869140625
0.113,-1.951904296875,-6.756591796875,6.536376953125
0.1135,-3.153076171875,-5.675537109375,6.776611328125
0.114,-4.514404296875,-4.114013671875,6.976806640625
0.1145,-5.755615234375,-2.552490234375,7.016845703125
0.115,-6.516357421875,-1.431396484375,7.056884765625
0.1155,-6.636474609375,-0.790771484375,6.856689453125
0.116,-6.316162109375,0.050048828125,6.095947265625
0.1165,-5.795654296875,1.211181640625,4.734619140625
0.117,-5.475341796875,2.612548828125,3.213134765625
0.1175,-5.315185546875,4.134033203125,1.771728515625
0.118,-5.155029296875,5.094970703125,0.890869140625
0.1185,-4.674560546875,5.495361328125,0.170166015625
0.119,-3.673583984375,5.575439453125,-0.910888671875
0.1195,-2.232177734375,5.655517578125,-2.392333984375
0.12,-0.670654296875,5.815673828125,-4.114013671875
0.1205,0.330322265625,6.135986328125,-5.435302734375
0.121,0.930908203125,6.376220703125,-6.276123046875
0.1215,1.771728515625,5.815673828125,-6.796630859375
0.122,3.173095703125,4.534423828125,-6.996826171875
0.1225,4.494384765625,2.972900390625,-7.116943359375
0.123,5.695556640625,1.531494140625,-7.197021484375
0.1235,6.256103515625,0.570556640625,-7.156982421875
0.124,6.256103515625,-0.190185546875,-6.836669921875
0.1245,5.815673828125,-1.071044921875,-5.835693359375
0.125,5.375244140625,-2.352294921875,-4.394287109375
0.1255,5.094970703125,-3.913818359375,-2.752685546875
0.126,4.974853515625,-5.275146484375,-1.471435546875
0.1265,4.734619140625,-6.115966796875,-0.670654296875
0.127,4.053955078125,-6.356201171875,0.170166015625
0.1275,2.812744140625,-6.316162109375,1.331298828125
0.128,1.251220703125,-6.436279296875,3.012939453125
0.1285,-0.270263671875,-6.676513671875,4.614501953125
0.129,-1.031005859375,-7.036865234375,5.735595703125
0.1295,-1.671630859375,-7.036865234375,6.496337890625
0.13,-2.752685546875,-6.115966796875,6.896728515625
0.1305,-4.154052734375,-4.554443359375,7.056884765625
0.131,-5.475341796875,-2.952880859375,7.056884765625
0.1315,-6.436279296875,-1.631591796875,7.096923828125
0.132,-6.756591796875,-0.910888671875,7.056884765625
0.1325,-6.556396484375,-0.150146484375,6.416259765625
0.133,-6.035888671875,1.010986328125,5.094970703125
0.1335,-5.635498046875,2.412353515625,3.573486328125
0.134,-5.395263671875,3.973876953125,1.971923828125
0.1345,-5.235107421875,5.094970703125,0.930908203125
0.135,-4.834716796875,5.655517578125,0.170166015625
0.1355,-3.913818359375,5.735595703125,-0.790771484375
0.136,-2.472412109375,5.695556640625,-2.112060546875
0.1365,-0.910888671875,5.775634765625,-3.833740234375
0.137,0.290283203125,6.055908203125,-5.275146484375
0.1375,0.930908203125,6.256103515625,-6.276123046875
0.138,1.691650390625,6.055908203125,-6.796630859375
0.1385,2.852783203125,4.894775390625,-6.996826171875
0.139,4.214111328125,3.333251953125,-7.116943359375
0.1395,5.455322265625,1.771728515625,-7.116943359375
0.14,6.176025390625,0.690673828125,-7.116943359375
0.1405,6.256103515625,0.010009765625,-6.916748046875
0.141,5.895751953125,-0.790771484375,-6.115966796875
0.1415,5.415283203125,-1.951904296875,-4.834716796875
0.142,5.054931640625,-3.353271484375,-3.233154296875
0.1425,4.854736328125,-4.834716796875,-1.831787109375
0.143,4.734619140625,-5.755615234375,-0.950927734375
0.1435,4.294189453125,-6.156005859375,-0.270263671875
0.144,3.253173828125,-6.156005859375,0.770751953125
0.1445,1.851806640625,-6.276123046875,2.212158203125
0.145,0.370361328125,-6.396240234375,3.813720703125
0.1455,-0.630615234375,-6.756591796875,5.094970703125
0.146,-1.231201171875,-6.916748046875,6.015869140625
0.1465,-2.031982421875,-6.476318359375,6.456298828125
0.147,-3.273193359375,-5.235107421875,6.656494140625
0.1475,-4.594482421875,-3.753662109375,6.776611328125
0.148,-5.755615234375,-2.392333984375,6.856689453125
0.1485,-6.356201171875,-1.471435546875,6.896728515625
0.149,-6.396240234375,-0.870849609375,6.656494140625
0.1495,-5.995849609375,0.050048828125,5.735595703125
0.15,-5.595458984375,1.251220703125,4.494384765625
0.1505,-5.315185546875,2.692626953125,2.972900390625
0.151,-5.275146484375,4.093994140625,1.771728515625
0.1515,-5.114990234375,4.934814453125,0.970947265625
0.152,-4.514404296875,5.255126953125,0.210205078125
0.1525,-3.433349609375,5.295166015625,-0.950927734375
0.153,-2.072021484375,5.455322265625,-2.432373046875
0.1535,-0.710693359375,5.735595703125,-4.033935546875
0.154,0.130126953125,6.135986328125,-5.235107421875
0.1545,0.770751953125,6.296142578125,-6.035888671875
0.155,1.731689453125,5.575439453125,-6.436279296875
0.1555,3.052978515625,4.254150390625,-6.676513671875
0.156,4.414306640625,2.772705078125,-6.796630859375
0.1565,5.455322265625,1.491455078125,-6.916748046875
0.157,5.815673828125,0.770751953125,-6.916748046875
0.1575,5.735595703125,0.130126953125,-6.476318359375
0.158,5.335205078125,-0.910888671875,-5.475341796875
0.1585,5.054931640625,-2.192138671875,-4.154052734375
0.159,4.814697265625,-3.673583984375,-2.672607421875
0.1595,4.814697265625,-4.834716796875,-1.671630859375
0.16,4.614501953125,-5.515380859375,-0.990966796875
0.1605,3.853759765625,-5.755615234375,-0.190185546875
0.161,2.652587890625,-5.835693359375,1.131103515625
0.1615,1.251220703125,-6.075927734375,2.612548828125
0.162,0.170166015625,-6.356201171875,4.093994140625
0.1625,-0.550537109375,-6.716552734375,5.135009765625
0.163,-1.271240234375,-6.676513671875,5.815673828125
0.1635,-2.312255859375,-5.755615234375,6.095947265625
0.164,-3.633544921875,-4.434326171875,6.376220703125
0.1645,-4.834716796875,-3.032958984375,6.496337890625
0.165,-5.715576171875,-1.991943359375,6.656494140625
0.1655,-5.955810546875,-1.431396484375,6.616455078125
0.166,-5.755615234375,-0.790771484375,6.055908203125
0.1665,-5.395263671875,0.290283203125,4.974853515625
0.167,-5.114990234375,1.571533203125,3.693603515625
0.1675,-5.074951171875,3.052978515625,2.412353515625
0.168,-5.074951171875,4.093994140625,1.571533203125
0.1685,-4.794677734375,4.574462890625,0.890869140625
0.169,-3.953857421875,4.774658203125,0.010009765625
0.1695,-2.832763671875,4.934814453125,-1.311279296875
0.17,-1.551513671875,5.255126953125,-2.832763671875
0.1705,-0.630615234375,5.695556640625,-4.154052734375
0.171,0.010009765625,6.055908203125,-5.155029296875
0.1715,0.810791015625,5.815673828125,-5.715576171875
0.172,1.931884765625,4.814697265625,-6.035888671875
0.1725,3.213134765625,3.573486328125,-6.276123046875
0.173,4.454345703125,2.292236328125,-6.476318359375
0.1735,5.094970703125,1.491455078125,-6.676513671875
0.174,5.335205078125,0.890869140625,-6.556396484375
0.1745,5.094970703125,0.170166015625,-5.915771484375
0.175,4.854736328125,-0.950927734375,-4.874755859375
0.1755,4.654541015625,-2.312255859375,-3.633544921875
0.176,4.734619140625,-3.713623046875,-2.512451171875
0.1765,4.734619140625,-4.634521484375,-1.791748046875
0.177,4.334228515625,-5.114990234375,-1.151123046875
0.1775,3.413330078125,-5.315185546875,-0.150146484375
0.178,2.332275390625,-5.555419921875,1.291259765625
0.1785,1.171142578125,-5.915771484375,2.732666015625
0.179,0.410400390625,-6.436279296875,3.973876953125
0.1795,-0.310302734375,-6.676513671875,4.894775390625
0.18,-1.231201171875,-6.236083984375,5.415283203125
0.1805,-2.392333984375,-5.195068359375,5.735595703125
0.181,-3.713623046875,-3.913818359375,6.015869140625
0.1815,-4.794677734375,-2.872802734375,6.296142578125
0.182,-5.395263671875,-2.192138671875,6.496337890625
0.1825,-5.435302734375,-1.591552734375,6.256103515625
0.183,-5.195068359375,-0.750732421875,5.455322265625
0.1835,-5.074951171875,0.490478515625,4.454345703125
0.184,-4.994873046875,1.851806640625,3.213134765625
0.1845,-5.074951171875,3.052978515625,2.292236328125
0.185,-4.994873046875,3.813720703125,1.651611328125
0.1855,-4.514404296875,4.214111328125,0.890869140625
0.186,-3.553466796875,4.494384765625,-0.270263671875
0.1865,-2.432373046875,4.854736328125,-1.631591796875
0.187,-1.431396484375,5.335205078125,-3.072998046875
0.1875,-0.790771484375,5.815673828125,-4.194091796875
0.188,0.010009765625,5.935791015625,-4.994873046875
