wavelength,x,y,z
0.0,-1.031005859375,-7.237060546875,6.095947265625
0.0005,-1.711669921875,-7.076904296875,6.616455078125
0.001,-2.832763671875,-5.915771484375,6.696533203125
0.0015,-4.354248046875,-4.314208984375,6.896728515625
0.002,-5.755615234375,-2.632568359375,7.056884765625
0.0025,-6.756591796875,-1.551513671875,7.337158203125
0.003,-6.876708984375,-0.950927734375,7.217041015625
0.0035,-6.436279296875,-0.270263671875,6.416259765625
0.004,-5.835693359375,0.970947265625,4.974853515625
0.0045,-5.515380859375,2.532470703125,3.333251953125
0.005,-5.435302734375,4.174072265625,1.891845703125
0.0055,-5.515380859375,5.335205078125,0.970947265625
0.006,-5.034912109375,5.735595703125,0.290283203125
0.0065,-3.873779296875,5.615478515625,-0.710693359375
0.007,-2.272216796875,5.615478515625,-2.272216796875
0.0075,-0.710693359375,5.855712890625,-4.114013671875
0.008,0.330322265625,6.416259765625,-5.635498046875
0.0085,0.930908203125,6.656494140625,-6.476318359375
0.009,1.651611328125,6.095947265625,-6.876708984375
0.0095,2.932861328125,4.614501953125,-6.956787109375
0.01,4.494384765625,3.052978515625,-7.076904296875
0.0105,5.815673828125,1.531494140625,-7.317138671875
0.011,6.536376953125,0.610595703125,-7.477294921875
0.0115,6.456298828125,0.050048828125,-7.197021484375
0.012,5.895751953125,-0.830810546875,-6.115966796875
0.0125,5.335205078125,-2.152099609375,-4.554443359375
0.013,5.094970703125,-3.793701171875,-2.872802734375
0.0135,5.135009765625,-5.395263671875,-1.591552734375
0.014,5.054931640625,-6.276123046875,-0.830810546875
0.0145,4.334228515625,-6.436279296875,0.010009765625
0.015,3.012939453125,-6.316162109375,1.091064453125
0.0155,1.331298828125,-6.396240234375,2.772705078125
0.016,-0.190185546875,-6.716552734375,4.534423828125
0.0165,-0.950927734375,-7.277099609375,5.855712890625
0.017,-1.551513671875,-7.317138671875,6.576416015625
0.0175,-2.512451171875,-6.436279296875,6.776611328125
0.018,-3.913818359375,-4.834716796875,6.896728515625
0.0185,-5.395263671875,-3.153076171875,7.056884765625
0.019,-6.596435546875,-1.791748046875,7.297119140625
0.0195,-6.996826171875,-1.111083984375,7.377197265625
0.02,-6.716552734375,-0.470458984375,6.736572265625
0.0205,-6.115966796875,0.610595703125,5.495361328125
0.021,-5.635498046875,2.052001953125,3.893798828125
0.0215,-5.435302734375,3.733642578125,2.252197265625
0.022,-5.555419921875,5.094970703125,1.211181640625
0.0225,-5.235107421875,5.735595703125,0.490478515625
0.023,-4.314208984375,5.735595703125,-0.390380859375
0.0235,-2.752685546875,5.615478515625,-1.711669921875
0.024,-1.191162109375,5.735595703125,-3.473388671875
0.0245,0.130126953125,6.135986328125,-5.114990234375
0.025,0.690673828125,6.536376953125,-6.236083984375
0.0255,1.291259765625,6.336181640625,-6.756591796875
0.026,2.412353515625,5.255126953125,-6.836669921875
0.0265,3.893798828125,3.613525390625,-6.996826171875
0.027,5.295166015625,2.052001953125,-7.116943359375
0.0275,6.296142578125,0.930908203125,-7.397216796875
0.028,6.416259765625,0.330322265625,-7.317138671875
0.0285,6.015869140625,-0.390380859375,-6.556396484375
0.029,5.415283203125,-1.431396484375,-5.155029296875
0.0295,5.054931640625,-2.952880859375,-3.553466796875
0.03,4.974853515625,-4.554443359375,-2.112060546875
0.0305,5.094970703125,-5.755615234375,-1.271240234375
0.031,4.694580078125,-6.156005859375,-0.630615234375
0.0315,3.613525390625,-6.115966796875,0.330322265625
0.032,2.172119140625,-6.115966796875,1.731689453125
0.0325,0.610595703125,-6.356201171875,3.493408203125
0.033,-0.470458984375,-6.876708984375,5.014892578125
0.0335,-0.990966796875,-7.277099609375,5.935791015625
0.034,-1.671630859375,-6.796630859375,6.376220703125
0.0345,-2.872802734375,-5.515380859375,6.456298828125
0.035,-4.354248046875,-4.033935546875,6.696533203125
0.0355,-5.755615234375,-2.552490234375,6.976806640625
0.036,-6.516357421875,-1.671630859375,7.217041015625
0.0365,-6.516357421875,-1.151123046875,7.056884765625
0.037,-6.075927734375,-0.350341796875,6.095947265625
0.0375,-5.635498046875,0.890869140625,4.774658203125
0.038,-5.395263671875,2.492431640625,3.173095703125
0.0385,-5.435302734375,4.093994140625,1.931884765625
0.039,-5.475341796875,5.054931640625,1.211181640625
0.0395,-4.874755859375,5.335205078125,0.490478515625
0.04,-3.713623046875,5.295166015625,-0.630615234375
0.0405,-2.192138671875,5.375244140625,-2.232177734375
0.041,-0.790771484375,5.735595703125,-3.953857421875
0.0415,0.050048828125,6.336181640625,-5.315185546875
0.042,0.610595703125,6.536376953125,-6.115966796875
0.0425,1.451416015625,5.815673828125,-6.396240234375
0.043,2.852783203125,4.454345703125,-6.556396484375
0.0435,4.294189453125,2.892822265625,-6.756591796875
0.044,5.575439453125,1.571533203125,-7.076904296875
0.0445,6.055908203125,0.930908203125,-7.237060546875
0.045,5.895751953125,0.370361328125,-6.836669921875
0.0455,5.415283203125,-0.590576171875,-5.755615234375
0.046,4.974853515625,-1.911865234375,-4.354248046875
0.0465,4.854736328125,-3.473388671875,-2.872802734375
0.047,5.054931640625,-4.914794921875,-1.791748046875
0.0475,4.894775390625,-5.635498046875,-1.191162109375
0.048,4.134033203125,-5.755615234375,-0.510498046875
0.0485,2.892822265625,-5.755615234375,0.730712890625
0.049,1.411376953125,-5.955810546875,2.332275390625
0.0495,0.290283203125,-6.436279296875,3.933837890625
0.05,-0.390380859375,-6.916748046875,5.094970703125
0.0505,-0.990966796875,-6.916748046875,5.735595703125
0.051,-1.951904296875,-6.035888671875,5.935791015625
0.0515,-3.273193359375,-4.714599609375,6.176025390625
0.052,-4.674560546875,-3.273193359375,6.456298828125
0.0525,-5.795654296875,-2.232177734375,6.856689453125
0.053,-6.115966796875,-1.751708984375,6.976806640625
0.0535,-5.835693359375,-1.151123046875,6.376220703125
0.054,-5.435302734375,-0.190185546875,5.295166015625
0.0545,-5.155029296875,1.251220703125,3.973876953125
0.055,-5.155029296875,2.772705078125,2.692626953125
0.0555,-5.395263671875,4.013916015625,1.931884765625
0.056,-5.155029296875,4.614501953125,1.291259765625
0.0565,-4.354248046875,4.654541015625,0.490478515625
0.057,-3.113037109375,4.774658203125,-0.870849609375
0.0575,-1.871826171875,5.135009765625,-2.472412109375
0.058,-0.910888671875,5.775634765625,-3.953857421875
0.0585,-0.350341796875,6.336181640625,-4.994873046875
0.059,0.410400390625,6.095947265625,-5.555419921875
0.0595,1.491455078125,5.175048828125,-5.755615234375
0.06,2.852783203125,3.853759765625,-6.115966796875
0.0605,4.254150390625,2.612548828125,-6.476318359375
0.061,5.175048828125,1.771728515625,-6.916748046875
0.0615,5.415283203125,1.291259765625,-6.916748046875
0.062,5.135009765625,0.610595703125,-6.276123046875
0.0625,4.814697265625,-0.510498046875,-5.195068359375
0.063,4.734619140625,-1.951904296875,-3.913818359375
0.0635,4.894775390625,-3.473388671875,-2.832763671875
0.064,5.054931640625,-4.514404296875,-2.152099609375
0.0645,4.734619140625,-5.074951171875,-1.591552734375
0.065,3.813720703125,-5.155029296875,-0.630615234375
0.0655,2.572509765625,-5.435302734375,0.810791015625
0.066,1.411376953125,-5.835693359375,2.452392578125
0.0665,0.650634765625,-6.556396484375,3.853759765625
0.067,0.130126953125,-6.916748046875,4.774658203125
0.0675,-0.790771484375,-6.516357421875,5.255126953125
0.068,-1.991943359375,-5.475341796875,5.535400390625
0.0685,-3.433349609375,-4.194091796875,5.895751953125
0.069,-4.754638671875,-3.072998046875,6.376220703125
0.0695,-5.435302734375,-2.432373046875,6.776611328125
0.07,-5.515380859375,-1.911865234375,6.576416015625
0.0705,-5.235107421875,-1.151123046875,5.775634765625
0.071,-5.034912109375,0.090087890625,4.734619140625
0.0715,-5.034912109375,1.611572265625,3.493408203125
0.072,-5.315185546875,3.052978515625,2.532470703125
0.0725,-5.315185546875,3.853759765625,1.931884765625
0.073,-4.834716796875,4.174072265625,1.291259765625
0.0735,-3.833740234375,4.334228515625,0.170166015625
0.074,-2.632568359375,4.774658203125,-1.351318359375
0.0745,-1.631591796875,5.375244140625,-2.912841796875
0.075,-0.990966796875,6.015869140625,-4.194091796875
0.0755,-0.390380859375,6.135986328125,-4.954833984375
0.076,0.610595703125,5.535400390625,-5.275146484375
0.0765,1.931884765625,4.454345703125,-5.635498046875
0.077,3.373291015625,3.173095703125,-6.035888671875
0.0775,4.534423828125,2.212158203125,-6.556396484375
0.078,5.054931640625,1.651611328125,-6.796630859375
0.0785,4.974853515625,1.131103515625,-6.476318359375
0.079,4.694580078125,0.290283203125,-5.595458984375
0.0795,4.534423828125,-1.071044921875,-4.474365234375
0.08,4.654541015625,-2.552490234375,-3.353271484375
0.0805,4.974853515625,-3.913818359375,-2.592529296875
0.081,4.854736328125,-4.594482421875,-2.031982421875
0.0815,4.174072265625,-4.834716796875,-1.271240234375
0.082,3.173095703125,-5.074951171875,0.010009765625
0.0825,1.971923828125,-5.475341796875,1.571533203125
0.083,1.131103515625,-6.196044921875,3.052978515625
0.0835,0.570556640625,-6.756591796875,4.174072265625
0.084,-0.190185546875,-6.716552734375,4.814697265625
0.0845,-1.271240234375,-5.915771484375,5.175048828125
0.085,-2.672607421875,-4.754638671875,5.615478515625
0.0855,-4.073974609375,-3.553466796875,6.095947265625
0.086,-5.114990234375,-2.752685546875,6.576416015625
0.0865,-5.395263671875,-2.272216796875,6.696533203125
0.087,-5.235107421875,-1.631591796875,6.095947265625
0.0875,-4.994873046875,-0.630615234375,5.135009765625
0.088,-4.994873046875,0.890869140625,3.973876953125
0.0885,-5.195068359375,2.332275390625,2.972900390625
0.089,-5.395263671875,3.453369140625,2.292236328125
0.0895,-5.114990234375,3.973876953125,1.651611328125
0.09,-4.234130859375,4.214111328125,0.770751953125
0.0905,-3.153076171875,4.534423828125,-0.710693359375
0.091,-2.031982421875,5.094970703125,-2.272216796875
0.0915,-1.271240234375,5.815673828125,-3.713623046875
0.092,-0.710693359375,6.216064453125,-4.674560546875
0.0925,0.210205078125,5.815673828125,-5.155029296875
0.093,1.411376953125,4.854736328125,-5.475341796875
0.0935,2.892822265625,3.533447265625,-5.915771484375
0.094,4.214111328125,2.492431640625,-6.396240234375
0.0945,4.974853515625,1.811767578125,-6.796630859375
0.095,5.094970703125,1.291259765625,-6.636474609375
0.0955,4.814697265625,0.530517578125,-5.875732421875
0.096,4.614501953125,-0.710693359375,-4.834716796875
0.0965,4.614501953125,-2.272216796875,-3.553466796875
0.097,4.934814453125,-3.713623046875,-2.672607421875
0.0975,4.934814453125,-4.594482421875,-2.112060546875
0.098,4.454345703125,-4.874755859375,-1.391357421875
0.0985,3.413330078125,-4.994873046875,-0.350341796875
0.099,2.252197265625,-5.395263671875,1.251220703125
0.0995,1.251220703125,-6.035888671875,2.812744140625
0.1,0.610595703125,-6.676513671875,4.134033203125
0.1005,0.010009765625,-6.796630859375,4.894775390625
0.101,-1.151123046875,-6.115966796875,5.255126953125
0.1015,-2.472412109375,-4.994873046875,5.615478515625
0.102,-3.913818359375,-3.673583984375,6.055908203125
0.1025,-5.155029296875,-2.672607421875,6.536376953125
0.103,-5.635498046875,-2.152099609375,6.776611328125
0.1035,-5.515380859375,-1.551513671875,6.376220703125
0.104,-5.195068359375,-0.630615234375,5.375244140625
0.1045,-5.034912109375,0.730712890625,4.134033203125
0.105,-5.114990234375,2.292236328125,2.932861328125
0.1055,-5.435302734375,3.613525390625,2.132080078125
0.106,-5.155029296875,4.334228515625,1.531494140625
0.1065,-4.394287109375,4.494384765625,0.690673828125
0.107,-3.193115234375,4.654541015625,-0.670654296875
0.1075,-1.991943359375,5.094970703125,-2.272216796875
0.108,-1.111083984375,5.735595703125,-3.833740234375
0.1085,-0.510498046875,6.256103515625,-4.954833984375
0.109,0.330322265625,6.055908203125,-5.515380859375
0.1095,1.491455078125,5.054931640625,-5.755615234375
0.11,2.932861328125,3.733642578125,-6.115966796875
0.1105,4.414306640625,2.412353515625,-6.516357421875
0.111,5.335205078125,1.531494140625,-6.916748046875
0.1115,5.495361328125,1.010986328125,-6.876708984375
0.112,5.175048828125,0.290283203125,-6.156005859375
0.1125,4.814697265625,-0.910888671875,-4.954833984375
0.113,4.694580078125,-2.392333984375,-3.593505859375
0.1135,4.854736328125,-3.953857421875,-2.472412109375
0.114,5.014892578125,-4.954833984375,-1.751708984375
0.1145,4.534423828125,-5.315185546875,-1.111083984375
0.115,3.493408203125,-5.395263671875,0.010009765625
0.1155,2.212158203125,-5.595458984375,1.371337890625
0.116,0.970947265625,-6.075927734375,3.093017578125
0.1165,0.210205078125,-6.716552734375,4.494384765625
0.117,-0.510498046875,-6.996826171875,5.375244140625
0.1175,-1.311279296875,-6.396240234375,5.735595703125
0.118,-2.632568359375,-5.155029296875,5.935791015625
0.1185,-4.154052734375,-3.713623046875,6.256103515625
0.119,-5.435302734375,-2.512451171875,6.696533203125
0.1195,-6.075927734375,-1.831787109375,6.936767578125
0.12,-5.995849609375,-1.271240234375,6.576416015625
0.1205,-5.515380859375,-0.470458984375,5.615478515625
0.121,-5.235107421875,0.930908203125,4.294189453125
0.1215,-5.195068359375,2.532470703125,2.852783203125
0.122,-5.435302734375,4.013916015625,1.891845703125
0.1225,-5.275146484375,4.774658203125,1.211181640625
0.123,-4.554443359375,5.014892578125,0.490478515625
0.1235,-3.313232421875,4.974853515625,-0.790771484375
0.124,-1.951904296875,5.255126953125,-2.432373046875
0.1245,-0.790771484375,5.775634765625,-4.154052734375
0.125,0.010009765625,6.376220703125,-5.355224609375
0.1255,0.610595703125,6.336181640625,-6.035888671875
0.126,1.651611328125,5.415283203125,-6.276123046875
0.1265,3.173095703125,3.973876953125,-6.516357421875
0.127,4.654541015625,2.412353515625,-6.796630859375
0.1275,5.775634765625,1.291259765625,-7.197021484375
0.128,6.095947265625,0.650634765625,-7.197021484375
0.1285,5.775634765625,0.010009765625,-6.556396484375
0.129,5.255126953125,-1.151123046875,-5.235107421875
0.1295,4.974853515625,-2.632568359375,-3.793701171875
0.13,4.974853515625,-4.274169921875,-2.312255859375
0.1305,5.135009765625,-5.515380859375,-1.431396484375
0.131,4.774658203125,-6.035888671875,-0.790771484375
0.1315,3.693603515625,-5.955810546875,0.210205078125
0.132,2.212158203125,-5.995849609375,1.611572265625
0.1325,0.690673828125,-6.276123046875,3.453369140625
0.133,-0.350341796875,-6.876708984375,5.014892578125
0.1335,-0.990966796875,-7.237060546875,6.015869140625
0.134,-1.791748046875,-6.716552734375,6.456298828125
0.1345,-3.072998046875,-5.395263671875,6.576416015625
0.135,-4.554443359375,-3.833740234375,6.776611328125
0.1355,-5.955810546875,-2.312255859375,7.056884765625
0.136,-6.716552734375,-1.391357421875,7.297119140625
0.1365,-6.716552734375,-0.790771484375,7.016845703125
0.137,-6.156005859375,0.090087890625,5.975830078125
0.1375,-5.675537109375,1.291259765625,4.454345703125
0.138,-5.395263671875,3.012939453125,2.772705078125
0.1385,-5.435302734375,4.534423828125,1.531494140625
0.139,-5.395263671875,5.495361328125,0.730712890625
0.1395,-4.674560546875,5.735595703125,0.010009765625
0.14,-3.313232421875,5.535400390625,-1.151123046875
0.1405,-1.711669921875,5.615478515625,-2.872802734375
0.141,-0.310302734375,5.935791015625,-4.634521484375
0.1415,0.570556640625,6.496337890625,-5.915771484375
0.142,1.131103515625,6.536376953125,-6.676513671875
0.1425,2.052001953125,5.695556640625,-6.916748046875
0.143,3.493408203125,4.134033203125,-6.996826171875
0.1435,4.974853515625,2.452392578125,-7.116943359375
0.144,6.135986328125,1.091064453125,-7.357177734375
0.1445,6.616455078125,0.290283203125,-7.397216796875
0.145,6.336181640625,-0.430419921875,-6.916748046875
0.1455,5.655517578125,-1.311279296875,-5.635498046875
0.146,5.215087890625,-2.672607421875,-3.993896484375
0.1465,4.974853515625,-4.354248046875,-2.312255859375
0.147,5.094970703125,-5.755615234375,-1.231201171875
0.1475,4.854736328125,-6.396240234375,-0.590576171875
0.148,3.933837890625,-6.436279296875,0.290283203125
0.1485,2.452392578125,-6.276123046875,1.531494140625
0.149,0.770751953125,-6.396240234375,3.293212890625
0.1495,-0.510498046875,-6.796630859375,4.974853515625
0.15,-1.151123046875,-7.237060546875,6.095947265625
0.1505,-1.791748046875,-7.076904296875,6.656494140625
0.151,-2.832763671875,-5.915771484375,6.776611328125
0.1515,-4.314208984375,-4.354248046875,6.896728515625
0.152,-5.715576171875,-2.712646484375,7.056884765625
0.1525,-6.756591796875,-1.631591796875,7.297119140625
0.153,-6.916748046875,-0.990966796875,7.257080078125
0.1535,-6.556396484375,-0.310302734375,6.456298828125
0.154,-5.915771484375,0.890869140625,5.094970703125
0.1545,-5.515380859375,2.412353515625,3.453369140625
0.155,-5.435302734375,4.093994140625,1.931884765625
0.1555,-5.475341796875,5.295166015625,1.010986328125
0.156,-5.074951171875,5.735595703125,0.330322265625
0.1565,-3.993896484375,5.695556640625,-0.630615234375
0.157,-2.432373046875,5.615478515625,-2.072021484375
0.1575,-0.830810546875,5.815673828125,-3.873779296875
0.158,0.250244140625,6.376220703125,-5.435302734375
0.1585,0.810791015625,6.696533203125,-6.396240234375
0.159,1.571533203125,6.256103515625,-6.796630859375
0.1595,2.812744140625,4.854736328125,-6.916748046875
0.16,4.334228515625,3.213134765625,-7.076904296875
0.1605,5.695556640625,1.651611328125,-7.317138671875
0.161,6.536376953125,0.690673828125,-7.517333984375
0.1615,6.456298828125,0.090087890625,-7.317138671875
0.162,5.935791015625,-0.710693359375,-6.276123046875
0.1625,5.415283203125,-1.951904296875,-4.794677734375
0.163,5.094970703125,-3.593505859375,-3.072998046875
0.1635,5.135009765625,-5.235107421875,-1.711669921875
0.164,5.094970703125,-6.196044921875,-0.950927734375
0.1645,4.494384765625,-6.476318359375,-0.230224609375
0.165,3.173095703125,-6.356201171875,0.930908203125
0.1655,1.531494140625,-6.396240234375,2.572509765625
0.166,0.050048828125,-6.676513671875,4.414306640625
0.1665,-0.870849609375,-7.197021484375,5.775634765625
0.167,-1.431396484375,-7.357177734375,6.536376953125
0.1675,-2.352294921875,-6.516357421875,6.856689453125
0.168,-3.793701171875,-4.954833984375,6.936767578125
0.1685,-5.275146484375,-3.353271484375,7.096923828125
0.169,-6.556396484375,-1.951904296875,7.337158203125
0.1695,-7.076904296875,-1.151123046875,7.417236328125
0.17,-6.796630859375,-0.470458984375,6.896728515625
0.1705,-6.196044921875,0.570556640625,5.655517578125
0.171,-5.715576171875,1.971923828125,3.973876953125
0.1715,-5.475341796875,3.693603515625,2.332275390625
0.172,-5.595458984375,5.175048828125,1.171142578125
0.1725,-5.315185546875,5.815673828125,0.450439453125
0.173,-4.394287109375,5.895751953125,-0.470458984375
0.1735,-2.872802734375,5.735595703125,-1.751708984375
0.174,-1.151123046875,5.815673828125,-3.553466796875
0.1745,0.210205078125,6.216064453125,-5.235107421875
0.175,0.850830078125,6.616455078125,-6.356201171875
0.1755,1.411376953125,6.456298828125,-6.916748046875
0.176,2.532470703125,5.295166015625,-7.036865234375
0.1765,3.973876953125,3.613525390625,-7.116943359375
0.177,5.415283203125,1.931884765625,-7.237060546875
0.1775,6.416259765625,0.730712890625,-7.437255859375
0.178,6.616455078125,0.170166015625,-7.397216796875
0.1785,6.176025390625,-0.590576171875,-6.596435546875
0.179,5.495361328125,-1.591552734375,-5.195068359375
0.1795,5.094970703125,-3.072998046875,-3.553466796875
0.18,4.974853515625,-4.714599609375,-1.991943359375
0.1805,5.094970703125,-5.915771484375,-1.111083984375
0.181,4.614501953125,-6.356201171875,-0.470458984375
0.1815,3.613525390625,-6.276123046875,0.490478515625
0.182,2.052001953125,-6.156005859375,1.851806640625
0.1825,0.490478515625,-6.356201171875,3.573486328125
0.183,-0.630615234375,-6.796630859375,5.094970703125
0.1835,-1.151123046875,-7.197021484375,6.095947265625
0.184,-1.791748046875,-6.836669921875,6.456298828125
0.1845,-2.952880859375,-5.635498046875,6.536376953125
0.185,-4.354248046875,-4.114013671875,6.696533203125
0.1855,-5.755615234375,-2.592529296875,6.936767578125
0.186,-6.556396484375,-1.631591796875,7.177001953125
0.1865,-6.596435546875,-1.111083984375,7.056884765625
0.187,-6.115966796875,-0.390380859375,6.176025390625
0.1875,-5.595458984375,0.770751953125,4.854736328125
0.188,-5.355224609375,2.332275390625,3.293212890625
