wavelength,x,y,z
0.0,3.333251953125,3.573486328125,-7.036865234375
0.0005,1.931884765625,5.255126953125,-7.357177734375
0.001,0.570556640625,5.815673828125,-6.396240234375
0.0015,-0.510498046875,6.776611328125,-6.436279296875
0.002,-1.951904296875,7.016845703125,-5.074951171875
0.0025,-3.233154296875,7.497314453125,-4.234130859375
0.003,-4.914794921875,7.657470703125,-2.712646484375
0.0035,-6.196044921875,7.697509765625,-1.471435546875
0.004,-6.556396484375,6.736572265625,-0.150146484375
0.0045,-7.116943359375,6.616455078125,0.690673828125
0.005,-7.036865234375,5.135009765625,2.052001953125
0.0055,-7.116943359375,4.334228515625,3.052978515625
0.006,-7.397216796875,2.852783203125,4.774658203125
0.0065,-6.716552734375,1.571533203125,5.415283203125
0.007,-6.196044921875,0.130126953125,6.256103515625
0.0075,-5.275146484375,-1.231201171875,6.576416015625
0.008,-4.154052734375,-2.632568359375,6.896728515625
0.0085,-3.072998046875,-3.993896484375,7.056884765625
0.009,-1.751708984375,-5.515380859375,7.136962890625
0.0095,-0.350341796875,-5.955810546875,6.135986328125
0.01,0.610595703125,-6.916748046875,6.176025390625
0.0105,2.372314453125,-6.996826171875,4.494384765625
0.011,3.533447265625,-7.397216796875,3.813720703125
0.0115,5.255126953125,-7.557373046875,2.212158203125
0.012,6.176025390625,-7.317138671875,0.970947265625
0.0125,6.536376953125,-6.556396484375,-0.270263671875
0.013,6.976806640625,-6.115966796875,-1.151123046875
0.0135,6.936767578125,-4.634521484375,-2.592529296875
0.014,6.976806640625,-3.713623046875,-3.553466796875
0.0145,7.177001953125,-2.312255859375,-5.235107421875
0.015,6.216064453125,-0.790771484375,-5.755615234375
0.0155,5.815673828125,0.570556640625,-6.596435546875
0.016,4.494384765625,2.092041015625,-6.756591796875
0.0165,3.533447265625,3.373291015625,-7.156982421875
0.017,2.292236328125,4.734619140625,-7.197021484375
0.0175,0.970947265625,6.055908203125,-7.076904296875
0.018,-0.470458984375,6.456298828125,-6.075927734375
0.0185,-1.431396484375,7.257080078125,-5.835693359375
0.019,-3.353271484375,7.337158203125,-4.033935546875
0.0195,-4.314208984375,7.657470703125,-3.313232421875
0.02,-5.915771484375,7.697509765625,-1.711669921875
0.0205,-6.476318359375,7.056884765625,-0.550537109375
0.021,-6.916748046875,6.536376953125,0.530517578125
0.0215,-7.076904296875,5.695556640625,1.571533203125
0.022,-7.116943359375,4.414306640625,2.892822265625
0.0225,-7.036865234375,3.333251953125,3.893798828125
0.023,-7.197021484375,2.092041015625,5.295166015625
0.0235,-5.995849609375,0.570556640625,5.655517578125
0.024,-5.875732421875,-0.590576171875,6.576416015625
0.0245,-4.234130859375,-2.272216796875,6.536376953125
0.025,-3.593505859375,-3.393310546875,6.976806640625
0.0255,-2.192138671875,-4.754638671875,6.776611328125
0.026,-0.950927734375,-5.755615234375,6.536376953125
0.0265,0.290283203125,-6.156005859375,5.815673828125
0.027,1.411376953125,-6.916748046875,5.375244140625
0.0275,3.213134765625,-7.036865234375,3.693603515625
0.028,4.174072265625,-7.317138671875,3.012939453125
0.0285,5.695556640625,-7.397216796875,1.571533203125
0.029,6.055908203125,-6.676513671875,0.450439453125
0.0295,6.656494140625,-6.356201171875,-0.550537109375
0.03,6.656494140625,-5.114990234375,-1.871826171875
0.0305,6.896728515625,-4.154052734375,-3.072998046875
0.031,6.696533203125,-2.872802734375,-4.194091796875
0.0315,6.776611328125,-1.671630859375,-5.435302734375
0.032,5.495361328125,0.010009765625,-5.755615234375
0.0325,5.375244140625,1.051025390625,-6.676513671875
0.033,3.573486328125,2.892822265625,-6.716552734375
0.0335,3.052978515625,3.893798828125,-7.197021484375
0.034,1.571533203125,5.375244140625,-6.996826171875
0.0345,0.290283203125,6.216064453125,-6.476318359375
0.035,-0.990966796875,6.696533203125,-5.795654296875
0.0355,-2.432373046875,7.337158203125,-4.874755859375
0.036,-4.154052734375,7.537353515625,-3.393310546875
0.0365,-5.114990234375,7.577392578125,-2.432373046875
0.037,-6.436279296875,7.537353515625,-1.071044921875
0.0375,-6.636474609375,6.576416015625,0.130126953125
0.038,-7.156982421875,6.256103515625,1.091064453125
0.0385,-7.076904296875,4.614501953125,2.652587890625
0.039,-7.317138671875,3.773681640625,3.733642578125
0.0395,-6.996826171875,2.372314453125,4.814697265625
0.04,-6.756591796875,1.131103515625,5.895751953125
0.0405,-5.515380859375,-0.630615234375,6.176025390625
0.041,-5.114990234375,-1.751708984375,6.856689453125
0.0415,-3.353271484375,-3.593505859375,6.896728515625
0.042,-2.592529296875,-4.474365234375,7.016845703125
0.0425,-1.111083984375,-5.755615234375,6.736572265625
0.043,0.250244140625,-6.276123046875,6.055908203125
0.0435,1.331298828125,-6.836669921875,5.415283203125
0.044,3.012939453125,-7.197021484375,4.093994140625
0.0445,4.494384765625,-7.437255859375,2.852783203125
0.045,5.375244140625,-7.197021484375,1.651611328125
0.0455,6.456298828125,-7.116943359375,0.490478515625
0.046,6.456298828125,-6.075927734375,-0.710693359375
0.0465,6.936767578125,-5.715576171875,-1.551513671875
0.047,6.856689453125,-3.993896484375,-3.193115234375
0.0475,6.976806640625,-3.193115234375,-4.154052734375
0.048,6.576416015625,-1.631591796875,-5.275146484375
0.0485,6.095947265625,-0.350341796875,-6.075927734375
0.049,4.974853515625,1.211181640625,-6.436279296875
0.0495,4.214111328125,2.452392578125,-6.916748046875
0.05,2.772705078125,4.254150390625,-7.116943359375
0.0505,1.931884765625,5.054931640625,-6.996826171875
0.051,0.450439453125,6.336181640625,-6.796630859375
0.0515,-0.830810546875,6.696533203125,-5.835693359375
0.052,-1.991943359375,7.337158203125,-5.355224609375
0.0525,-3.833740234375,7.537353515625,-3.713623046875
0.053,-5.195068359375,7.857666015625,-2.632568359375
0.0535,-6.035888671875,7.337158203125,-1.271240234375
0.054,-6.996826171875,7.177001953125,-0.150146484375
0.0545,-6.956787109375,6.055908203125,1.091064453125
0.055,-7.317138671875,5.495361328125,1.971923828125
0.0555,-7.317138671875,3.813720703125,3.773681640625
0.056,-7.237060546875,2.892822265625,4.534423828125
0.0565,-6.836669921875,1.291259765625,5.735595703125
0.057,-6.075927734375,0.010009765625,6.256103515625
0.0575,-5.114990234375,-1.591552734375,6.656494140625
0.058,-4.033935546875,-2.872802734375,6.976806640625
0.0585,-2.712646484375,-4.554443359375,7.257080078125
0.059,-1.551513671875,-5.195068359375,6.696533203125
0.0595,-0.270263671875,-6.436279296875,6.576416015625
0.06,1.051025390625,-6.596435546875,5.455322265625
0.0605,2.252197265625,-7.277099609375,4.894775390625
0.061,4.174072265625,-7.397216796875,3.093017578125
0.0615,5.375244140625,-7.637451171875,2.092041015625
0.062,6.135986328125,-6.956787109375,0.650634765625
0.0625,6.816650390625,-6.716552734375,-0.310302734375
0.063,6.776611328125,-5.555419921875,-1.471435546875
0.0635,6.936767578125,-4.754638671875,-2.552490234375
0.064,7.096923828125,-3.193115234375,-4.194091796875
0.0645,6.696533203125,-2.192138671875,-4.874755859375
0.065,6.416259765625,-0.710693359375,-6.075927734375
0.0655,5.215087890625,0.770751953125,-6.356201171875
0.066,4.534423828125,2.092041015625,-6.836669921875
0.0665,3.173095703125,3.653564453125,-6.916748046875
0.067,2.172119140625,5.094970703125,-7.317138671875
0.0675,0.810791015625,5.695556640625,-6.516357421875
0.068,-0.390380859375,6.776611328125,-6.436279296875
0.0685,-1.671630859375,6.856689453125,-5.155029296875
0.069,-2.912841796875,7.497314453125,-4.554443359375
0.0695,-4.874755859375,7.617431640625,-2.752685546875
0.07,-5.755615234375,7.577392578125,-1.791748046875
0.0705,-6.556396484375,6.976806640625,-0.350341796875
0.071,-6.956787109375,6.536376953125,0.610595703125
0.0715,-7.036865234375,5.495361328125,1.731689453125
0.072,-7.076904296875,4.454345703125,2.812744140625
0.0725,-7.397216796875,3.133056640625,4.414306640625
0.073,-6.676513671875,1.931884765625,4.934814453125
0.0735,-6.516357421875,0.610595703125,6.095947265625
0.074,-5.195068359375,-0.910888671875,6.256103515625
0.0745,-4.674560546875,-2.072021484375,6.776611328125
0.075,-3.193115234375,-3.713623046875,6.856689453125
0.0755,-2.192138671875,-4.874755859375,7.056884765625
0.076,-0.790771484375,-5.555419921875,6.256103515625
0.0765,0.250244140625,-6.436279296875,6.135986328125
0.077,1.611572265625,-6.596435546875,4.934814453125
0.0775,2.852783203125,-7.116943359375,4.134033203125
0.078,4.814697265625,-7.437255859375,2.532470703125
0.0785,5.455322265625,-7.076904296875,1.451416015625
0.079,6.376220703125,-6.796630859375,0.290283203125
0.0795,6.496337890625,-6.035888671875,-0.750732421875
0.08,6.696533203125,-5.155029296875,-1.831787109375
0.0805,6.696533203125,-3.953857421875,-3.153076171875
0.081,7.056884765625,-2.872802734375,-4.554443359375
0.0815,6.135986328125,-1.391357421875,-5.114990234375
0.082,6.015869140625,-0.150146484375,-6.156005859375
0.0825,4.614501953125,1.451416015625,-6.276123046875
0.083,4.093994140625,2.572509765625,-6.876708984375
0.0835,2.572509765625,4.334228515625,-7.076904296875
0.084,1.571533203125,5.295166015625,-6.916748046875
0.0845,0.210205078125,6.095947265625,-6.276123046875
0.085,-0.870849609375,6.736572265625,-5.915771484375
0.0855,-2.312255859375,7.056884765625,-4.714599609375
0.086,-3.713623046875,7.377197265625,-3.713623046875
0.0865,-5.515380859375,7.777587890625,-2.232177734375
0.087,-6.035888671875,7.056884765625,-0.990966796875
0.0875,-6.916748046875,6.936767578125,0.090087890625
0.088,-6.796630859375,5.815673828125,1.171142578125
0.0885,-7.076904296875,4.974853515625,2.212158203125
0.089,-7.076904296875,3.533447265625,3.653564453125
0.0895,-7.197021484375,2.532470703125,4.894775390625
0.09,-6.276123046875,0.970947265625,5.495361328125
0.0905,-6.075927734375,-0.270263671875,6.416259765625
0.091,-4.594482421875,-1.791748046875,6.416259765625
0.0915,-3.953857421875,-2.872802734375,6.896728515625
0.092,-2.432373046875,-4.674560546875,7.056884765625
0.0925,-1.231201171875,-5.435302734375,6.536376953125
0.093,0.010009765625,-6.276123046875,6.216064453125
0.0935,1.211181640625,-6.676513671875,5.375244140625
0.094,2.612548828125,-6.996826171875,4.294189453125
0.0945,4.053955078125,-7.237060546875,3.093017578125
0.095,5.615478515625,-7.557373046875,1.771728515625
0.0955,5.975830078125,-6.596435546875,0.490478515625
0.096,6.696533203125,-6.596435546875,-0.350341796875
0.0965,6.536376953125,-5.275146484375,-1.591552734375
0.097,6.776611328125,-4.514404296875,-2.632568359375
0.0975,6.856689453125,-2.992919921875,-4.194091796875
0.098,6.656494140625,-1.871826171875,-5.114990234375
0.0985,5.775634765625,-0.310302734375,-5.795654296875
0.099,5.295166015625,0.930908203125,-6.396240234375
0.0995,3.973876953125,2.412353515625,-6.556396484375
0.1,3.213134765625,3.573486328125,-6.916748046875
0.1005,1.851806640625,5.255126953125,-7.156982421875
0.101,0.530517578125,5.775634765625,-6.316162109375
0.1015,-0.550537109375,6.696533203125,-6.236083984375
0.102,-1.991943359375,6.936767578125,-4.954833984375
0.1025,-3.273193359375,7.377197265625,-4.114013671875
0.103,-4.834716796875,7.537353515625,-2.632568359375
0.1035,-6.115966796875,7.617431640625,-1.471435546875
0.104,-6.396240234375,6.696533203125,-0.230224609375
0.1045,-7.036865234375,6.536376953125,0.610595703125
0.105,-6.916748046875,5.014892578125,2.011962890625
0.1055,-7.116943359375,4.334228515625,3.012939453125
0.106,-7.317138671875,2.852783203125,4.614501953125
0.1065,-6.716552734375,1.571533203125,5.375244140625
0.107,-6.115966796875,0.130126953125,6.176025390625
0.1075,-5.275146484375,-1.231201171875,6.576416015625
0.108,-4.073974609375,-2.752685546875,6.856689453125
0.1085,-3.113037109375,-3.913818359375,7.056884765625
0.109,-1.671630859375,-5.515380859375,7.096923828125
0.1095,-0.310302734375,-5.955810546875,6.135986328125
0.11,0.730712890625,-6.916748046875,6.095947265625
0.1105,2.572509765625,-7.076904296875,4.414306640625
0.111,3.773681640625,-7.477294921875,3.573486328125
0.1115,5.375244140625,-7.557373046875,2.092041015625
0.112,6.336181640625,-7.317138671875,0.890869140625
0.1125,6.576416015625,-6.556396484375,-0.350341796875
0.113,7.056884765625,-6.115966796875,-1.311279296875
0.1135,7.016845703125,-4.434326171875,-2.912841796875
0.114,7.016845703125,-3.553466796875,-3.833740234375
0.1145,7.136962890625,-2.072021484375,-5.435302734375
0.115,6.176025390625,-0.550537109375,-5.955810546875
0.1155,5.615478515625,0.890869140625,-6.716552734375
0.116,4.334228515625,2.452392578125,-6.956787109375
0.1165,3.173095703125,3.893798828125,-7.197021484375
0.117,2.052001953125,5.054931640625,-7.197021484375
0.1175,0.650634765625,6.376220703125,-7.076904296875
0.118,-0.790771484375,6.696533203125,-5.955810546875
0.1185,-1.791748046875,7.497314453125,-5.715576171875
0.119,-3.793701171875,7.577392578125,-3.753662109375
0.1195,-4.794677734375,7.777587890625,-2.952880859375
0.12,-6.236083984375,7.577392578125,-1.511474609375
0.1205,-6.836669921875,7.136962890625,-0.310302734375
0.121,-7.116943359375,6.376220703125,0.850830078125
0.1215,-7.357177734375,5.615478515625,1.931884765625
0.122,-7.357177734375,4.093994140625,3.453369140625
0.1225,-7.156982421875,3.093017578125,4.334228515625
0.123,-7.237060546875,1.731689453125,5.735595703125
0.1235,-6.035888671875,0.170166015625,6.055908203125
0.124,-5.755615234375,-1.031005859375,6.896728515625
0.1245,-4.114013671875,-2.752685546875,6.976806640625
0.125,-3.233154296875,-3.993896484375,7.297119140625
0.1255,-1.871826171875,-5.195068359375,7.016845703125
0.126,-0.550537109375,-6.356201171875,6.736572265625
0.1265,0.770751953125,-6.676513671875,5.775634765625
0.127,1.971923828125,-7.437255859375,5.375244140625
0.1275,3.933837890625,-7.517333984375,3.453369140625
0.128,4.934814453125,-7.637451171875,2.732666015625
0.1285,6.336181640625,-7.597412109375,1.091064453125
0.129,6.736572265625,-6.956787109375,0.010009765625
0.1295,7.096923828125,-6.236083984375,-1.191162109375
0.13,7.217041015625,-5.074951171875,-2.552490234375
0.1305,7.337158203125,-3.713623046875,-3.913818359375
0.131,7.016845703125,-2.512451171875,-4.874755859375
0.1315,7.016845703125,-1.111083984375,-6.236083984375
0.132,5.575439453125,0.650634765625,-6.436279296875
0.1325,5.215087890625,1.851806640625,-7.237060546875
0.133,3.333251953125,3.853759765625,-7.277099609375
0.1335,2.532470703125,4.934814453125,-7.557373046875
0.134,0.970947265625,6.095947265625,-7.076904296875
0.1345,-0.470458984375,7.056884765625,-6.676513671875
0.135,-1.751708984375,7.297119140625,-5.595458984375
0.1355,-3.153076171875,7.937744140625,-4.794677734375
0.136,-5.195068359375,7.937744140625,-2.912841796875
0.1365,-5.955810546875,7.857666015625,-1.951904296875
0.137,-7.156982421875,7.617431640625,-0.390380859375
0.1375,-7.397216796875,6.696533203125,0.810791015625
0.138,-7.677490234375,6.015869140625,1.891845703125
0.1385,-7.597412109375,4.494384765625,3.333251953125
0.139,-7.717529296875,3.253173828125,4.654541015625
0.1395,-7.076904296875,1.891845703125,5.455322265625
0.14,-6.956787109375,0.490478515625,6.656494140625
0.1405,-5.435302734375,-1.231201171875,6.696533203125
0.141,-4.994873046875,-2.312255859375,7.377197265625
0.1415,-3.032958984375,-4.314208984375,7.337158203125
0.142,-2.192138671875,-5.195068359375,7.337158203125
0.1425,-0.630615234375,-6.316162109375,6.776611328125
0.143,0.690673828125,-7.036865234375,6.256103515625
0.1435,1.931884765625,-7.277099609375,5.255126953125
0.144,3.533447265625,-7.677490234375,4.134033203125
0.1445,5.255126953125,-7.957763671875,2.492431640625
0.145,6.015869140625,-7.557373046875,1.251220703125
0.1455,7.056884765625,-7.317138671875,0.090087890625
0.146,7.056884765625,-6.196044921875,-1.151123046875
0.1465,7.377197265625,-5.595458984375,-2.072021484375
0.147,7.217041015625,-3.873779296875,-3.713623046875
0.1475,7.337158203125,-2.912841796875,-4.834716796875
0.148,6.656494140625,-1.351318359375,-5.675537109375
0.1485,6.296142578125,0.050048828125,-6.596435546875
0.149,4.814697265625,1.731689453125,-6.756591796875
0.1495,4.294189453125,2.852783203125,-7.277099609375
0.15,2.532470703125,4.734619140625,-7.397216796875
0.1505,1.731689453125,5.495361328125,-7.197021484375
0.151,0.130126953125,6.616455078125,-6.716552734375
0.1515,-1.111083984375,7.056884765625,-5.955810546875
0.152,-2.312255859375,7.457275390625,-5.195068359375
0.1525,-3.993896484375,7.697509765625,-3.713623046875
0.153,-5.715576171875,7.977783203125,-2.432373046875
0.1535,-6.236083984375,7.377197265625,-1.151123046875
0.154,-7.197021484375,7.297119140625,0.050048828125
0.1545,-7.116943359375,6.055908203125,1.251220703125
0.155,-7.437255859375,5.455322265625,2.172119140625
0.1555,-7.437255859375,3.773681640625,3.853759765625
0.156,-7.397216796875,2.852783203125,4.814697265625
0.1565,-6.756591796875,1.251220703125,5.775634765625
0.157,-6.276123046875,0.010009765625,6.456298828125
0.1575,-5.034912109375,-1.671630859375,6.736572265625
0.158,-4.234130859375,-2.872802734375,7.136962890625
0.1585,-2.712646484375,-4.754638671875,7.377197265625
0.159,-1.591552734375,-5.435302734375,6.896728515625
0.1595,-0.190185546875,-6.596435546875,6.696533203125
0.16,1.131103515625,-6.916748046875,5.695556640625
0.1605,2.412353515625,-7.517333984375,4.934814453125
0.161,4.334228515625,-7.717529296875,3.213134765625
0.1615,5.775634765625,-7.997802734375,2.052001953125
0.162,6.376220703125,-7.116943359375,0.610595703125
0.1625,7.217041015625,-7.076904296875,-0.510498046875
0.163,7.136962890625,-5.675537109375,-1.791748046875
0.1635,7.377197265625,-4.874755859375,-2.832763671875
0.164,7.497314453125,-3.193115234375,-4.674560546875
0.1645,7.096923828125,-1.991943359375,-5.515380859375
0.165,6.456298828125,-0.310302734375,-6.516357421875
0.1655,5.575439453125,1.131103515625,-6.956787109375
0.166,4.414306640625,2.612548828125,-7.197021484375
0.1665,3.213134765625,4.053955078125,-7.437255859375
0.167,1.851806640625,5.855712890625,-7.717529296875
0.1675,0.330322265625,6.416259765625,-6.716552734375
0.168,-0.830810546875,7.377197265625,-6.676513671875
0.1685,-2.312255859375,7.417236328125,-5.195068359375
0.169,-3.593505859375,7.857666015625,-4.354248046875
0.1695,-5.515380859375,8.017822265625,-2.552490234375
0.17,-6.716552734375,7.977783203125,-1.271240234375
0.1705,-7.116943359375,7.056884765625,0.290283203125
0.171,-7.717529296875,6.736572265625,1.131103515625
0.1715,-7.477294921875,5.255126953125,2.412353515625
0.172,-7.517333984375,4.334228515625,3.413330078125
0.1725,-7.717529296875,2.772705078125,5.175048828125
0.173,-6.916748046875,1.451416015625,5.695556640625
0.1735,-6.436279296875,0.010009765625,6.696533203125
0.174,-5.315185546875,-1.431396484375,6.896728515625
0.1745,-4.354248046875,-2.752685546875,7.096923828125
0.175,-3.032958984375,-4.194091796875,7.217041015625
0.1755,-1.751708984375,-5.715576171875,7.377197265625
0.176,-0.310302734375,-6.156005859375,6.336181640625
0.1765,0.690673828125,-7.197021484375,6.336181640625
0.177,2.252197265625,-7.197021484375,4.774658203125
0.1775,3.453369140625,-7.637451171875,4.093994140625
0.178,5.375244140625,-7.837646484375,2.292236328125
0.1785,6.256103515625,-7.517333984375,1.131103515625
0.179,6.856689453125,-6.916748046875,-0.230224609375
0.1795,7.177001953125,-6.396240234375,-1.111083984375
0.18,7.177001953125,-5.074951171875,-2.432373046875
0.1805,7.177001953125,-3.993896484375,-3.553466796875
0.181,7.537353515625,-2.592529296875,-5.275146484375
0.1815,6.536376953125,-1.071044921875,-5.795654296875
0.182,6.256103515625,0.370361328125,-6.876708984375
0.1825,4.814697265625,1.931884765625,-6.996826171875
0.183,3.973876953125,3.253173828125,-7.397216796875
0.1835,2.572509765625,4.894775390625,-7.557373046875
0.184,1.211181640625,6.256103515625,-7.517333984375
0.1845,-0.350341796875,6.696533203125,-6.476318359375
0.185,-1.431396484375,7.657470703125,-6.356201171875
0.1855,-3.313232421875,7.817626953125,-4.514404296875
0.186,-4.474365234375,8.137939453125,-3.673583984375
0.1865,-6.396240234375,8.298095703125,-1.911865234375
0.187,-7.076904296875,7.657470703125,-0.510498046875
0.1875,-7.637451171875,7.056884765625,0.690673828125
0.188,-7.797607421875,6.135986328125,1.891845703125
