wavelength,x,y,z
0.0,4.1190185546875,17.011596679688,-20.785278320312
0.0005,-1.2462158203125,19.974487304688,-18.783325195312
0.001,-4.8897705078125,21.616088867188,-16.861450195312
0.0015,-8.0928955078125,22.416870117188,-14.819458007812
0.002,-11.496215820312,22.216674804688,-11.336059570312
0.0025,-15.139770507812,21.616088867188,-7.2921142578125
0.003,-18.743286132812,20.454956054688,-2.6876220703125
0.0035,-21.626098632812,18.212768554688,2.4774169921875
0.004,-22.466918945312,15.930541992188,5.4803466796875
0.0045,-22.667114257812,13.007690429688,8.6434326171875
0.005,-22.707153320312,9.4442138671875,11.846557617188
0.0055,-21.626098632812,4.3192138671875,16.290893554688
0.006,-20.184692382812,-0.2052001953125,19.333862304688
0.0065,-18.262817382812,-4.1290283203125,21.415893554688
0.007,-15.860473632812,-7.4923095703125,22.416870117188
0.0075,-12.256958007812,-10.695434570312,22.096557617188
0.008,-8.1729736328125,-14.419067382812,21.896362304688
0.0085,-2.7276611328125,-18.463012695312,20.454956054688
0.009,2.7576904296875,-21.025512695312,18.092651367188
0.0095,5.8807373046875,-22.066528320312,16.050659179688
0.01,9.0838623046875,-22.546997070312,13.728393554688
0.0105,12.447143554688,-22.266723632812,10.365112304688
0.011,16.370971679688,-21.145629882812,5.4803466796875
0.0115,19.494018554688,-19.784301757812,1.1160888671875
0.012,23.057495117188,-17.381958007812,-3.0880126953125
0.0125,22.216674804688,-15.420043945312,-6.2510986328125
0.013,22.136596679688,-12.056762695312,-9.4542236328125
0.0135,21.936401367188,-8.3331298828125,-12.777465820312
0.014,21.015502929688,-3.4884033203125,-15.380004882812
0.0145,20.494995117188,1.1961669921875,-19.544067382812
0.015,17.211791992188,4.5194091796875,-20.865356445312
0.0155,14.849487304688,7.7225341796875,-21.666137695312
0.016,11.045776367188,10.845581054688,-21.586059570312
0.0165,6.2410888671875,15.209838867188,-19.223754882812
0.017,1.4364013671875,18.372924804688,-19.584106445312
0.0175,-3.5284423828125,20.695190429688,-17.301879882812
0.018,-5.1300048828125,21.455932617188,-15.299926757812
0.0185,-9.5743408203125,23.057495117188,-12.697387695312
0.019,-11.536254882812,21.616088867188,-9.4141845703125
0.0195,-16.821411132812,20.414916992188,-4.6094970703125
0.02,-19.544067382812,18.693237304688,0.1551513671875
0.0205,-21.425903320312,16.611206054688,3.6385498046875
0.021,-21.906372070312,14.248901367188,6.6414794921875
0.0215,-21.706176757812,10.845581054688,9.8446044921875
0.022,-21.185668945312,6.5614013671875,13.648315429688
0.0225,-20.424926757812,2.2371826171875,17.251831054688
0.023,-18.543090820312,-2.3272705078125,19.854370117188
0.0235,-16.380981445312,-5.4503173828125,20.775268554688
0.024,-13.818481445312,-8.3331298828125,21.495971679688
0.0245,-10.054809570312,-11.856567382812,21.335815429688
0.025,-4.6495361328125,-15.900512695312,19.974487304688
0.0255,0.0750732421875,-18.943481445312,18.493041992188
0.026,4.1590576171875,-20.865356445312,16.611206054688
0.0265,7.0819091796875,-21.385864257812,14.449096679688
0.027,10.365112304688,-21.505981445312,11.486206054688
0.0275,13.968627929688,-21.025512695312,7.9227294921875
0.028,17.411987304688,-20.024536132812,3.1981201171875
0.0285,20.214721679688,-17.982543945312,-1.6466064453125
0.029,21.255737304688,-15.940551757812,-4.5294189453125
0.0295,21.696166992188,-13.338012695312,-7.4923095703125
0.03,21.455932617188,-9.7745361328125,-10.855590820312
0.0305,20.655151367188,-5.1700439453125,-14.739379882812
0.031,19.694213867188,-1.0059814453125,-17.902465820312
0.0315,17.812377929688,3.1981201171875,-20.024536132812
0.032,15.169799804688,6.0809326171875,-20.825317382812
0.0325,12.447143554688,9.3641357421875,-21.065551757812
0.033,8.1229248046875,13.247924804688,-20.865356445312
0.0335,2.9178466796875,16.931518554688,-19.584106445312
0.034,-1.8067626953125,19.494018554688,-17.622192382812
0.0345,-5.1700439453125,20.895385742188,-15.940551757812
0.035,-8.0528564453125,21.335815429688,-13.658325195312
0.0355,-11.376098632812,21.175659179688,-10.375122070312
0.036,-15.099731445312,20.535034179688,-6.1309814453125
0.0365,-18.463012695312,19.133666992188,-1.6065673828125
0.037,-20.745239257812,17.051635742188,2.7576904296875
0.0375,-21.265747070312,14.769409179688,5.5203857421875
0.038,-21.546020507812,11.966674804688,8.6033935546875
0.0385,-21.225708007812,8.0428466796875,12.206909179688
0.039,-20.344848632812,3.5184326171875,15.890502929688
0.0395,-18.863403320312,-0.9259033203125,18.573120117188
0.04,-17.181762695312,-4.5294189453125,20.454956054688
0.0405,-14.499145507812,-7.2921142578125,20.935424804688
0.041,-11.255981445312,-10.415161132812,20.895385742188
0.0415,-6.6514892578125,-14.379028320312,20.294799804688
0.042,-1.5665283203125,-17.742309570312,18.893432617188
0.0425,2.9578857421875,-19.904418945312,16.771362304688
0.043,5.8006591796875,-20.705200195312,15.009643554688
0.0435,8.8836669921875,-21.185668945312,12.527221679688
0.044,12.447143554688,-20.585083007812,9.0838623046875
0.0445,15.810424804688,-19.904418945312,4.7996826171875
0.045,18.733276367188,-18.342895507812,0.3953857421875
0.0455,20.615112304688,-16.421020507812,-3.3682861328125
0.046,20.775268554688,-13.978637695312,-5.9307861328125
0.0465,20.855346679688,-11.015747070312,-9.0137939453125
0.047,20.374877929688,-6.7315673828125,-11.536254882812
0.0475,19.574096679688,-2.3673095703125,-16.020629882812
0.048,17.732299804688,1.5565185546875,-18.463012695312
0.0485,15.930541992188,4.5994873046875,-19.824340820312
0.049,13.448120117188,7.6424560546875,-20.384887695312
0.0495,9.5643310546875,11.005737304688,-20.064575195312
0.05,5.0799560546875,14.609252929688,-19.263793945312
0.0505,0.3153076171875,17.772338867188,-17.902465820312
0.051,-3.6085205078125,19.654174804688,-16.020629882812
0.0515,-6.0509033203125,20.214721679688,-14.058715820312
0.052,-9.1339111328125,21.776245117188,-11.896606445312
0.0525,-12.857543945312,19.974487304688,-7.8126220703125
0.053,-16.220825195312,19.013549804688,-3.6085205078125
0.0535,-18.703247070312,17.331909179688,0.5155029296875
0.054,-20.224731445312,15.490112304688,3.7586669921875
0.0545,-20.464965820312,13.047729492188,7.6824951171875
0.055,-20.424926757812,9.7645263671875,9.7244873046875
0.0555,-19.544067382812,5.6405029296875,13.368041992188
0.056,-18.983520507812,1.3963623046875,17.932495117188
0.0565,-17.181762695312,-1.2862548828125,18.813354492188
0.057,-15.139770507812,-5.2901611328125,19.574096679688
0.0575,-11.536254882812,-8.3331298828125,20.214721679688
0.058,-8.2930908203125,-12.176879882812,19.734252929688
0.0585,-3.8087158203125,-15.460083007812,18.693237304688
0.059,0.7557373046875,-18.102661132812,17.091674804688
0.0595,4.2791748046875,-19.584106445312,15.570190429688
0.06,6.8817138671875,-20.024536132812,13.287963867188
0.0605,9.8846435546875,-20.304809570312,10.805541992188
0.061,13.768432617188,-19.744262695312,6.5213623046875
0.0615,16.931518554688,-18.463012695312,2.2371826171875
0.062,19.053588867188,-16.741333007812,-1.6065673828125
0.0625,19.894409179688,-14.779418945312,-4.3292236328125
0.063,20.214721679688,-12.216918945312,-7.2120361328125
0.0635,19.814331054688,-8.5333251953125,-10.895629882812
0.064,19.253784179688,-4.4093017578125,-13.978637695312
0.0645,18.132690429688,-0.3253173828125,-17.061645507812
0.065,16.370971679688,3.3182373046875,-18.983520507812
0.0655,13.968627929688,6.0408935546875,-19.383911132812
0.066,11.406127929688,9.0838623046875,-19.864379882812
0.0665,6.4412841796875,13.207885742188,-17.942504882812
0.067,1.9168701171875,16.411010742188,-18.022583007812
0.0675,-2.0469970703125,18.493041992188,-16.100708007812
0.068,-3.8487548828125,19.694213867188,-14.779418945312
0.0685,-7.7725830078125,19.934448242188,-12.537231445312
0.069,-11.175903320312,19.814331054688,-9.2940673828125
0.0695,-14.699340820312,20.494995117188,-5.3302001953125
0.07,-17.702270507812,17.652221679688,-0.8458251953125
0.0705,-19.423950195312,15.850463867188,2.6776123046875
0.071,-19.824340820312,13.688354492188,5.1600341796875
0.0715,-20.104614257812,11.045776367188,8.2030029296875
0.072,-19.624145507812,6.6014404296875,12.126831054688
0.0725,-18.863403320312,2.6776123046875,15.249877929688
0.073,-17.381958007812,-1.1260986328125,17.532104492188
0.0735,-15.700317382812,-4.3692626953125,19.133666992188
0.074,-13.137817382812,-7.0118408203125,19.253784179688
0.0745,-9.9747314453125,-10.174926757812,19.333862304688
0.075,-5.3702392578125,-13.858520507812,18.613159179688
0.0755,-0.6055908203125,-16.981567382812,17.211791992188
0.076,3.0379638671875,-18.583129882812,15.490112304688
0.0765,5.6004638671875,-19.303833007812,13.888549804688
0.077,8.4832763671875,-19.744262695312,11.566284179688
0.0775,12.166870117188,-19.263793945312,7.6024169921875
0.078,15.169799804688,-18.463012695312,3.9588623046875
0.0785,17.692260742188,-16.981567382812,0.0350341796875
0.079,19.133666992188,-15.259887695312,-3.2081298828125
0.0795,19.173706054688,-11.536254882812,-5.7305908203125
0.08,19.333862304688,-10.054809570312,-8.6134033203125
0.0805,18.813354492188,-5.7706298828125,-12.337036132812
0.081,18.012573242188,-1.8468017578125,-15.460083007812
0.0815,16.330932617188,1.5565185546875,-17.261840820312
0.082,14.729370117188,4.3992919921875,-18.422973632812
0.0825,12.206909179688,7.1619873046875,-18.823364257812
0.083,8.0428466796875,10.885620117188,-18.342895507812
0.0835,4.1190185546875,15.369995117188,-17.902465820312
0.084,-0.3253173828125,16.771362304688,-16.380981445312
0.0845,-3.4884033203125,18.332885742188,-14.939575195312
0.085,-5.8507080078125,18.693237304688,-13.097778320312
0.0855,-8.6934814453125,19.173706054688,-10.975708007812
0.086,-12.657348632812,18.533081054688,-6.6114501953125
0.0865,-15.580200195312,17.492065429688,-2.7276611328125
0.087,-17.582153320312,16.090698242188,0.7557373046875
0.0875,-18.743286132812,14.369018554688,3.4383544921875
0.088,-18.863403320312,11.966674804688,6.0408935546875
0.0885,-18.863403320312,8.4432373046875,9.5643310546875
0.089,-18.463012695312,4.6795654296875,12.847534179688
0.0895,-17.462036132812,0.6756591796875,15.890502929688
0.09,-15.780395507812,-2.6075439453125,17.532104492188
0.0905,-13.978637695312,-5.0098876953125,18.132690429688
0.091,-10.255004882812,-7.8927001953125,18.693237304688
0.0915,-6.7716064453125,-11.896606445312,18.052612304688
0.092,-2.6876220703125,-14.899536132812,17.091674804688
0.0925,1.1160888671875,-17.021606445312,15.690307617188
0.093,4.0789794921875,-18.463012695312,14.369018554688
0.0935,6.6414794921875,-18.623168945312,12.166870117188
0.094,9.6444091796875,-18.863403320312,9.5643310546875
0.0945,13.328002929688,-18.342895507812,5.6004638671875
0.095,16.210815429688,-17.021606445312,1.5565185546875
0.0955,17.772338867188,-15.540161132812,-1.5665283203125
0.096,18.453002929688,-13.738403320312,-4.0489501953125
0.0965,18.693237304688,-11.336059570312,-6.7315673828125
0.097,18.412963867188,-7.0518798828125,-10.775512695312
0.0975,19.213745117188,-3.5684814453125,-13.778442382812
0.098,16.811401367188,0.1951904296875,-16.300903320312
0.0985,15.169799804688,3.3182373046875,-17.822387695312
0.099,12.847534179688,6.0809326171875,-18.022583007812
0.0995,10.124877929688,10.244995117188,-18.543090820312
0.1,5.3602294921875,12.927612304688,-16.661254882812
0.1005,0.9158935546875,15.970581054688,-16.541137695312
0.101,-2.2872314453125,17.532104492188,-15.299926757812
0.1015,-5.0899658203125,18.613159179688,-13.818481445312
0.102,-7.7725830078125,18.853393554688,-11.496215820312
0.1025,-11.416137695312,18.533081054688,-7.7325439453125
0.103,-14.619262695312,18.052612304688,-4.1690673828125
0.1035,-17.221801757812,16.491088867188,-0.1651611328125
0.104,-18.543090820312,14.849487304688,2.8377685546875
0.1045,-18.863403320312,12.607299804688,5.3602294921875
0.105,-19.143676757812,9.9647216796875,8.2030029296875
0.1055,-18.583129882812,5.3602294921875,12.286987304688
0.106,-17.702270507812,1.5565185546875,15.329956054688
0.1065,-16.340942382812,-1.7266845703125,17.211791992188
0.107,-14.619262695312,-4.6495361328125,18.573120117188
0.1075,-12.056762695312,-7.4122314453125,18.653198242188
0.108,-8.3331298828125,-10.935668945312,18.533081054688
0.1085,-4.0089111328125,-14.419067382812,19.213745117188
0.109,0.6756591796875,-17.101684570312,16.170776367188
0.1095,3.5184326171875,-18.422973632812,14.769409179688
0.11,6.2010498046875,-19.023559570312,13.007690429688
0.1105,9.0438232421875,-19.263793945312,10.805541992188
0.111,13.007690429688,-18.583129882812,6.0809326171875
0.1115,15.930541992188,-17.662231445312,2.3572998046875
0.112,17.972534179688,-16.060668945312,-1.1260986328125
0.1125,18.893432617188,-14.338989257812,-3.8087158203125
0.113,18.893432617188,-11.736450195312,-6.4512939453125
0.1135,18.933471679688,-8.5333251953125,-9.7745361328125
0.114,18.533081054688,-4.4493408203125,-13.338012695312
0.1145,17.291870117188,-0.3653564453125,-16.180786132812
0.115,15.730346679688,2.7977294921875,-17.662231445312
0.1155,13.808471679688,5.5604248046875,-18.663208007812
0.116,11.005737304688,8.4432373046875,-18.823364257812
0.1165,6.2010498046875,12.447143554688,-18.142700195312
0.117,2.2371826171875,15.490112304688,-17.421997070312
0.1175,-1.8868408203125,17.772338867188,-15.860473632812
0.118,-4.6495361328125,18.813354492188,-14.298950195312
0.1185,-7.4522705078125,18.933471679688,-12.377075195312
0.119,-10.415161132812,20.494995117188,-9.3741455078125
0.1195,-14.258911132812,18.493041992188,-4.9298095703125
0.12,-17.141723632812,16.971557617188,-0.6456298828125
0.1205,-18.583129882812,15.410034179688,2.2772216796875
0.121,-19.343872070312,13.448120117188,4.9197998046875
0.1215,-19.263793945312,10.605346679688,8.9637451171875
0.122,-18.903442382812,6.5213623046875,11.486206054688
0.1225,-18.382934570312,2.7977294921875,14.609252929688
0.123,-17.021606445312,-1.2462158203125,17.291870117188
0.1235,-15.099731445312,-4.1290283203125,18.412963867188
0.124,-12.937622070312,-6.7315673828125,18.933471679688
0.1245,-9.9747314453125,-9.8546142578125,19.173706054688
0.125,-4.8096923828125,-13.898559570312,18.092651367188
0.1255,-0.4053955078125,-16.741333007812,16.771362304688
0.126,2.9979248046875,-18.463012695312,16.651245117188
0.1265,5.8006591796875,-19.103637695312,13.728393554688
0.127,8.6434326171875,-19.303833007812,11.005737304688
0.1275,12.006713867188,-19.183715820312,7.5623779296875
0.128,16.651245117188,-18.262817382812,3.6385498046875
0.1285,19.213745117188,-16.541137695312,-0.6856689453125
0.129,18.853393554688,-14.899536132812,-3.2481689453125
0.1295,19.253784179688,-12.737426757812,-5.9307861328125
0.13,19.253784179688,-9.7344970703125,-8.7735595703125
0.1305,18.653198242188,-5.2100830078125,-12.697387695312
0.131,17.812377929688,-1.5264892578125,-15.580200195312
0.1315,16.491088867188,1.9969482421875,-17.702270507812
0.132,14.529174804688,4.9197998046875,-18.743286132812
0.1325,11.766479492188,7.7225341796875,-18.783325195312
0.133,8.1629638671875,11.245971679688,-18.863403320312
0.1335,3.4783935546875,14.889526367188,-17.982543945312
0.134,-1.1260986328125,17.411987304688,-16.180786132812
0.1345,-3.7286376953125,18.613159179688,-14.859497070312
0.135,-6.5714111328125,19.333862304688,-13.097778320312
0.1355,-9.5343017578125,19.333862304688,-8.9737548828125
0.136,-13.297973632812,18.693237304688,-6.0509033203125
0.1365,-16.380981445312,17.652221679688,-2.1671142578125
0.137,-18.503051757812,15.970581054688,1.6766357421875
0.1375,-17.942504882812,15.369995117188,4.1190185546875
0.138,-19.343872070312,11.486206054688,6.9617919921875
0.1385,-19.263793945312,8.1629638671875,10.204956054688
0.139,-18.743286132812,3.9588623046875,13.928588867188
0.1395,-17.381958007812,1.2762451171875,17.932495117188
0.14,-15.860473632812,-3.1680908203125,18.172729492188
0.1405,-14.058715820312,-5.9307861328125,19.133666992188
0.141,-10.895629882812,-8.8536376953125,19.013549804688
0.1415,-6.5313720703125,-12.617309570312,18.493041992188
0.142,-2.0469970703125,-16.020629882812,17.572143554688
0.1425,2.2772216796875,-18.262817382812,15.730346679688
0.143,4.8797607421875,-19.063598632812,14.168823242188
0.1435,7.7225341796875,-19.544067382812,12.046752929688
0.144,10.885620117188,-19.383911132812,9.0037841796875
0.1445,14.529174804688,-18.743286132812,4.7596435546875
0.145,17.291870117188,-17.341918945312,0.6756591796875
0.1455,18.973510742188,-15.700317382812,-2.6075439453125
0.146,19.373901367188,-13.538208007812,-5.0899658203125
0.1465,19.413940429688,-10.615356445312,-8.0528564453125
0.147,19.173706054688,-6.7315673828125,-11.656372070312
0.1475,18.613159179688,-2.7276611328125,-15.139770507812
0.148,17.011596679688,2.5574951171875,-17.622192382812
0.1485,15.209838867188,4.1590576171875,-18.583129882812
0.149,13.007690429688,7.0018310546875,-19.383911132812
0.1495,9.3240966796875,10.405151367188,-17.942504882812
0.15,4.7196044921875,15.369995117188,-18.422973632812
0.1505,0.2752685546875,17.131713867188,-17.221801757812
0.151,-3.5284423828125,19.013549804688,-15.540161132812
0.1515,-6.0509033203125,19.534057617188,-13.698364257812
0.152,-9.0538330078125,19.854370117188,-11.255981445312
0.1525,-12.697387695312,19.453979492188,-7.5723876953125
0.153,-16.060668945312,18.533081054688,-3.2882080078125
0.1535,-18.663208007812,16.771362304688,0.9559326171875
0.154,-19.624145507812,15.169799804688,3.9188232421875
0.1545,-20.224731445312,12.647338867188,6.6414794921875
0.155,-20.144653320312,9.2039794921875,9.9647216796875
0.1555,-19.463989257812,4.9598388671875,13.648315429688
0.156,-18.623168945312,0.9158935546875,16.931518554688
0.1565,-16.981567382812,-3.0880126953125,19.133666992188
0.157,-14.779418945312,-5.7706298828125,19.734252929688
0.1575,-12.256958007812,-8.8135986328125,20.254760742188
0.158,-7.8927001953125,-12.697387695312,19.854370117188
0.1585,-3.0079345703125,-16.220825195312,18.653198242188
0.159,1.5965576171875,-18.743286132812,16.931518554688
0.1595,4.9998779296875,-20.224731445312,15.329956054688
0.16,7.8026123046875,-20.625122070312,13.047729492188
0.1605,11.005737304688,-20.665161132812,10.084838867188
0.161,14.729370117188,-19.944458007812,5.8807373046875
0.1615,18.012573242188,-18.663208007812,2.5574951171875
0.162,20.174682617188,-16.741333007812,-2.7276611328125
0.1625,20.775268554688,-14.499145507812,-5.4102783203125
0.163,21.015502929688,-11.736450195312,-8.3331298828125
0.1635,20.575073242188,-7.5323486328125,-12.216918945312
0.164,19.654174804688,-3.3682861328125,-15.540161132812
0.1645,18.332885742188,0.8358154296875,-18.342895507812
0.165,16.451049804688,4.5194091796875,-20.224731445312
0.1655,13.768432617188,7.2821044921875,-20.464965820312
0.166,10.765502929688,10.525268554688,-20.665161132812
0.1665,5.7606201171875,14.489135742188,-19.864379882812
0.167,0.9158935546875,17.892456054688,-18.543090820312
0.1675,-3.3682861328125,19.854370117188,-16.501098632812
0.168,-6.2911376953125,20.815307617188,-14.819458007812
0.1685,-9.2940673828125,21.055541992188,-12.256958007812
0.169,-11.536254882812,20.615112304688,-8.4932861328125
0.1695,-16.380981445312,19.774291992188,-4.3692626953125
0.17,-19.423950195312,18.092651367188,0.2352294921875
0.1705,-21.145629882812,16.050659179688,4.1190185546875
0.171,-21.305786132812,13.568237304688,6.7215576171875
0.1715,-21.505981445312,10.605346679688,9.9246826171875
0.172,-20.785278320312,5.8807373046875,13.888549804688
0.1725,-19.824340820312,1.6365966796875,17.251831054688
0.173,-18.022583007812,-2.4473876953125,19.494018554688
0.1735,-16.020629882812,-5.6505126953125,20.975463867188
0.174,-13.217895507812,-8.6934814453125,21.095581054688
0.1745,-9.3741455078125,-12.256958007812,20.815307617188
0.175,-4.6094970703125,-15.900512695312,19.894409179688
0.1755,0.6756591796875,-19.063598632812,18.172729492188
0.176,4.5994873046875,-20.785278320312,16.130737304688
0.1765,7.3221435546875,-21.305786132812,14.128784179688
0.177,10.525268554688,-21.586059570312,11.486206054688
0.1775,14.449096679688,-20.785278320312,6.8817138671875
0.178,17.612182617188,-19.624145507812,2.7977294921875
