wavelength,x,y,z
0.0,-17.697265625,18.09765625,-1.28125
0.0005,-19.8193359375,15.935546875,2.8828125
0.001,-20.9404296875,13.93359375,6.0458984375
0.0015,-21.1005859375,10.810546875,9.369140625
0.002,-21.30078125,7.8076171875,12.4921875
0.0025,-20.6201171875,3.5234375,16.095703125
0.003,-18.73828125,-0.80078125,18.498046875
0.0035,-16.7763671875,-4.2041015625,20.01953125
0.004,-14.734375,-7.4072265625,21.220703125
0.0045,-11.2109375,-10.5302734375,20.98046875
0.005,-6.6865234375,-14.173828125,20.2197265625
0.0055,-2.2421875,-17.056640625,18.9384765625
0.006,2.6025390625,-19.1787109375,16.49609375
0.0065,5.7255859375,-20.1396484375,14.57421875
0.007,8.96875,-20.6201171875,11.8115234375
0.0075,12.2119140625,-20.3798828125,8.6484375
0.008,15.9755859375,-19.298828125,4.00390625
0.0085,18.3779296875,-17.5771484375,-0.3603515625
0.009,20.2998046875,-15.53515625,-4.0439453125
0.0095,21.1005859375,-13.3330078125,-7.0869140625
0.01,21.140625,-10.0498046875,-10.2900390625
0.0105,20.8203125,-6.326171875,-13.6533203125
0.011,20.099609375,-2.5224609375,-16.736328125
0.0115,17.9375,1.921875,-19.0185546875
0.012,15.8955078125,5.0849609375,-20.1796875
0.0125,13.4130859375,8.2080078125,-20.9404296875
0.013,9.8896484375,11.451171875,-20.7802734375
0.0135,4.9248046875,15.0546875,-19.619140625
0.014,0.6005859375,17.45703125,-17.9775390625
0.0145,-3.68359375,19.37890625,-15.8955078125
0.015,-6.6865234375,20.1396484375,-13.8935546875
0.0155,-9.9697265625,20.259765625,-10.8505859375
0.016,-13.4130859375,19.8994140625,-7.20703125
0.0165,-16.6962890625,18.818359375,-2.8427734375
0.017,-19.0986328125,16.6162109375,1.6416015625
0.0175,-20.4599609375,14.7744140625,4.8046875
0.018,-21.1806640625,12.251953125,7.9677734375
0.0185,-21.2607421875,9.0087890625,11.2109375
0.019,-20.66015625,4.8447265625,14.7744140625
0.0195,-19.5390625,1.12109375,17.45703125
0.02,-17.537109375,-3.123046875,19.6591796875
0.0205,-15.4150390625,-6.1259765625,20.580078125
0.021,-12.5322265625,-9.2890625,20.98046875
0.0215,-8.6884765625,-12.7724609375,20.7802734375
0.022,-3.7236328125,-16.095703125,19.3388671875
0.0225,0.9208984375,-18.2177734375,17.1767578125
0.023,4.5244140625,-19.8193359375,15.375
0.0235,7.6474609375,-20.3798828125,13.052734375
0.024,10.890625,-20.2998046875,9.8896484375
0.0245,14.57421875,-19.7392578125,5.765625
0.025,17.537109375,-18.337890625,1.521484375
0.0255,19.69921875,-16.2958984375,-2.962890625
0.026,20.7802734375,-14.173828125,-5.8056640625
0.0265,21.30078125,-11.291015625,-9.048828125
0.027,21.1806640625,-7.84765625,-12.4921875
0.0275,20.4599609375,-3.8037109375,-15.8154296875
0.028,18.818359375,0.240234375,-18.1376953125
0.0285,16.896484375,4.1240234375,-20.1796875
0.029,14.4140625,7.126953125,-20.8203125
0.0295,11.291015625,10.2099609375,-20.9404296875
0.03,6.9267578125,13.93359375,-20.5
0.0305,2.2021484375,16.9365234375,-18.978515625
0.031,-2.4423828125,18.8984375,-16.6162109375
0.0315,-5.60546875,20.099609375,-14.8544921875
0.032,-8.888671875,20.5400390625,-12.2119140625
0.0325,-12.2919921875,20.1796875,-8.6083984375
0.033,-15.7353515625,19.37890625,-4.484375
0.0335,-18.4580078125,17.6171875,0.1201171875
0.034,-20.5,15.4951171875,4.083984375
0.0345,-21.140625,13.1728515625,7.0869140625
0.035,-21.541015625,10.2099609375,10.2900390625
0.0355,-21.220703125,6.24609375,14.013671875
0.036,-20.3798828125,2.2822265625,17.056640625
0.0365,-18.2578125,-1.8818359375,19.138671875
0.037,-16.4560546875,-5.3251953125,20.8203125
0.0375,-13.7333984375,-8.408203125,21.2607421875
0.038,-10.0498046875,-11.69140625,21.0205078125
0.0385,-5.525390625,-15.0947265625,20.1396484375
0.039,-0.6806640625,-17.8974609375,18.2978515625
0.0395,3.68359375,-19.619140625,15.9755859375
0.04,6.6064453125,-20.33984375,13.9736328125
0.0405,9.8896484375,-20.66015625,11.2509765625
0.041,13.533203125,-20.0595703125,7.046875
0.0415,16.65625,-18.978515625,2.9228515625
0.042,19.0185546875,-16.9365234375,-1.361328125
0.0425,20.740234375,-15.0146484375,-5.0048828125
0.043,21.060546875,-12.33203125,-7.9677734375
0.0435,21.2607421875,-9.2890625,-11.1708984375
0.044,20.740234375,-5.205078125,-14.6943359375
0.0445,19.5791015625,-1.28125,-17.4970703125
0.045,17.3369140625,2.8427734375,-19.298828125
0.0455,15.375,5.8857421875,-20.5
0.046,12.6123046875,8.96875,-20.900390625
0.0465,8.328125,12.5322265625,-20.3798828125
0.047,4.1240234375,15.4951171875,-19.3388671875
0.0475,-0.640625,17.8974609375,-17.2568359375
0.048,-4.5244140625,19.5390625,-15.294921875
0.0485,-7.3671875,19.859375,-13.0126953125
0.049,-10.41015625,20.1796875,-10.41015625
0.0495,-14.333984375,19.458984375,-5.92578125
0.05,-17.1767578125,18.0576171875,-1.76171875
0.0505,-19.21875,16.0556640625,2.2822265625
0.051,-20.66015625,14.2138671875,5.525390625
0.0515,-20.900390625,11.4111328125,8.568359375
0.052,-20.98046875,7.8876953125,12.1318359375
0.0525,-20.3798828125,4.1240234375,15.21484375
0.053,-18.9384765625,0.080078125,17.8173828125
0.0535,-16.8564453125,-3.84375,19.69921875
0.054,-14.6142578125,-6.646484375,20.33984375
0.0545,-11.9716796875,-9.6494140625,20.7802734375
0.055,-7.0869140625,-13.533203125,20.01953125
0.0555,-2.7626953125,-16.2158203125,18.6181640625
0.056,1.5615234375,-18.2177734375,16.49609375
0.0565,5.0849609375,-19.8193359375,14.7744140625
0.057,8.0078125,-19.8994140625,12.1318359375
0.0575,11.2509765625,-19.859375,9.0087890625
0.058,14.8544921875,-19.1787109375,4.9248046875
0.0585,17.6171875,-17.376953125,0.48046875
0.059,19.458984375,-15.455078125,-3.2431640625
0.0595,20.3798828125,-13.453125,-6.166015625
0.06,20.7802734375,-10.7705078125,-9.1689453125
0.0605,20.5400390625,-6.6064453125,-13.0927734375
0.061,19.6591796875,-3.283203125,-15.775390625
0.0615,17.9775390625,0.880859375,-17.9775390625
0.062,16.2158203125,4.484375,-19.8994140625
0.0625,13.4130859375,7.287109375,-20.01953125
0.063,10.650390625,10.25,-20.3798828125
0.0635,5.7255859375,14.1337890625,-19.5390625
0.064,1.2412109375,16.6962890625,-17.8173828125
0.0645,-2.72265625,18.3779296875,-15.775390625
0.065,-5.845703125,19.619140625,-14.09375
0.0655,-8.96875,19.7392578125,-11.37109375
0.066,-12.5322265625,19.3388671875,-7.4072265625
0.0665,-15.6552734375,18.578125,-3.7236328125
0.067,-18.177734375,16.65625,0.720703125
0.0675,-19.8994140625,14.7744140625,4.2041015625
0.068,-20.3798828125,12.33203125,7.126953125
0.0685,-20.8203125,9.7294921875,10.1298828125
0.069,-20.419921875,5.28515625,14.09375
0.0695,-19.298828125,1.5615234375,16.736328125
0.07,-17.376953125,-2.2021484375,18.578125
0.0705,-15.7353515625,-5.4853515625,20.33984375
0.071,-12.6923828125,-8.4482421875,20.33984375
0.0715,-9.0888671875,-11.8115234375,20.2197265625
0.072,-4.64453125,-15.1748046875,19.3388671875
0.0725,0.2802734375,-17.6572265625,17.13671875
0.073,3.8837890625,-19.138671875,15.2548828125
0.0735,6.8466796875,-19.8994140625,13.1728515625
0.074,9.9296875,-20.1396484375,10.6103515625
0.0745,13.93359375,-19.298828125,5.8857421875
0.075,16.65625,-18.09765625,2.08203125
0.0755,18.8583984375,-16.2158203125,-1.9619140625
0.076,20.33984375,-14.4140625,-5.205078125
0.0765,20.4599609375,-11.451171875,-8.2080078125
0.077,20.7001953125,-8.48828125,-11.4111328125
0.0775,20.1796875,-4.484375,-14.89453125
0.078,18.6982421875,-0.3203125,-17.4970703125
0.0785,16.576171875,3.2431640625,-18.978515625
0.079,14.6943359375,6.24609375,-20.2197265625
0.0795,11.7314453125,9.208984375,-20.33984375
0.08,7.0068359375,13.052734375,-19.619140625
0.0805,3.123046875,15.6953125,-18.578125
0.081,-1.5615234375,17.9375,-16.4560546875
0.0815,-4.884765625,19.2587890625,-14.734375
0.082,-7.84765625,19.4990234375,-12.091796875
0.0825,-10.890625,19.779296875,-9.44921875
0.083,-14.814453125,18.8984375,-4.8046875
0.0835,-17.4169921875,17.13671875,-0.6005859375
0.084,-19.1787109375,15.375,2.962890625
0.0845,-20.3798828125,13.453125,6.0458984375
0.085,-20.5,10.5302734375,8.96875
0.0855,-20.3798828125,6.806640625,12.6123046875
0.086,-19.8193359375,3.3232421875,15.53515625
0.0865,-18.09765625,-0.9208984375,17.9775390625
0.087,-16.17578125,-4.244140625,19.458984375
0.0875,-13.8134765625,-7.126953125,20.0595703125
0.088,-11.05078125,-10.08984375,20.419921875
0.0885,-5.765625,-14.09375,19.2587890625
0.089,-1.6015625,-16.576171875,17.7373046875
0.0895,2.4423828125,-18.41796875,15.85546875
0.09,5.685546875,-19.619140625,14.1337890625
0.0905,8.80859375,-19.5791015625,11.130859375
0.091,12.1318359375,-19.458984375,7.84765625
0.0915,15.4951171875,-18.658203125,3.8037109375
0.092,18.0576171875,-16.65625,-0.80078125
0.0925,19.4990234375,-14.8544921875,-3.923828125
0.093,20.33984375,-12.572265625,-7.0068359375
0.0935,20.5,-9.8896484375,-9.8896484375
0.094,20.099609375,-5.4853515625,-13.8134765625
0.0945,19.1787109375,-2.08203125,-16.2958984375
0.095,17.3369140625,1.921875,-18.4580078125
0.0955,15.455078125,5.1650390625,-19.8994140625
0.096,12.412109375,8.16796875,-19.939453125
0.0965,9.3291015625,11.3310546875,-20.1796875
0.097,4.32421875,15.0146484375,-19.138671875
0.0975,-0.3203125,17.296875,-17.0166015625
0.098,-3.7236328125,18.818359375,-15.2548828125
0.0985,-6.9267578125,19.859375,-13.373046875
0.099,-10.0498046875,19.8193359375,-10.330078125
0.0995,-13.8134765625,19.21875,-6.1259765625
0.1,-16.736328125,18.177734375,-2.2421875
0.1005,-19.0986328125,16.0556640625,2.2021484375
0.101,-20.33984375,14.2138671875,5.2451171875
0.1015,-20.8203125,11.37109375,8.48828125
0.102,-21.0205078125,8.48828125,11.53125
0.1025,-20.419921875,4.083984375,15.375
0.103,-18.8583984375,0.1201171875,17.77734375
0.1035,-16.9765625,-3.5634765625,19.5791015625
0.104,-15.0546875,-6.7265625,20.8203125
0.1045,-11.53125,-9.8896484375,20.6201171875
0.105,-7.52734375,-13.453125,20.33984375
0.1055,-2.9228515625,-16.736328125,19.05859375
0.106,2.0419921875,-18.73828125,16.6162109375
0.1065,5.205078125,-19.859375,14.7744140625
0.107,8.408203125,-20.4599609375,12.3720703125
0.1075,11.6513671875,-20.259765625,9.12890625
0.108,15.4951171875,-19.37890625,4.484375
0.1085,18.09765625,-17.7373046875,0.3203125
0.109,20.1796875,-15.6953125,-3.7236328125
0.1095,21.0205078125,-13.533203125,-6.7265625
0.11,21.1806640625,-10.2900390625,-10.0498046875
0.1105,21.0205078125,-6.88671875,-13.3330078125
0.111,20.2998046875,-2.8828125,-16.6162109375
0.1115,18.177734375,1.5615234375,-18.8583984375
0.112,16.17578125,4.8046875,-20.1796875
0.1125,13.8134765625,7.84765625,-21.0205078125
0.113,10.2099609375,11.0107421875,-20.7802734375
0.1135,5.4453125,14.6943359375,-19.8193359375
0.114,1.1611328125,17.3369140625,-18.337890625
0.1145,-3.443359375,19.2587890625,-16.015625
0.115,-6.3662109375,20.0595703125,-14.09375
0.1155,-9.6494140625,20.259765625,-11.2109375
0.116,-12.97265625,19.9794921875,-7.7275390625
0.1165,-16.3759765625,18.8583984375,-3.2431640625
0.117,-18.73828125,16.736328125,1.12109375
0.1175,-20.3798828125,14.8544921875,4.6044921875
0.118,-21.060546875,12.4921875,7.607421875
0.1185,-21.060546875,9.2490234375,10.8505859375
0.119,-20.580078125,5.3251953125,14.25390625
0.1195,-19.6591796875,1.6015625,17.0966796875
0.12,-17.537109375,-2.642578125,19.21875
0.1205,-15.4951171875,-5.6455078125,20.1796875
0.121,-12.892578125,-8.6884765625,20.740234375
0.1215,-9.2890625,-12.01171875,20.4599609375
0.122,-4.32421875,-15.4150390625,19.21875
0.1225,0.1201171875,-17.6171875,17.296875
0.123,3.9638671875,-19.298828125,15.375
0.1235,6.8466796875,-19.8994140625,13.3330078125
0.124,10.009765625,-19.939453125,10.330078125
0.1245,13.5732421875,-19.4990234375,6.4462890625
0.125,16.6162109375,-18.2578125,2.2822265625
0.1255,18.8583984375,-16.17578125,-2.001953125
0.126,20.099609375,-14.3740234375,-5.0048828125
0.1265,20.6201171875,-11.8115234375,-8.087890625
0.127,20.6201171875,-8.48828125,-11.3310546875
0.1275,19.9794921875,-4.5244140625,-14.6943359375
0.128,18.73828125,-0.80078125,-17.13671875
0.1285,16.896484375,3.0830078125,-19.1787109375
0.129,14.6943359375,5.92578125,-19.939453125
0.1295,11.8115234375,8.9287109375,-20.2197265625
0.13,7.767578125,12.6123046875,-19.939453125
0.1305,3.1630859375,15.775390625,-18.6982421875
0.131,-1.3212890625,17.77734375,-16.49609375
0.1315,-4.564453125,19.21875,-14.8544921875
0.132,-7.6474609375,19.779296875,-12.572265625
0.1325,-10.890625,19.619140625,-9.3291015625
0.133,-14.494140625,19.0185546875,-5.28515625
0.1335,-17.3369140625,17.537109375,-1.041015625
0.134,-19.37890625,15.4951171875,3.04296875
0.1345,-20.33984375,13.4931640625,5.92578125
0.135,-20.8203125,10.73046875,9.1689453125
0.1355,-20.7802734375,7.046875,12.732421875
0.136,-20.0595703125,3.1630859375,15.8955078125
0.1365,-18.2578125,-0.80078125,18.0576171875
0.137,-16.5361328125,-4.4443359375,19.9794921875
0.1375,-14.09375,-7.3671875,20.5400390625
0.138,-10.8505859375,-10.5302734375,20.580078125
0.1385,-6.3662109375,-14.1337890625,19.9794921875
0.139,-1.5615234375,-17.0966796875,18.2978515625
0.1395,2.8427734375,-18.9384765625,16.0556640625
0.14,5.8857421875,-19.939453125,14.25390625
0.1405,9.12890625,-20.3798828125,11.611328125
0.141,12.732421875,-19.8994140625,7.6875
0.1415,15.9755859375,-19.05859375,3.68359375
0.142,18.6181640625,-17.1767578125,-0.7607421875
0.1425,20.5400390625,-15.21484375,-4.564453125
0.143,20.98046875,-12.6923828125,-7.52734375
0.1435,21.3408203125,-9.76953125,-10.7705078125
0.144,20.9404296875,-5.60546875,-14.494140625
0.1445,19.939453125,-1.7216796875,-17.45703125
0.145,17.7373046875,2.40234375,-19.298828125
0.1455,15.8955078125,5.685546875,-20.8603515625
0.146,12.9326171875,8.888671875,-21.140625
0.1465,8.96875,12.412109375,-20.8203125
0.147,4.5244140625,15.6552734375,-19.939453125
0.1475,-0.48046875,18.2978515625,-17.857421875
0.148,-4.5244140625,19.939453125,-15.6552734375
0.1485,-7.447265625,20.5,-13.4931640625
0.149,-10.73046875,20.8203125,-10.8505859375
0.1495,-14.734375,19.9794921875,-6.0859375
0.15,-17.6572265625,18.658203125,-1.9619140625
0.1505,-19.8994140625,16.576171875,2.40234375
0.151,-21.5009765625,14.57421875,5.9658203125
0.1515,-21.701171875,11.6513671875,9.048828125
0.152,-21.8212890625,8.2880859375,12.5322265625
0.1525,-21.140625,4.1640625,15.9755859375
0.153,-19.69921875,-0.16015625,18.73828125
0.1535,-17.376953125,-4.1240234375,20.4599609375
0.154,-15.2548828125,-7.0869140625,21.380859375
0.1545,-12.2919921875,-10.2099609375,21.7412109375
0.155,-7.3271484375,-14.1337890625,20.8603515625
0.1555,-2.962890625,-16.9365234375,19.5390625
0.156,1.841796875,-18.978515625,17.296875
0.1565,5.5654296875,-20.66015625,15.294921875
0.157,8.4482421875,-20.7802734375,12.4921875
0.1575,11.6513671875,-20.7802734375,9.609375
0.158,15.615234375,-19.8994140625,4.96484375
0.1585,18.41796875,-18.09765625,0.4404296875
0.159,20.2197265625,-16.015625,-3.4833984375
0.1595,21.4609375,-13.9736328125,-6.646484375
0.16,21.5810546875,-10.9306640625,-9.76953125
0.1605,21.380859375,-7.0068359375,-13.533203125
0.161,20.580078125,-3.443359375,-16.3759765625
0.1615,18.818359375,0.9208984375,-18.9384765625
0.162,16.6962890625,4.6845703125,-20.580078125
0.1625,14.013671875,7.607421875,-20.8603515625
0.163,11.2509765625,10.6103515625,-21.30078125
0.1635,5.92578125,14.734375,-20.259765625
0.164,1.5615234375,17.296875,-18.658203125
0.1645,-2.72265625,19.138671875,-16.49609375
0.165,-6.166015625,20.5,-14.734375
0.1655,-9.3291015625,20.4599609375,-11.6513671875
0.166,-12.6923828125,20.1796875,-8.16796875
0.1665,-16.17578125,19.4189453125,-4.00390625
0.167,-18.8984375,17.296875,0.7607421875
0.1675,-20.580078125,15.294921875,4.404296875
0.168,-21.3408203125,12.892578125,7.4873046875
0.1685,-21.62109375,10.1298828125,10.5302734375
0.169,-21.1806640625,5.4853515625,14.654296875
0.1695,-20.1796875,1.8818359375,17.296875
0.17,-18.2578125,-2.2021484375,19.37890625
0.1705,-16.3759765625,-5.7255859375,21.140625
0.171,-13.1328125,-8.7685546875,21.0205078125
0.1715,-9.8896484375,-12.01171875,21.1806640625
0.172,-4.8046875,-15.775390625,20.0595703125
0.1725,0.240234375,-18.2578125,17.8974609375
0.173,3.9638671875,-19.7392578125,15.85546875
0.1735,7.1669921875,-20.7001953125,13.8134765625
0.174,10.330078125,-20.7001953125,10.8505859375
0.1745,14.25390625,-19.939453125,6.2861328125
0.175,17.216796875,-18.8984375,2.40234375
0.1755,19.5791015625,-16.736328125,-2.08203125
0.176,21.060546875,-14.814453125,-5.4853515625
0.1765,21.1806640625,-11.931640625,-8.6083984375
0.177,21.5009765625,-9.0888671875,-11.6513671875
0.1775,20.8603515625,-4.564453125,-15.53515625
0.178,19.3388671875,-0.5205078125,-18.0576171875
0.1785,17.2568359375,3.2431640625,-19.69921875
0.179,15.375,6.5263671875,-21.140625
0.1795,11.9716796875,9.609375,-20.9404296875
0.18,7.6875,13.2529296875,-20.5
0.1805,3.443359375,16.3359375,-19.4990234375
0.181,-1.6416015625,18.6181640625,-17.0166015625
0.1815,-5.0048828125,19.859375,-15.0947265625
0.182,-8.087890625,20.33984375,-12.6923828125
0.1825,-11.1708984375,20.4599609375,-9.9697265625
0.183,-15.21484375,19.4189453125,-5.0048828125
0.1835,-17.857421875,17.857421875,-0.9609375
0.184,-19.8193359375,15.85546875,3.04296875
0.1845,-21.1005859375,13.8935546875,6.326171875
0.185,-21.1005859375,10.6904296875,9.4091796875
0.1855,-21.1005859375,7.4072265625,12.65234375
0.186,-20.5,3.5234375,15.9755859375
0.1865,-18.658203125,-0.8408203125,18.498046875
0.187,-16.6162109375,-4.2841796875,19.859375
0.1875,-14.4541015625,-7.287109375,20.8603515625
0.188,-11.4111328125,-10.2900390625,20.900390625
0.1885,-6.166015625,-14.25390625,19.859375
0.189,-2.0419921875,-16.8564453125,18.5380859375
0.1895,2.40234375,-18.8583984375,16.3759765625
0.19,5.685546875,-20.01953125,14.494140625
0.1905,8.80859375,-20.01953125,11.53125
0.191,11.931640625,-20.01953125,8.6083984375
0.1915,15.775390625,-18.978515625,4.0439453125
0.192,18.2578125,-17.0966796875,-0.5205078125
0.1925,19.8193359375,-15.294921875,-3.84375
0.193,20.7802734375,-13.1728515625,-6.9267578125
0.1935,20.8203125,-10.2099609375,-9.9296875
0.194,20.4599609375,-6.0859375,-13.61328125
0.1945,19.7392578125,-2.6025390625,-16.3759765625
0.195,17.8974609375,1.6416015625,-18.658203125
0.1955,15.85546875,4.9248046875,-19.9794921875
0.196,13.1328125,7.9677734375,-20.3798828125
0.1965,10.08984375,11.0107421875,-20.580078125
0.197,4.8046875,14.9345703125,-19.37890625
0.1975,0.4404296875,17.2568359375,-17.5771484375
0.198,-3.3232421875,18.8984375,-15.7353515625
0.1985,-6.5263671875,19.9794921875,-13.853515625
0.199,-9.689453125,19.859375,-10.7705078125
0.1995,-13.3330078125,19.4990234375,-6.9267578125
0.2,-16.49609375,18.5380859375,-2.8828125
0.2005,-18.9384765625,16.3359375,1.7216796875
0.201,-20.2197265625,14.5341796875,4.8046875
0.2015,-20.900390625,11.9716796875,7.927734375
0.202,-21.060546875,9.0888671875,11.0107421875
0.2025,-20.5,4.64453125,14.8544921875
0.203,-19.21875,0.880859375,17.376953125
0.2035,-17.45703125,-2.962890625,19.4189453125
0.204,-15.4150390625,-6.166015625,20.6201171875
0.2045,-12.1318359375,-9.2890625,20.6201171875
0.205,-8.48828125,-12.6923828125,20.5400390625
0.2055,-3.5634765625,-16.095703125,19.2587890625
0.206,1.28125,-18.2978515625,16.9365234375
0.2065,4.5244140625,-19.5791015625,15.1748046875
0.207,7.6875,-20.33984375,12.9326171875
0.2075,10.9306640625,-20.1396484375,9.689453125
0.208,14.734375,-19.37890625,5.28515625
0.2085,17.5771484375,-18.09765625,1.201171875
0.209,19.8193359375,-16.015625,-3.1630859375
0.2095,20.7802734375,-13.9736328125,-6.1259765625
0.21,21.1005859375,-10.890625,-9.4091796875
0.2105,21.1005859375,-7.6875,-12.572265625
0.211,20.33984375,-3.5234375,-16.0556640625
0.2115,18.498046875,0.7607421875,-18.337890625
0.212,16.65625,4.1640625,-20.01953125
0.2125,14.333984375,7.3671875,-20.98046875
0.213,10.8505859375,10.490234375,-20.7001953125
0.2135,6.3662109375,14.09375,-20.099609375
0.214,1.921875,17.056640625,-18.7783203125
0.2145,-2.9228515625,19.0986328125,-16.2958984375
0.215,-5.845703125,19.9794921875,-14.494140625
0.2155,-9.12890625,20.419921875,-11.8515625
0.216,-12.5322265625,20.1796875,-8.328125
0.2165,-16.0556640625,19.138671875,-3.8837890625
0.217,-18.6181640625,17.2568359375,0.560546875
0.2175,-20.5400390625,15.294921875,4.32421875
0.218,-21.30078125,12.97265625,7.3671875
0.2185,-21.4609375,9.7294921875,10.6904296875
