wavelength,x,y,z
0.0,6.646484375,-21.6611328125,15.21484375
0.0005,9.849609375,-21.9814453125,12.5322265625
0.001,13.4130859375,-21.4208984375,8.568359375
0.0015,16.7763671875,-20.5,4.3642578125
0.002,19.779296875,-18.578125,-0.400390625
0.0025,21.701171875,-16.5361328125,-4.32421875
0.003,22.0615234375,-14.013671875,-7.126953125
0.0035,22.181640625,-10.890625,-10.41015625
0.004,21.4208984375,-6.1259765625,-14.4140625
0.0045,20.33984375,-1.8818359375,-17.6572265625
0.005,18.2978515625,2.40234375,-19.8193359375
0.0055,16.49609375,5.92578125,-21.62109375
0.006,13.4130859375,9.048828125,-21.78125
0.0065,9.3291015625,12.6123046875,-21.3408203125
0.007,4.6044921875,16.17578125,-20.3798828125
0.0075,-0.7607421875,19.2587890625,-18.578125
0.008,-4.884765625,21.1005859375,-16.3759765625
0.0085,-7.767578125,21.78125,-14.3740234375
0.009,-11.0107421875,22.021484375,-11.611328125
0.0095,-15.0146484375,21.060546875,-6.9267578125
0.01,-18.09765625,19.859375,-2.642578125
0.0105,-20.66015625,17.8173828125,1.921875
0.011,-22.341796875,15.7353515625,5.5654296875
0.0115,-22.421875,12.8525390625,8.48828125
0.012,-22.3818359375,9.3291015625,12.01171875
0.0125,-21.5009765625,4.6845703125,15.8154296875
0.013,-20.099609375,0.1201171875,19.05859375
0.0135,-17.8974609375,-4.0439453125,20.98046875
0.014,-15.8955078125,-7.2470703125,22.2216796875
0.0145,-12.7724609375,-10.5302734375,22.421875
0.015,-7.5673828125,-14.57421875,21.541015625
0.0155,-2.9228515625,-17.8173828125,20.2197265625
0.016,2.2822265625,-20.5400390625,18.0576171875
0.0165,6.2060546875,-22.3017578125,16.1357421875
0.017,9.2490234375,-22.4619140625,13.453125
0.0175,12.4921875,-22.58203125,10.5302734375
0.018,16.736328125,-21.4609375,5.4052734375
0.0185,19.859375,-19.6591796875,0.6005859375
0.019,21.861328125,-17.5771484375,-3.443359375
0.0195,23.0625,-15.375,-6.806640625
0.02,22.90234375,-12.01171875,-10.0498046875
0.0205,22.4619140625,-7.5673828125,-14.013671875
0.021,21.5009765625,-3.283203125,-17.3369140625
0.0215,19.7392578125,1.521484375,-20.3798828125
0.022,17.4169921875,5.5654296875,-22.1015625
0.0225,14.734375,8.6484375,-22.58203125
0.023,11.53125,11.8916015625,-22.90234375
0.0235,5.4052734375,16.3759765625,-21.380859375
0.024,0.560546875,19.37890625,-19.69921875
0.0245,-4.00390625,21.4609375,-17.537109375
0.025,-7.7275390625,22.982421875,-15.5751953125
0.0255,-10.970703125,22.662109375,-12.251953125
0.026,-14.2939453125,22.26171875,-8.80859375
0.0265,-18.0576171875,21.1005859375,-4.00390625
0.027,-21.1005859375,18.818359375,1.28125
0.0275,-22.58203125,16.6162109375,4.96484375
0.028,-23.2626953125,14.09375,8.1279296875
0.0285,-23.142578125,10.810546875,11.2509765625
0.029,-22.3017578125,5.685546875,15.615234375
0.0295,-21.060546875,1.521484375,18.5380859375
0.03,-19.0986328125,-3.0830078125,21.1005859375
0.0305,-16.9365234375,-6.806640625,22.7822265625
0.031,-13.453125,-9.9296875,22.5419921875
0.0315,-10.08984375,-13.2529296875,22.5419921875
0.032,-4.1640625,-17.4169921875,21.060546875
0.0325,1.28125,-20.33984375,18.818359375
0.033,5.0849609375,-21.94140625,16.7763671875
0.0335,8.4482421875,-23.0625,14.734375
0.034,11.771484375,-22.7021484375,11.451171875
0.0345,15.4951171875,-21.78125,6.9267578125
0.035,18.7783203125,-20.5400390625,2.642578125
0.0355,21.4208984375,-18.2578125,-2.2822265625
0.036,22.7021484375,-16.095703125,-5.6455078125
0.0365,22.7822265625,-13.0927734375,-8.8486328125
0.037,22.7421875,-9.8896484375,-11.9716796875
0.0375,21.7412109375,-4.6044921875,-16.2958984375
0.038,20.1396484375,-0.16015625,-19.0986328125
0.0385,18.09765625,3.84375,-21.0205078125
0.039,16.0556640625,7.287109375,-22.58203125
0.0395,12.2919921875,10.5302734375,-22.1416015625
0.04,7.8876953125,14.333984375,-21.62109375
0.0405,2.8828125,17.857421875,-20.419921875
0.041,-2.5625,20.580078125,-17.9775390625
0.0415,-6.0458984375,21.8212890625,-16.095703125
0.042,-9.208984375,22.4619140625,-13.6533203125
0.0425,-12.2919921875,22.4619140625,-10.4501953125
0.043,-16.5361328125,21.0205078125,-5.525390625
0.0435,-19.4189453125,19.458984375,-1.0009765625
0.044,-21.5009765625,17.3369140625,3.1630859375
0.0445,-22.6220703125,15.21484375,6.40625
0.045,-22.4619140625,11.8115234375,9.609375
0.0455,-22.2216796875,8.1279296875,13.0927734375
0.046,-21.30078125,3.4033203125,16.9365234375
0.0465,-19.37890625,-1.361328125,19.859375
0.047,-17.3369140625,-5.044921875,21.4208984375
0.0475,-15.21484375,-8.2080078125,22.501953125
0.048,-11.4912109375,-11.53125,22.2216796875
0.0485,-6.005859375,-15.6953125,21.0205078125
0.049,-1.2412109375,-18.7783203125,19.619140625
0.0495,3.603515625,-21.140625,17.4169921875
0.05,6.966796875,-22.26171875,15.4951171875
0.0505,10.2099609375,-22.421875,12.4521484375
0.051,13.4931640625,-22.1416015625,9.12890625
0.0515,17.4970703125,-20.8603515625,4.1640625
0.052,20.33984375,-18.73828125,-0.7607421875
0.0525,21.94140625,-16.7763671875,-4.2841796875
0.053,22.7421875,-14.4140625,-7.4873046875
0.0535,22.421875,-10.8505859375,-10.7705078125
0.054,21.8212890625,-6.24609375,-14.734375
0.0545,20.8603515625,-1.9619140625,-17.9775390625
0.055,18.8583984375,2.6826171875,-20.66015625
0.0555,16.5361328125,6.166015625,-21.861328125
0.056,13.6533203125,9.44921875,-22.341796875
0.0565,9.849609375,12.8525390625,-22.1015625
0.057,4.0439453125,16.9365234375,-20.6201171875
0.0575,-1.041015625,19.779296875,-18.658203125
0.058,-5.0849609375,21.6611328125,-16.6962890625
0.0585,-8.328125,22.5419921875,-14.6142578125
0.059,-11.7314453125,22.26171875,-11.1708984375
0.0595,-15.1748046875,21.62109375,-7.2470703125
0.06,-18.658203125,20.2197265625,-2.5625
0.0605,-21.2607421875,17.857421875,2.4423828125
0.061,-22.421875,15.7353515625,5.60546875
0.0615,-22.822265625,13.0126953125,8.80859375
0.062,-22.501953125,9.3291015625,12.0517578125
0.0625,-21.30078125,4.484375,16.0556640625
0.063,-19.939453125,0.080078125,18.978515625
0.0635,-18.0576171875,-4.2041015625,21.2607421875
0.064,-15.775390625,-7.4072265625,22.2216796875
0.0645,-12.2919921875,-10.650390625,22.0615234375
0.065,-8.087890625,-14.25390625,21.62109375
0.0655,-2.642578125,-17.9775390625,20.0595703125
0.066,2.4423828125,-20.33984375,17.6572265625
0.0665,5.845703125,-21.62109375,15.935546875
0.067,9.0087890625,-22.3017578125,13.6533203125
0.0675,12.2919921875,-21.861328125,10.1298828125
0.068,16.015625,-20.9404296875,5.60546875
0.0685,19.0185546875,-19.37890625,1.201171875
0.069,21.2607421875,-17.216796875,-3.203125
0.0695,22.021484375,-14.974609375,-6.0859375
0.07,22.1416015625,-11.8515625,-9.369140625
0.0705,21.7412109375,-8.0478515625,-12.6923828125
0.071,20.7802734375,-3.4833984375,-16.416015625
0.0715,18.8984375,1.0009765625,-19.0185546875
0.072,17.0966796875,4.564453125,-20.8203125
0.0725,14.6943359375,7.6875,-21.62109375
0.073,11.0107421875,10.8505859375,-21.220703125
0.0735,6.2861328125,14.6142578125,-20.4599609375
0.074,1.361328125,17.9375,-18.9384765625
0.0745,-3.36328125,20.099609375,-16.7763671875
0.075,-6.2861328125,21.1005859375,-15.0146484375
0.0755,-9.44921875,21.4609375,-12.4921875
0.076,-12.6923828125,21.0205078125,-8.96875
0.0765,-16.2958984375,19.8994140625,-4.484375
0.077,-18.9384765625,18.09765625,0.0
0.0775,-20.900390625,16.1357421875,3.763671875
0.078,-21.5009765625,13.8935546875,6.56640625
0.0785,-21.3408203125,10.6904296875,9.7294921875
0.079,-20.8203125,6.56640625,13.3330078125
0.0795,-19.939453125,2.2822265625,16.736328125
0.08,-17.9775390625,-2.08203125,19.138671875
0.0805,-16.17578125,-5.205078125,20.4599609375
0.081,-13.8134765625,-8.328125,21.1806640625
0.0815,-9.76953125,-11.7314453125,20.7001953125
0.082,-4.8447265625,-15.2548828125,19.5390625
0.0825,0.0,-18.09765625,17.9375
0.083,3.9638671875,-20.1796875,16.1357421875
0.0835,6.7666015625,-20.8203125,14.2138671875
0.084,9.9296875,-21.0205078125,11.4912109375
0.0845,13.5732421875,-20.5,7.52734375
0.085,16.81640625,-19.3388671875,3.2431640625
0.0855,19.21875,-17.3369140625,-1.0810546875
0.086,20.740234375,-15.6953125,-4.32421875
0.0865,21.1806640625,-13.1328125,-7.2470703125
0.087,20.98046875,-9.5693359375,-10.650390625
0.0875,20.259765625,-5.3251953125,-14.1337890625
0.088,19.138671875,-1.1611328125,-17.2568359375
0.0885,17.3369140625,2.9228515625,-19.458984375
0.089,15.294921875,5.8056640625,-20.2998046875
0.0895,12.4921875,8.80859375,-20.740234375
0.09,7.927734375,12.6923828125,-20.1396484375
0.0905,3.1630859375,16.0556640625,-18.8583984375
0.091,-1.361328125,18.41796875,-16.9765625
0.0915,-4.8447265625,20.1796875,-15.4150390625
0.092,-7.6474609375,20.580078125,-13.3330078125
0.0925,-10.7705078125,20.4599609375,-10.25
0.093,-14.333984375,19.779296875,-6.166015625
0.0935,-17.3369140625,18.2978515625,-1.8017578125
0.094,-19.5791015625,16.3759765625,2.322265625
0.0945,-20.4599609375,14.5341796875,5.0048828125
0.095,-20.740234375,11.8115234375,7.9677734375
0.0955,-20.3798828125,7.8876953125,11.53125
0.096,-19.5390625,3.8837890625,14.734375
0.0965,-18.0576171875,-0.240234375,17.3369140625
0.097,-16.49609375,-3.84375,19.37890625
0.0975,-14.25390625,-6.56640625,19.859375
0.098,-11.291015625,-9.4892578125,19.8994140625
0.0985,-6.7265625,-13.212890625,19.21875
0.099,-1.921875,-16.2958984375,17.8173828125
0.0995,2.162109375,-18.337890625,15.9755859375
0.1,5.0048828125,-19.5791015625,14.654296875
0.1005,7.9677734375,-20.01953125,12.33203125
0.101,11.2109375,-19.619140625,8.888671875
0.1015,14.4541015625,-18.8984375,5.125
0.102,17.0966796875,-17.3369140625,1.0810546875
0.1025,19.05859375,-15.6552734375,-2.5625
0.103,19.4990234375,-13.6533203125,-5.0849609375
0.1035,19.779296875,-10.9306640625,-8.0078125
0.104,19.2587890625,-6.8466796875,-11.69140625
0.1045,18.5380859375,-3.0830078125,-14.7744140625
0.105,16.896484375,0.7607421875,-16.8564453125
0.1055,15.4951171875,3.8037109375,-18.578125
0.106,13.0927734375,6.5263671875,-19.4990234375
0.1065,9.529296875,9.8896484375,-18.8583984375
0.107,5.4453125,13.2529296875,-18.2177734375
0.1075,0.8408203125,16.1357421875,-16.6962890625
0.108,-2.8828125,18.0576171875,-15.1748046875
0.1085,-5.28515625,18.8583984375,-13.7333984375
0.109,-8.16796875,19.2587890625,-11.53125
0.1095,-11.771484375,18.6982421875,-7.607421875
0.11,-14.6943359375,17.857421875,-3.8837890625
0.1105,-17.0166015625,16.2958984375,0.0
0.111,-18.658203125,14.7744140625,3.04296875
0.1115,-19.05859375,12.572265625,5.60546875
0.112,-19.1787109375,9.609375,8.6484375
0.1125,-18.658203125,5.7255859375,12.091796875
0.113,-17.77734375,1.76171875,15.1748046875
0.1135,-16.095703125,-2.001953125,17.13671875
0.114,-14.7744140625,-4.5244140625,18.3779296875
0.1145,-12.4921875,-7.3271484375,19.0185546875
0.115,-8.087890625,-10.9306640625,18.41796875
0.1155,-4.0439453125,-14.013671875,17.5771484375
0.116,0.2001953125,-16.4560546875,16.015625
0.1165,3.4833984375,-18.2978515625,14.7744140625
0.117,6.005859375,-18.73828125,12.9326171875
0.1175,8.9287109375,-18.9384765625,10.6103515625
0.118,12.5322265625,-18.578125,6.5263671875
0.1185,15.375,-17.4169921875,2.6025390625
0.119,17.4169921875,-15.85546875,-0.9208984375
0.1195,18.6982421875,-14.333984375,-3.603515625
0.12,19.0185546875,-11.8515625,-6.40625
0.1205,18.8583984375,-8.2080078125,-9.9697265625
0.121,18.3779296875,-4.7646484375,-12.97265625
0.1215,17.216796875,-0.7607421875,-15.775390625
0.122,15.6953125,2.72265625,-17.8173828125
0.1225,13.693359375,5.365234375,-18.2578125
0.123,11.3310546875,8.2080078125,-18.8583984375
0.1235,6.486328125,12.1318359375,-18.1376953125
0.124,2.2421875,15.0546875,-16.9765625
0.1245,-1.4814453125,17.0166015625,-15.53515625
0.125,-4.5244140625,18.6181640625,-14.333984375
0.1255,-7.20703125,18.8984375,-12.0517578125
0.126,-10.3701171875,18.73828125,-8.9287109375
0.1265,-13.61328125,18.2578125,-5.3251953125
0.127,-16.416015625,16.6962890625,-1.1611328125
0.1275,-18.2578125,15.1748046875,2.2421875
0.128,-18.9384765625,13.3330078125,4.724609375
0.1285,-19.2587890625,10.8505859375,7.52734375
0.129,-18.7783203125,6.5263671875,11.4912109375
0.1295,-18.1376953125,2.8427734375,14.333984375
0.13,-16.6962890625,-0.80078125,16.5361328125
0.1305,-15.455078125,-3.9638671875,18.5380859375
0.131,-12.97265625,-6.56640625,18.6982421875
0.1315,-9.76953125,-9.689453125,18.73828125
0.132,-5.28515625,-13.3330078125,18.017578125
0.1325,-0.720703125,-16.17578125,16.4560546875
0.133,2.6826171875,-17.857421875,15.0546875
0.1335,5.4052734375,-18.9384765625,13.693359375
0.134,8.16796875,-19.21875,11.451171875
0.1345,11.8916015625,-18.658203125,7.287109375
0.135,14.734375,-17.9775390625,3.84375
0.1355,17.0966796875,-16.416015625,0.080078125
0.136,18.818359375,-14.89453125,-3.0830078125
0.1365,18.978515625,-12.572265625,-5.6455078125
0.137,19.138671875,-9.8095703125,-8.6884765625
0.1375,18.6982421875,-5.5654296875,-12.4521484375
0.138,17.6572265625,-1.6015625,-15.2548828125
0.1385,16.1357421875,1.7216796875,-17.1767578125
0.139,14.734375,4.6044921875,-18.658203125
0.1395,12.0517578125,7.4072265625,-18.8583984375
0.14,7.7275390625,11.130859375,-18.2578125
0.1405,3.84375,14.2138671875,-17.5771484375
0.141,-0.6806640625,16.6962890625,-15.8955078125
0.1415,-3.84375,18.337890625,-14.5341796875
0.142,-6.40625,18.8583984375,-12.65234375
0.1425,-9.1689453125,19.1787109375,-10.4501953125
0.143,-13.0126953125,18.41796875,-6.0458984375
0.1435,-15.7353515625,17.0966796875,-2.162109375
0.144,-17.6572265625,15.615234375,1.2412109375
0.1445,-18.978515625,14.09375,4.083984375
0.145,-19.0185546875,11.4111328125,6.6865234375
0.1455,-18.9384765625,7.927734375,10.0498046875
0.146,-18.3779296875,4.2841796875,13.3330078125
0.1465,-17.056640625,0.240234375,16.0556640625
0.147,-15.53515625,-3.0830078125,17.77734375
0.1475,-13.693359375,-5.685546875,18.578125
0.148,-11.2509765625,-8.408203125,19.0185546875
0.1485,-6.2060546875,-12.4521484375,18.0576171875
0.149,-2.162109375,-15.21484375,16.896484375
0.1495,1.681640625,-17.296875,15.4150390625
0.15,4.6845703125,-18.73828125,14.1337890625
0.1505,7.4072265625,-18.8583984375,11.69140625
0.151,10.330078125,-18.8984375,8.96875
0.1515,13.93359375,-18.2578125,4.96484375
0.152,16.6162109375,-16.65625,0.80078125
0.1525,18.09765625,-15.2548828125,-2.2021484375
0.153,19.0185546875,-13.4130859375,-4.884765625
0.1535,19.05859375,-10.890625,-7.6474609375
0.154,18.6982421875,-6.4462890625,-11.53125
0.1545,17.9775390625,-2.962890625,-14.2939453125
0.155,16.65625,0.80078125,-16.6962890625
0.1555,15.134765625,3.9638671875,-18.3779296875
0.156,12.5322265625,6.646484375,-18.578125
0.1565,9.689453125,9.6494140625,-18.73828125
0.157,4.8046875,13.693359375,-17.6572265625
0.1575,0.2802734375,16.255859375,-16.2158203125
0.158,-2.9228515625,17.8974609375,-14.89453125
0.1585,-5.8056640625,19.0986328125,-13.4931640625
0.159,-8.6083984375,19.05859375,-10.9306640625
0.1595,-12.091796875,18.578125,-7.126953125
0.16,-15.0947265625,17.857421875,-3.5234375
0.1605,-17.4970703125,16.0556640625,0.6005859375
0.161,-18.8984375,14.4541015625,3.283203125
0.1615,-19.298828125,12.171875,6.0859375
0.162,-19.37890625,9.529296875,8.9287109375
0.1625,-18.7783203125,5.0849609375,12.8525390625
0.163,-17.697265625,1.201171875,15.6552734375
0.1635,-16.3359375,-2.2822265625,17.6572265625
0.164,-14.7744140625,-5.205078125,19.1787109375
0.1645,-11.8115234375,-8.0078125,19.05859375
0.165,-7.84765625,-11.53125,18.7783203125
0.1655,-3.443359375,-14.89453125,17.9375
0.166,1.201171875,-17.45703125,15.9755859375
0.1665,4.083984375,-18.7783203125,14.6943359375
0.167,6.9267578125,-19.5390625,12.7724609375
0.1675,9.7294921875,-19.5791015625,10.169921875
0.168,13.5732421875,-18.73828125,5.7255859375
0.1685,16.3359375,-17.537109375,1.841796875
0.169,18.3779296875,-15.8955078125,-1.76171875
0.1695,19.37890625,-14.173828125,-4.484375
0.17,19.458984375,-11.291015625,-7.4072265625
0.1705,19.2587890625,-7.9677734375,-10.5703125
0.171,18.7783203125,-3.8837890625,-14.1337890625
0.1715,17.296875,0.2802734375,-16.81640625
0.172,15.6552734375,3.36328125,-18.2978515625
0.1725,13.853515625,6.326171875,-19.37890625
0.173,10.6904296875,9.2490234375,-19.2587890625
0.1735,5.845703125,13.052734375,-18.4580078125
0.174,1.6416015625,16.0556640625,-17.45703125
0.1745,-2.6025390625,18.2177734375,-15.6552734375
0.175,-5.365234375,19.298828125,-14.173828125
0.1755,-8.328125,19.5390625,-11.69140625
0.176,-11.37109375,19.4990234375,-8.728515625
0.1765,-14.89453125,18.5380859375,-4.5244140625
0.177,-17.537109375,16.7763671875,0.0
0.1775,-19.1787109375,15.1748046875,3.0830078125
0.178,-19.939453125,13.1728515625,5.765625
0.1785,-19.859375,10.169921875,8.728515625
0.179,-19.3388671875,6.0859375,12.33203125
0.1795,-18.658203125,2.2421875,15.4951171875
0.18,-16.9765625,-1.921875,17.9775390625
0.1805,-15.0947265625,-4.6845703125,19.21875
0.181,-12.8525390625,-7.7275390625,19.779296875
0.1815,-9.369140625,-10.970703125,19.5791015625
0.182,-4.2841796875,-14.6142578125,18.41796875
0.1825,0.240234375,-17.3369140625,16.81640625
0.183,3.84375,-19.138671875,15.3349609375
0.1835,6.56640625,-20.01953125,13.5732421875
0.184,9.609375,-19.939453125,10.73046875
0.1845,13.0126953125,-19.4189453125,7.0869140625
0.185,16.255859375,-18.498046875,2.9228515625
0.1855,18.6181640625,-16.576171875,-1.361328125
0.186,19.859375,-14.7744140625,-4.2041015625
0.1865,20.33984375,-12.412109375,-7.0869140625
0.187,20.0595703125,-9.0087890625,-10.25
0.1875,19.3388671875,-4.64453125,-13.8134765625
0.188,18.177734375,-0.80078125,-16.65625
0.1885,16.6162109375,3.04296875,-18.8984375
0.189,14.57421875,5.92578125,-19.7392578125
0.1895,11.5712890625,8.9287109375,-19.8994140625
0.19,7.447265625,12.6123046875,-19.458984375
0.1905,2.6826171875,16.015625,-18.2978515625
0.191,-1.9619140625,18.2978515625,-16.2958984375
0.1915,-5.0048828125,19.69921875,-14.814453125
0.192,-7.8876953125,20.33984375,-12.8125
0.1925,-10.970703125,19.9794921875,-9.6494140625
0.193,-14.494140625,19.21875,-5.525390625
0.1935,-17.45703125,17.8173828125,-1.3212890625
0.194,-19.619140625,15.935546875,2.802734375
0.1945,-20.33984375,14.013671875,5.4052734375
0.195,-20.580078125,11.2109375,8.48828125
0.1955,-20.259765625,7.3671875,11.8916015625
0.196,-19.4189453125,3.1630859375,15.3349609375
0.1965,-17.7373046875,-1.041015625,17.857421875
0.197,-16.17578125,-4.484375,19.69921875
0.1975,-13.9736328125,-7.287109375,20.4599609375
0.198,-10.4501953125,-10.3701171875,20.1796875
0.1985,-5.9658203125,-14.0537109375,19.458984375
0.199,-1.0810546875,-17.2568359375,17.9775390625
0.1995,3.283203125,-19.3388671875,15.9755859375
0.2,6.0458984375,-20.33984375,14.3740234375
0.2005,9.12890625,-20.8203125,11.9716796875
0.201,12.5322265625,-20.2998046875,8.2880859375
0.2015,15.935546875,-19.37890625,4.083984375
0.202,18.6181640625,-17.6171875,-0.3203125
0.2025,20.4599609375,-15.775390625,-3.8837890625
0.203,20.8203125,-13.453125,-6.6064453125
0.2035,20.9404296875,-10.25,-9.9296875
0.204,20.33984375,-5.9658203125,-13.533203125
0.2045,19.458984375,-1.841796875,-16.81640625
0.205,17.4169921875,2.40234375,-19.0185546875
0.2055,15.6552734375,5.4453125,-20.419921875
0.206,13.0126953125,8.5283203125,-20.8203125
0.2065,8.6884765625,12.171875,-20.33984375
0.207,4.1640625,15.53515625,-19.2587890625
0.2075,-0.80078125,18.41796875,-17.537109375
0.208,-4.724609375,20.33984375,-15.7353515625
0.2085,-7.447265625,20.7802734375,-13.7333984375
0.209,-10.5703125,21.0205078125,-11.05078125
0.2095,-14.3740234375,20.259765625,-6.56640625
0.21,-17.4970703125,18.978515625,-2.322265625
0.2105,-19.8193359375,16.9365234375,1.8818359375
0.211,-21.2607421875,15.1748046875,5.125
0.2115,-21.5009765625,12.412109375,8.0478515625
0.212,-21.30078125,8.6484375,11.6513671875
0.2125,-20.4599609375,4.484375,15.0546875
0.213,-19.1787109375,0.080078125,18.177734375
0.2135,-17.1767578125,-4.00390625,20.2197265625
0.214,-15.0146484375,-6.806640625,20.98046875
0.2145,-12.2919921875,-9.9697265625,21.4208984375
0.215,-7.1669921875,-13.9736328125,20.5
0.2155,-2.4423828125,-17.0966796875,19.138671875
0.216,2.0419921875,-19.5791015625,17.216796875
0.2165,5.845703125,-21.1806640625,15.455078125
0.217,8.6484375,-21.30078125,12.9326171875
0.2175,11.8515625,-21.1806640625,9.8896484375
0.218,15.6552734375,-20.3798828125,5.4052734375
