wavelength,x,y,z
0.0,-1.671630859375,-6.916748046875,6.416259765625
0.0005,-2.872802734375,-6.075927734375,6.856689453125
0.001,-4.314208984375,-4.634521484375,7.056884765625
0.0015,-5.515380859375,-3.153076171875,7.297119140625
0.002,-6.276123046875,-1.751708984375,7.056884765625
0.0025,-6.676513671875,-0.910888671875,6.856689453125
0.003,-6.556396484375,0.050048828125,6.256103515625
0.0035,-6.196044921875,1.131103515625,5.094970703125
0.004,-5.915771484375,2.492431640625,3.813720703125
0.0045,-5.635498046875,3.853759765625,2.332275390625
0.005,-5.195068359375,4.854736328125,1.131103515625
0.0055,-4.874755859375,5.575439453125,0.290283203125
0.006,-3.993896484375,5.735595703125,-0.790771484375
0.0065,-2.712646484375,5.895751953125,-2.072021484375
0.007,-1.311279296875,6.095947265625,-3.673583984375
0.0075,0.010009765625,6.055908203125,-4.874755859375
0.008,0.690673828125,6.256103515625,-5.795654296875
0.0085,1.491455078125,6.015869140625,-6.516357421875
0.009,2.692626953125,4.974853515625,-6.876708984375
0.0095,4.013916015625,3.613525390625,-7.076904296875
0.01,5.094970703125,2.212158203125,-7.116943359375
0.0105,5.775634765625,0.970947265625,-6.916748046875
0.011,6.095947265625,0.210205078125,-6.756591796875
0.0115,5.895751953125,-0.670654296875,-6.115966796875
0.012,5.575439453125,-1.751708984375,-4.994873046875
0.0125,5.375244140625,-3.072998046875,-3.713623046875
0.013,5.054931640625,-4.354248046875,-2.312255859375
0.0135,4.774658203125,-5.315185546875,-1.311279296875
0.014,4.414306640625,-5.955810546875,-0.550537109375
0.0145,3.493408203125,-6.156005859375,0.570556640625
0.015,2.332275390625,-6.356201171875,1.851806640625
0.0155,0.970947265625,-6.516357421875,3.373291015625
0.016,-0.190185546875,-6.596435546875,4.534423828125
0.0165,-0.830810546875,-6.916748046875,5.495361328125
0.017,-1.751708984375,-6.516357421875,6.095947265625
0.0175,-3.032958984375,-5.395263671875,6.456298828125
0.018,-4.314208984375,-4.154052734375,6.776611328125
0.0185,-5.355224609375,-2.792724609375,6.776611328125
0.019,-5.995849609375,-1.791748046875,6.696533203125
0.0195,-6.196044921875,-1.031005859375,6.536376953125
0.02,-6.035888671875,-0.150146484375,5.775634765625
0.0205,-5.755615234375,1.091064453125,4.734619140625
0.021,-5.715576171875,2.492431640625,3.453369140625
0.0215,-5.395263671875,3.693603515625,2.132080078125
0.022,-5.155029296875,4.654541015625,1.251220703125
0.0225,-4.634521484375,5.094970703125,0.370361328125
0.023,-3.713623046875,5.415283203125,-0.790771484375
0.0235,-2.472412109375,5.695556640625,-2.272216796875
0.024,-1.151123046875,5.815673828125,-3.713623046875
0.0245,-0.270263671875,5.975830078125,-4.794677734375
0.025,0.570556640625,6.135986328125,-5.715576171875
0.0255,1.531494140625,5.575439453125,-6.236083984375
0.026,2.892822265625,4.374267578125,-6.596435546875
0.0265,4.174072265625,3.093017578125,-6.836669921875
0.027,5.094970703125,1.771728515625,-6.716552734375
0.0275,5.615478515625,0.890869140625,-6.716552734375
0.028,5.655517578125,0.130126953125,-6.356201171875
0.0285,5.415283203125,-0.910888671875,-5.475341796875
0.029,5.255126953125,-2.112060546875,-4.354248046875
0.0295,5.094970703125,-3.473388671875,-3.113037109375
0.03,4.814697265625,-4.554443359375,-1.911865234375
0.0305,4.614501953125,-5.355224609375,-1.151123046875
0.031,3.933837890625,-5.715576171875,-0.270263671875
0.0315,2.932861328125,-5.915771484375,0.970947265625
0.032,1.731689453125,-6.236083984375,2.412353515625
0.0325,0.570556640625,-6.356201171875,3.693603515625
0.033,-0.310302734375,-6.636474609375,4.734619140625
0.0335,-1.031005859375,-6.596435546875,5.495361328125
0.034,-2.112060546875,-5.795654296875,5.935791015625
0.0345,-3.393310546875,-4.674560546875,6.296142578125
0.035,-4.594482421875,-3.393310546875,6.456298828125
0.0355,-5.315185546875,-2.272216796875,6.416259765625
0.036,-5.755615234375,-1.551513671875,6.416259765625
0.0365,-5.715576171875,-0.790771484375,5.935791015625
0.037,-5.515380859375,0.250244140625,5.094970703125
0.0375,-5.435302734375,1.451416015625,4.093994140625
0.038,-5.275146484375,2.732666015625,2.852783203125
0.0385,-5.074951171875,3.773681640625,1.851806640625
0.039,-4.834716796875,4.494384765625,1.091064453125
0.0395,-4.154052734375,4.814697265625,0.170166015625
0.04,-3.193115234375,5.094970703125,-1.111083984375
0.0405,-2.072021484375,5.415283203125,-2.512451171875
0.041,-0.990966796875,5.575439453125,-3.713623046875
0.0415,-0.390380859375,6.015869140625,-4.754638671875
0.042,0.610595703125,5.815673828125,-5.435302734375
0.0425,1.731689453125,4.974853515625,-5.915771484375
0.043,3.012939453125,3.893798828125,-6.276123046875
0.0435,4.093994140625,2.652587890625,-6.396240234375
0.044,4.814697265625,1.691650390625,-6.436279296875
0.0445,5.175048828125,0.970947265625,-6.436279296875
0.045,5.175048828125,0.210205078125,-5.915771484375
0.0455,5.054931640625,-0.870849609375,-5.074951171875
0.046,5.014892578125,-2.152099609375,-4.033935546875
0.0465,4.814697265625,-3.353271484375,-2.872802734375
0.047,4.774658203125,-4.354248046875,-2.031982421875
0.0475,4.414306640625,-4.994873046875,-1.231201171875
0.048,3.693603515625,-5.355224609375,-0.270263671875
0.0485,2.732666015625,-5.755615234375,1.051025390625
0.049,1.571533203125,-6.035888671875,2.452392578125
0.0495,0.690673828125,-6.316162109375,3.573486328125
0.05,0.010009765625,-6.596435546875,4.574462890625
0.0505,-0.990966796875,-6.236083984375,5.215087890625
0.051,-2.232177734375,-5.315185546875,5.695556640625
0.0515,-3.513427734375,-4.234130859375,6.095947265625
0.052,-4.514404296875,-3.072998046875,6.135986328125
0.0525,-5.155029296875,-2.272216796875,6.336181640625
0.053,-5.395263671875,-1.591552734375,6.095947265625
0.0535,-5.315185546875,-0.710693359375,5.495361328125
0.054,-5.275146484375,0.410400390625,4.694580078125
0.0545,-5.275146484375,1.691650390625,3.613525390625
0.055,-5.114990234375,2.852783203125,2.572509765625
0.0555,-5.034912109375,3.773681640625,1.771728515625
0.056,-4.554443359375,4.254150390625,0.970947265625
0.0565,-3.793701171875,4.614501953125,-0.230224609375
0.057,-2.832763671875,5.054931640625,-1.511474609375
0.0575,-1.751708984375,5.335205078125,-2.792724609375
0.058,-0.990966796875,5.735595703125,-3.873779296875
0.0585,-0.270263671875,5.855712890625,-4.794677734375
0.059,0.890869140625,5.295166015625,-5.355224609375
0.0595,2.092041015625,4.414306640625,-5.795654296875
0.06,3.333251953125,3.253173828125,-6.115966796875
0.0605,4.214111328125,2.172119140625,-6.236083984375
0.061,4.774658203125,1.451416015625,-6.356201171875
0.0615,4.894775390625,0.770751953125,-6.035888671875
0.062,4.854736328125,-0.230224609375,-5.395263671875
0.0625,4.854736328125,-1.351318359375,-4.514404296875
0.063,4.814697265625,-2.592529296875,-3.393310546875
0.0635,4.734619140625,-3.713623046875,-2.512451171875
0.064,4.614501953125,-4.514404296875,-1.751708984375
0.0645,4.013916015625,-4.994873046875,-0.910888671875
0.065,3.213134765625,-5.435302734375,0.330322265625
0.0655,2.212158203125,-5.795654296875,1.691650390625
0.066,1.211181640625,-6.115966796875,2.892822265625
0.0665,0.570556640625,-6.476318359375,3.973876953125
0.067,-0.390380859375,-6.396240234375,4.774658203125
0.0675,-1.551513671875,-5.715576171875,5.295166015625
0.068,-2.832763671875,-4.714599609375,5.775634765625
0.0685,-3.993896484375,-3.553466796875,6.015869140625
0.069,-4.794677734375,-2.632568359375,6.135986328125
0.0695,-5.195068359375,-1.951904296875,6.216064453125
0.07,-5.275146484375,-1.151123046875,5.735595703125
0.0705,-5.235107421875,-0.230224609375,5.014892578125
0.071,-5.275146484375,1.131103515625,4.093994140625
0.0715,-5.114990234375,2.372314453125,2.932861328125
0.072,-5.114990234375,3.373291015625,2.092041015625
0.0725,-4.794677734375,4.013916015625,1.291259765625
0.073,-4.114013671875,4.414306640625,0.330322265625
0.0735,-3.193115234375,4.934814453125,-0.990966796875
0.074,-2.112060546875,5.255126953125,-2.392333984375
0.0745,-1.271240234375,5.615478515625,-3.553466796875
0.075,-0.590576171875,5.895751953125,-4.514404296875
0.0755,0.490478515625,5.575439453125,-5.195068359375
0.076,1.731689453125,4.694580078125,-5.715576171875
0.0765,3.052978515625,3.613525390625,-6.115966796875
0.077,4.013916015625,2.412353515625,-6.196044921875
0.0775,4.734619140625,1.611572265625,-6.356201171875
0.078,4.974853515625,0.930908203125,-6.196044921875
0.0785,4.934814453125,0.050048828125,-5.555419921875
0.079,4.854736328125,-1.111083984375,-4.714599609375
0.0795,4.854736328125,-2.432373046875,-3.713623046875
0.08,4.734619140625,-3.553466796875,-2.632568359375
0.0805,4.694580078125,-4.514404296875,-1.871826171875
0.081,4.134033203125,-4.994873046875,-0.990966796875
0.0815,3.333251953125,-5.315185546875,0.130126953125
0.082,2.372314453125,-5.755615234375,1.491455078125
0.0825,1.291259765625,-6.035888671875,2.772705078125
0.083,0.570556640625,-6.396240234375,3.853759765625
0.0835,-0.310302734375,-6.516357421875,4.774658203125
0.084,-1.431396484375,-5.875732421875,5.375244140625
0.0845,-2.712646484375,-4.874755859375,5.775634765625
0.085,-3.953857421875,-3.713623046875,6.135986328125
0.0855,-4.834716796875,-2.632568359375,6.216064453125
0.086,-5.355224609375,-1.951904296875,6.336181640625
0.0865,-5.435302734375,-1.191162109375,5.895751953125
0.087,-5.315185546875,-0.270263671875,5.094970703125
0.0875,-5.315185546875,1.091064453125,4.174072265625
0.088,-5.195068359375,2.492431640625,3.093017578125
0.0885,-5.114990234375,3.413330078125,2.052001953125
0.089,-4.874755859375,4.174072265625,1.291259765625
0.0895,-4.234130859375,4.614501953125,0.370361328125
0.09,-3.233154296875,4.974853515625,-0.950927734375
0.0905,-2.192138671875,5.375244140625,-2.392333984375
0.091,-1.151123046875,5.615478515625,-3.633544921875
0.0915,-0.510498046875,6.015869140625,-4.674560546875
0.092,0.530517578125,5.775634765625,-5.435302734375
0.0925,1.771728515625,4.854736328125,-5.915771484375
0.093,3.133056640625,3.733642578125,-6.316162109375
0.0935,4.254150390625,2.452392578125,-6.436279296875
0.094,4.974853515625,1.491455078125,-6.476318359375
0.0945,5.295166015625,0.730712890625,-6.396240234375
0.095,5.215087890625,-0.190185546875,-5.755615234375
0.0955,5.054931640625,-1.271240234375,-4.834716796875
0.096,4.974853515625,-2.632568359375,-3.553466796875
0.0965,4.814697265625,-3.913818359375,-2.512451171875
0.097,4.734619140625,-4.834716796875,-1.631591796875
0.0975,4.254150390625,-5.355224609375,-0.790771484375
0.098,3.333251953125,-5.635498046875,0.370361328125
0.0985,2.252197265625,-5.955810546875,1.731689453125
0.099,1.091064453125,-6.236083984375,3.173095703125
0.0995,0.210205078125,-6.436279296875,4.254150390625
0.1,-0.630615234375,-6.676513671875,5.175048828125
0.1005,-1.631591796875,-6.115966796875,5.775634765625
0.101,-2.992919921875,-4.954833984375,6.176025390625
0.1015,-4.314208984375,-3.713623046875,6.496337890625
0.102,-5.235107421875,-2.432373046875,6.456298828125
0.1025,-5.755615234375,-1.631591796875,6.496337890625
0.103,-5.835693359375,-0.870849609375,6.135986328125
0.1035,-5.635498046875,0.210205078125,5.255126953125
0.104,-5.555419921875,1.291259765625,4.093994140625
0.1045,-5.435302734375,2.812744140625,2.892822265625
0.105,-5.155029296875,3.893798828125,1.771728515625
0.1055,-4.994873046875,4.734619140625,0.930908203125
0.106,-4.274169921875,5.094970703125,0.050048828125
0.1065,-3.153076171875,5.335205078125,-1.311279296875
0.107,-1.951904296875,5.695556640625,-2.832763671875
0.1075,-0.790771484375,5.815673828125,-4.154052734375
0.108,0.050048828125,6.095947265625,-5.155029296875
0.1085,0.890869140625,6.015869140625,-5.955810546875
0.109,2.092041015625,5.094970703125,-6.396240234375
0.1095,3.533447265625,3.773681640625,-6.756591796875
0.11,4.774658203125,2.412353515625,-6.956787109375
0.1105,5.495361328125,1.211181640625,-6.796630859375
0.111,5.855712890625,0.370361328125,-6.716552734375
0.1115,5.735595703125,-0.550537109375,-6.075927734375
0.112,5.495361328125,-1.631591796875,-4.874755859375
0.1125,5.335205078125,-3.113037109375,-3.673583984375
0.113,5.094970703125,-4.474365234375,-2.312255859375
0.1135,4.814697265625,-5.395263671875,-1.271240234375
0.114,4.414306640625,-5.955810546875,-0.470458984375
0.1145,3.453369140625,-6.156005859375,0.690673828125
0.115,2.132080078125,-6.396240234375,2.092041015625
0.1155,0.770751953125,-6.596435546875,3.693603515625
0.116,-0.350341796875,-6.716552734375,4.854736328125
0.1165,-1.031005859375,-6.916748046875,5.735595703125
0.117,-2.072021484375,-6.356201171875,6.416259765625
0.1175,-3.473388671875,-5.114990234375,6.696533203125
0.118,-4.794677734375,-3.713623046875,7.016845703125
0.1185,-5.795654296875,-2.312255859375,6.976806640625
0.119,-6.396240234375,-1.271240234375,6.776611328125
0.1195,-6.436279296875,-0.510498046875,6.456298828125
0.12,-6.276123046875,0.490478515625,5.575439453125
0.1205,-5.915771484375,1.811767578125,4.214111328125
0.121,-5.715576171875,3.253173828125,2.852783203125
0.1215,-5.395263671875,4.494384765625,1.571533203125
0.122,-5.074951171875,5.295166015625,0.610595703125
0.1225,-4.354248046875,5.655517578125,-0.390380859375
0.123,-3.153076171875,5.775634765625,-1.591552734375
0.1235,-1.791748046875,6.055908203125,-3.153076171875
0.124,-0.470458984375,6.095947265625,-4.634521484375
0.1245,0.530517578125,6.216064453125,-5.635498046875
0.125,1.251220703125,6.216064453125,-6.436279296875
0.1255,2.372314453125,5.375244140625,-6.916748046875
0.126,3.813720703125,3.933837890625,-7.116943359375
0.1265,5.054931640625,2.532470703125,-7.317138671875
0.127,5.855712890625,1.131103515625,-7.076904296875
0.1275,6.256103515625,0.210205078125,-6.916748046875
0.128,6.176025390625,-0.790771484375,-6.396240234375
0.1285,5.775634765625,-1.791748046875,-5.235107421875
0.129,5.535400390625,-3.193115234375,-3.993896484375
0.1295,5.255126953125,-4.514404296875,-2.472412109375
0.13,4.854736328125,-5.555419921875,-1.231201171875
0.1305,4.494384765625,-6.236083984375,-0.390380859375
0.131,3.653564453125,-6.436279296875,0.650634765625
0.1315,2.372314453125,-6.556396484375,1.931884765625
0.132,0.970947265625,-6.756591796875,3.533447265625
0.1325,-0.350341796875,-6.756591796875,4.814697265625
0.133,-1.151123046875,-6.916748046875,5.735595703125
0.1335,-1.911865234375,-6.676513671875,6.416259765625
0.134,-3.153076171875,-5.635498046875,6.776611328125
0.1345,-4.514404296875,-4.194091796875,7.056884765625
0.135,-5.635498046875,-2.792724609375,7.096923828125
0.1355,-6.356201171875,-1.551513671875,6.896728515625
0.136,-6.596435546875,-0.790771484375,6.736572265625
0.1365,-6.396240234375,0.170166015625,5.975830078125
0.137,-6.115966796875,1.331298828125,4.934814453125
0.1375,-5.835693359375,2.692626953125,3.493408203125
0.138,-5.515380859375,4.053955078125,2.052001953125
0.1385,-5.155029296875,4.974853515625,0.970947265625
0.139,-4.714599609375,5.575439453125,0.170166015625
0.1395,-3.793701171875,5.735595703125,-0.950927734375
0.14,-2.432373046875,5.895751953125,-2.392333984375
0.1405,-1.151123046875,6.095947265625,-3.913818359375
0.141,0.130126953125,6.095947265625,-5.114990234375
0.1415,0.770751953125,6.336181640625,-6.035888671875
0.142,1.731689453125,5.895751953125,-6.596435546875
0.1425,3.052978515625,4.614501953125,-6.956787109375
0.143,4.414306640625,3.253173828125,-7.197021484375
0.1435,5.415283203125,1.851806640625,-7.156982421875
0.144,6.015869140625,0.610595703125,-7.036865234375
0.1445,6.176025390625,-0.190185546875,-6.716552734375
0.145,5.775634765625,-1.271240234375,-5.875732421875
0.1455,5.615478515625,-2.312255859375,-4.594482421875
0.146,5.415283203125,-3.753662109375,-3.193115234375
0.1465,5.094970703125,-4.994873046875,-1.871826171875
0.147,4.814697265625,-5.875732421875,-0.910888671875
0.1475,4.174072265625,-6.316162109375,0.050048828125
0.148,3.093017578125,-6.436279296875,1.211181640625
0.1485,1.731689453125,-6.676513671875,2.732666015625
0.149,0.330322265625,-6.756591796875,4.254150390625
0.1495,-0.710693359375,-6.876708984375,5.335205078125
0.15,-1.391357421875,-6.956787109375,6.216064453125
0.1505,-2.512451171875,-6.156005859375,6.696533203125
0.151,-3.913818359375,-4.834716796875,6.976806640625
0.1515,-5.275146484375,-3.393310546875,7.177001953125
0.152,-6.115966796875,-2.031982421875,6.976806640625
0.1525,-6.556396484375,-1.111083984375,6.896728515625
0.153,-6.556396484375,-0.350341796875,6.256103515625
0.1535,-6.236083984375,0.930908203125,5.295166015625
0.154,-5.915771484375,2.252197265625,3.973876953125
0.1545,-5.715576171875,3.733642578125,2.532470703125
0.155,-5.315185546875,4.814697265625,1.251220703125
0.1555,-4.994873046875,5.495361328125,0.370361328125
0.156,-4.114013671875,5.775634765625,-0.670654296875
0.1565,-2.832763671875,5.895751953125,-1.991943359375
0.157,-1.431396484375,6.135986328125,-3.593505859375
0.1575,-0.150146484375,6.095947265625,-4.914794921875
0.158,0.690673828125,6.256103515625,-5.875732421875
0.1585,1.451416015625,6.095947265625,-6.556396484375
0.159,2.692626953125,5.014892578125,-6.916748046875
0.1595,4.093994140625,3.573486328125,-7.116943359375
0.16,5.255126953125,2.132080078125,-7.237060546875
0.1605,5.895751953125,0.810791015625,-6.996826171875
0.161,6.216064453125,0.010009765625,-6.916748046875
0.1615,5.975830078125,-0.830810546875,-6.115966796875
0.162,5.655517578125,-1.951904296875,-4.954833984375
0.1625,5.415283203125,-3.273193359375,-3.633544921875
0.163,5.094970703125,-4.594482421875,-2.232177734375
0.1635,4.774658203125,-5.515380859375,-1.151123046875
0.164,4.374267578125,-6.115966796875,-0.310302734375
0.1645,3.413330078125,-6.276123046875,0.770751953125
0.165,2.172119140625,-6.436279296875,2.052001953125
0.1655,0.770751953125,-6.596435546875,3.573486328125
0.166,-0.390380859375,-6.636474609375,4.774658203125
0.1665,-1.031005859375,-6.876708984375,5.655517578125
0.167,-1.911865234375,-6.476318359375,6.256103515625
0.1675,-3.153076171875,-5.315185546875,6.576416015625
0.168,-4.474365234375,-4.033935546875,6.896728515625
0.1685,-5.475341796875,-2.712646484375,6.856689453125
0.169,-6.075927734375,-1.631591796875,6.696533203125
0.1695,-6.316162109375,-0.910888671875,6.536376953125
0.17,-6.115966796875,0.090087890625,5.775634765625
0.1705,-5.835693359375,1.211181640625,4.734619140625
0.171,-5.675537109375,2.572509765625,3.373291015625
0.1715,-5.315185546875,3.853759765625,2.052001953125
0.172,-5.155029296875,4.814697265625,1.131103515625
0.1725,-4.634521484375,5.255126953125,0.290283203125
0.173,-3.673583984375,5.455322265625,-0.910888671875
0.1735,-2.432373046875,5.735595703125,-2.272216796875
0.174,-1.151123046875,5.895751953125,-3.753662109375
0.1745,-0.190185546875,6.015869140625,-4.834716796875
0.175,0.610595703125,6.216064453125,-5.755615234375
0.1755,1.571533203125,5.655517578125,-6.276123046875
0.176,2.852783203125,4.454345703125,-6.636474609375
0.1765,4.134033203125,3.133056640625,-6.916748046875
0.177,5.135009765625,1.771728515625,-6.836669921875
0.1775,5.695556640625,0.890869140625,-6.796630859375
0.178,5.735595703125,0.130126953125,-6.436279296875
0.1785,5.495361328125,-0.910888671875,-5.595458984375
0.179,5.295166015625,-2.072021484375,-4.514404296875
0.1795,5.135009765625,-3.473388671875,-3.193115234375
0.18,4.854736328125,-4.594482421875,-1.951904296875
0.1805,4.654541015625,-5.435302734375,-1.151123046875
0.181,3.973876953125,-5.755615234375,-0.310302734375
0.1815,3.012939453125,-5.995849609375,0.930908203125
0.182,1.771728515625,-6.276123046875,2.412353515625
0.1825,0.570556640625,-6.396240234375,3.733642578125
0.183,-0.310302734375,-6.636474609375,4.774658203125
0.1835,-1.031005859375,-6.676513671875,5.575439453125
0.184,-2.152099609375,-5.915771484375,6.015869140625
0.1845,-3.433349609375,-4.794677734375,6.336181640625
0.185,-4.634521484375,-3.513427734375,6.536376953125
0.1855,-5.435302734375,-2.272216796875,6.456298828125
0.186,-5.835693359375,-1.471435546875,6.496337890625
0.1865,-5.795654296875,-0.750732421875,6.015869140625
0.187,-5.635498046875,0.290283203125,5.135009765625
0.1875,-5.475341796875,1.491455078125,4.053955078125
0.188,-5.275146484375,2.852783203125,2.812744140625
