wavelength,x,y,z
0.0,3.02294921875,-1.30126953125,-2.18212890625
0.0005,3.06298828125,-2.14208984375,-1.54150390625
0.001,3.26318359375,-2.58251953125,-1.26123046875
0.0015,3.06298828125,-2.86279296875,-0.78076171875
0.002,2.62255859375,-2.90283203125,-0.22021484375
0.0025,1.90185546875,-3.06298828125,0.66064453125
0.003,1.22119140625,-3.22314453125,1.58154296875
0.0035,0.78076171875,-3.34326171875,2.14208984375
0.004,0.46044921875,-3.42333984375,2.54248046875
0.0045,-0.10009765625,-3.06298828125,2.66259765625
0.005,-0.78076171875,-2.50244140625,2.78271484375
0.0055,-1.58154296875,-1.86181640625,2.98291015625
0.006,-2.30224609375,-1.34130859375,3.18310546875
0.0065,-2.66259765625,-0.98095703125,3.18310546875
0.007,-2.86279296875,-0.62060546875,2.98291015625
0.0075,-2.90283203125,-0.18017578125,2.62255859375
0.008,-2.90283203125,0.58056640625,1.94189453125
0.0085,-3.02294921875,1.38134765625,1.30126953125
0.009,-3.26318359375,1.94189453125,0.90087890625
0.0095,-3.30322265625,2.42236328125,0.50048828125
0.01,-3.02294921875,2.54248046875,0.10009765625
0.0105,-2.50244140625,2.66259765625,-0.58056640625
0.011,-1.90185546875,2.90283203125,-1.42138671875
0.0115,-1.30126953125,3.10302734375,-2.18212890625
0.012,-0.90087890625,3.18310546875,-2.70263671875
0.0125,-0.50048828125,3.18310546875,-3.06298828125
0.013,0.02001953125,2.86279296875,-3.18310546875
0.0135,0.74072265625,2.22216796875,-3.34326171875
0.014,1.58154296875,1.66162109375,-3.54345703125
0.0145,2.22216796875,1.14111328125,-3.70361328125
0.015,2.58251953125,0.86083984375,-3.78369140625
0.0155,2.70263671875,0.42041015625,-3.50341796875
0.016,2.78271484375,-0.14013671875,-3.06298828125
0.0165,2.90283203125,-1.02099609375,-2.46240234375
0.017,3.06298828125,-1.74169921875,-1.82177734375
0.0175,3.10302734375,-2.42236328125,-1.42138671875
0.018,3.18310546875,-2.70263671875,-0.98095703125
0.0185,2.82275390625,-2.82275390625,-0.50048828125
0.019,2.18212890625,-2.90283203125,0.30029296875
0.0195,1.54150390625,-3.18310546875,1.18115234375
0.02,0.98095703125,-3.34326171875,1.94189453125
0.0205,0.66064453125,-3.46337890625,2.34228515625
0.021,0.18017578125,-3.22314453125,2.58251953125
0.0215,-0.42041015625,-2.82275390625,2.74267578125
0.022,-1.26123046875,-2.14208984375,2.90283203125
0.0225,-2.02197265625,-1.58154296875,3.10302734375
0.023,-2.54248046875,-1.14111328125,3.18310546875
0.0235,-2.86279296875,-0.82080078125,3.18310546875
0.024,-2.90283203125,-0.38037109375,2.78271484375
0.0245,-2.98291015625,0.22021484375,2.18212890625
0.025,-3.14306640625,1.10107421875,1.58154296875
0.0255,-3.38330078125,1.82177734375,1.14111328125
0.026,-3.34326171875,2.26220703125,0.66064453125
0.0265,-3.18310546875,2.54248046875,0.22021484375
0.027,-2.74267578125,2.66259765625,-0.34033203125
0.0275,-1.98193359375,2.82275390625,-1.18115234375
0.028,-1.42138671875,3.02294921875,-1.98193359375
0.0285,-0.94091796875,3.18310546875,-2.62255859375
0.029,-0.62060546875,3.22314453125,-3.02294921875
0.0295,-0.10009765625,2.86279296875,-3.14306640625
0.03,0.58056640625,2.38232421875,-3.26318359375
0.0305,1.42138671875,1.70166015625,-3.50341796875
0.031,2.10205078125,1.22119140625,-3.70361328125
0.0315,2.54248046875,0.86083984375,-3.74365234375
0.032,2.74267578125,0.50048828125,-3.58349609375
0.0325,2.78271484375,0.02001953125,-3.18310546875
0.033,2.82275390625,-0.78076171875,-2.54248046875
0.0335,3.10302734375,-1.54150390625,-1.98193359375
0.034,3.18310546875,-2.22216796875,-1.42138671875
0.0345,3.18310546875,-2.58251953125,-1.10107421875
0.035,2.86279296875,-2.82275390625,-0.62060546875
0.0355,2.42236328125,-2.90283203125,0.02001953125
0.036,1.66162109375,-3.06298828125,0.94091796875
0.0365,1.14111328125,-3.26318359375,1.66162109375
0.037,0.70068359375,-3.38330078125,2.22216796875
0.0375,0.34033203125,-3.34326171875,2.54248046875
0.038,-0.22021484375,-2.94287109375,2.70263671875
0.0385,-0.98095703125,-2.38232421875,2.82275390625
0.039,-1.82177734375,-1.74169921875,3.06298828125
0.0395,-2.42236328125,-1.30126953125,3.22314453125
0.04,-2.70263671875,-0.98095703125,3.18310546875
0.0405,-2.86279296875,-0.62060546875,2.90283203125
0.041,-2.94287109375,0.02001953125,2.46240234375
0.0415,-3.06298828125,0.74072265625,1.74169921875
0.042,-3.18310546875,1.58154296875,1.26123046875
0.0425,-3.34326171875,2.18212890625,0.78076171875
0.043,-3.30322265625,2.54248046875,0.38037109375
0.0435,-2.86279296875,2.62255859375,-0.14013671875
0.044,-2.30224609375,2.74267578125,-0.86083984375
0.0445,-1.62158203125,3.02294921875,-1.78173828125
0.045,-1.14111328125,3.18310546875,-2.42236328125
0.0455,-0.74072265625,3.22314453125,-2.86279296875
0.046,-0.34033203125,3.10302734375,-3.14306640625
0.0465,0.30029296875,2.62255859375,-3.26318359375
0.047,1.14111328125,1.94189453125,-3.46337890625
0.0475,1.94189453125,1.38134765625,-3.66357421875
0.048,2.46240234375,0.98095703125,-3.78369140625
0.0485,2.70263671875,0.62060546875,-3.70361328125
0.049,2.70263671875,0.14013671875,-3.30322265625
0.0495,2.82275390625,-0.50048828125,-2.82275390625
0.05,2.94287109375,-1.34130859375,-2.06201171875
0.0505,3.10302734375,-1.98193359375,-1.58154296875
0.051,3.18310546875,-2.46240234375,-1.14111328125
0.0515,3.02294921875,-2.74267578125,-0.74072265625
0.052,2.54248046875,-2.82275390625,-0.18017578125
0.0525,1.90185546875,-2.94287109375,0.62060546875
0.053,1.26123046875,-3.18310546875,1.46142578125
0.0535,0.82080078125,-3.34326171875,2.06201171875
0.054,0.50048828125,-3.34326171875,2.42236328125
0.0545,0.02001953125,-3.06298828125,2.58251953125
0.055,-0.66064453125,-2.58251953125,2.74267578125
0.0555,-1.54150390625,-1.90185546875,2.94287109375
0.056,-2.18212890625,-1.42138671875,3.14306640625
0.0565,-2.62255859375,-1.06103515625,3.18310546875
0.057,-2.86279296875,-0.78076171875,3.06298828125
0.0575,-2.86279296875,-0.30029296875,2.58251953125
0.058,-2.94287109375,0.50048828125,2.06201171875
0.0585,-3.14306640625,1.30126953125,1.42138671875
0.059,-3.34326171875,1.94189453125,0.98095703125
0.0595,-3.30322265625,2.34228515625,0.62060546875
0.06,-3.06298828125,2.54248046875,0.10009765625
0.0605,-2.54248046875,2.70263671875,-0.50048828125
0.061,-1.86181640625,2.86279296875,-1.38134765625
0.0615,-1.30126953125,3.06298828125,-2.14208984375
0.062,-0.90087890625,3.22314453125,-2.70263671875
0.0625,-0.54052734375,3.18310546875,-3.02294921875
0.063,0.02001953125,2.82275390625,-3.18310546875
0.0635,0.74072265625,2.26220703125,-3.34326171875
0.064,1.62158203125,1.58154296875,-3.58349609375
0.0645,2.22216796875,1.14111328125,-3.74365234375
0.065,2.58251953125,0.78076171875,-3.74365234375
0.0655,2.70263671875,0.38037109375,-3.54345703125
0.066,2.78271484375,-0.18017578125,-2.98291015625
0.0665,2.86279296875,-0.98095703125,-2.30224609375
0.067,3.10302734375,-1.74169921875,-1.78173828125
0.0675,3.22314453125,-2.38232421875,-1.30126953125
0.068,3.14306640625,-2.66259765625,-0.98095703125
0.0685,2.74267578125,-2.82275390625,-0.42041015625
0.069,2.18212890625,-2.94287109375,0.30029296875
0.0695,1.42138671875,-3.18310546875,1.26123046875
0.07,0.98095703125,-3.34326171875,1.90185546875
0.0705,0.58056640625,-3.38330078125,2.38232421875
0.071,0.18017578125,-3.26318359375,2.62255859375
0.0715,-0.50048828125,-2.70263671875,2.70263671875
0.072,-1.30126953125,-2.10205078125,2.94287109375
0.0725,-2.10205078125,-1.54150390625,3.10302734375
0.073,-2.58251953125,-1.18115234375,3.22314453125
0.0735,-2.82275390625,-0.82080078125,3.06298828125
0.074,-2.86279296875,-0.34033203125,2.74267578125
0.0745,-2.90283203125,0.30029296875,2.22216796875
0.075,-3.06298828125,1.14111328125,1.54150390625
0.0755,-3.22314453125,1.78173828125,1.06103515625
0.076,-3.30322265625,2.30224609375,0.62060546875
0.0765,-3.18310546875,2.54248046875,0.26025390625
0.077,-2.62255859375,2.58251953125,-0.34033203125
0.0775,-2.10205078125,2.82275390625,-1.14111328125
0.078,-1.42138671875,3.02294921875,-2.02197265625
0.0785,-1.02099609375,3.18310546875,-2.54248046875
0.079,-0.62060546875,3.18310546875,-2.94287109375
0.0795,-0.18017578125,2.94287109375,-3.14306640625
0.08,0.54052734375,2.42236328125,-3.30322265625
0.0805,1.38134765625,1.74169921875,-3.50341796875
0.081,2.02197265625,1.22119140625,-3.70361328125
0.0815,2.50244140625,0.86083984375,-3.82373046875
0.082,2.70263671875,0.58056640625,-3.62353515625
0.0825,2.74267578125,0.06005859375,-3.18310546875
0.083,2.86279296875,-0.62060546875,-2.62255859375
0.0835,3.02294921875,-1.54150390625,-1.94189453125
0.084,3.18310546875,-2.14208984375,-1.46142578125
0.0845,3.18310546875,-2.58251953125,-1.10107421875
0.085,2.94287109375,-2.82275390625,-0.62060546875
0.0855,2.34228515625,-2.86279296875,0.10009765625
0.086,1.70166015625,-3.14306640625,0.98095703125
0.0865,1.10107421875,-3.30322265625,1.78173828125
0.087,0.70068359375,-3.50341796875,2.30224609375
0.0875,0.30029296875,-3.34326171875,2.58251953125
0.088,-0.26025390625,-2.98291015625,2.70263671875
0.0885,-0.98095703125,-2.42236328125,2.90283203125
0.089,-1.94189453125,-1.70166015625,3.14306640625
0.0895,-2.50244140625,-1.26123046875,3.18310546875
0.09,-2.86279296875,-0.90087890625,3.22314453125
0.0905,-2.94287109375,-0.50048828125,2.94287109375
0.091,-2.94287109375,0.18017578125,2.34228515625
0.0915,-3.10302734375,0.98095703125,1.74169921875
0.092,-3.26318359375,1.78173828125,1.10107421875
0.0925,-3.42333984375,2.30224609375,0.70068359375
0.093,-3.22314453125,2.58251953125,0.26025390625
0.0935,-2.86279296875,2.70263671875,-0.22021484375
0.094,-2.18212890625,2.82275390625,-1.02099609375
0.0945,-1.50146484375,3.06298828125,-1.94189453125
0.095,-0.98095703125,3.18310546875,-2.58251953125
0.0955,-0.62060546875,3.26318359375,-3.02294921875
0.096,-0.18017578125,3.02294921875,-3.18310546875
0.0965,0.46044921875,2.46240234375,-3.30322265625
0.097,1.30126953125,1.86181640625,-3.54345703125
0.0975,2.06201171875,1.18115234375,-3.74365234375
0.098,2.54248046875,0.90087890625,-3.78369140625
0.0985,2.74267578125,0.50048828125,-3.62353515625
0.099,2.82275390625,0.10009765625,-3.30322265625
0.0995,2.82275390625,-0.62060546875,-2.62255859375
0.1,2.94287109375,-1.42138671875,-1.98193359375
0.1005,3.14306640625,-2.10205078125,-1.46142578125
0.101,3.18310546875,-2.58251953125,-1.10107421875
0.1015,2.94287109375,-2.74267578125,-0.70068359375
0.102,2.50244140625,-2.86279296875,-0.14013671875
0.1025,1.90185546875,-3.02294921875,0.70068359375
0.103,1.18115234375,-3.22314453125,1.58154296875
0.1035,0.78076171875,-3.38330078125,2.10205078125
0.104,0.42041015625,-3.38330078125,2.50244140625
0.1045,-0.06005859375,-3.18310546875,2.70263671875
0.105,-0.78076171875,-2.58251953125,2.74267578125
0.1055,-1.58154296875,-1.98193359375,2.98291015625
0.106,-2.26220703125,-1.38134765625,3.18310546875
0.1065,-2.70263671875,-1.10107421875,3.30322265625
0.107,-2.86279296875,-0.66064453125,3.06298828125
0.1075,-2.94287109375,-0.18017578125,2.66259765625
0.108,-3.06298828125,0.58056640625,2.06201171875
0.1085,-3.18310546875,1.42138671875,1.34130859375
0.109,-3.34326171875,2.02197265625,0.94091796875
0.1095,-3.34326171875,2.50244140625,0.50048828125
0.11,-3.06298828125,2.62255859375,0.06005859375
0.1105,-2.42236328125,2.70263671875,-0.66064453125
0.111,-1.86181640625,2.98291015625,-1.54150390625
0.1115,-1.26123046875,3.18310546875,-2.34228515625
0.112,-0.82080078125,3.30322265625,-2.82275390625
0.1125,-0.38037109375,3.14306640625,-3.14306640625
0.113,0.14013671875,2.78271484375,-3.30322265625
0.1135,0.98095703125,2.06201171875,-3.50341796875
0.114,1.78173828125,1.46142578125,-3.66357421875
0.1145,2.38232421875,0.98095703125,-3.78369140625
0.115,2.74267578125,0.70068359375,-3.82373046875
0.1155,2.78271484375,0.30029296875,-3.38330078125
0.116,2.82275390625,-0.38037109375,-2.86279296875
0.1165,2.94287109375,-1.14111328125,-2.26220703125
0.117,3.10302734375,-1.94189453125,-1.62158203125
0.1175,3.18310546875,-2.46240234375,-1.22119140625
0.118,3.06298828125,-2.78271484375,-0.78076171875
0.1185,2.74267578125,-2.86279296875,-0.34033203125
0.119,1.98193359375,-2.94287109375,0.50048828125
0.1195,1.34130859375,-3.18310546875,1.34130859375
0.12,0.86083984375,-3.30322265625,2.02197265625
0.1205,0.50048828125,-3.46337890625,2.42236328125
0.121,0.06005859375,-3.18310546875,2.62255859375
0.1215,-0.58056640625,-2.74267578125,2.70263671875
0.122,-1.38134765625,-2.02197265625,2.94287109375
0.1225,-2.14208984375,-1.46142578125,3.14306640625
0.123,-2.58251953125,-1.10107421875,3.18310546875
0.1235,-2.90283203125,-0.74072265625,3.14306640625
0.124,-2.94287109375,-0.34033203125,2.78271484375
0.1245,-2.94287109375,0.38037109375,2.14208984375
0.125,-3.14306640625,1.18115234375,1.58154296875
0.1255,-3.30322265625,1.94189453125,0.98095703125
0.126,-3.38330078125,2.38232421875,0.62060546875
0.1265,-3.14306640625,2.58251953125,0.18017578125
0.127,-2.70263671875,2.74267578125,-0.42041015625
0.1275,-1.98193359375,2.90283203125,-1.26123046875
0.128,-1.38134765625,3.14306640625,-2.10205078125
0.1285,-0.94091796875,3.22314453125,-2.74267578125
0.129,-0.58056640625,3.30322265625,-3.18310546875
0.1295,0.02001953125,2.90283203125,-3.30322265625
0.13,0.74072265625,2.30224609375,-3.42333984375
0.1305,1.62158203125,1.66162109375,-3.66357421875
0.131,2.30224609375,1.14111328125,-3.82373046875
0.1315,2.70263671875,0.78076171875,-3.82373046875
0.132,2.86279296875,0.38037109375,-3.62353515625
0.1325,2.90283203125,-0.14013671875,-3.18310546875
0.133,2.94287109375,-0.98095703125,-2.38232421875
0.1335,3.14306640625,-1.78173828125,-1.78173828125
0.134,3.22314453125,-2.42236328125,-1.26123046875
0.1345,3.22314453125,-2.82275390625,-0.90087890625
0.135,2.78271484375,-2.90283203125,-0.38037109375
0.1355,2.18212890625,-3.02294921875,0.34033203125
0.136,1.42138671875,-3.18310546875,1.30126953125
0.1365,0.90087890625,-3.38330078125,1.98193359375
0.137,0.46044921875,-3.46337890625,2.50244140625
0.1375,0.10009765625,-3.38330078125,2.70263671875
0.138,-0.54052734375,-2.82275390625,2.86279296875
0.1385,-1.30126953125,-2.10205078125,2.94287109375
0.139,-2.14208984375,-1.54150390625,3.18310546875
0.1395,-2.70263671875,-1.06103515625,3.26318359375
0.14,-2.94287109375,-0.78076171875,3.22314453125
0.1405,-3.02294921875,-0.30029296875,2.82275390625
0.141,-3.02294921875,0.30029296875,2.26220703125
0.1415,-3.14306640625,1.14111328125,1.58154296875
0.142,-3.26318359375,1.86181640625,1.02099609375
0.1425,-3.34326171875,2.38232421875,0.58056640625
0.143,-3.30322265625,2.70263671875,0.22021484375
0.1435,-2.82275390625,2.74267578125,-0.34033203125
0.144,-2.10205078125,2.86279296875,-1.14111328125
0.1445,-1.42138671875,3.06298828125,-2.02197265625
0.145,-0.94091796875,3.22314453125,-2.70263671875
0.1455,-0.62060546875,3.22314453125,-3.14306640625
0.146,-0.14013671875,3.06298828125,-3.26318359375
0.1465,0.54052734375,2.54248046875,-3.42333984375
0.147,1.42138671875,1.82177734375,-3.54345703125
0.1475,2.10205078125,1.26123046875,-3.74365234375
0.148,2.66259765625,0.82080078125,-3.82373046875
0.1485,2.86279296875,0.54052734375,-3.78369140625
0.149,2.86279296875,0.02001953125,-3.26318359375
0.1495,2.90283203125,-0.66064453125,-2.62255859375
0.15,3.06298828125,-1.54150390625,-1.94189453125
0.1505,3.22314453125,-2.26220703125,-1.42138671875
0.151,3.22314453125,-2.66259765625,-1.02099609375
0.1515,3.02294921875,-2.90283203125,-0.62060546875
0.152,2.50244140625,-2.94287109375,0.02001953125
0.1525,1.74169921875,-3.14306640625,0.94091796875
0.153,1.10107421875,-3.34326171875,1.74169921875
0.1535,0.66064453125,-3.54345703125,2.30224609375
0.154,0.34033203125,-3.38330078125,2.62255859375
0.1545,-0.22021484375,-3.02294921875,2.74267578125
0.155,-0.94091796875,-2.46240234375,2.86279296875
0.1555,-1.86181640625,-1.74169921875,3.06298828125
0.156,-2.42236328125,-1.26123046875,3.18310546875
0.1565,-2.82275390625,-0.94091796875,3.18310546875
0.157,-2.94287109375,-0.58056640625,3.06298828125
0.1575,-2.94287109375,0.02001953125,2.50244140625
0.158,-2.98291015625,0.74072265625,1.86181640625
0.1585,-3.18310546875,1.54150390625,1.26123046875
0.159,-3.34326171875,2.18212890625,0.78076171875
0.1595,-3.30322265625,2.50244140625,0.42041015625
0.16,-2.94287109375,2.66259765625,-0.06005859375
0.1605,-2.42236328125,2.74267578125,-0.70068359375
0.161,-1.70166015625,2.94287109375,-1.66162109375
0.1615,-1.22119140625,3.06298828125,-2.38232421875
0.162,-0.78076171875,3.26318359375,-2.86279296875
0.1625,-0.42041015625,3.18310546875,-3.18310546875
0.163,0.18017578125,2.74267578125,-3.26318359375
0.1635,0.94091796875,2.18212890625,-3.46337890625
0.164,1.86181640625,1.46142578125,-3.70361328125
0.1645,2.42236328125,1.02099609375,-3.82373046875
0.165,2.70263671875,0.66064453125,-3.78369140625
0.1655,2.86279296875,0.30029296875,-3.46337890625
0.166,2.86279296875,-0.34033203125,-2.90283203125
0.1665,2.94287109375,-1.18115234375,-2.18212890625
0.167,3.14306640625,-1.94189453125,-1.66162109375
0.1675,3.26318359375,-2.50244140625,-1.22119140625
0.168,3.18310546875,-2.82275390625,-0.82080078125
0.1685,2.70263671875,-2.90283203125,-0.30029296875
0.169,2.06201171875,-3.06298828125,0.50048828125
0.1695,1.30126953125,-3.26318359375,1.42138671875
0.17,0.86083984375,-3.38330078125,2.02197265625
0.1705,0.50048828125,-3.38330078125,2.46240234375
0.171,0.06005859375,-3.22314453125,2.70263671875
0.1715,-0.62060546875,-2.62255859375,2.78271484375
0.172,-1.42138671875,-2.02197265625,2.94287109375
0.1725,-2.18212890625,-1.42138671875,3.14306640625
0.173,-2.70263671875,-1.06103515625,3.26318359375
0.1735,-2.86279296875,-0.74072265625,3.10302734375
0.174,-2.90283203125,-0.30029296875,2.70263671875
0.1745,-2.94287109375,0.38037109375,2.18212890625
0.175,-3.10302734375,1.26123046875,1.42138671875
0.1755,-3.26318359375,1.86181640625,1.02099609375
0.176,-3.30322265625,2.34228515625,0.58056640625
0.1765,-3.14306640625,2.54248046875,0.18017578125
0.177,-2.58251953125,2.58251953125,-0.46044921875
0.1775,-2.02197265625,2.78271484375,-1.26123046875
0.178,-1.34130859375,3.06298828125,-2.06201171875
0.1785,-0.98095703125,3.22314453125,-2.66259765625
0.179,-0.62060546875,3.18310546875,-2.98291015625
0.1795,-0.14013671875,2.90283203125,-3.18310546875
0.18,0.62060546875,2.38232421875,-3.34326171875
0.1805,1.50146484375,1.70166015625,-3.54345703125
0.181,2.10205078125,1.26123046875,-3.70361328125
0.1815,2.58251953125,0.86083984375,-3.82373046875
0.182,2.74267578125,0.50048828125,-3.62353515625
0.1825,2.78271484375,-0.06005859375,-3.10302734375
0.183,2.90283203125,-0.78076171875,-2.54248046875
0.1835,3.10302734375,-1.66162109375,-1.86181640625
0.184,3.22314453125,-2.26220703125,-1.42138671875
0.1845,3.18310546875,-2.70263671875,-0.98095703125
0.185,2.90283203125,-2.90283203125,-0.54052734375
0.1855,2.26220703125,-3.02294921875,0.18017578125
0.186,1.58154296875,-3.18310546875,1.14111328125
0.1865,0.98095703125,-3.34326171875,1.90185546875
0.187,0.62060546875,-3.54345703125,2.38232421875
0.1875,0.22021484375,-3.30322265625,2.62255859375
0.188,-0.38037109375,-2.86279296875,2.74267578125
0.1885,-1.18115234375,-2.26220703125,2.94287109375
0.189,-2.06201171875,-1.58154296875,3.18310546875
0.1895,-2.54248046875,-1.18115234375,3.22314453125
0.19,-2.86279296875,-0.78076171875,3.18310546875
0.1905,-2.90283203125,-0.46044921875,2.90283203125
0.191,-2.90283203125,0.26025390625,2.26220703125
0.1915,-3.06298828125,1.02099609375,1.58154296875
0.192,-3.18310546875,1.78173828125,1.02099609375
0.1925,-3.34326171875,2.26220703125,0.66064453125
0.193,-3.14306640625,2.46240234375,0.26025390625
0.1935,-2.78271484375,2.58251953125,-0.30029296875
0.194,-2.14208984375,2.74267578125,-0.98095703125
0.1945,-1.46142578125,2.94287109375,-1.90185546875
0.195,-1.02099609375,3.14306640625,-2.46240234375
0.1955,-0.66064453125,3.18310546875,-2.90283203125
0.196,-0.26025390625,3.02294921875,-3.14306640625
0.1965,0.38037109375,2.46240234375,-3.22314453125
0.197,1.18115234375,1.94189453125,-3.46337890625
0.1975,1.94189453125,1.30126953125,-3.66357421875
0.198,2.42236328125,0.98095703125,-3.78369140625
0.1985,2.66259765625,0.62060546875,-3.62353515625
0.199,2.74267578125,0.18017578125,-3.34326171875
