wavelength,x,y,z
0.0,-16.416015625,21.380859375,-5.92578125
0.0005,-19.4990234375,19.5791015625,-1.1611328125
0.001,-21.380859375,17.2568359375,3.1630859375
0.0015,-22.4619140625,15.0146484375,6.3662109375
0.002,-22.7421875,11.8916015625,10.009765625
0.0025,-22.421875,7.4873046875,13.8935546875
0.003,-21.5009765625,3.3232421875,17.216796875
0.0035,-19.7392578125,-1.0810546875,19.779296875
0.004,-17.4970703125,-5.1650390625,21.7412109375
0.0045,-14.734375,-8.328125,22.1416015625
0.005,-11.5712890625,-11.69140625,22.421875
0.0055,-6.5263671875,-15.775390625,21.62109375
0.006,-1.44140625,-18.8583984375,19.859375
0.0065,3.0029296875,-20.580078125,17.537109375
0.007,6.486328125,-21.9814453125,15.6953125
0.0075,9.8896484375,-22.1416015625,12.6923828125
0.008,13.4130859375,-21.8212890625,8.888671875
0.0085,16.896484375,-20.9404296875,4.8447265625
0.009,19.6591796875,-18.8984375,0.1201171875
0.0095,21.3408203125,-16.6162109375,-3.923828125
0.01,21.94140625,-14.0537109375,-7.046875
0.0105,22.181640625,-10.890625,-10.2900390625
0.011,21.5810546875,-6.2060546875,-14.494140625
0.0115,20.4599609375,-2.2021484375,-17.5771484375
0.012,18.4580078125,1.9619140625,-19.5791015625
0.0125,16.49609375,5.7255859375,-21.5009765625
0.013,13.3330078125,8.96875,-21.5810546875
0.0135,9.849609375,12.3720703125,-21.6611328125
0.014,5.125,16.0556640625,-20.7802734375
0.0145,0.1201171875,18.8984375,-18.73828125
0.015,-3.923828125,20.4599609375,-16.65625
0.0155,-7.0869140625,21.4208984375,-14.6943359375
0.016,-10.490234375,21.62109375,-11.771484375
0.0165,-14.3740234375,20.9404296875,-7.3271484375
0.017,-17.296875,19.8193359375,-3.4833984375
0.0175,-19.8193359375,17.697265625,1.0009765625
0.018,-21.30078125,15.6552734375,4.6044921875
0.0185,-21.3408203125,12.892578125,7.7275390625
0.019,-21.7412109375,9.609375,11.1708984375
0.0195,-21.1806640625,5.0849609375,15.0546875
0.02,-19.7392578125,0.7607421875,18.0576171875
0.0205,-17.5771484375,-3.1630859375,19.8193359375
0.021,-15.6953125,-6.486328125,21.3408203125
0.0215,-12.572265625,-10.009765625,21.5009765625
0.022,-8.087890625,-13.61328125,21.0205078125
0.0225,-3.8837890625,-16.65625,20.0595703125
0.023,1.0810546875,-19.0986328125,17.9375
0.0235,4.8046875,-20.66015625,15.9755859375
0.024,7.7275390625,-21.140625,13.61328125
0.0245,11.0107421875,-21.4208984375,10.9306640625
0.025,15.0546875,-20.5,6.1259765625
0.0255,17.77734375,-19.0986328125,1.9619140625
0.026,19.69921875,-17.0166015625,-1.8818359375
0.0265,21.1005859375,-15.0546875,-5.1650390625
0.027,21.1005859375,-11.8916015625,-8.328125
0.0275,21.060546875,-8.16796875,-12.091796875
0.028,20.4599609375,-4.2041015625,-15.4150390625
0.0285,18.8984375,0.1201171875,-18.2177734375
0.029,16.6962890625,3.84375,-19.8193359375
0.0295,14.57421875,6.966796875,-20.7802734375
0.03,11.6513671875,10.1298828125,-21.140625
0.0305,6.5263671875,14.25390625,-20.33984375
0.031,2.482421875,16.9365234375,-19.0986328125
0.0315,-1.841796875,18.978515625,-17.13671875
0.032,-5.28515625,20.4599609375,-15.375
0.0325,-8.48828125,20.5400390625,-12.4921875
0.033,-11.69140625,20.6201171875,-9.6494140625
0.0335,-15.4951171875,19.859375,-5.2451171875
0.034,-18.1376953125,17.9775390625,-0.7607421875
0.0345,-19.7392578125,16.015625,2.72265625
0.035,-20.8203125,13.93359375,5.8857421875
0.0355,-20.900390625,11.0107421875,8.96875
0.036,-20.5400390625,6.6064453125,13.0126953125
0.0365,-19.8193359375,2.962890625,15.9755859375
0.037,-18.09765625,-1.1611328125,18.3779296875
0.0375,-16.17578125,-4.8046875,20.1396484375
0.038,-13.453125,-7.84765625,20.4599609375
0.0385,-10.6103515625,-10.970703125,20.8603515625
0.039,-5.4453125,-15.0947265625,19.859375
0.0395,-0.80078125,-17.6572265625,18.0576171875
0.04,2.8427734375,-19.2587890625,16.2958984375
0.0405,6.2060546875,-20.580078125,14.57421875
0.041,9.4091796875,-20.5,11.53125
0.0415,12.8125,-20.2197265625,7.84765625
0.042,16.015625,-19.37890625,4.083984375
0.0425,18.4580078125,-17.3369140625,-0.400390625
0.043,19.8193359375,-15.4150390625,-3.5634765625
0.0435,20.33984375,-12.8125,-6.6064453125
0.044,20.5,-10.08984375,-9.689453125
0.0445,19.9794921875,-5.4453125,-13.853515625
0.045,18.8583984375,-1.5615234375,-16.4560546875
0.0455,17.13671875,2.08203125,-18.41796875
0.046,15.375,5.4853515625,-20.099609375
0.0465,12.1318359375,8.6083984375,-20.099609375
0.047,8.6884765625,11.9716796875,-20.1796875
0.0475,4.2841796875,15.4951171875,-19.3388671875
0.048,-0.640625,17.8974609375,-17.1767578125
0.0485,-3.84375,19.1787109375,-15.4951171875
0.049,-6.9267578125,20.1796875,-13.61328125
0.0495,-10.009765625,20.259765625,-10.890625
0.05,-13.8935546875,19.4990234375,-6.40625
0.0505,-16.65625,18.3779296875,-2.6025390625
0.051,-18.6982421875,16.49609375,1.3212890625
0.0515,-20.01953125,14.6943359375,4.4443359375
0.052,-20.2197265625,11.7314453125,7.52734375
0.0525,-20.3798828125,8.6484375,10.73046875
0.053,-19.859375,4.404296875,14.57421875
0.0535,-18.2578125,0.240234375,17.1767578125
0.054,-16.3759765625,-3.203125,18.73828125
0.0545,-14.6142578125,-6.40625,20.2197265625
0.055,-11.4111328125,-9.4892578125,20.1796875
0.0555,-6.966796875,-13.212890625,19.619140625
0.056,-2.8828125,-16.17578125,18.6181640625
0.0565,1.6416015625,-18.337890625,16.5361328125
0.057,4.6044921875,-19.4990234375,14.9345703125
0.0575,7.8076171875,-20.01953125,12.33203125
0.058,10.810546875,-20.099609375,9.76953125
0.0585,14.654296875,-19.21875,5.2451171875
0.059,17.1767578125,-17.537109375,1.12109375
0.0595,18.7783203125,-15.7353515625,-2.2021484375
0.06,19.859375,-13.8134765625,-5.205078125
0.0605,19.779296875,-10.7705078125,-8.2080078125
0.061,19.69921875,-7.0869140625,-11.8515625
0.0615,19.1787109375,-3.36328125,-15.0947265625
0.062,17.4169921875,0.6005859375,-17.6572265625
0.0625,15.53515625,4.00390625,-18.8583984375
0.063,13.373046875,7.1669921875,-19.779296875
0.0635,10.3701171875,10.2099609375,-19.9794921875
0.064,5.4052734375,14.1337890625,-19.05859375
0.0645,1.28125,16.65625,-17.6572265625
0.065,-2.5625,18.41796875,-16.015625
0.0655,-5.6455078125,19.5390625,-14.25390625
0.066,-8.8486328125,19.69921875,-11.2509765625
0.0665,-12.0517578125,19.5791015625,-8.2080078125
0.067,-15.4150390625,18.6982421875,-4.1640625
0.0675,-17.8974609375,16.65625,0.3203125
0.068,-19.1787109375,15.0146484375,3.2431640625
0.0685,-20.01953125,12.7724609375,6.24609375
0.069,-20.0595703125,9.7294921875,9.3291015625
0.0695,-19.619140625,5.4853515625,13.212890625
0.07,-18.6181640625,1.841796875,16.015625
0.0705,-17.0166015625,-2.0419921875,18.2177734375
0.071,-15.134765625,-5.205078125,19.4990234375
0.0715,-12.251953125,-8.328125,19.8193359375
0.072,-9.0087890625,-11.69140625,19.9794921875
0.0725,-4.083984375,-15.2548828125,18.8583984375
0.073,0.4404296875,-17.5771484375,16.81640625
0.0735,3.5234375,-18.978515625,15.3349609375
0.074,6.646484375,-19.939453125,13.453125
0.0745,9.7294921875,-19.8193359375,10.4501953125
0.075,13.212890625,-19.37890625,6.6865234375
0.0755,16.1357421875,-18.2578125,2.8427734375
0.076,18.2578125,-16.2958984375,-1.3212890625
0.0765,19.138671875,-14.6943359375,-4.0439453125
0.077,19.69921875,-11.7314453125,-7.126953125
0.0775,19.69921875,-8.6884765625,-10.25
0.078,19.1787109375,-4.4443359375,-13.9736328125
0.0785,17.7373046875,-0.640625,-16.3759765625
0.079,16.1357421875,2.8427734375,-18.1376953125
0.0795,14.2138671875,5.8857421875,-19.37890625
0.08,11.0908203125,8.9287109375,-19.298828125
0.0805,7.287109375,12.412109375,-19.21875
0.081,2.8828125,15.53515625,-18.09765625
0.0815,-1.521484375,17.6171875,-15.8154296875
0.082,-4.244140625,18.6982421875,-14.57421875
0.0825,-7.3671875,19.4990234375,-12.412109375
0.083,-10.41015625,19.37890625,-9.529296875
0.0835,-13.93359375,18.6982421875,-5.4453125
0.084,-16.49609375,17.2568359375,-1.6015625
0.0845,-18.337890625,15.4150390625,1.9619140625
0.085,-19.21875,13.533203125,4.8046875
0.0855,-19.458984375,10.6103515625,7.927734375
0.086,-19.37890625,7.2470703125,11.2109375
0.0865,-18.8583984375,3.3232421875,14.6943359375
0.087,-17.056640625,-0.720703125,16.9365234375
0.0875,-15.53515625,-3.8037109375,18.41796875
0.088,-13.453125,-6.806640625,19.4990234375
0.0885,-10.1298828125,-9.9697265625,19.37890625
0.089,-5.845703125,-13.453125,18.6982421875
0.0895,-1.76171875,-16.3759765625,17.45703125
0.09,2.482421875,-18.177734375,15.53515625
0.0905,5.1650390625,-19.05859375,14.013671875
0.091,8.2880859375,-19.5390625,11.4912109375
0.0915,11.6513671875,-19.298828125,8.2080078125
0.092,14.8544921875,-18.498046875,4.244140625
0.0925,17.216796875,-16.6962890625,0.240234375
0.093,18.6982421875,-15.0546875,-2.9228515625
0.0935,19.4189453125,-12.8125,-5.845703125
0.094,19.458984375,-9.6494140625,-9.0087890625
0.0945,19.138671875,-5.845703125,-12.5322265625
0.095,18.2978515625,-2.08203125,-15.53515625
0.0955,16.576171875,1.921875,-17.6572265625
0.096,14.734375,4.724609375,-18.8583984375
0.0965,12.2919921875,7.84765625,-19.5390625
0.097,8.6484375,11.2509765625,-19.37890625
0.0975,4.32421875,14.5341796875,-18.5380859375
0.098,0.1201171875,16.9365234375,-16.81640625
0.0985,-3.5234375,18.6181640625,-15.1748046875
0.099,-6.3662109375,19.3388671875,-13.4130859375
0.0995,-9.4892578125,19.619140625,-10.6103515625
0.1,-13.0927734375,19.21875,-6.88671875
0.1005,-16.095703125,18.0576171875,-2.802734375
0.101,-18.2578125,16.1357421875,1.2412109375
0.1015,-19.458984375,14.4140625,4.083984375
0.102,-20.01953125,11.8515625,7.1669921875
0.1025,-19.9794921875,8.3681640625,10.73046875
0.103,-19.4189453125,4.484375,14.09375
0.1035,-18.2177734375,0.560546875,16.7763671875
0.104,-16.3759765625,-3.3232421875,18.8583984375
0.1045,-14.25390625,-6.2861328125,19.69921875
0.105,-11.4912109375,-9.369140625,20.099609375
0.1055,-7.2470703125,-13.1728515625,19.69921875
0.106,-2.642578125,-16.17578125,18.41796875
0.1065,1.5615234375,-18.09765625,16.4560546875
0.107,4.8046875,-19.69921875,14.89453125
0.1075,7.8876953125,-20.1396484375,12.4921875
0.108,11.1708984375,-20.01953125,9.3291015625
0.1085,14.57421875,-19.37890625,5.4453125
0.109,17.376953125,-17.8173828125,1.201171875
0.1095,19.21875,-15.775390625,-2.6826171875
0.11,19.9794921875,-13.7333984375,-5.4453125
0.1105,20.2998046875,-10.8505859375,-8.6884765625
0.111,19.9794921875,-6.8466796875,-12.412109375
0.1115,19.2587890625,-3.0029296875,-15.53515625
0.112,17.4169921875,0.9208984375,-17.6171875
0.1125,15.775390625,4.4443359375,-19.5390625
0.113,13.1728515625,7.4072265625,-19.939453125
0.1135,10.009765625,10.5703125,-20.1396484375
0.114,5.6455078125,14.25390625,-19.4990234375
0.1145,1.0009765625,17.13671875,-17.9375
0.115,-2.962890625,18.818359375,-15.85546875
0.1155,-5.845703125,19.8994140625,-14.25390625
0.116,-9.048828125,20.1796875,-11.6513671875
0.1165,-12.6123046875,19.779296875,-7.84765625
0.117,-15.6953125,18.9384765625,-4.1240234375
0.1175,-18.09765625,17.0966796875,0.16015625
0.118,-19.859375,15.1748046875,3.68359375
0.1185,-20.2998046875,12.732421875,6.5263671875
0.119,-20.5,9.8095703125,9.76953125
0.1195,-20.0595703125,5.5654296875,13.5732421875
0.12,-19.0185546875,1.5615234375,16.65625
0.1205,-17.0166015625,-2.2822265625,18.3779296875
0.121,-15.375,-5.525390625,19.9794921875
0.1215,-12.572265625,-8.6884765625,20.33984375
0.122,-8.6884765625,-12.091796875,20.099609375
0.1225,-4.5244140625,-15.3349609375,19.2587890625
0.123,0.2802734375,-17.857421875,17.3369140625
0.1235,3.9638671875,-19.4990234375,15.4951171875
0.124,6.7265625,-20.1396484375,13.5732421875
0.1245,9.8896484375,-20.4599609375,11.0107421875
0.125,13.7734375,-19.7392578125,6.56640625
0.1255,16.576171875,-18.578125,2.72265625
0.126,18.6181640625,-16.65625,-1.2412109375
0.1265,20.1396484375,-14.814453125,-4.484375
0.127,20.1796875,-11.931640625,-7.447265625
0.1275,20.259765625,-8.5283203125,-10.890625
0.128,19.779296875,-4.6044921875,-14.3740234375
0.1285,18.41796875,-0.5205078125,-17.1767578125
0.129,16.3359375,3.1630859375,-18.818359375
0.1295,14.4140625,6.1259765625,-19.8994140625
0.13,11.6513671875,9.2890625,-20.3798828125
0.1305,6.966796875,13.212890625,-19.779296875
0.131,2.962890625,16.015625,-18.658203125
0.1315,-1.3212890625,18.2177734375,-16.736328125
0.132,-4.9248046875,19.779296875,-15.0546875
0.1325,-7.8076171875,20.0595703125,-12.65234375
0.133,-10.7705078125,20.3798828125,-9.8896484375
0.1335,-14.7744140625,19.4990234375,-5.525390625
0.134,-17.537109375,17.8974609375,-1.28125
0.1345,-19.2587890625,15.9755859375,2.3623046875
0.135,-20.5,14.09375,5.4453125
0.1355,-20.66015625,11.05078125,8.6083984375
0.136,-20.5,7.046875,12.5322265625
0.1365,-19.8193359375,3.283203125,15.615234375
0.137,-18.2177734375,-0.9208984375,18.177734375
0.1375,-16.2158203125,-4.64453125,19.859375
0.138,-13.7333984375,-7.52734375,20.4599609375
0.1385,-10.890625,-10.73046875,20.8203125
0.139,-5.685546875,-14.814453125,19.8994140625
0.1395,-1.1611328125,-17.537109375,18.2177734375
0.14,2.7626953125,-19.298828125,16.416015625
0.1405,6.1259765625,-20.7001953125,14.734375
0.141,9.2490234375,-20.7001953125,11.7314453125
0.1415,12.732421875,-20.4599609375,8.2880859375
0.142,16.1357421875,-19.6591796875,4.2841796875
0.1425,18.73828125,-17.6171875,-0.3603515625
0.143,20.1796875,-15.615234375,-3.763671875
0.1435,20.8603515625,-13.1728515625,-6.806640625
0.144,20.98046875,-10.2099609375,-9.9697265625
0.1445,20.4599609375,-5.525390625,-14.1337890625
0.145,19.3388671875,-1.76171875,-16.8564453125
0.1455,17.537109375,2.162109375,-18.978515625
0.146,15.615234375,5.765625,-20.66015625
0.1465,12.412109375,8.888671875,-20.7001953125
0.147,9.12890625,12.2119140625,-20.7802734375
0.1475,4.2841796875,15.9755859375,-19.859375
0.148,-0.6806640625,18.498046875,-17.697265625
0.1485,-4.0439453125,19.859375,-15.8955078125
0.149,-7.287109375,20.98046875,-14.013671875
0.1495,-10.5703125,20.8603515625,-10.890625
0.15,-14.4140625,20.1396484375,-6.486328125
0.1505,-17.3369140625,19.05859375,-2.6025390625
0.151,-19.5390625,16.9365234375,1.7216796875
0.1515,-20.8203125,14.89453125,4.884765625
0.152,-21.0205078125,11.9716796875,8.0478515625
0.1525,-21.1005859375,8.80859375,11.2509765625
0.153,-20.4599609375,4.244140625,15.21484375
0.1535,-18.8984375,0.0400390625,17.8974609375
0.154,-16.896484375,-3.5634765625,19.4990234375
0.1545,-15.0546875,-6.8466796875,21.060546875
0.155,-11.53125,-10.009765625,20.8203125
0.1555,-7.4072265625,-13.6533203125,20.33984375
0.156,-2.962890625,-16.81640625,19.3388671875
0.1565,1.921875,-19.0986328125,17.0166015625
0.157,5.0849609375,-20.259765625,15.21484375
0.1575,8.2880859375,-20.8603515625,12.892578125
0.158,11.37109375,-20.8603515625,10.0498046875
0.1585,15.2548828125,-19.8994140625,5.28515625
0.159,17.9375,-18.337890625,1.2412109375
0.1595,19.6591796875,-16.3759765625,-2.5224609375
0.16,20.7802734375,-14.3740234375,-5.60546875
0.1605,20.7001953125,-11.130859375,-8.8486328125
0.161,20.5400390625,-7.4873046875,-12.2919921875
0.1615,19.8994140625,-3.4833984375,-15.775390625
0.162,18.177734375,0.9208984375,-18.2978515625
0.1625,16.095703125,4.2841796875,-19.5791015625
0.163,14.013671875,7.4873046875,-20.7802734375
0.1635,10.650390625,10.650390625,-20.740234375
0.164,5.7255859375,14.57421875,-19.8994140625
0.1645,1.5615234375,17.3369140625,-18.578125
0.165,-2.72265625,19.3388671875,-16.6162109375
0.1655,-5.92578125,20.4599609375,-14.7744140625
0.166,-9.2890625,20.6201171875,-11.8115234375
0.1665,-12.4921875,20.5400390625,-8.8486328125
0.167,-16.2958984375,19.5791015625,-4.244140625
0.1675,-18.7783203125,17.5771484375,0.3603515625
0.168,-20.2197265625,15.6552734375,3.5634765625
0.1685,-21.1806640625,13.4130859375,6.806640625
0.169,-21.140625,10.08984375,10.0498046875
0.1695,-20.740234375,5.8056640625,13.93359375
0.17,-19.8994140625,1.921875,17.0166015625
0.1705,-17.9775390625,-2.4423828125,19.458984375
0.171,-15.775390625,-5.765625,20.7001953125
0.1715,-13.0126953125,-9.048828125,21.30078125
0.172,-9.5693359375,-12.4921875,21.30078125
0.1725,-4.244140625,-16.3759765625,20.099609375
0.173,0.4404296875,-18.8583984375,18.177734375
0.1735,4.2041015625,-20.5,16.2958984375
0.174,7.447265625,-21.4609375,14.25390625
0.1745,10.970703125,-21.30078125,10.810546875
0.175,14.494140625,-20.7802734375,7.0869140625
0.1755,17.8173828125,-19.619140625,2.642578125
0.176,20.1796875,-17.3369140625,-2.08203125
0.1765,21.220703125,-15.2548828125,-5.0849609375
0.177,21.8212890625,-12.4521484375,-8.48828125
0.1775,21.62109375,-8.8486328125,-12.01171875
0.178,20.900390625,-4.244140625,-15.8955078125
0.1785,19.4990234375,-0.1201171875,-18.578125
0.179,17.4970703125,4.0439453125,-20.740234375
0.1795,15.0947265625,7.3671875,-21.7412109375
0.18,11.5712890625,10.8505859375,-21.8212890625
0.1805,7.52734375,14.5341796875,-21.541015625
0.181,2.4423828125,18.0576171875,-20.1796875
0.1815,-2.482421875,20.1796875,-17.697265625
0.182,-5.8056640625,21.4208984375,-15.85546875
0.1825,-9.1689453125,22.1416015625,-13.453125
0.183,-12.8125,21.7412109375,-9.689453125
0.1835,-16.49609375,20.8203125,-5.28515625
0.184,-19.4189453125,19.1787109375,-0.80078125
0.1845,-21.541015625,16.736328125,3.763671875
0.185,-22.3017578125,14.3740234375,6.806640625
0.1855,-22.58203125,11.0107421875,10.3701171875
0.186,-22.1416015625,7.046875,14.09375
0.1865,-21.30078125,2.5224609375,17.7373046875
0.187,-19.1787109375,-1.8818359375,20.0595703125
0.1875,-17.056640625,-5.685546875,21.8212890625
0.188,-14.4541015625,-9.0087890625,22.58203125
0.1885,-10.4501953125,-12.5322265625,22.26171875
0.189,-5.8857421875,-16.2158203125,21.4609375
0.1895,-0.7607421875,-19.37890625,19.779296875
0.19,4.00390625,-21.2607421875,17.216796875
0.1905,7.0869140625,-22.1015625,15.21484375
0.191,10.650390625,-22.501953125,12.2919921875
0.1915,14.25390625,-21.861328125,8.2880859375
0.192,17.697265625,-20.7001953125,3.84375
0.1925,20.2998046875,-18.658203125,-0.7607421875
0.193,22.0615234375,-16.416015625,-4.724609375
0.1935,22.421875,-13.7734375,-7.84765625
0.194,22.421875,-10.08984375,-11.4111328125
0.1945,21.78125,-5.92578125,-15.0947265625
0.195,20.740234375,-1.4814453125,-18.4580078125
0.1955,18.41796875,2.9228515625,-20.5
0.196,16.2958984375,6.3662109375,-21.541015625
0.1965,13.4130859375,9.7294921875,-22.421875
0.197,9.048828125,13.4130859375,-21.9013671875
0.1975,4.4443359375,16.81640625,-20.8203125
0.198,-0.6005859375,19.5390625,-18.8984375
0.1985,-4.8447265625,21.30078125,-16.6162109375
0.199,-7.84765625,21.861328125,-14.3740234375
0.1995,-11.37109375,22.0615234375,-11.3310546875
0.2,-15.134765625,21.380859375,-7.046875
0.2005,-18.337890625,19.9794921875,-2.6025390625
0.201,-20.580078125,17.7373046875,1.8818359375
0.2015,-22.1015625,15.615234375,5.4052734375
0.202,-22.4619140625,12.732421875,8.6884765625
0.2025,-22.3818359375,8.9287109375,12.4521484375
0.203,-21.6611328125,4.6044921875,16.015625
0.2035,-20.2998046875,0.2001953125,19.1787109375
0.204,-17.9775390625,-4.32421875,21.1806640625
0.2045,-15.5751953125,-7.4072265625,22.1015625
0.205,-12.572265625,-10.8505859375,22.6220703125
0.2055,-7.7275390625,-14.8544921875,21.94140625
0.206,-2.962890625,-18.017578125,20.5400390625
0.2065,1.921875,-20.3798828125,18.2978515625
0.207,5.8857421875,-22.021484375,16.2958984375
0.2075,9.0888671875,-22.3017578125,13.5732421875
0.208,12.6123046875,-22.341796875,10.2900390625
0.2085,16.5361328125,-21.5009765625,5.7255859375
0.209,19.619140625,-19.7392578125,0.9609375
0.2095,21.5009765625,-17.376953125,-3.3232421875
0.21,22.58203125,-15.0947265625,-6.6064453125
0.2105,22.7822265625,-11.771484375,-10.1298828125
0.211,22.421875,-7.3271484375,-14.2138671875
0.2115,21.4609375,-3.203125,-17.4169921875
0.212,19.69921875,1.28125,-20.099609375
0.2125,17.296875,5.4853515625,-21.9814453125
0.213,14.4140625,8.6484375,-22.3818359375
0.2135,11.2109375,12.091796875,-22.7021484375
0.214,5.92578125,16.2958984375,-21.7412109375
0.2145,0.9609375,19.2587890625,-19.939453125
0.215,-3.4833984375,21.060546875,-17.6572265625
0.2155,-7.126953125,22.4619140625,-15.6953125
0.216,-10.5703125,22.5419921875,-12.5322265625
0.2165,-14.173828125,22.1416015625,-8.728515625
0.217,-17.8173828125,21.1806640625,-4.3642578125
0.2175,-20.7001953125,19.0185546875,0.640625
0.218,-22.3818359375,16.65625,4.64453125
