wavelength,x,y,z
0.0,2.212158203125,-6.196044921875,1.931884765625
0.0005,0.770751953125,-6.396240234375,3.493408203125
0.001,-0.230224609375,-6.716552734375,4.694580078125
0.0015,-0.870849609375,-6.876708984375,5.495361328125
0.002,-1.671630859375,-6.396240234375,6.055908203125
0.0025,-2.912841796875,-5.155029296875,6.296142578125
0.003,-4.234130859375,-3.713623046875,6.376220703125
0.0035,-5.355224609375,-2.312255859375,6.416259765625
0.004,-5.915771484375,-1.471435546875,6.456298828125
0.0045,-5.955810546875,-0.870849609375,6.176025390625
0.005,-5.715576171875,0.090087890625,5.375244140625
0.0055,-5.435302734375,1.251220703125,4.174072265625
0.006,-5.195068359375,2.692626953125,2.772705078125
0.0065,-5.155029296875,3.933837890625,1.731689453125
0.007,-4.994873046875,4.654541015625,1.010986328125
0.0075,-4.474365234375,5.014892578125,0.290283203125
0.008,-3.473388671875,5.175048828125,-0.910888671875
0.0085,-2.192138671875,5.335205078125,-2.272216796875
0.009,-0.990966796875,5.575439453125,-3.753662109375
0.0095,-0.270263671875,5.895751953125,-4.834716796875
0.01,0.490478515625,6.055908203125,-5.555419921875
0.0105,1.411376953125,5.415283203125,-5.995849609375
0.011,2.692626953125,4.174072265625,-6.236083984375
0.0115,3.973876953125,2.692626953125,-6.356201171875
0.012,4.974853515625,1.531494140625,-6.436279296875
0.0125,5.375244140625,0.850830078125,-6.476318359375
0.013,5.375244140625,0.250244140625,-6.115966796875
0.0135,5.135009765625,-0.790771484375,-5.275146484375
0.014,4.894775390625,-1.991943359375,-4.073974609375
0.0145,4.774658203125,-3.473388671875,-2.752685546875
0.015,4.734619140625,-4.514404296875,-1.871826171875
0.0155,4.614501953125,-5.195068359375,-1.191162109375
0.016,3.973876953125,-5.555419921875,-0.390380859375
0.0165,2.892822265625,-5.755615234375,0.890869140625
0.017,1.571533203125,-5.955810546875,2.292236328125
0.0175,0.570556640625,-6.356201171875,3.693603515625
0.018,0.010009765625,-6.636474609375,4.614501953125
0.0185,-0.830810546875,-6.556396484375,5.295166015625
0.019,-1.911865234375,-5.755615234375,5.695556640625
0.0195,-3.113037109375,-4.554443359375,5.895751953125
0.02,-4.394287109375,-3.193115234375,6.055908203125
0.0205,-5.195068359375,-2.192138671875,6.216064453125
0.021,-5.515380859375,-1.551513671875,6.216064453125
0.0215,-5.475341796875,-0.910888671875,5.775634765625
0.022,-5.275146484375,0.170166015625,4.814697265625
0.0225,-5.114990234375,1.411376953125,3.693603515625
0.023,-5.074951171875,2.812744140625,2.532470703125
0.0235,-5.074951171875,3.733642578125,1.771728515625
0.024,-4.834716796875,4.334228515625,1.131103515625
0.0245,-4.154052734375,4.614501953125,0.250244140625
0.025,-3.153076171875,4.934814453125,-1.031005859375
0.0255,-1.911865234375,5.175048828125,-2.512451171875
0.026,-1.111083984375,5.615478515625,-3.713623046875
0.0265,-0.470458984375,5.935791015625,-4.674560546875
0.027,0.410400390625,5.735595703125,-5.275146484375
0.0275,1.571533203125,4.814697265625,-5.635498046875
0.028,2.812744140625,3.613525390625,-5.835693359375
0.0285,4.053955078125,2.292236328125,-6.115966796875
0.029,4.734619140625,1.571533203125,-6.276123046875
0.0295,4.974853515625,1.010986328125,-6.276123046875
0.03,4.934814453125,0.250244140625,-5.715576171875
0.0305,4.774658203125,-0.910888671875,-4.794677734375
0.031,4.654541015625,-2.232177734375,-3.553466796875
0.0315,4.694580078125,-3.513427734375,-2.592529296875
0.032,4.694580078125,-4.354248046875,-1.951904296875
0.0325,4.414306640625,-4.914794921875,-1.271240234375
0.033,3.573486328125,-5.275146484375,-0.310302734375
0.0335,2.532470703125,-5.595458984375,1.131103515625
0.034,1.411376953125,-5.915771484375,2.532470703125
0.0345,0.730712890625,-6.356201171875,3.693603515625
0.035,0.050048828125,-6.556396484375,4.534423828125
0.0355,-0.950927734375,-6.196044921875,5.094970703125
0.036,-2.152099609375,-5.195068359375,5.455322265625
0.0365,-3.393310546875,-3.913818359375,5.735595703125
0.037,-4.514404296875,-2.832763671875,6.015869140625
0.0375,-5.114990234375,-2.152099609375,6.135986328125
0.038,-5.235107421875,-1.551513671875,5.975830078125
0.0385,-5.155029296875,-0.670654296875,5.295166015625
0.039,-5.074951171875,0.530517578125,4.334228515625
0.0395,-5.074951171875,1.931884765625,3.173095703125
0.04,-5.114990234375,3.052978515625,2.292236328125
0.0405,-5.034912109375,3.813720703125,1.651611328125
0.041,-4.554443359375,4.294189453125,0.930908203125
0.0415,-3.713623046875,4.614501953125,-0.350341796875
0.042,-2.552490234375,5.014892578125,-1.751708984375
0.0425,-1.591552734375,5.455322265625,-3.113037109375
0.043,-0.910888671875,5.895751953125,-4.154052734375
0.0435,-0.150146484375,5.895751953125,-4.954833984375
0.044,1.010986328125,5.175048828125,-5.435302734375
0.0445,2.292236328125,4.093994140625,-5.755615234375
0.045,3.653564453125,2.732666015625,-5.995849609375
0.0455,4.534423828125,1.771728515625,-6.236083984375
0.046,4.974853515625,1.171142578125,-6.316162109375
0.0465,4.974853515625,0.490478515625,-5.915771484375
0.047,4.814697265625,-0.630615234375,-5.074951171875
0.0475,4.694580078125,-1.951904296875,-3.873779296875
0.048,4.734619140625,-3.353271484375,-2.752685546875
0.0485,4.774658203125,-4.354248046875,-1.951904296875
0.049,4.494384765625,-4.994873046875,-1.311279296875
0.0495,3.773681640625,-5.315185546875,-0.430419921875
0.05,2.692626953125,-5.595458984375,0.970947265625
0.0505,1.531494140625,-5.915771484375,2.492431640625
0.051,0.690673828125,-6.316162109375,3.693603515625
0.0515,0.050048828125,-6.596435546875,4.614501953125
0.052,-0.910888671875,-6.276123046875,5.215087890625
0.0525,-2.112060546875,-5.315185546875,5.575439453125
0.053,-3.393310546875,-4.033935546875,5.775634765625
0.0535,-4.594482421875,-2.712646484375,5.975830078125
0.054,-5.195068359375,-1.991943359375,6.135986328125
0.0545,-5.435302734375,-1.351318359375,6.015869140625
0.055,-5.275146484375,-0.590576171875,5.335205078125
0.0555,-5.114990234375,0.610595703125,4.334228515625
0.056,-5.034912109375,1.971923828125,3.133056640625
0.0565,-5.034912109375,3.173095703125,2.092041015625
0.057,-4.994873046875,4.013916015625,1.451416015625
0.0575,-4.594482421875,4.494384765625,0.690673828125
0.058,-3.673583984375,4.734619140625,-0.390380859375
0.0585,-2.552490234375,5.094970703125,-1.751708984375
0.059,-1.431396484375,5.415283203125,-3.193115234375
0.0595,-0.710693359375,5.815673828125,-4.314208984375
0.06,0.050048828125,5.935791015625,-5.114990234375
0.0605,1.010986328125,5.415283203125,-5.635498046875
0.061,2.332275390625,4.214111328125,-5.915771484375
0.0615,3.653564453125,2.852783203125,-6.115966796875
0.062,4.694580078125,1.651611328125,-6.276123046875
0.0625,5.135009765625,1.010986328125,-6.396240234375
0.063,5.175048828125,0.370361328125,-6.115966796875
0.0635,4.974853515625,-0.630615234375,-5.195068359375
0.064,4.814697265625,-1.871826171875,-4.073974609375
0.0645,4.734619140625,-3.393310546875,-2.792724609375
0.065,4.734619140625,-4.474365234375,-1.911865234375
0.0655,4.534423828125,-5.195068359375,-1.231201171875
0.066,3.973876953125,-5.475341796875,-0.430419921875
0.0665,2.852783203125,-5.715576171875,0.970947265625
0.067,1.571533203125,-5.955810546875,2.412353515625
0.0675,0.570556640625,-6.356201171875,3.813720703125
0.068,-0.150146484375,-6.676513671875,4.774658203125
0.0685,-0.990966796875,-6.476318359375,5.415283203125
0.069,-2.112060546875,-5.595458984375,5.775634765625
0.0695,-3.393310546875,-4.314208984375,6.055908203125
0.07,-4.674560546875,-2.872802734375,6.176025390625
0.0705,-5.475341796875,-1.951904296875,6.336181640625
0.071,-5.755615234375,-1.271240234375,6.216064453125
0.0715,-5.635498046875,-0.510498046875,5.695556640625
0.072,-5.395263671875,0.690673828125,4.574462890625
0.0725,-5.195068359375,1.971923828125,3.213134765625
0.073,-5.155029296875,3.413330078125,2.052001953125
0.0735,-5.114990234375,4.334228515625,1.251220703125
0.074,-4.674560546875,4.814697265625,0.570556640625
0.0745,-3.833740234375,5.094970703125,-0.510498046875
0.075,-2.592529296875,5.335205078125,-1.911865234375
0.0755,-1.271240234375,5.575439453125,-3.473388671875
0.076,-0.430419921875,5.935791015625,-4.634521484375
0.0765,0.330322265625,6.135986328125,-5.515380859375
0.077,1.251220703125,5.655517578125,-6.075927734375
0.0775,2.572509765625,4.374267578125,-6.356201171875
0.078,3.933837890625,2.892822265625,-6.476318359375
0.0785,5.094970703125,1.531494140625,-6.596435546875
0.079,5.615478515625,0.690673828125,-6.596435546875
0.0795,5.695556640625,0.010009765625,-6.356201171875
0.08,5.455322265625,-1.031005859375,-5.435302734375
0.0805,5.175048828125,-2.392333984375,-4.114013671875
0.081,4.974853515625,-3.873779296875,-2.552490234375
0.0815,4.854736328125,-5.114990234375,-1.551513671875
0.082,4.614501953125,-5.755615234375,-0.750732421875
0.0825,3.973876953125,-6.115966796875,0.130126953125
0.083,2.732666015625,-6.196044921875,1.411376953125
0.0835,1.251220703125,-6.396240234375,3.052978515625
0.084,0.010009765625,-6.556396484375,4.494384765625
0.0845,-0.790771484375,-6.836669921875,5.495361328125
0.085,-1.511474609375,-6.716552734375,6.176025390625
0.0855,-2.632568359375,-5.755615234375,6.536376953125
0.086,-4.033935546875,-4.234130859375,6.696533203125
0.0865,-5.315185546875,-2.632568359375,6.696533203125
0.087,-6.156005859375,-1.431396484375,6.656494140625
0.0875,-6.396240234375,-0.670654296875,6.456298828125
0.088,-6.236083984375,0.170166015625,5.815673828125
0.0885,-5.795654296875,1.291259765625,4.534423828125
0.089,-5.475341796875,2.692626953125,3.093017578125
0.0895,-5.275146484375,4.134033203125,1.611572265625
0.09,-5.114990234375,5.094970703125,0.730712890625
0.0905,-4.634521484375,5.575439453125,0.010009765625
0.091,-3.753662109375,5.695556640625,-0.990966796875
0.0915,-2.312255859375,5.735595703125,-2.432373046875
0.092,-0.830810546875,5.895751953125,-4.073974609375
0.0925,0.290283203125,6.095947265625,-5.275146484375
0.093,0.890869140625,6.256103515625,-6.115966796875
0.0935,1.731689453125,5.775634765625,-6.676513671875
0.094,3.012939453125,4.534423828125,-6.836669921875
0.0945,4.334228515625,2.972900390625,-6.916748046875
0.095,5.495361328125,1.411376953125,-6.916748046875
0.0955,6.095947265625,0.370361328125,-6.796630859375
0.096,6.135986328125,-0.390380859375,-6.556396484375
0.0965,5.895751953125,-1.271240234375,-5.755615234375
0.097,5.455322265625,-2.512451171875,-4.354248046875
0.0975,5.054931640625,-3.993896484375,-2.752685546875
0.098,4.934814453125,-5.315185546875,-1.431396484375
0.0985,4.694580078125,-6.075927734375,-0.590576171875
0.099,4.134033203125,-6.436279296875,0.250244140625
0.0995,3.012939453125,-6.476318359375,1.331298828125
0.1,1.451416015625,-6.556396484375,2.892822265625
0.1005,0.010009765625,-6.676513671875,4.494384765625
0.101,-0.910888671875,-6.916748046875,5.575439453125
0.1015,-1.591552734375,-6.916748046875,6.296142578125
0.102,-2.472412109375,-6.196044921875,6.696533203125
0.1025,-3.833740234375,-4.754638671875,6.856689453125
0.103,-5.155029296875,-3.153076171875,6.816650390625
0.1035,-6.156005859375,-1.671630859375,6.776611328125
0.104,-6.556396484375,-0.830810546875,6.696533203125
0.1045,-6.436279296875,-0.150146484375,6.216064453125
0.105,-6.115966796875,0.930908203125,5.135009765625
0.1055,-5.755615234375,2.252197265625,3.653564453125
0.106,-5.435302734375,3.813720703125,2.132080078125
0.1065,-5.275146484375,4.974853515625,1.010986328125
0.107,-4.914794921875,5.535400390625,0.290283203125
0.1075,-4.194091796875,5.775634765625,-0.630615234375
0.108,-2.872802734375,5.815673828125,-1.911865234375
0.1085,-1.351318359375,5.935791015625,-3.553466796875
0.109,0.010009765625,6.095947265625,-4.994873046875
0.1095,0.690673828125,6.296142578125,-5.915771484375
0.11,1.411376953125,6.095947265625,-6.556396484375
0.1105,2.532470703125,5.135009765625,-6.916748046875
0.111,3.893798828125,3.613525390625,-7.036865234375
0.1115,5.175048828125,1.931884765625,-6.996826171875
0.112,6.055908203125,0.690673828125,-6.916748046875
0.1125,6.256103515625,-0.190185546875,-6.756591796875
0.113,6.055908203125,-0.950927734375,-6.115966796875
0.1135,5.615478515625,-2.072021484375,-4.914794921875
0.114,5.255126953125,-3.473388671875,-3.313232421875
0.1145,5.054931640625,-4.954833984375,-1.791748046875
0.115,4.814697265625,-5.915771484375,-0.830810546875
0.1155,4.454345703125,-6.436279296875,0.010009765625
0.116,3.493408203125,-6.556396484375,0.930908203125
0.1165,1.971923828125,-6.596435546875,2.372314453125
0.117,0.410400390625,-6.676513671875,4.053955078125
0.1175,-0.710693359375,-6.876708984375,5.335205078125
0.118,-1.351318359375,-6.996826171875,6.176025390625
0.1185,-2.192138671875,-6.556396484375,6.696533203125
0.119,-3.433349609375,-5.275146484375,6.896728515625
0.1195,-4.794677734375,-3.713623046875,6.896728515625
0.12,-5.955810546875,-2.072021484375,6.856689453125
0.1205,-6.556396484375,-1.071044921875,6.736572265625
0.121,-6.596435546875,-0.350341796875,6.416259765625
0.1215,-6.356201171875,0.570556640625,5.615478515625
0.122,-5.915771484375,1.891845703125,4.174072265625
0.1225,-5.515380859375,3.373291015625,2.612548828125
0.123,-5.355224609375,4.774658203125,1.251220703125
0.1235,-5.114990234375,5.495361328125,0.450439453125
0.124,-4.514404296875,5.855712890625,-0.430419921875
0.1245,-3.353271484375,5.935791015625,-1.551513671875
0.125,-1.871826171875,6.055908203125,-3.113037109375
0.1255,-0.350341796875,6.095947265625,-4.714599609375
0.126,0.610595703125,6.296142578125,-5.795654296875
0.1265,1.251220703125,6.336181640625,-6.556396484375
0.127,2.252197265625,5.575439453125,-6.956787109375
0.1275,3.613525390625,4.093994140625,-7.116943359375
0.128,4.934814453125,2.452392578125,-7.076904296875
0.1285,5.975830078125,0.890869140625,-7.036865234375
0.129,6.336181640625,0.050048828125,-6.916748046875
0.1295,6.216064453125,-0.790771484375,-6.396240234375
0.13,5.855712890625,-1.751708984375,-5.315185546875
0.1305,5.455322265625,-3.113037109375,-3.833740234375
0.131,5.094970703125,-4.634521484375,-2.192138671875
0.1315,4.934814453125,-5.755615234375,-1.031005859375
0.132,4.574462890625,-6.396240234375,-0.310302734375
0.1325,3.813720703125,-6.596435546875,0.650634765625
0.133,2.452392578125,-6.556396484375,1.931884765625
0.1335,0.890869140625,-6.636474609375,3.533447265625
0.134,-0.510498046875,-6.716552734375,4.974853515625
0.1345,-1.191162109375,-6.916748046875,5.895751953125
0.135,-1.871826171875,-6.756591796875,6.536376953125
0.1355,-2.952880859375,-5.755615234375,6.776611328125
0.136,-4.314208984375,-4.194091796875,6.856689453125
0.1365,-5.475341796875,-2.632568359375,6.776611328125
0.137,-6.356201171875,-1.391357421875,6.696533203125
0.1375,-6.556396484375,-0.670654296875,6.496337890625
0.138,-6.316162109375,0.170166015625,5.935791015625
0.1385,-5.875732421875,1.251220703125,4.734619140625
0.139,-5.515380859375,2.612548828125,3.253173828125
0.1395,-5.275146484375,4.053955078125,1.771728515625
0.14,-5.114990234375,4.974853515625,0.890869140625
0.1405,-4.754638671875,5.495361328125,0.170166015625
0.141,-3.913818359375,5.655517578125,-0.790771484375
0.1415,-2.592529296875,5.735595703125,-2.072021484375
0.142,-1.071044921875,5.815673828125,-3.713623046875
0.1425,0.090087890625,6.055908203125,-5.034912109375
0.143,0.650634765625,6.256103515625,-5.875732421875
0.1435,1.411376953125,5.935791015625,-6.396240234375
0.144,2.612548828125,4.814697265625,-6.676513671875
0.1445,3.893798828125,3.333251953125,-6.756591796875
0.145,5.135009765625,1.771728515625,-6.756591796875
0.1455,5.775634765625,0.730712890625,-6.796630859375
0.146,5.975830078125,0.090087890625,-6.596435546875
0.1465,5.775634765625,-0.790771484375,-5.915771484375
0.147,5.415283203125,-1.911865234375,-4.674560546875
0.1475,5.094970703125,-3.353271484375,-3.153076171875
0.148,4.934814453125,-4.754638671875,-1.871826171875
0.1485,4.774658203125,-5.635498046875,-1.031005859375
0.149,4.334228515625,-6.075927734375,-0.310302734375
0.1495,3.333251953125,-6.196044921875,0.770751953125
0.15,1.971923828125,-6.356201171875,2.212158203125
0.1505,0.530517578125,-6.436279296875,3.813720703125
0.151,-0.430419921875,-6.716552734375,4.974853515625
0.1515,-1.071044921875,-6.836669921875,5.735595703125
0.152,-1.951904296875,-6.316162109375,6.216064453125
0.1525,-3.193115234375,-5.114990234375,6.416259765625
0.153,-4.434326171875,-3.553466796875,6.416259765625
0.1535,-5.595458984375,-2.232177734375,6.456298828125
0.154,-6.035888671875,-1.351318359375,6.456298828125
0.1545,-6.075927734375,-0.710693359375,6.135986328125
0.155,-5.755615234375,0.290283203125,5.295166015625
0.1555,-5.435302734375,1.451416015625,4.013916015625
0.156,-5.195068359375,2.892822265625,2.612548828125
0.1565,-5.155029296875,4.093994140625,1.571533203125
0.157,-4.954833984375,4.814697265625,0.890869140625
0.1575,-4.394287109375,5.135009765625,0.130126953125
0.158,-3.353271484375,5.255126953125,-1.031005859375
0.1585,-2.072021484375,5.455322265625,-2.472412109375
0.159,-0.870849609375,5.695556640625,-3.913818359375
0.1595,-0.150146484375,6.015869140625,-4.954833984375
0.16,0.610595703125,6.055908203125,-5.715576171875
0.1605,1.571533203125,5.295166015625,-6.115966796875
0.161,2.812744140625,4.013916015625,-6.316162109375
0.1615,4.093994140625,2.572509765625,-6.396240234375
0.162,5.054931640625,1.491455078125,-6.436279296875
0.1625,5.415283203125,0.770751953125,-6.516357421875
0.163,5.415283203125,0.130126953125,-6.115966796875
0.1635,5.135009765625,-0.870849609375,-5.235107421875
0.164,4.894775390625,-2.112060546875,-3.993896484375
0.1645,4.774658203125,-3.553466796875,-2.672607421875
0.165,4.774658203125,-4.634521484375,-1.791748046875
0.1655,4.614501953125,-5.275146484375,-1.151123046875
0.166,3.933837890625,-5.635498046875,-0.310302734375
0.1665,2.852783203125,-5.795654296875,0.970947265625
0.167,1.531494140625,-6.035888671875,2.412353515625
0.1675,0.530517578125,-6.356201171875,3.813720703125
0.168,-0.190185546875,-6.676513671875,4.774658203125
0.1685,-0.950927734375,-6.596435546875,5.415283203125
0.169,-1.991943359375,-5.755615234375,5.735595703125
0.1695,-3.233154296875,-4.514404296875,5.935791015625
0.17,-4.514404296875,-3.072998046875,6.095947265625
0.1705,-5.275146484375,-2.112060546875,6.256103515625
0.171,-5.635498046875,-1.511474609375,6.256103515625
0.1715,-5.555419921875,-0.790771484375,5.735595703125
0.172,-5.315185546875,0.290283203125,4.814697265625
0.1725,-5.114990234375,1.571533203125,3.573486328125
0.173,-5.114990234375,2.972900390625,2.412353515625
0.1735,-5.074951171875,3.893798828125,1.651611328125
0.174,-4.834716796875,4.494384765625,0.970947265625
0.1745,-4.073974609375,4.774658203125,0.090087890625
0.175,-3.032958984375,5.094970703125,-1.271240234375
0.1755,-1.751708984375,5.335205078125,-2.752685546875
0.176,-0.950927734375,5.735595703125,-3.953857421875
0.1765,-0.310302734375,5.975830078125,-4.874755859375
0.177,0.650634765625,5.655517578125,-5.475341796875
0.1775,1.771728515625,4.614501953125,-5.795654296875
0.178,3.052978515625,3.453369140625,-5.955810546875
0.1785,4.294189453125,2.172119140625,-6.156005859375
0.179,4.854736328125,1.411376953125,-6.356201171875
0.1795,5.094970703125,0.770751953125,-6.236083984375
0.18,4.974853515625,0.010009765625,-5.595458984375
0.1805,4.814697265625,-1.231201171875,-4.594482421875
0.181,4.694580078125,-2.552490234375,-3.353271484375
0.1815,4.734619140625,-3.793701171875,-2.392333984375
0.182,4.654541015625,-4.634521484375,-1.671630859375
0.1825,4.294189453125,-5.114990234375,-0.990966796875
0.183,3.413330078125,-5.395263671875,0.130126953125
0.1835,2.292236328125,-5.635498046875,1.451416015625
0.184,1.171142578125,-6.035888671875,2.852783203125
0.1845,0.490478515625,-6.436279296875,3.973876953125
0.185,-0.310302734375,-6.596435546875,4.814697265625
0.1855,-1.271240234375,-6.115966796875,5.295166015625
0.186,-2.432373046875,-4.994873046875,5.615478515625
0.1865,-3.673583984375,-3.713623046875,5.775634765625
0.187,-4.674560546875,-2.632568359375,6.015869140625
0.1875,-5.195068359375,-1.951904296875,6.135986328125
0.188,-5.315185546875,-1.311279296875,5.895751953125
