wavelength,x,y,z
0.0,5.815673828125,0.690673828125,-6.756591796875
0.0005,5.975830078125,-0.230224609375,-6.516357421875
0.001,5.695556640625,-1.151123046875,-5.595458984375
0.0015,5.295166015625,-2.392333984375,-4.314208984375
0.002,5.135009765625,-3.713623046875,-3.072998046875
0.0025,4.934814453125,-4.834716796875,-1.911865234375
0.003,4.614501953125,-5.635498046875,-0.990966796875
0.0035,4.134033203125,-6.075927734375,-0.190185546875
0.004,2.932861328125,-6.115966796875,1.010986328125
0.0045,1.651611328125,-6.276123046875,2.452392578125
0.005,0.370361328125,-6.436279296875,3.933837890625
0.0055,-0.590576171875,-6.556396484375,4.934814453125
0.006,-1.231201171875,-6.636474609375,5.695556640625
0.0065,-2.072021484375,-6.035888671875,6.055908203125
0.007,-3.393310546875,-4.714599609375,6.296142578125
0.0075,-4.634521484375,-3.513427734375,6.616455078125
0.008,-5.515380859375,-2.312255859375,6.656494140625
0.0085,-6.035888671875,-1.431396484375,6.536376953125
0.009,-6.075927734375,-0.670654296875,6.135986328125
0.0095,-5.755615234375,0.370361328125,5.094970703125
0.01,-5.555419921875,1.611572265625,4.053955078125
0.0105,-5.435302734375,2.972900390625,2.852783203125
0.011,-5.235107421875,4.013916015625,1.811767578125
0.0115,-4.994873046875,4.814697265625,0.970947265625
0.012,-4.274169921875,5.094970703125,0.090087890625
0.0125,-3.153076171875,5.175048828125,-1.231201171875
0.013,-1.951904296875,5.535400390625,-2.632568359375
0.0135,-0.790771484375,5.735595703125,-3.953857421875
0.014,0.090087890625,5.895751953125,-4.954833984375
0.0145,0.730712890625,5.895751953125,-5.635498046875
0.015,1.771728515625,5.054931640625,-5.955810546875
0.0155,3.133056640625,3.813720703125,-6.316162109375
0.016,4.294189453125,2.612548828125,-6.596435546875
0.0165,5.054931640625,1.531494140625,-6.596435546875
0.017,5.455322265625,0.690673828125,-6.556396484375
0.0175,5.415283203125,-0.190185546875,-6.035888671875
0.018,5.094970703125,-1.231201171875,-4.954833984375
0.0185,5.054931640625,-2.432373046875,-3.873779296875
0.019,4.934814453125,-3.713623046875,-2.752685546875
0.0195,4.774658203125,-4.674560546875,-1.791748046875
0.02,4.494384765625,-5.315185546875,-1.031005859375
0.0205,3.613525390625,-5.555419921875,0.010009765625
0.021,2.492431640625,-5.755615234375,1.251220703125
0.0215,1.331298828125,-6.115966796875,2.692626953125
0.022,0.330322265625,-6.276123046875,3.853759765625
0.0225,-0.430419921875,-6.436279296875,4.774658203125
0.023,-1.151123046875,-6.276123046875,5.375244140625
0.0235,-2.272216796875,-5.275146484375,5.655517578125
0.024,-3.553466796875,-4.194091796875,6.095947265625
0.0245,-4.594482421875,-3.113037109375,6.256103515625
0.025,-5.275146484375,-2.152099609375,6.296142578125
0.0255,-5.635498046875,-1.431396484375,6.216064453125
0.026,-5.475341796875,-0.590576171875,5.495361328125
0.0265,-5.275146484375,0.610595703125,4.494384765625
0.027,-5.235107421875,1.771728515625,3.533447265625
0.0275,-5.155029296875,2.972900390625,2.532470703125
0.028,-4.994873046875,3.853759765625,1.651611328125
0.0285,-4.634521484375,4.454345703125,0.890869140625
0.029,-3.713623046875,4.654541015625,-0.190185546875
0.0295,-2.712646484375,4.974853515625,-1.431396484375
0.03,-1.631591796875,5.335205078125,-2.832763671875
0.0305,-0.790771484375,5.575439453125,-3.913818359375
0.031,-0.190185546875,5.775634765625,-4.794677734375
0.0315,0.770751953125,5.415283203125,-5.315185546875
0.032,1.971923828125,4.374267578125,-5.635498046875
0.0325,3.213134765625,3.333251953125,-6.115966796875
0.033,4.174072265625,2.252197265625,-6.276123046875
0.0335,4.814697265625,1.411376953125,-6.396240234375
0.034,5.054931640625,0.690673828125,-6.115966796875
0.0345,4.934814453125,-0.270263671875,-5.395263671875
0.035,4.814697265625,-1.351318359375,-4.514404296875
0.0355,4.814697265625,-2.592529296875,-3.513427734375
0.036,4.774658203125,-3.713623046875,-2.552490234375
0.0365,4.614501953125,-4.554443359375,-1.791748046875
0.037,4.093994140625,-4.994873046875,-0.950927734375
0.0375,3.133056640625,-5.275146484375,0.290283203125
0.038,2.172119140625,-5.635498046875,1.571533203125
0.0385,1.131103515625,-5.955810546875,2.852783203125
0.039,0.370361328125,-6.196044921875,3.853759765625
0.0395,-0.390380859375,-6.356201171875,4.654541015625
0.04,-1.311279296875,-5.715576171875,5.094970703125
0.0405,-2.552490234375,-4.794677734375,5.495361328125
0.041,-3.713623046875,-3.753662109375,5.895751953125
0.0415,-4.634521484375,-2.752685546875,6.015869140625
0.042,-5.114990234375,-1.991943359375,6.095947265625
0.0425,-5.195068359375,-1.231201171875,5.735595703125
0.043,-5.074951171875,-0.310302734375,4.854736328125
0.0435,-5.074951171875,0.850830078125,4.093994140625
0.044,-5.074951171875,2.052001953125,3.093017578125
0.0445,-4.994873046875,3.093017578125,2.252197265625
0.045,-4.834716796875,3.853759765625,1.531494140625
0.0455,-4.194091796875,4.214111328125,0.650634765625
0.046,-3.233154296875,4.494384765625,-0.590576171875
0.0465,-2.352294921875,4.974853515625,-1.871826171875
0.047,-1.431396484375,5.255126953125,-3.032958984375
0.0475,-0.790771484375,5.615478515625,-4.033935546875
0.048,0.050048828125,5.535400390625,-4.754638671875
0.0485,1.131103515625,4.774658203125,-5.114990234375
0.049,2.332275390625,3.853759765625,-5.635498046875
0.0495,3.413330078125,2.812744140625,-5.955810546875
0.05,4.214111328125,1.971923828125,-6.115966796875
0.0505,4.694580078125,1.291259765625,-6.115966796875
0.051,4.734619140625,0.490478515625,-5.635498046875
0.0515,4.614501953125,-0.630615234375,-4.834716796875
0.052,4.734619140625,-1.751708984375,-4.033935546875
0.0525,4.694580078125,-2.872802734375,-3.153076171875
0.053,4.614501953125,-3.833740234375,-2.312255859375
0.0535,4.414306640625,-4.514404296875,-1.591552734375
0.054,3.613525390625,-4.834716796875,-0.590576171875
0.0545,2.772705078125,-5.275146484375,0.690673828125
0.055,1.771728515625,-5.715576171875,2.052001953125
0.0555,0.970947265625,-6.035888671875,3.173095703125
0.056,0.290283203125,-6.316162109375,4.093994140625
0.0565,-0.630615234375,-6.075927734375,4.694580078125
0.057,-1.791748046875,-5.195068359375,5.094970703125
0.0575,-3.072998046875,-4.354248046875,5.615478515625
0.058,-4.033935546875,-3.233154296875,5.895751953125
0.0585,-4.794677734375,-2.432373046875,6.055908203125
0.059,-5.074951171875,-1.711669921875,5.895751953125
0.0595,-4.994873046875,-0.830810546875,5.215087890625
0.06,-4.994873046875,0.290283203125,4.454345703125
0.0605,-5.074951171875,1.531494140625,3.533447265625
0.061,-5.074951171875,2.612548828125,2.652587890625
0.0615,-4.994873046875,3.533447265625,1.891845703125
0.062,-4.514404296875,4.013916015625,1.091064453125
0.0625,-3.593505859375,4.334228515625,0.010009765625
0.063,-2.712646484375,4.814697265625,-1.391357421875
0.0635,-1.791748046875,5.175048828125,-2.672607421875
0.064,-0.990966796875,5.495361328125,-3.753662109375
0.0645,-0.310302734375,5.615478515625,-4.594482421875
0.065,0.770751953125,5.014892578125,-5.074951171875
0.0655,2.011962890625,4.013916015625,-5.515380859375
0.066,3.253173828125,3.093017578125,-5.955810546875
0.0665,4.134033203125,2.092041015625,-6.115966796875
0.067,4.734619140625,1.331298828125,-6.236083984375
0.0675,4.814697265625,0.610595703125,-5.795654296875
0.068,4.654541015625,-0.510498046875,-4.994873046875
0.0685,4.694580078125,-1.631591796875,-4.154052734375
0.069,4.734619140625,-2.872802734375,-3.193115234375
0.0695,4.654541015625,-3.873779296875,-2.272216796875
0.07,4.494384765625,-4.634521484375,-1.551513671875
0.0705,3.773681640625,-4.954833984375,-0.630615234375
0.071,2.772705078125,-5.235107421875,0.610595703125
0.0715,1.771728515625,-5.715576171875,2.011962890625
0.072,0.890869140625,-5.995849609375,3.213134765625
0.0725,0.170166015625,-6.356201171875,4.134033203125
0.073,-0.670654296875,-6.236083984375,4.814697265625
0.0735,-1.791748046875,-5.355224609375,5.175048828125
0.074,-3.072998046875,-4.314208984375,5.695556640625
0.0745,-4.154052734375,-3.233154296875,6.015869140625
0.075,-4.914794921875,-2.312255859375,6.095947265625
0.0755,-5.275146484375,-1.591552734375,6.055908203125
0.076,-5.195068359375,-0.790771484375,5.415283203125
0.0765,-5.074951171875,0.370361328125,4.494384765625
0.077,-5.114990234375,1.571533203125,3.533447265625
0.0775,-5.074951171875,2.772705078125,2.572509765625
0.078,-4.994873046875,3.693603515625,1.771728515625
0.0785,-4.594482421875,4.254150390625,0.970947265625
0.079,-3.713623046875,4.494384765625,0.010009765625
0.0795,-2.712646484375,4.854736328125,-1.351318359375
0.08,-1.711669921875,5.255126953125,-2.752685546875
0.0805,-0.830810546875,5.415283203125,-3.873779296875
0.081,-0.230224609375,5.735595703125,-4.794677734375
0.0815,0.730712890625,5.255126953125,-5.275146484375
0.082,2.052001953125,4.254150390625,-5.635498046875
0.0825,3.293212890625,3.173095703125,-6.115966796875
0.083,4.294189453125,2.132080078125,-6.276123046875
0.0835,4.894775390625,1.291259765625,-6.356201171875
0.084,5.094970703125,0.570556640625,-6.075927734375
0.0845,4.934814453125,-0.510498046875,-5.275146484375
0.085,4.814697265625,-1.631591796875,-4.274169921875
0.0855,4.814697265625,-2.912841796875,-3.233154296875
0.086,4.734619140625,-3.993896484375,-2.272216796875
0.0865,4.614501953125,-4.874755859375,-1.471435546875
0.087,3.973876953125,-5.195068359375,-0.630615234375
0.0875,2.892822265625,-5.435302734375,0.610595703125
0.088,1.851806640625,-5.795654296875,2.052001953125
0.0885,0.770751953125,-6.115966796875,3.333251953125
0.089,0.010009765625,-6.396240234375,4.334228515625
0.0895,-0.790771484375,-6.436279296875,5.094970703125
0.09,-1.791748046875,-5.635498046875,5.495361328125
0.0905,-3.153076171875,-4.434326171875,5.895751953125
0.091,-4.354248046875,-3.313232421875,6.216064453125
0.0915,-5.155029296875,-2.272216796875,6.296142578125
0.092,-5.635498046875,-1.471435546875,6.256103515625
0.0925,-5.595458984375,-0.670654296875,5.735595703125
0.093,-5.315185546875,0.490478515625,4.654541015625
0.0935,-5.275146484375,1.771728515625,3.653564453125
0.094,-5.235107421875,3.052978515625,2.532470703125
0.0945,-5.114990234375,4.013916015625,1.571533203125
0.095,-4.794677734375,4.694580078125,0.810791015625
0.0955,-3.913818359375,4.934814453125,-0.230224609375
0.096,-2.712646484375,5.094970703125,-1.591552734375
0.0965,-1.591552734375,5.495361328125,-3.072998046875
0.097,-0.590576171875,5.655517578125,-4.314208984375
0.0975,0.170166015625,5.895751953125,-5.235107421875
0.098,1.010986328125,5.615478515625,-5.755615234375
0.0985,2.332275390625,4.494384765625,-6.115966796875
0.099,3.693603515625,3.213134765625,-6.476318359375
0.0995,4.814697265625,1.971923828125,-6.676513671875
0.1,5.415283203125,0.970947265625,-6.636474609375
0.1005,5.655517578125,0.210205078125,-6.436279296875
0.101,5.415283203125,-0.830810546875,-5.555419921875
0.1015,5.175048828125,-2.112060546875,-4.274169921875
0.102,5.094970703125,-3.553466796875,-3.072998046875
0.1025,4.974853515625,-4.674560546875,-1.951904296875
0.103,4.654541015625,-5.475341796875,-1.071044921875
0.1035,4.093994140625,-5.915771484375,-0.230224609375
0.104,2.852783203125,-6.035888671875,1.051025390625
0.1045,1.531494140625,-6.276123046875,2.572509765625
0.105,0.290283203125,-6.516357421875,4.093994140625
0.1055,-0.630615234375,-6.596435546875,5.094970703125
0.106,-1.271240234375,-6.636474609375,5.815673828125
0.1065,-2.272216796875,-5.835693359375,6.176025390625
0.107,-3.753662109375,-4.434326171875,6.456298828125
0.1075,-4.994873046875,-3.113037109375,6.736572265625
0.108,-5.835693359375,-1.951904296875,6.696533203125
0.1085,-6.236083984375,-1.031005859375,6.536376953125
0.109,-6.196044921875,-0.190185546875,6.055908203125
0.1095,-5.795654296875,0.970947265625,4.854736328125
0.11,-5.595458984375,2.292236328125,3.533447265625
0.1105,-5.435302734375,3.693603515625,2.252197265625
0.111,-5.155029296875,4.614501953125,1.251220703125
0.1115,-4.834716796875,5.295166015625,0.410400390625
0.112,-3.953857421875,5.495361328125,-0.590576171875
0.1125,-2.592529296875,5.495361328125,-1.951904296875
0.113,-1.271240234375,5.735595703125,-3.513427734375
0.1135,-0.150146484375,5.855712890625,-4.834716796875
0.114,0.650634765625,6.015869140625,-5.635498046875
0.1145,1.331298828125,5.855712890625,-6.276123046875
0.115,2.492431640625,4.774658203125,-6.476318359375
0.1155,3.893798828125,3.333251953125,-6.756591796875
0.116,5.094970703125,2.011962890625,-6.956787109375
0.1165,5.735595703125,0.930908203125,-6.876708984375
0.117,6.055908203125,0.090087890625,-6.676513671875
0.1175,5.815673828125,-0.870849609375,-5.915771484375
0.118,5.415283203125,-2.072021484375,-4.634521484375
0.1185,5.255126953125,-3.473388671875,-3.353271484375
0.119,5.094970703125,-4.754638671875,-2.112060546875
0.1195,4.814697265625,-5.635498046875,-1.111083984375
0.12,4.334228515625,-6.156005859375,-0.310302734375
0.1205,3.253173828125,-6.276123046875,0.810791015625
0.121,1.891845703125,-6.396240234375,2.252197265625
0.1215,0.490478515625,-6.596435546875,3.853759765625
0.122,-0.590576171875,-6.636474609375,4.974853515625
0.1225,-1.271240234375,-6.716552734375,5.855712890625
0.123,-2.031982421875,-6.316162109375,6.296142578125
0.1235,-3.353271484375,-4.994873046875,6.536376953125
0.124,-4.714599609375,-3.633544921875,6.776611328125
0.1245,-5.755615234375,-2.352294921875,6.896728515625
0.125,-6.276123046875,-1.311279296875,6.696533203125
0.1255,-6.396240234375,-0.510498046875,6.416259765625
0.126,-6.115966796875,0.530517578125,5.415283203125
0.1265,-5.755615234375,1.811767578125,4.093994140625
0.127,-5.595458984375,3.213134765625,2.772705078125
0.1275,-5.355224609375,4.374267578125,1.611572265625
0.128,-5.074951171875,5.135009765625,0.690673828125
0.1285,-4.434326171875,5.495361328125,-0.230224609375
0.129,-3.193115234375,5.535400390625,-1.351318359375
0.1295,-1.871826171875,5.735595703125,-2.912841796875
0.13,-0.590576171875,5.935791015625,-4.394287109375
0.1305,0.450439453125,6.055908203125,-5.435302734375
0.131,1.091064453125,6.095947265625,-6.156005859375
0.1315,2.011962890625,5.295166015625,-6.476318359375
0.132,3.453369140625,3.853759765625,-6.716552734375
0.1325,4.734619140625,2.532470703125,-6.996826171875
0.133,5.575439453125,1.331298828125,-6.996826171875
0.1335,6.015869140625,0.370361328125,-6.796630859375
0.134,6.015869140625,-0.510498046875,-6.316162109375
0.1345,5.615478515625,-1.591552734375,-5.155029296875
0.135,5.375244140625,-2.952880859375,-3.873779296875
0.1355,5.215087890625,-4.354248046875,-2.552490234375
0.136,4.934814453125,-5.395263671875,-1.431396484375
0.1365,4.614501953125,-6.115966796875,-0.590576171875
0.137,3.733642578125,-6.316162109375,0.450439453125
0.1375,2.372314453125,-6.396240234375,1.771728515625
0.138,0.970947265625,-6.556396484375,3.373291015625
0.1385,-0.310302734375,-6.676513671875,4.734619140625
0.139,-1.111083984375,-6.756591796875,5.615478515625
0.1395,-1.751708984375,-6.596435546875,6.256103515625
0.14,-2.872802734375,-5.515380859375,6.496337890625
0.1405,-4.354248046875,-4.033935546875,6.776611328125
0.141,-5.515380859375,-2.752685546875,6.976806640625
0.1415,-6.196044921875,-1.591552734375,6.816650390625
0.142,-6.476318359375,-0.750732421875,6.616455078125
0.1425,-6.276123046875,0.250244140625,5.855712890625
0.143,-5.875732421875,1.451416015625,4.534423828125
0.1435,-5.715576171875,2.852783203125,3.253173828125
0.144,-5.475341796875,4.134033203125,1.931884765625
0.1445,-5.155029296875,5.014892578125,0.970947265625
0.145,-4.674560546875,5.495361328125,0.130126953125
0.1455,-3.673583984375,5.575439453125,-0.990966796875
0.146,-2.192138671875,5.735595703125,-2.472412109375
0.1465,-0.910888671875,5.935791015625,-3.993896484375
0.147,0.290283203125,5.975830078125,-5.155029296875
0.1475,0.930908203125,6.095947265625,-5.955810546875
0.148,1.651611328125,5.655517578125,-6.396240234375
0.1485,2.932861328125,4.334228515625,-6.596435546875
0.149,4.334228515625,2.972900390625,-6.916748046875
0.1495,5.335205078125,1.731689453125,-6.996826171875
0.15,5.855712890625,0.650634765625,-6.796630859375
0.1505,6.015869140625,-0.190185546875,-6.556396484375
0.151,5.695556640625,-1.111083984375,-5.635498046875
0.1515,5.335205078125,-2.392333984375,-4.314208984375
0.152,5.175048828125,-3.713623046875,-3.072998046875
0.1525,4.934814453125,-4.914794921875,-1.871826171875
0.153,4.614501953125,-5.715576171875,-0.990966796875
0.1535,4.053955078125,-6.115966796875,-0.150146484375
0.154,2.932861328125,-6.115966796875,1.051025390625
0.1545,1.611572265625,-6.316162109375,2.532470703125
0.155,0.330322265625,-6.476318359375,3.973876953125
0.1555,-0.630615234375,-6.516357421875,4.974853515625
0.156,-1.271240234375,-6.636474609375,5.735595703125
0.1565,-2.112060546875,-5.955810546875,6.095947265625
0.157,-3.473388671875,-4.674560546875,6.376220703125
0.1575,-4.674560546875,-3.473388671875,6.616455078125
0.158,-5.595458984375,-2.272216796875,6.656494140625
0.1585,-6.035888671875,-1.351318359375,6.536376953125
0.159,-6.115966796875,-0.630615234375,6.135986328125
0.1595,-5.755615234375,0.490478515625,5.094970703125
0.16,-5.595458984375,1.691650390625,3.973876953125
0.1605,-5.435302734375,3.012939453125,2.772705078125
0.161,-5.235107421875,4.053955078125,1.731689453125
0.1615,-4.994873046875,4.814697265625,0.850830078125
0.162,-4.234130859375,5.175048828125,0.010009765625
0.1625,-3.072998046875,5.255126953125,-1.271240234375
0.163,-1.911865234375,5.615478515625,-2.752685546875
0.1635,-0.670654296875,5.735595703125,-4.114013671875
0.164,0.170166015625,5.935791015625,-5.074951171875
0.1645,0.850830078125,5.895751953125,-5.795654296875
0.165,1.891845703125,5.054931640625,-6.115966796875
0.1655,3.253173828125,3.773681640625,-6.436279296875
0.166,4.454345703125,2.572509765625,-6.716552734375
0.1665,5.215087890625,1.451416015625,-6.716552734375
0.167,5.655517578125,0.610595703125,-6.636474609375
0.1675,5.575439453125,-0.310302734375,-6.035888671875
0.168,5.255126953125,-1.391357421875,-4.914794921875
0.1685,5.135009765625,-2.712646484375,-3.793701171875
0.169,5.014892578125,-3.993896484375,-2.592529296875
0.1695,4.814697265625,-4.994873046875,-1.631591796875
0.17,4.494384765625,-5.635498046875,-0.790771484375
0.1705,3.533447265625,-5.755615234375,0.290283203125
0.171,2.372314453125,-5.915771484375,1.571533203125
0.1715,1.091064453125,-6.236083984375,3.052978515625
0.172,0.090087890625,-6.356201171875,4.174072265625
0.1725,-0.670654296875,-6.516357421875,5.094970703125
0.173,-1.431396484375,-6.276123046875,5.655517578125
0.1735,-2.592529296875,-5.155029296875,5.895751953125
0.174,-3.873779296875,-4.033935546875,6.256103515625
0.1745,-4.914794921875,-2.832763671875,6.416259765625
0.175,-5.555419921875,-1.831787109375,6.376220703125
0.1755,-5.795654296875,-1.151123046875,6.256103515625
0.176,-5.595458984375,-0.270263671875,5.415283203125
0.1765,-5.315185546875,0.890869140625,4.414306640625
0.177,-5.275146484375,2.172119140625,3.293212890625
0.1775,-5.155029296875,3.253173828125,2.212158203125
0.178,-4.954833984375,4.174072265625,1.411376953125
0.1785,-4.514404296875,4.734619140625,0.610595703125
0.179,-3.553466796875,4.854736328125,-0.510498046875
0.1795,-2.472412109375,5.094970703125,-1.791748046875
0.18,-1.391357421875,5.415283203125,-3.153076171875
0.1805,-0.510498046875,5.615478515625,-4.194091796875
0.181,0.210205078125,5.775634765625,-5.074951171875
0.1815,1.051025390625,5.295166015625,-5.475341796875
0.182,2.252197265625,4.294189453125,-5.795654296875
0.1825,3.453369140625,3.213134765625,-6.196044921875
0.183,4.414306640625,2.172119140625,-6.356201171875
0.1835,4.974853515625,1.291259765625,-6.396240234375
0.184,5.175048828125,0.570556640625,-6.156005859375
0.1845,4.974853515625,-0.510498046875,-5.355224609375
0.185,4.854736328125,-1.551513671875,-4.434326171875
0.1855,4.814697265625,-2.792724609375,-3.473388671875
0.186,4.734619140625,-3.833740234375,-2.432373046875
0.1865,4.614501953125,-4.674560546875,-1.671630859375
0.187,4.053955078125,-5.114990234375,-0.790771484375
0.1875,3.093017578125,-5.355224609375,0.370361328125
0.188,2.092041015625,-5.755615234375,1.651611328125
