wavelength,x,y,z
0.0,2.852783203125,-4.114013671875,0.970947265625
0.0005,3.333251953125,-4.154052734375,0.490478515625
0.001,3.453369140625,-3.353271484375,-0.390380859375
0.0015,3.773681640625,-3.072998046875,-1.151123046875
0.002,3.853759765625,-2.152099609375,-2.072021484375
0.0025,3.933837890625,-1.591552734375,-2.712646484375
0.003,3.533447265625,-0.830810546875,-3.072998046875
0.0035,3.493408203125,-0.390380859375,-3.513427734375
0.004,2.852783203125,0.570556640625,-3.793701171875
0.0045,2.412353515625,1.291259765625,-4.033935546875
0.005,1.651611328125,2.212158203125,-4.234130859375
0.0055,0.850830078125,2.612548828125,-3.833740234375
0.006,0.210205078125,3.173095703125,-3.753662109375
0.0065,-0.630615234375,3.373291015625,-3.193115234375
0.007,-1.431396484375,3.653564453125,-2.672607421875
0.0075,-2.232177734375,3.813720703125,-2.072021484375
0.008,-2.872802734375,3.853759765625,-1.511474609375
0.0085,-3.072998046875,3.333251953125,-0.830810546875
0.009,-3.513427734375,3.333251953125,-0.350341796875
0.0095,-3.553466796875,2.412353515625,0.610595703125
0.01,-3.873779296875,2.132080078125,1.331298828125
0.0105,-3.993896484375,1.291259765625,2.292236328125
0.011,-3.833740234375,0.730712890625,2.692626953125
0.0115,-3.553466796875,0.090087890625,3.133056640625
0.012,-3.273193359375,-0.510498046875,3.373291015625
0.0125,-2.752685546875,-1.351318359375,3.693603515625
0.013,-2.192138671875,-2.072021484375,3.853759765625
0.0135,-1.551513671875,-2.832763671875,3.973876953125
0.014,-0.710693359375,-3.153076171875,3.533447265625
0.0145,-0.190185546875,-3.713623046875,3.533447265625
0.015,0.690673828125,-3.833740234375,2.812744140625
0.0155,1.331298828125,-4.154052734375,2.532470703125
0.016,2.132080078125,-4.274169921875,1.851806640625
0.0165,2.572509765625,-4.274169921875,1.371337890625
0.017,2.892822265625,-3.913818359375,0.770751953125
0.0175,3.213134765625,-3.793701171875,0.210205078125
0.018,3.413330078125,-2.992919921875,-0.750732421875
0.0185,3.693603515625,-2.592529296875,-1.431396484375
0.019,3.853759765625,-1.871826171875,-2.312255859375
0.0195,3.533447265625,-1.271240234375,-2.632568359375
0.02,3.533447265625,-0.710693359375,-3.193115234375
0.0205,3.052978515625,0.010009765625,-3.473388671875
0.021,2.692626953125,0.770751953125,-3.833740234375
0.0215,1.971923828125,1.571533203125,-3.913818359375
0.022,1.411376953125,2.212158203125,-3.993896484375
0.0225,0.570556640625,2.612548828125,-3.553466796875
0.023,0.010009765625,3.173095703125,-3.553466796875
0.0235,-0.990966796875,3.253173828125,-2.792724609375
0.024,-1.591552734375,3.613525390625,-2.512451171875
0.0245,-2.312255859375,3.693603515625,-1.871826171875
0.025,-2.672607421875,3.493408203125,-1.311279296875
0.0255,-3.072998046875,3.293212890625,-0.790771484375
0.026,-3.273193359375,2.852783203125,0.010009765625
0.0265,-3.553466796875,2.332275390625,0.810791015625
0.027,-3.753662109375,1.771728515625,1.571533203125
0.0275,-3.873779296875,1.251220703125,2.252197265625
0.028,-3.513427734375,0.570556640625,2.572509765625
0.0285,-3.553466796875,0.090087890625,3.052978515625
0.029,-2.912841796875,-0.790771484375,3.293212890625
0.0295,-2.592529296875,-1.471435546875,3.653564453125
0.03,-1.871826171875,-2.272216796875,3.733642578125
0.0305,-1.271240234375,-2.752685546875,3.653564453125
0.031,-0.590576171875,-3.193115234375,3.333251953125
0.0315,0.050048828125,-3.553466796875,3.173095703125
0.032,0.890869140625,-3.793701171875,2.572509765625
0.0325,1.531494140625,-4.114013671875,2.252197265625
0.033,2.172119140625,-4.234130859375,1.731689453125
0.0335,2.412353515625,-3.913818359375,1.171142578125
0.034,2.892822265625,-3.833740234375,0.690673828125
0.0345,3.052978515625,-3.193115234375,-0.230224609375
0.035,3.453369140625,-2.872802734375,-0.910888671875
0.0355,3.573486328125,-2.192138671875,-1.751708984375
0.036,3.653564453125,-1.751708984375,-2.232177734375
0.0365,3.333251953125,-1.071044921875,-2.632568359375
0.037,3.333251953125,-0.630615234375,-3.113037109375
0.0375,2.732666015625,0.330322265625,-3.393310546875
0.038,2.372314453125,0.970947265625,-3.713623046875
0.0385,1.691650390625,1.771728515625,-3.873779296875
0.039,1.010986328125,2.212158203125,-3.593505859375
0.0395,0.370361328125,2.692626953125,-3.513427734375
0.04,-0.390380859375,3.012939453125,-3.032958984375
0.0405,-1.111083984375,3.253173828125,-2.672607421875
0.041,-1.791748046875,3.493408203125,-2.152099609375
0.0415,-2.312255859375,3.533447265625,-1.791748046875
0.042,-2.592529296875,3.213134765625,-1.151123046875
0.0425,-3.032958984375,3.173095703125,-0.630615234375
0.043,-3.193115234375,2.452392578125,0.330322265625
0.0435,-3.553466796875,2.172119140625,1.010986328125
0.044,-3.713623046875,1.451416015625,1.851806640625
0.0445,-3.593505859375,1.010986328125,2.212158203125
0.045,-3.473388671875,0.370361328125,2.692626953125
0.0455,-3.193115234375,-0.270263671875,3.052978515625
0.046,-2.752685546875,-1.071044921875,3.373291015625
0.0465,-2.232177734375,-1.751708984375,3.573486328125
0.047,-1.631591796875,-2.432373046875,3.693603515625
0.0475,-0.950927734375,-2.832763671875,3.333251953125
0.048,-0.430419921875,-3.353271484375,3.373291015625
0.0485,0.490478515625,-3.553466796875,2.692626953125
0.049,1.131103515625,-3.913818359375,2.492431640625
0.0495,1.771728515625,-4.033935546875,1.931884765625
0.05,2.172119140625,-3.993896484375,1.571533203125
0.0505,2.492431640625,-3.713623046875,0.930908203125
0.051,2.852783203125,-3.513427734375,0.370361328125
0.0515,3.093017578125,-2.872802734375,-0.550537109375
0.052,3.373291015625,-2.552490234375,-1.231201171875
0.0525,3.533447265625,-1.951904296875,-1.951904296875
0.053,3.333251953125,-1.431396484375,-2.272216796875
0.0535,3.293212890625,-0.910888671875,-2.752685546875
0.054,2.892822265625,-0.190185546875,-3.113037109375
0.0545,2.572509765625,0.610595703125,-3.513427734375
0.055,1.971923828125,1.291259765625,-3.593505859375
0.0555,1.451416015625,1.851806640625,-3.673583984375
0.056,0.690673828125,2.252197265625,-3.353271484375
0.0565,0.170166015625,2.732666015625,-3.353271484375
0.057,-0.710693359375,2.932861328125,-2.712646484375
0.0575,-1.311279296875,3.333251953125,-2.552490234375
0.058,-1.951904296875,3.493408203125,-1.991943359375
0.0585,-2.272216796875,3.333251953125,-1.551513671875
0.059,-2.712646484375,3.173095703125,-0.990966796875
0.0595,-3.032958984375,2.732666015625,-0.190185546875
0.06,-3.353271484375,2.292236328125,0.610595703125
0.0605,-3.553466796875,1.771728515625,1.331298828125
0.061,-3.713623046875,1.331298828125,1.931884765625
0.0615,-3.393310546875,0.690673828125,2.332275390625
0.062,-3.473388671875,0.210205078125,2.852783203125
0.0625,-2.872802734375,-0.710693359375,3.173095703125
0.063,-2.552490234375,-1.431396484375,3.533447265625
0.0635,-1.871826171875,-2.112060546875,3.533447265625
0.064,-1.271240234375,-2.592529296875,3.493408203125
0.0645,-0.590576171875,-3.072998046875,3.213134765625
0.065,0.050048828125,-3.473388671875,3.012939453125
0.0655,0.890869140625,-3.713623046875,2.452392578125
0.066,1.411376953125,-3.913818359375,2.172119140625
0.0665,2.052001953125,-3.993896484375,1.691650390625
0.067,2.252197265625,-3.713623046875,1.131103515625
0.0675,2.692626953125,-3.633544921875,0.610595703125
0.068,2.932861328125,-2.952880859375,-0.310302734375
0.0685,3.293212890625,-2.672607421875,-0.990966796875
0.069,3.373291015625,-2.072021484375,-1.671630859375
0.0695,3.413330078125,-1.631591796875,-2.112060546875
0.07,3.173095703125,-1.031005859375,-2.512451171875
0.0705,3.133056640625,-0.510498046875,-2.952880859375
0.071,2.572509765625,0.370361328125,-3.313232421875
0.0715,2.212158203125,1.010986328125,-3.553466796875
0.072,1.571533203125,1.731689453125,-3.633544921875
0.0725,0.930908203125,2.092041015625,-3.473388671875
0.073,0.290283203125,2.612548828125,-3.353271484375
0.0735,-0.510498046875,2.852783203125,-2.872802734375
0.074,-1.231201171875,3.293212890625,-2.552490234375
0.0745,-1.791748046875,3.453369140625,-2.072021484375
0.075,-2.272216796875,3.493408203125,-1.671630859375
0.0755,-2.552490234375,3.133056640625,-1.031005859375
0.076,-3.072998046875,3.052978515625,-0.510498046875
0.0765,-3.233154296875,2.292236328125,0.570556640625
0.077,-3.633544921875,1.971923828125,1.251220703125
0.0775,-3.673583984375,1.291259765625,1.931884765625
0.078,-3.553466796875,0.850830078125,2.332275390625
0.0785,-3.353271484375,0.170166015625,2.812744140625
0.079,-3.032958984375,-0.550537109375,3.173095703125
0.0795,-2.552490234375,-1.391357421875,3.533447265625
0.08,-1.951904296875,-2.031982421875,3.573486328125
0.0805,-1.351318359375,-2.712646484375,3.613525390625
0.081,-0.630615234375,-3.113037109375,3.213134765625
0.0815,0.010009765625,-3.553466796875,3.173095703125
0.082,0.930908203125,-3.713623046875,2.492431640625
0.0825,1.571533203125,-4.033935546875,2.212158203125
0.083,2.092041015625,-3.993896484375,1.611572265625
0.0835,2.492431640625,-3.953857421875,1.211181640625
0.084,2.772705078125,-3.553466796875,0.530517578125
0.0845,3.133056640625,-3.233154296875,-0.230224609375
0.085,3.373291015625,-2.592529296875,-1.151123046875
0.0855,3.573486328125,-2.112060546875,-1.791748046875
0.086,3.573486328125,-1.511474609375,-2.432373046875
0.0865,3.293212890625,-0.990966796875,-2.752685546875
0.087,3.173095703125,-0.350341796875,-3.233154296875
0.0875,2.652587890625,0.570556640625,-3.553466796875
0.088,2.172119140625,1.331298828125,-3.873779296875
0.0885,1.411376953125,1.931884765625,-3.793701171875
0.089,0.810791015625,2.532470703125,-3.793701171875
0.0895,0.050048828125,2.812744140625,-3.313232421875
0.09,-0.630615234375,3.253173828125,-3.113037109375
0.0905,-1.631591796875,3.493408203125,-2.312255859375
0.091,-2.192138671875,3.653564453125,-1.951904296875
0.0915,-2.712646484375,3.573486328125,-1.351318359375
0.092,-2.992919921875,3.293212890625,-0.790771484375
0.0925,-3.313232421875,2.932861328125,-0.150146484375
0.093,-3.553466796875,2.292236328125,0.770751953125
0.0935,-3.793701171875,1.691650390625,1.651611328125
0.094,-3.713623046875,1.131103515625,2.212158203125
0.0945,-3.713623046875,0.610595703125,2.732666015625
0.095,-3.233154296875,-0.150146484375,2.932861328125
0.0955,-3.072998046875,-0.710693359375,3.373291015625
0.096,-2.392333984375,-1.591552734375,3.573486328125
0.0965,-1.911865234375,-2.312255859375,3.773681640625
0.097,-1.151123046875,-2.872802734375,3.573486328125
0.0975,-0.550537109375,-3.313232421875,3.453369140625
0.098,0.170166015625,-3.553466796875,3.052978515625
0.0985,0.850830078125,-3.833740234375,2.692626953125
0.099,1.731689453125,-4.114013671875,2.052001953125
0.0995,2.172119140625,-4.114013671875,1.651611328125
0.1,2.692626953125,-4.114013671875,1.131103515625
0.1005,2.852783203125,-3.673583984375,0.570556640625
0.101,3.253173828125,-3.473388671875,-0.150146484375
0.1015,3.453369140625,-2.672607421875,-1.111083984375
0.102,3.773681640625,-2.272216796875,-1.871826171875
0.1025,3.613525390625,-1.591552734375,-2.392333984375
0.103,3.653564453125,-1.151123046875,-2.872802734375
0.1035,3.173095703125,-0.350341796875,-3.193115234375
0.104,3.012939453125,0.330322265625,-3.673583984375
0.1045,2.252197265625,1.291259765625,-3.953857421875
0.105,1.651611328125,1.891845703125,-3.993896484375
0.1055,0.930908203125,2.572509765625,-3.873779296875
0.106,0.170166015625,2.972900390625,-3.553466796875
0.1065,-0.590576171875,3.333251953125,-3.233154296875
0.107,-1.431396484375,3.573486328125,-2.592529296875
0.1075,-2.312255859375,3.853759765625,-2.072021484375
0.108,-2.712646484375,3.653564453125,-1.431396484375
0.1085,-3.193115234375,3.693603515625,-0.950927734375
0.109,-3.353271484375,3.052978515625,-0.190185546875
0.1095,-3.713623046875,2.732666015625,0.570556640625
0.11,-3.873779296875,1.771728515625,1.651611328125
0.1105,-4.033935546875,1.251220703125,2.372314453125
0.111,-3.793701171875,0.490478515625,2.852783203125
0.1115,-3.633544921875,0.010009765625,3.253173828125
0.112,-3.153076171875,-0.790771484375,3.533447265625
0.1125,-2.712646484375,-1.551513671875,3.813720703125
0.113,-1.991943359375,-2.552490234375,4.134033203125
0.1135,-1.191162109375,-2.992919921875,3.813720703125
0.114,-0.550537109375,-3.593505859375,3.773681640625
0.1145,0.290283203125,-3.793701171875,3.213134765625
0.115,0.930908203125,-4.154052734375,2.892822265625
0.1155,1.891845703125,-4.274169921875,2.092041015625
0.116,2.612548828125,-4.474365234375,1.571533203125
0.1165,2.932861328125,-4.114013671875,0.930908203125
0.117,3.333251953125,-4.073974609375,0.490478515625
0.1175,3.453369140625,-3.353271484375,-0.390380859375
0.118,3.773681640625,-2.992919921875,-1.111083984375
0.1185,3.893798828125,-2.072021484375,-2.232177734375
0.119,3.853759765625,-1.511474609375,-2.712646484375
0.1195,3.693603515625,-0.790771484375,-3.233154296875
0.12,3.333251953125,-0.270263671875,-3.513427734375
0.1205,2.972900390625,0.490478515625,-3.833740234375
0.121,2.292236328125,1.291259765625,-4.033935546875
0.1215,1.771728515625,2.252197265625,-4.314208984375
0.122,0.810791015625,2.612548828125,-3.833740234375
0.1225,0.250244140625,3.253173828125,-3.873779296875
0.123,-0.670654296875,3.373291015625,-3.193115234375
0.1235,-1.311279296875,3.733642578125,-2.872802734375
0.124,-2.352294921875,3.893798828125,-2.031982421875
0.1245,-2.912841796875,3.893798828125,-1.471435546875
0.125,-3.273193359375,3.613525390625,-0.830810546875
0.1255,-3.593505859375,3.373291015625,-0.310302734375
0.126,-3.793701171875,2.732666015625,0.570556640625
0.1265,-3.993896484375,2.212158203125,1.371337890625
0.127,-4.234130859375,1.411376953125,2.492431640625
0.1275,-3.993896484375,0.690673828125,2.892822265625
0.128,-3.913818359375,0.090087890625,3.453369140625
0.1285,-3.353271484375,-0.710693359375,3.653564453125
0.129,-3.032958984375,-1.431396484375,3.973876953125
0.1295,-2.192138671875,-2.312255859375,4.174072265625
0.13,-1.551513671875,-3.153076171875,4.334228515625
0.1305,-0.590576171875,-3.553466796875,3.813720703125
0.131,0.050048828125,-4.114013671875,3.773681640625
0.1315,0.970947265625,-4.194091796875,3.012939453125
0.132,1.651611328125,-4.514404296875,2.532470703125
0.1325,2.692626953125,-4.674560546875,1.731689453125
0.133,3.133056640625,-4.434326171875,1.051025390625
0.1335,3.493408203125,-4.194091796875,0.450439453125
0.134,3.693603515625,-3.713623046875,-0.310302734375
0.1345,3.853759765625,-3.072998046875,-1.151123046875
0.135,3.973876953125,-2.312255859375,-1.991943359375
0.1355,4.174072265625,-1.591552734375,-2.952880859375
0.136,3.573486328125,-0.830810546875,-3.153076171875
0.1365,3.653564453125,-0.350341796875,-3.713623046875
0.137,2.932861328125,0.490478515625,-3.833740234375
0.1375,2.572509765625,1.211181640625,-4.154052734375
0.138,1.731689453125,2.172119140625,-4.314208984375
0.1385,1.010986328125,2.732666015625,-4.154052734375
0.139,0.170166015625,3.173095703125,-3.713623046875
0.1395,-0.510498046875,3.533447265625,-3.513427734375
0.14,-1.311279296875,3.693603515625,-2.832763671875
0.1405,-1.991943359375,3.853759765625,-2.312255859375
0.141,-2.912841796875,4.053955078125,-1.631591796875
0.1415,-3.193115234375,3.653564453125,-0.950927734375
0.142,-3.673583984375,3.613525390625,-0.510498046875
0.1425,-3.713623046875,2.892822265625,0.370361328125
0.143,-3.993896484375,2.492431640625,1.131103515625
0.1435,-4.114013671875,1.611572265625,2.092041015625
0.144,-4.314208984375,1.051025390625,2.892822265625
0.1445,-3.793701171875,0.170166015625,3.173095703125
0.145,-3.793701171875,-0.310302734375,3.613525390625
0.1455,-3.072998046875,-1.151123046875,3.853759765625
0.146,-2.632568359375,-1.871826171875,4.134033203125
0.1465,-1.791748046875,-2.912841796875,4.334228515625
0.147,-0.990966796875,-3.353271484375,3.973876953125
0.1475,-0.270263671875,-3.873779296875,3.813720703125
0.148,0.530517578125,-4.194091796875,3.333251953125
0.1485,1.371337890625,-4.394287109375,2.732666015625
0.149,2.172119140625,-4.514404296875,2.092041015625
0.1495,3.012939453125,-4.714599609375,1.451416015625
0.15,3.173095703125,-4.154052734375,0.690673828125
0.1505,3.693603515625,-4.154052734375,0.250244140625
0.151,3.773681640625,-3.233154296875,-0.830810546875
0.1515,4.013916015625,-2.872802734375,-1.551513671875
0.152,4.093994140625,-1.911865234375,-2.552490234375
0.1525,4.013916015625,-1.311279296875,-3.153076171875
0.153,3.693603515625,-0.470458984375,-3.513427734375
0.1535,3.413330078125,0.090087890625,-3.873779296875
0.154,2.692626953125,1.010986328125,-4.114013671875
0.1545,2.172119140625,1.731689453125,-4.234130859375
0.155,1.411376953125,2.652587890625,-4.434326171875
0.1555,0.490478515625,3.012939453125,-3.873779296875
0.156,-0.190185546875,3.533447265625,-3.793701171875
0.1565,-1.151123046875,3.693603515625,-3.072998046875
0.157,-1.871826171875,3.893798828125,-2.552490234375
0.1575,-2.632568359375,3.973876953125,-1.871826171875
0.158,-3.273193359375,3.973876953125,-1.231201171875
0.1585,-3.433349609375,3.453369140625,-0.510498046875
0.159,-3.833740234375,3.333251953125,0.010009765625
0.1595,-3.873779296875,2.412353515625,1.091064453125
0.16,-4.114013671875,1.971923828125,1.731689453125
0.1605,-4.194091796875,1.091064453125,2.692626953125
0.161,-3.873779296875,0.370361328125,3.012939453125
0.1615,-3.713623046875,-0.270263671875,3.493408203125
0.162,-3.233154296875,-0.910888671875,3.733642578125
0.1625,-2.712646484375,-1.751708984375,3.973876953125
0.163,-1.991943359375,-2.512451171875,4.093994140625
0.1635,-1.311279296875,-3.233154296875,4.134033203125
0.164,-0.430419921875,-3.553466796875,3.573486328125
0.1645,0.170166015625,-4.073974609375,3.573486328125
0.165,1.131103515625,-4.154052734375,2.732666015625
0.1655,1.731689453125,-4.434326171875,2.412353515625
0.166,2.532470703125,-4.514404296875,1.651611328125
0.1665,2.972900390625,-4.354248046875,1.091064453125
0.167,3.253173828125,-3.993896484375,0.450439453125
0.1675,3.573486328125,-3.713623046875,-0.230224609375
0.168,3.773681640625,-2.912841796875,-1.231201171875
0.1685,3.933837890625,-2.432373046875,-1.911865234375
0.169,4.053955078125,-1.711669921875,-2.832763671875
0.1695,3.653564453125,-0.990966796875,-3.072998046875
0.17,3.573486328125,-0.430419921875,-3.553466796875
0.1705,3.012939453125,0.450439453125,-3.833740234375
0.171,2.532470703125,1.251220703125,-4.154052734375
0.1715,1.771728515625,2.052001953125,-4.194091796875
0.172,1.131103515625,2.692626953125,-4.154052734375
0.1725,0.250244140625,3.052978515625,-3.673583984375
0.173,-0.430419921875,3.533447265625,-3.553466796875
0.1735,-1.471435546875,3.693603515625,-2.712646484375
0.174,-2.072021484375,3.933837890625,-2.312255859375
0.1745,-2.872802734375,3.973876953125,-1.591552734375
0.175,-3.193115234375,3.613525390625,-0.990966796875
0.1755,-3.553466796875,3.413330078125,-0.350341796875
0.176,-3.753662109375,2.772705078125,0.490478515625
0.1765,-3.953857421875,2.092041015625,1.371337890625
0.177,-4.033935546875,1.411376953125,2.132080078125
0.1775,-4.114013671875,0.850830078125,2.852783203125
0.178,-3.553466796875,0.090087890625,3.093017578125
0.1785,-3.553466796875,-0.430419921875,3.573486328125
0.179,-2.712646484375,-1.431396484375,3.773681640625
0.1795,-2.312255859375,-2.072021484375,3.973876953125
0.18,-1.471435546875,-2.872802734375,3.973876953125
0.1805,-0.830810546875,-3.353271484375,3.773681640625
0.181,0.010009765625,-3.713623046875,3.373291015625
0.1815,0.610595703125,-3.993896484375,3.093017578125
0.182,1.531494140625,-4.154052734375,2.332275390625
0.1825,2.052001953125,-4.314208984375,1.971923828125
0.183,2.732666015625,-4.354248046875,1.411376953125
0.1835,2.932861328125,-3.913818359375,0.730712890625
0.184,3.373291015625,-3.873779296875,0.210205078125
0.1845,3.493408203125,-3.072998046875,-0.790771484375
0.185,3.773681640625,-2.712646484375,-1.471435546875
0.1855,3.813720703125,-1.911865234375,-2.272216796875
0.186,3.813720703125,-1.431396484375,-2.792724609375
0.1865,3.413330078125,-0.630615234375,-3.153076171875
0.187,3.333251953125,-0.150146484375,-3.553466796875
0.1875,2.612548828125,0.810791015625,-3.833740234375
0.188,2.212158203125,1.531494140625,-4.073974609375
