wavelength,x,y,z
0.0,-21.00048828125,21.60107421875,-1.14111328125
0.0005,-23.68310546875,19.07861328125,4.06396484375
0.001,-24.40380859375,15.15478515625,8.82861328125
0.0015,-25.16455078125,11.19091796875,13.59326171875
0.002,-25.00439453125,8.58837890625,16.15576171875
0.0025,-23.44287109375,3.82373046875,19.39892578125
0.003,-21.32080078125,-0.42041015625,21.48095703125
0.0035,-18.19775390625,-5.62548828125,23.48291015625
0.004,-14.39404296875,-11.15087890625,25.24462890625
0.0045,-9.74951171875,-14.75439453125,24.20361328125
0.005,-6.90673828125,-17.55712890625,24.20361328125
0.0055,-1.58154296875,-19.91943359375,21.28076171875
0.006,3.30322265625,-22.44189453125,19.07861328125
0.0065,8.46826171875,-23.20263671875,14.75439453125
0.007,13.59326171875,-24.72412109375,11.27099609375
0.0075,16.59619140625,-23.84326171875,7.50732421875
0.008,19.99951171875,-23.20263671875,3.38330078125
0.0085,21.84130859375,-20.76025390625,-0.98095703125
0.009,24.20361328125,-17.95751953125,-6.22607421875
0.0095,24.72412109375,-13.99365234375,-10.87060546875
0.01,24.88427734375,-9.90966796875,-14.99462890625
0.0105,24.72412109375,-7.54736328125,-17.27685546875
0.011,22.44189453125,-2.26220703125,-20.31982421875
0.0115,20.31982421875,2.10205078125,-22.48193359375
0.012,16.19580078125,7.54736328125,-23.76318359375
0.0125,12.91259765625,12.47216796875,-25.44482421875
0.013,8.38818359375,15.67529296875,-24.08349609375
0.0135,5.26513671875,18.27783203125,-23.64306640625
0.014,0.10009765625,20.23974609375,-20.47998046875
0.0145,-4.82470703125,22.76220703125,-18.23779296875
0.015,-10.10986328125,23.20263671875,-13.47314453125
0.0155,-14.43408203125,24.16357421875,-10.18994140625
0.016,-17.11669921875,23.44287109375,-6.90673828125
0.0165,-20.19970703125,22.00146484375,-2.38232421875
0.017,-21.92138671875,19.47900390625,1.98193359375
0.0175,-23.84326171875,16.27587890625,7.06689453125
0.018,-24.48388671875,12.71240234375,11.43115234375
0.0185,-24.12353515625,8.70849609375,15.07470703125
0.019,-23.92333984375,6.38623046875,17.31689453125
0.0195,-21.44091796875,1.26123046875,19.95947265625
0.02,-19.27880859375,-3.38330078125,22.44189453125
0.0205,-14.87451171875,-8.58837890625,23.20263671875
0.021,-11.99169921875,-12.87255859375,24.56396484375
0.0215,-7.86767578125,-15.59521484375,23.16259765625
0.022,-3.90380859375,-18.31787109375,21.96142578125
0.0225,0.78076171875,-20.03955078125,19.19873046875
0.023,6.06591796875,-22.52197265625,16.47607421875
0.0235,10.75048828125,-22.84228515625,12.19189453125
0.024,14.71435546875,-23.36279296875,8.82861328125
0.0245,17.15673828125,-22.96240234375,6.02587890625
0.025,19.99951171875,-21.08056640625,1.22119140625
0.0255,21.92138671875,-18.55810546875,-3.34326171875
0.026,23.24267578125,-14.99462890625,-8.18798828125
0.0265,24.08349609375,-11.91162109375,-12.19189453125
0.027,23.32275390625,-8.14794921875,-15.23486328125
0.0275,22.80224609375,-5.30517578125,-17.63720703125
0.028,20.39990234375,-0.50048828125,-19.95947265625
0.0285,17.83740234375,4.74462890625,-22.64208984375
0.029,13.43310546875,9.46923828125,-22.96240234375
0.0295,10.59033203125,13.31298828125,-24.00341796875
0.03,7.18701171875,15.63525390625,-22.88232421875
0.0305,2.62255859375,18.31787109375,-21.08056640625
0.031,-1.66162109375,19.99951171875,-18.55810546875
0.0315,-7.38720703125,22.24169921875,-15.19482421875
0.032,-11.47119140625,22.60205078125,-11.59130859375
0.0325,-15.15478515625,22.60205078125,-7.98779296875
0.033,-17.43701171875,22.08154296875,-5.26513671875
0.0335,-19.99951171875,19.91943359375,-0.50048828125
0.034,-22.08154296875,17.31689453125,4.38427734375
0.0345,-22.76220703125,13.43310546875,8.98876953125
0.035,-23.84326171875,10.87060546875,12.63232421875
0.0355,-22.88232421875,7.18701171875,15.39501953125
0.036,-21.92138671875,3.74365234375,17.95751953125
0.0365,-19.55908203125,-0.78076171875,20.07958984375
0.037,-16.59619140625,-6.38623046875,22.68212890625
0.0375,-12.47216796875,-10.55029296875,22.72216796875
0.038,-9.46923828125,-14.11376953125,23.28271484375
0.0385,-6.10595703125,-16.19580078125,22.00146484375
0.039,-1.02099609375,-18.91845703125,19.71923828125
0.0395,3.42333984375,-20.56005859375,17.07666015625
0.04,9.06884765625,-22.32177734375,13.27294921875
0.0405,12.51220703125,-22.76220703125,10.27001953125
0.041,16.03564453125,-22.40185546875,6.42626953125
0.0415,18.19775390625,-21.44091796875,3.38330078125
0.042,20.64013671875,-19.07861328125,-1.42138671875
0.0425,22.68212890625,-16.15576171875,-6.46630859375
0.043,22.76220703125,-12.11181640625,-10.63037109375
0.0435,23.68310546875,-9.78955078125,-13.95361328125
0.044,22.44189453125,-6.14599609375,-16.35595703125
0.0445,21.00048828125,-2.06201171875,-19.03857421875
0.045,18.39794921875,2.42236328125,-20.84033203125
0.0455,14.87451171875,8.18798828125,-23.16259765625
0.046,11.19091796875,11.71142578125,-23.00244140625
0.0465,7.90771484375,14.99462890625,-22.92236328125
0.047,4.58447265625,16.71630859375,-21.40087890625
0.0475,-0.50048828125,19.35888671875,-19.11865234375
0.048,-5.22509765625,21.00048828125,-16.07568359375
0.0485,-10.43017578125,22.08154296875,-12.03173828125
0.049,-13.51318359375,22.56201171875,-9.54931640625
0.0495,-16.71630859375,21.64111328125,-5.54541015625
0.05,-18.71826171875,20.39990234375,-2.22216796875
0.0505,-20.68017578125,17.87744140625,2.38232421875
0.051,-22.68212890625,14.79443359375,7.46728515625
0.0515,-22.36181640625,10.87060546875,11.15087890625
0.052,-23.08251953125,8.58837890625,14.23388671875
0.0525,-21.64111328125,5.10498046875,16.27587890625
0.053,-20.03955078125,0.78076171875,19.07861328125
0.0535,-17.15673828125,-3.74365234375,20.64013671875
0.054,-13.71337890625,-9.02880859375,22.44189453125
0.0545,-10.55029296875,-12.03173828125,22.28173828125
0.055,-6.90673828125,-15.07470703125,21.72119140625
0.0555,-3.38330078125,-16.71630859375,19.87939453125
0.056,1.22119140625,-19.11865234375,17.79736328125
0.0565,6.42626953125,-20.92041015625,14.39404296875
0.057,10.63037109375,-21.32080078125,10.67041015625
0.0575,13.71337890625,-22.08154296875,8.42822265625
0.058,16.35595703125,-20.80029296875,4.62451171875
0.0585,18.59814453125,-19.35888671875,0.98095703125
0.059,20.19970703125,-16.79638671875,-3.26318359375
0.0595,22.04150390625,-13.79345703125,-8.18798828125
0.06,21.72119140625,-10.39013671875,-11.35107421875
0.0605,22.16162109375,-7.82763671875,-14.39404296875
0.061,20.60009765625,-4.54443359375,-16.15576171875
0.0615,19.03857421875,-0.18017578125,-18.95849609375
0.062,15.71533203125,4.66455078125,-20.47998046875
0.0625,12.35205078125,9.26904296875,-21.76123046875
0.063,9.90966796875,12.11181640625,-22.08154296875
0.0635,6.10595703125,14.79443359375,-21.00048828125
0.064,2.50244140625,16.59619140625,-19.19873046875
0.0645,-1.78173828125,18.59814453125,-17.11669921875
0.065,-7.18701171875,20.64013671875,-13.79345703125
0.0655,-10.87060546875,20.64013671875,-10.22998046875
0.066,-13.95361328125,21.44091796875,-7.98779296875
0.0665,-16.23583984375,19.95947265625,-4.26416015625
0.067,-18.67822265625,18.47802734375,-0.30029296875
0.0675,-19.99951171875,15.63525390625,3.98388671875
0.068,-21.68115234375,12.67236328125,8.66845703125
0.0685,-21.64111328125,9.82958984375,11.51123046875
0.069,-21.64111328125,6.78662109375,14.59423828125
0.0695,-19.99951171875,3.38330078125,16.39599609375
0.07,-18.31787109375,-1.02099609375,19.11865234375
0.0705,-14.91455078125,-6.14599609375,20.80029296875
0.071,-11.39111328125,-10.22998046875,21.36083984375
0.0715,-9.06884765625,-12.95263671875,21.72119140625
0.072,-4.66455078125,-15.55517578125,19.91943359375
0.0725,-0.70068359375,-17.75732421875,18.23779296875
0.073,3.86376953125,-19.43896484375,15.47509765625
0.0735,8.94873046875,-21.44091796875,12.39208984375
0.074,12.27197265625,-21.00048828125,8.82861328125
0.0745,15.39501953125,-21.48095703125,6.26611328125
0.075,17.55712890625,-19.63916015625,2.30224609375
0.0755,20.07958984375,-17.75732421875,-2.22216796875
0.076,21.04052734375,-14.43408203125,-6.46630859375
0.0765,22.20166015625,-11.31103515625,-10.87060546875
0.077,22.12158203125,-8.82861328125,-13.35302734375
0.0775,21.28076171875,-4.98486328125,-16.43603515625
0.078,19.39892578125,-1.14111328125,-18.39794921875
0.0785,16.91650390625,3.70361328125,-20.68017578125
0.079,13.51318359375,8.62841796875,-22.24169921875
0.0795,9.70947265625,12.27197265625,-22.04150390625
0.08,7.38720703125,14.75439453125,-22.20166015625
0.0805,2.58251953125,17.11669921875,-19.79931640625
0.081,-1.78173828125,19.35888671875,-17.95751953125
0.0815,-6.66650390625,20.56005859375,-14.27392578125
0.082,-11.27099609375,22.16162109375,-11.35107421875
0.0825,-14.35400390625,21.60107421875,-7.74755859375
0.083,-17.43701171875,21.36083984375,-4.46435546875
0.0835,-19.23876953125,19.07861328125,-0.30029296875
0.084,-21.68115234375,16.71630859375,4.54443359375
0.0845,-22.16162109375,13.11279296875,8.66845703125
0.085,-22.92236328125,9.86962890625,12.75244140625
0.0855,-22.68212890625,7.42724609375,14.99462890625
0.086,-21.08056640625,2.86279296875,17.95751953125
0.0865,-18.91845703125,-1.30126953125,19.99951171875
0.087,-15.63525390625,-6.38623046875,21.68115234375
0.0875,-12.51220703125,-10.75048828125,23.04248046875
0.088,-8.46826171875,-14.07373046875,22.16162109375
0.0885,-5.58544921875,-16.59619140625,21.80126953125
0.089,-0.50048828125,-18.71826171875,18.95849609375
0.0895,4.22412109375,-21.12060546875,16.71630859375
0.09,9.10888671875,-21.64111328125,12.55224609375
0.0905,13.07275390625,-22.76220703125,9.78955078125
0.091,15.99560546875,-22.04150390625,6.26611328125
0.0915,18.91845703125,-21.08056640625,2.38232421875
0.092,20.64013671875,-18.51806640625,-1.98193359375
0.0925,22.76220703125,-15.67529296875,-7.02685546875
0.093,23.00244140625,-12.15185546875,-10.87060546875
0.0935,23.20263671875,-8.74853515625,-14.47412109375
0.094,22.76220703125,-6.18603515625,-16.63623046875
0.0945,20.56005859375,-1.30126953125,-19.35888671875
0.095,18.15771484375,3.34326171875,-21.56103515625
0.0955,14.07373046875,8.50830078125,-22.64208984375
0.096,11.39111328125,12.31201171875,-23.76318359375
0.0965,7.22705078125,15.23486328125,-22.56201171875
0.097,3.82373046875,17.63720703125,-21.60107421875
0.0975,-1.14111328125,19.55908203125,-18.71826171875
0.098,-6.30615234375,22.04150390625,-16.03564453125
0.0985,-10.87060546875,22.16162109375,-11.75146484375
0.099,-14.59423828125,22.92236328125,-8.82861328125
0.0995,-17.27685546875,22.08154296875,-5.38525390625
0.1,-19.91943359375,20.52001953125,-1.14111328125
0.1005,-21.64111328125,17.71728515625,3.46337890625
0.101,-23.24267578125,14.39404296875,8.46826171875
0.1015,-23.56298828125,11.19091796875,12.03173828125
0.102,-23.24267578125,7.54736328125,15.43505859375
0.1025,-22.48193359375,4.66455078125,17.59716796875
0.103,-20.15966796875,-0.30029296875,20.15966796875
0.1035,-17.35693359375,-5.38525390625,22.44189453125
0.104,-12.99267578125,-10.18994140625,22.92236328125
0.1045,-10.39013671875,-13.63330078125,23.72314453125
0.105,-6.10595703125,-16.43603515625,22.28173828125
0.1055,-1.94189453125,-18.95849609375,20.56005859375
0.106,2.74267578125,-20.60009765625,17.79736328125
0.1065,8.46826171875,-22.92236328125,14.43408203125
0.107,12.39208984375,-22.72216796875,10.43017578125
0.1075,16.11572265625,-23.12255859375,7.18701171875
0.108,18.55810546875,-22.00146484375,3.66357421875
0.1085,21.16064453125,-19.99951171875,-1.02099609375
0.109,22.64208984375,-16.91650390625,-5.62548828125
0.1095,23.76318359375,-13.15283203125,-10.59033203125
0.11,24.08349609375,-10.31005859375,-13.79345703125
0.1105,23.28271484375,-6.38623046875,-16.99658203125
0.111,21.92138671875,-2.90283203125,-19.15869140625
0.1115,19.39892578125,1.94189453125,-21.40087890625
0.112,15.95556640625,7.58740234375,-23.64306640625
0.1125,11.55126953125,11.87158203125,-23.56298828125
0.113,8.94873046875,15.11474609375,-24.16357421875
0.1135,4.62451171875,17.59716796875,-22.36181640625
0.114,-0.14013671875,20.11962890625,-20.19970703125
0.1145,-4.62451171875,21.48095703125,-17.19677734375
0.115,-10.55029296875,23.56298828125,-13.43310546875
0.1155,-13.95361328125,23.12255859375,-9.62939453125
0.116,-17.63720703125,23.16259765625,-6.10595703125
0.1165,-19.71923828125,21.52099609375,-2.34228515625
0.117,-22.16162109375,19.23876953125,2.50244140625
0.1175,-23.52294921875,15.83544921875,7.30712890625
0.118,-24.08349609375,11.75146484375,11.99169921875
0.1185,-24.40380859375,9.26904296875,14.87451171875
0.119,-23.20263671875,4.94482421875,17.99755859375
0.1195,-21.44091796875,0.98095703125,20.19970703125
0.12,-18.63818359375,-3.78369140625,22.08154296875
0.1205,-14.99462890625,-9.58935546875,24.28369140625
0.121,-10.55029296875,-13.35302734375,23.60302734375
0.1215,-7.70751953125,-16.51611328125,23.84326171875
0.122,-2.94287109375,-18.71826171875,21.48095703125
0.1225,1.94189453125,-21.32080078125,19.27880859375
0.123,6.70654296875,-22.36181640625,15.67529296875
0.1235,12.23193359375,-24.04345703125,11.83154296875
0.124,15.27490234375,-23.52294921875,8.38818359375
0.1245,18.99853515625,-23.12255859375,4.34423828125
0.125,20.88037109375,-21.08056640625,0.38037109375
0.1255,23.16259765625,-18.47802734375,-4.58447265625
0.126,24.36376953125,-14.87451171875,-9.38916015625
0.1265,24.36376953125,-10.67041015625,-13.71337890625
0.127,24.64404296875,-8.34814453125,-16.35595703125
0.1275,22.76220703125,-3.54345703125,-19.35888671875
0.128,20.84033203125,0.82080078125,-21.72119140625
0.1285,17.31689453125,5.74560546875,-23.08251953125
0.129,13.75341796875,11.27099609375,-25.12451171875
0.1295,9.26904296875,14.63427734375,-24.04345703125
0.13,6.10595703125,17.79736328125,-24.00341796875
0.1305,1.26123046875,19.75927734375,-21.12060546875
0.131,-3.70361328125,22.36181640625,-18.91845703125
0.1315,-8.82861328125,23.08251953125,-14.67431640625
0.132,-13.79345703125,24.24365234375,-10.87060546875
0.1325,-16.63623046875,23.76318359375,-7.70751953125
0.133,-20.15966796875,22.72216796875,-3.14306640625
0.1335,-21.92138671875,20.35986328125,1.14111328125
0.134,-23.88330078125,17.27685546875,6.22607421875
0.1345,-24.88427734375,13.67333984375,10.87060546875
0.135,-24.48388671875,9.34912109375,14.79443359375
0.1355,-24.68408203125,6.98681640625,17.43701171875
0.136,-22.28173828125,1.78173828125,20.19970703125
0.1365,-20.23974609375,-2.82275390625,22.72216796875
0.137,-15.99560546875,-7.86767578125,23.48291015625
0.1375,-12.71240234375,-12.87255859375,25.24462890625
0.138,-8.38818359375,-15.79541015625,23.88330078125
0.1385,-4.50439453125,-18.95849609375,23.20263671875
0.139,0.62060546875,-20.80029296875,20.03955078125
0.1395,5.74560546875,-23.28271484375,17.55712890625
0.14,10.83056640625,-23.72314453125,12.99267578125
0.1405,15.19482421875,-24.32373046875,9.22900390625
0.141,17.95751953125,-23.96337890625,6.22607421875
0.1415,21.20068359375,-22.28173828125,1.30126953125
0.142,23.04248046875,-19.63916015625,-3.34326171875
0.1425,24.48388671875,-16.07568359375,-8.34814453125
0.143,25.36474609375,-12.63232421875,-12.79248046875
0.1435,24.60400390625,-8.38818359375,-16.27587890625
0.144,24.40380859375,-5.62548828125,-18.91845703125
0.1445,21.60107421875,-0.38037109375,-21.40087890625
0.145,19.27880859375,4.66455078125,-24.04345703125
0.1455,14.31396484375,9.86962890625,-24.36376953125
0.146,11.23095703125,14.35400390625,-25.60498046875
0.1465,7.18701171875,16.95654296875,-24.24365234375
0.147,2.70263671875,19.99951171875,-22.84228515625
0.1475,-2.26220703125,21.64111328125,-19.63916015625
0.148,-7.74755859375,24.04345703125,-16.59619140625
0.1485,-12.55224609375,24.28369140625,-12.15185546875
0.149,-16.63623046875,24.32373046875,-8.26806640625
0.1495,-19.23876953125,23.84326171875,-5.14501953125
0.15,-22.08154296875,21.64111328125,0.02001953125
0.1505,-24.04345703125,18.63818359375,4.98486328125
0.151,-24.96435546875,14.59423828125,9.94970703125
0.1515,-25.76513671875,11.43115234375,14.03369140625
0.152,-24.64404296875,7.18701171875,17.23681640625
0.1525,-24.04345703125,3.86376953125,19.87939453125
0.153,-21.00048828125,-1.42138671875,22.08154296875
0.1535,-18.27783203125,-6.86669921875,24.80419921875
0.154,-13.27294921875,-11.67138671875,24.64404296875
0.1545,-10.02978515625,-15.63525390625,25.32470703125
0.155,-6.10595703125,-18.07763671875,23.88330078125
0.1555,-0.90087890625,-21.08056640625,21.76123046875
0.156,3.98388671875,-22.56201171875,18.55810546875
0.1565,9.94970703125,-24.64404296875,14.71435546875
0.157,14.03369140625,-24.68408203125,10.79052734375
0.1575,17.95751953125,-24.32373046875,6.54638671875
0.158,20.39990234375,-23.48291015625,3.34326171875
0.1585,22.92236328125,-20.96044921875,-1.90185546875
0.159,24.84423828125,-17.67724609375,-7.06689453125
0.1595,25.12451171875,-13.19287109375,-11.87158203125
0.16,25.88525390625,-10.43017578125,-15.47509765625
0.1605,24.44384765625,-6.22607421875,-18.39794921875
0.161,23.16259765625,-2.22216796875,-21.12060546875
0.1615,20.11962890625,2.74267578125,-23.00244140625
0.162,16.59619140625,8.78857421875,-25.40478515625
0.1625,11.87158203125,12.99267578125,-24.96435546875
0.163,8.46826171875,16.67626953125,-25.20458984375
0.1635,4.74462890625,18.83837890625,-23.68310546875
0.164,-0.78076171875,21.64111328125,-21.12060546875
0.1645,-5.50537109375,23.00244140625,-17.79736328125
0.165,-11.51123046875,24.60400390625,-13.47314453125
0.1655,-15.03466796875,24.64404296875,-10.10986328125
0.166,-18.83837890625,23.96337890625,-5.70556640625
0.1665,-21.04052734375,22.60205078125,-2.18212890625
0.167,-23.20263671875,19.91943359375,2.82275390625
0.1675,-25.04443359375,16.51611328125,8.18798828125
0.168,-24.96435546875,11.91162109375,12.67236328125
0.1685,-25.60498046875,9.26904296875,15.99560546875
0.169,-24.04345703125,4.98486328125,18.79833984375
0.1695,-22.44189453125,0.58056640625,21.60107421875
0.17,-19.27880859375,-4.18408203125,23.12255859375
0.1705,-15.51513671875,-10.27001953125,25.48486328125
0.171,-11.15087890625,-13.95361328125,24.80419921875
0.1715,-7.38720703125,-17.55712890625,24.60400390625
0.172,-3.22314453125,-19.55908203125,22.56201171875
0.1725,2.18212890625,-22.36181640625,20.07958984375
0.173,7.38720703125,-23.68310546875,16.35595703125
0.1735,12.95263671875,-24.80419921875,11.91162109375
0.174,16.23583984375,-24.88427734375,8.86865234375
0.1745,19.95947265625,-23.76318359375,4.02392578125
0.175,22.08154296875,-22.04150390625,0.14013671875
0.1755,24.08349609375,-19.11865234375,-4.82470703125
0.176,25.88525390625,-15.51513671875,-10.35009765625
0.1765,25.28466796875,-10.83056640625,-14.51416015625
0.177,25.76513671875,-8.18798828125,-17.63720703125
0.1775,23.64306640625,-3.50341796875,-20.35986328125
0.178,21.76123046875,1.34130859375,-23.20263671875
0.1785,17.87744140625,6.42626953125,-24.32373046875
0.179,13.91357421875,12.35205078125,-26.32568359375
0.1795,9.62939453125,15.67529296875,-25.36474609375
0.18,5.54541015625,19.19873046875,-24.80419921875
0.1805,1.02099609375,21.00048828125,-22.12158203125
0.181,-4.30419921875,23.64306640625,-19.59912109375
0.1815,-9.94970703125,24.72412109375,-15.23486328125
0.182,-15.03466796875,25.20458984375,-10.63037109375
0.1825,-18.07763671875,25.20458984375,-7.74755859375
0.183,-21.64111328125,23.52294921875,-2.42236328125
0.1835,-23.64306640625,21.28076171875,1.94189453125
0.184,-25.12451171875,17.79736328125,6.94677734375
0.1845,-26.64599609375,13.99365234375,12.23193359375
0.185,-25.68505859375,9.22900390625,16.15576171875
0.1855,-25.92529296875,6.38623046875,19.23876953125
0.186,-23.16259765625,1.26123046875,21.68115234375
0.1865,-21.12060546875,-3.70361328125,24.52392578125
0.187,-16.51611328125,-8.82861328125,25.00439453125
0.1875,-12.63232421875,-14.23388671875,26.56591796875
0.188,-8.46826171875,-17.19677734375,25.36474609375
0.1885,-3.58349609375,-20.72021484375,24.04345703125
0.189,1.30126953125,-22.28173828125,20.88037109375
0.1895,6.62646484375,-24.64404296875,18.03759765625
0.19,12.11181640625,-25.40478515625,13.43310546875
0.1905,16.55615234375,-25.28466796875,8.90869140625
0.191,19.47900390625,-25.20458984375,6.02587890625
