wavelength,x,y,z
0.0,-0.6005859375,3.5234375,-3.283203125
0.0005,-1.4814453125,3.68359375,-2.642578125
0.001,-2.322265625,3.9638671875,-2.1220703125
0.0015,-2.7626953125,3.763671875,-1.4814453125
0.002,-3.36328125,3.84375,-0.9208984375
0.0025,-3.5634765625,3.2431640625,-0.16015625
0.003,-3.9638671875,3.1630859375,0.3603515625
0.0035,-4.083984375,2.2822265625,1.28125
0.004,-4.244140625,1.9619140625,1.8017578125
0.0045,-4.0439453125,1.12109375,2.4423828125
0.005,-3.84375,0.4404296875,2.8828125
0.0055,-3.36328125,-0.5205078125,3.283203125
0.006,-3.0830078125,-1.1611328125,3.603515625
0.0065,-2.40234375,-2.08203125,3.84375
0.007,-1.9619140625,-2.482421875,3.8037109375
0.0075,-1.2412109375,-3.203125,3.763671875
0.008,-0.5205078125,-3.4833984375,3.283203125
0.0085,0.240234375,-4.00390625,3.123046875
0.009,1.2412109375,-4.2041015625,2.2822265625
0.0095,1.8818359375,-4.484375,1.921875
0.01,2.3623046875,-4.1640625,1.2412109375
0.0105,2.802734375,-4.1640625,0.7607421875
0.011,3.04296875,-3.68359375,0.0400390625
0.0115,3.36328125,-3.4833984375,-0.48046875
0.012,3.603515625,-2.7626953125,-1.4013671875
0.0125,3.603515625,-2.3623046875,-1.8017578125
0.013,3.5634765625,-1.521484375,-2.5625
0.0135,3.123046875,-0.720703125,-2.8828125
0.014,2.8427734375,0.0400390625,-3.36328125
0.0145,2.2822265625,0.880859375,-3.603515625
0.015,1.921875,1.6015625,-3.9638671875
0.0155,1.2412109375,2.0419921875,-3.68359375
0.016,0.6005859375,2.72265625,-3.7236328125
0.0165,-0.2001953125,2.9228515625,-3.203125
0.017,-0.8408203125,3.4033203125,-3.04296875
0.0175,-1.8818359375,3.603515625,-2.2021484375
0.018,-2.40234375,3.763671875,-1.8017578125
0.0185,-2.9228515625,3.5234375,-1.041015625
0.019,-3.2431640625,3.4033203125,-0.6005859375
0.0195,-3.5634765625,3.0029296875,0.1201171875
0.02,-3.8037109375,2.6025390625,0.720703125
0.0205,-4.083984375,2.0419921875,1.5615234375
0.021,-3.8837890625,1.44140625,1.921875
0.0215,-3.923828125,0.7607421875,2.6826171875
0.022,-3.36328125,-0.16015625,2.9228515625
0.0225,-3.2431640625,-0.80078125,3.443359375
0.023,-2.5224609375,-1.681640625,3.603515625
0.0235,-2.2021484375,-2.2822265625,3.84375
0.024,-1.361328125,-2.7626953125,3.5234375
0.0245,-0.8408203125,-3.36328125,3.5234375
0.025,0.0,-3.6435546875,3.0029296875
0.0255,0.720703125,-4.1240234375,2.6826171875
0.026,1.76171875,-4.32421875,1.9619140625
0.0265,2.1220703125,-4.2041015625,1.521484375
0.027,2.7626953125,-4.1640625,0.880859375
0.0275,3.0029296875,-3.84375,0.2802734375
0.028,3.36328125,-3.5634765625,-0.3603515625
0.0285,3.5234375,-2.8828125,-1.1611328125
0.029,3.8037109375,-2.4423828125,-1.8818359375
0.0295,3.443359375,-1.6015625,-2.322265625
0.03,3.4833984375,-0.9609375,-3.04296875
0.0305,2.72265625,0.0400390625,-3.2431640625
0.031,2.6025390625,0.640625,-3.7236328125
0.0315,1.841796875,1.681640625,-3.923828125
0.032,1.3212890625,2.162109375,-3.8837890625
0.0325,0.560546875,2.642578125,-3.68359375
0.033,-0.16015625,3.0830078125,-3.4833984375
0.0335,-0.9208984375,3.36328125,-2.9228515625
0.034,-1.76171875,3.68359375,-2.3623046875
0.0345,-2.6826171875,3.9638671875,-1.681640625
0.035,-3.0029296875,3.5234375,-1.0009765625
0.0355,-3.5634765625,3.5634765625,-0.48046875
0.036,-3.6435546875,2.962890625,0.240234375
0.0365,-3.9638671875,2.6826171875,0.7607421875
0.037,-4.083984375,1.921875,1.681640625
0.0375,-4.1640625,1.44140625,2.2021484375
0.038,-3.763671875,0.560546875,2.6826171875
0.0385,-3.7236328125,0.0,3.203125
0.039,-3.04296875,-1.0009765625,3.36328125
0.0395,-2.72265625,-1.6015625,3.7236328125
0.04,-1.9619140625,-2.5625,3.923828125
0.0405,-1.361328125,-2.962890625,3.6435546875
0.041,-0.720703125,-3.5634765625,3.603515625
0.0415,0.0400390625,-3.8837890625,3.123046875
0.042,0.80078125,-4.1640625,2.7626953125
0.0425,1.76171875,-4.404296875,2.0419921875
0.043,2.5224609375,-4.564453125,1.44140625
0.0435,2.8427734375,-4.1240234375,0.6806640625
0.044,3.36328125,-4.1640625,0.240234375
0.0445,3.4833984375,-3.5234375,-0.6005859375
0.045,3.763671875,-3.203125,-1.1611328125
0.0455,3.9638671875,-2.3623046875,-2.162109375
0.046,3.8037109375,-1.681640625,-2.6025390625
0.0465,3.443359375,-0.7607421875,-3.203125
0.047,3.1630859375,0.0400390625,-3.603515625
0.0475,2.5224609375,0.880859375,-3.84375
0.048,2.0419921875,1.681640625,-4.1240234375
0.0485,1.28125,2.5224609375,-4.32421875
0.049,0.4404296875,2.8828125,-3.763671875
0.0495,-0.16015625,3.4833984375,-3.84375
0.05,-1.1611328125,3.7236328125,-2.962890625
0.0505,-1.921875,4.00390625,-2.5625
0.051,-2.9228515625,4.1240234375,-1.6416015625
0.0515,-3.5634765625,4.1240234375,-1.0009765625
0.052,-3.84375,3.5234375,-0.2001953125
0.0525,-4.244140625,3.4833984375,0.2802734375
0.053,-4.244140625,2.6025390625,1.201171875
0.0535,-4.4443359375,2.162109375,1.76171875
0.054,-4.564453125,1.3212890625,2.7626953125
0.0545,-4.083984375,0.48046875,3.1630859375
0.055,-3.84375,-0.3603515625,3.68359375
0.0555,-3.2431640625,-1.201171875,3.84375
0.056,-2.6826171875,-2.001953125,4.083984375
0.0565,-2.001953125,-2.8427734375,4.1240234375
0.057,-1.2412109375,-3.68359375,4.1640625
0.0575,-0.3603515625,-3.8837890625,3.5234375
0.058,0.2001953125,-4.4443359375,3.5634765625
0.0585,1.3212890625,-4.5244140625,2.5625
0.059,1.9619140625,-4.8046875,2.2021484375
0.0595,3.0029296875,-4.8447265625,1.28125
0.06,3.443359375,-4.564453125,0.560546875
0.0605,3.763671875,-4.1640625,-0.16015625
0.061,4.083984375,-3.8837890625,-0.7607421875
0.0615,4.1240234375,-3.04296875,-1.681640625
0.062,4.2041015625,-2.4423828125,-2.2822265625
0.0625,4.3642578125,-1.6416015625,-3.2431640625
0.063,3.68359375,-0.6005859375,-3.5634765625
0.0635,3.5234375,0.2001953125,-4.1640625
0.064,2.6025390625,1.2412109375,-4.2841796875
0.0645,2.0419921875,2.0419921875,-4.5244140625
0.065,1.28125,2.8427734375,-4.5244140625
0.0655,0.400390625,3.5634765625,-4.4443359375
0.066,-0.5205078125,3.84375,-3.7236328125
0.0665,-1.2412109375,4.404296875,-3.5634765625
0.067,-2.5224609375,4.484375,-2.3623046875
0.0675,-3.123046875,4.564453125,-1.8818359375
0.068,-4.083984375,4.5244140625,-0.9208984375
0.0685,-4.404296875,4.0439453125,0.0
0.069,-4.6845703125,3.603515625,0.6005859375
0.0695,-4.884765625,3.0029296875,1.4013671875
0.07,-4.9248046875,2.08203125,2.40234375
0.0705,-4.8046875,1.4013671875,2.8828125
0.071,-4.8447265625,0.5205078125,3.8037109375
0.0715,-3.923828125,-0.640625,3.9638671875
0.072,-3.8037109375,-1.28125,4.4443359375
0.0725,-2.642578125,-2.5625,4.484375
0.073,-2.08203125,-3.203125,4.6044921875
0.0735,-1.1611328125,-3.923828125,4.3642578125
0.074,-0.3203125,-4.5244140625,4.1240234375
0.0745,0.560546875,-4.64453125,3.4833984375
0.075,1.3212890625,-5.125,3.123046875
0.0755,2.6025390625,-5.1650390625,1.921875
0.076,3.0830078125,-5.125,1.4013671875
0.0765,3.9638671875,-5.044921875,0.5205078125
0.077,4.1240234375,-4.404296875,-0.3203125
0.0775,4.4443359375,-4.083984375,-0.9208984375
0.078,4.5244140625,-3.2431640625,-1.8818359375
0.0785,4.6044921875,-2.482421875,-2.6826171875
0.079,4.404296875,-1.6416015625,-3.203125
0.0795,4.32421875,-0.80078125,-4.0439453125
0.08,3.3232421875,0.3603515625,-4.1640625
0.0805,3.1630859375,1.0009765625,-4.6845703125
0.081,1.9619140625,2.2822265625,-4.7646484375
0.0815,1.521484375,2.8828125,-4.8447265625
0.082,0.48046875,3.7236328125,-4.5244140625
0.0825,-0.48046875,4.244140625,-4.1640625
0.083,-1.28125,4.484375,-3.5234375
0.0835,-2.2421875,4.8447265625,-3.0029296875
0.084,-3.5634765625,4.9248046875,-1.841796875
0.0845,-3.923828125,4.6845703125,-1.1611328125
0.085,-4.7646484375,4.5244140625,-0.240234375
0.0855,-4.9248046875,3.8037109375,0.640625
0.086,-5.1650390625,3.443359375,1.28125
0.0865,-5.2451171875,2.3623046875,2.40234375
0.087,-5.28515625,1.6015625,3.1630859375
0.0875,-4.8447265625,0.640625,3.68359375
0.088,-4.6845703125,-0.3203125,4.4443359375
0.0885,-3.68359375,-1.4814453125,4.484375
0.089,-3.36328125,-2.162109375,4.8046875
0.0895,-2.0419921875,-3.5634765625,4.8447265625
0.09,-1.4814453125,-3.923828125,4.7646484375
0.0905,-0.400390625,-4.6044921875,4.32421875
0.091,0.48046875,-5.0048828125,3.84375
0.0915,1.28125,-5.1650390625,3.203125
0.092,2.2822265625,-5.4052734375,2.4423828125
0.0925,3.4833984375,-5.4853515625,1.361328125
0.093,3.763671875,-5.0048828125,0.640625
0.0935,4.484375,-4.884765625,-0.16015625
0.094,4.484375,-4.00390625,-1.0009765625
0.0945,4.6845703125,-3.7236328125,-1.5615234375
0.095,4.724609375,-2.5625,-2.72265625
0.0955,4.6845703125,-1.9619140625,-3.2431640625
0.096,4.1640625,-0.880859375,-3.8037109375
0.0965,3.9638671875,0.0,-4.404296875
0.097,3.0029296875,1.041015625,-4.5244140625
0.0975,2.6826171875,1.681640625,-4.8447265625
0.098,1.4814453125,3.04296875,-4.884765625
0.0985,0.9208984375,3.36328125,-4.64453125
0.099,-0.16015625,4.1240234375,-4.3642578125
0.0995,-1.041015625,4.404296875,-3.763671875
0.1,-1.8017578125,4.64453125,-3.2431640625
0.1005,-2.9228515625,4.8447265625,-2.2822265625
0.101,-3.923828125,4.96484375,-1.44140625
0.1015,-4.244140625,4.404296875,-0.6005859375
0.102,-4.9248046875,4.2841796875,0.2001953125
0.1025,-4.884765625,3.36328125,1.0810546875
0.103,-5.125,3.04296875,1.6015625
0.1035,-5.1650390625,1.841796875,2.8427734375
0.104,-5.0849609375,1.2412109375,3.3232421875
0.1045,-4.5244140625,0.080078125,3.8837890625
0.105,-4.1640625,-0.80078125,4.32421875
0.1055,-3.3232421875,-1.8017578125,4.484375
0.106,-2.8427734375,-2.5224609375,4.6845703125
0.1065,-1.8017578125,-3.7236328125,4.8046875
0.107,-1.0009765625,-4.00390625,4.32421875
0.1075,-0.1201171875,-4.6845703125,4.1240234375
0.108,0.7607421875,-4.8447265625,3.4033203125
0.1085,1.4814453125,-5.0849609375,2.962890625
0.109,2.6826171875,-5.205078125,1.921875
0.1095,3.4833984375,-5.205078125,1.1611328125
0.11,3.763671875,-4.6044921875,0.2802734375
0.1105,4.244140625,-4.5244140625,-0.3603515625
0.111,4.244140625,-3.6435546875,-1.1611328125
0.1115,4.3642578125,-3.2431640625,-1.681640625
0.112,4.484375,-2.2421875,-2.8427734375
0.1125,4.1640625,-1.6015625,-3.203125
0.113,3.84375,-0.640625,-3.8037109375
0.1135,3.3232421875,0.2802734375,-4.1240234375
0.114,2.72265625,1.12109375,-4.2841796875
0.1145,2.0419921875,1.9619140625,-4.4443359375
0.115,1.3212890625,2.8828125,-4.64453125
0.1155,0.5205078125,3.1630859375,-4.00390625
0.116,-0.240234375,3.8837890625,-4.00390625
0.1165,-1.1611328125,3.9638671875,-3.203125
0.117,-1.8017578125,4.32421875,-2.9228515625
0.1175,-3.04296875,4.4443359375,-1.8818359375
0.118,-3.5634765625,4.404296875,-1.28125
0.1185,-3.9638671875,3.923828125,-0.3603515625
0.119,-4.3642578125,3.7236328125,0.2001953125
0.1195,-4.4443359375,3.04296875,0.9609375
0.12,-4.564453125,2.5224609375,1.5615234375
0.1205,-4.8046875,1.681640625,2.6025390625
0.121,-4.3642578125,0.9609375,2.8828125
0.1215,-4.244140625,0.0,3.603515625
0.122,-3.5634765625,-0.880859375,3.84375
0.1225,-3.203125,-1.6015625,4.1640625
0.123,-2.3623046875,-2.5625,4.244140625
0.1235,-1.76171875,-3.2431640625,4.3642578125
0.124,-0.8408203125,-3.603515625,3.8037109375
0.1245,-0.2802734375,-4.2041015625,3.84375
0.125,0.6806640625,-4.32421875,3.0029296875
0.1255,1.4013671875,-4.64453125,2.642578125
0.126,2.5625,-4.8447265625,1.681640625
0.1265,2.9228515625,-4.564453125,1.0810546875
0.127,3.443359375,-4.32421875,0.3203125
0.1275,3.6435546875,-3.923828125,-0.2802734375
0.128,3.84375,-3.443359375,-0.9609375
0.1285,3.8837890625,-2.8427734375,-1.6416015625
0.129,4.083984375,-2.2822265625,-2.482421875
0.1295,3.5234375,-1.3212890625,-2.802734375
0.13,3.5634765625,-0.640625,-3.4833984375
0.1305,2.72265625,0.400390625,-3.5634765625
0.131,2.5625,0.9609375,-4.00390625
0.1315,1.76171875,1.9619140625,-4.1240234375
0.132,1.2412109375,2.4423828125,-4.083984375
0.1325,0.3603515625,2.9228515625,-3.7236328125
0.133,-0.240234375,3.4033203125,-3.5634765625
0.1335,-1.0810546875,3.603515625,-2.9228515625
0.134,-1.841796875,3.8837890625,-2.4423828125
0.1345,-2.802734375,4.083984375,-1.681640625
0.135,-3.0830078125,3.68359375,-1.0810546875
0.1355,-3.68359375,3.7236328125,-0.5205078125
0.136,-3.8037109375,3.123046875,0.2001953125
0.1365,-4.1240234375,2.802734375,0.7607421875
0.137,-4.2041015625,2.0419921875,1.6015625
0.1375,-4.3642578125,1.6015625,2.2421875
0.138,-3.8837890625,0.640625,2.6826171875
0.1385,-3.8837890625,0.080078125,3.3232421875
0.139,-3.123046875,-0.9609375,3.4833984375
0.1395,-2.9228515625,-1.521484375,3.84375
0.14,-2.1220703125,-2.482421875,3.9638671875
0.1405,-1.5615234375,-2.8427734375,3.8037109375
0.141,-0.80078125,-3.4833984375,3.6435546875
0.1415,-0.16015625,-3.8037109375,3.2431640625
0.142,0.640625,-4.1240234375,2.802734375
0.1425,1.521484375,-4.32421875,2.2021484375
0.143,2.2822265625,-4.5244140625,1.6015625
0.1435,2.5625,-4.0439453125,0.880859375
0.144,3.123046875,-4.1640625,0.48046875
0.1445,3.203125,-3.5634765625,-0.3203125
0.145,3.5234375,-3.283203125,-0.8408203125
0.1455,3.68359375,-2.5625,-1.76171875
0.146,3.6435546875,-1.9619140625,-2.2021484375
0.1465,3.3232421875,-1.041015625,-2.7626953125
0.147,3.123046875,-0.4404296875,-3.203125
0.1475,2.5625,0.48046875,-3.4833984375
0.148,2.2421875,1.12109375,-3.84375
0.1485,1.6015625,1.921875,-4.00390625
0.149,0.9208984375,2.2822265625,-3.603515625
0.1495,0.3603515625,2.9228515625,-3.7236328125
0.15,-0.5205078125,3.1630859375,-3.0830078125
0.1505,-1.2412109375,3.5634765625,-2.7626953125
0.151,-2.162109375,3.763671875,-2.001953125
0.1515,-2.72265625,3.8037109375,-1.521484375
0.152,-3.0830078125,3.4033203125,-0.80078125
0.1525,-3.5234375,3.4033203125,-0.400390625
0.153,-3.68359375,2.6826171875,0.4404296875
0.1535,-3.9638671875,2.40234375,1.0009765625
0.154,-4.1640625,1.76171875,1.921875
0.1545,-3.84375,1.12109375,2.2421875
0.155,-3.8037109375,0.3203125,2.8828125
0.1555,-3.283203125,-0.48046875,3.1630859375
0.156,-2.9228515625,-1.201171875,3.5234375
0.1565,-2.40234375,-1.9619140625,3.7236328125
0.157,-1.8017578125,-2.6025390625,3.84375
0.1575,-1.0810546875,-2.962890625,3.4033203125
0.158,-0.6005859375,-3.5634765625,3.5234375
0.1585,0.3603515625,-3.763671875,2.7626953125
0.159,1.041015625,-4.1640625,2.5224609375
0.1595,1.9619140625,-4.32421875,1.76171875
0.16,2.3623046875,-4.1640625,1.2412109375
0.1605,2.802734375,-4.00390625,0.6005859375
0.161,3.0830078125,-3.763671875,0.080078125
0.1615,3.3232421875,-3.283203125,-0.6806640625
0.162,3.5234375,-2.7626953125,-1.28125
0.1625,3.763671875,-2.2021484375,-2.08203125
0.163,3.2431640625,-1.3212890625,-2.4423828125
0.1635,3.3232421875,-0.6806640625,-3.123046875
0.164,2.6025390625,0.240234375,-3.3232421875
0.1645,2.40234375,0.880859375,-3.7236328125
0.165,1.76171875,1.76171875,-3.8837890625
0.1655,1.12109375,2.2822265625,-3.84375
0.166,0.3603515625,2.72265625,-3.5234375
0.1665,-0.240234375,3.2431640625,-3.4033203125
0.167,-1.2412109375,3.4833984375,-2.642578125
0.1675,-1.9619140625,3.8037109375,-2.2822265625
0.168,-2.8427734375,3.923828125,-1.5615234375
0.1685,-3.1630859375,3.5234375,-0.9208984375
0.169,-3.6435546875,3.443359375,-0.3603515625
0.1695,-3.763671875,2.8828125,0.3603515625
0.17,-4.0439453125,2.482421875,1.12109375
0.1705,-4.1240234375,1.76171875,1.8017578125
0.171,-4.2041015625,1.201171875,2.482421875
0.1715,-3.603515625,0.240234375,2.8427734375
0.172,-3.6435546875,-0.3603515625,3.443359375
0.1725,-2.7626953125,-1.3212890625,3.5234375
0.173,-2.5224609375,-1.9619140625,3.84375
0.1735,-1.681640625,-2.7626953125,3.84375
0.174,-1.0009765625,-3.203125,3.603515625
0.1745,-0.400390625,-3.603515625,3.36328125
0.175,0.400390625,-3.9638671875,3.0029296875
0.1755,1.28125,-4.2041015625,2.2421875
0.176,1.921875,-4.3642578125,1.8017578125
0.1765,2.6826171875,-4.484375,1.12109375
0.177,2.8828125,-3.923828125,0.4404296875
0.1775,3.3232421875,-4.00390625,0.0
0.178,3.4033203125,-3.1630859375,-0.80078125
0.1785,3.68359375,-2.8427734375,-1.4013671875
0.179,3.68359375,-2.08203125,-2.2021484375
0.1795,3.6435546875,-1.44140625,-2.72265625
0.18,3.123046875,-0.48046875,-3.123046875
0.1805,2.962890625,0.16015625,-3.603515625
0.181,2.2021484375,1.1611328125,-3.8037109375
0.1815,1.921875,1.76171875,-4.0439453125
0.182,1.0810546875,2.5625,-4.0439453125
0.1825,0.2802734375,3.0029296875,-3.6435546875
0.183,-0.3203125,3.4833984375,-3.5634765625
0.1835,-1.361328125,3.763671875,-2.8427734375
0.184,-2.2421875,4.00390625,-2.2421875
0.1845,-2.8828125,3.9638671875,-1.5615234375
0.185,-3.5634765625,3.9638671875,-0.9208984375
0.1855,-3.763671875,3.36328125,-0.1201171875
0.186,-4.1640625,3.3232421875,0.3603515625
0.1865,-4.2841796875,2.3623046875,1.44140625
0.187,-4.484375,1.9619140625,2.001953125
0.1875,-4.3642578125,1.0810546875,2.802734375
0.188,-4.0439453125,0.2802734375,3.3232421875
0.1885,-3.5634765625,-0.6806640625,3.68359375
0.189,-3.1630859375,-1.44140625,3.9638671875
0.1895,-2.2822265625,-2.5224609375,4.1240234375
0.19,-1.76171875,-2.962890625,4.083984375
0.1905,-0.9208984375,-3.763671875,4.00390625
0.191,-0.080078125,-4.00390625,3.443359375
0.1915,0.560546875,-4.4443359375,3.2431640625
0.192,1.76171875,-4.6044921875,2.2421875
0.1925,2.5224609375,-4.8447265625,1.6416015625
0.193,3.04296875,-4.6044921875,0.880859375
0.1935,3.603515625,-4.4443359375,0.2802734375
0.194,3.68359375,-3.8037109375,-0.48046875
0.1945,3.9638671875,-3.5634765625,-1.0009765625
0.195,4.083984375,-2.5625,-2.08203125
0.1955,4.00390625,-2.08203125,-2.5224609375
0.196,3.923828125,-1.1611328125,-3.283203125
0.1965,3.4033203125,-0.240234375,-3.6435546875
0.197,3.0029296875,0.560546875,-4.00390625
0.1975,2.2822265625,1.4814453125,-4.2041015625
0.198,1.5615234375,2.482421875,-4.4443359375
0.1985,0.9609375,2.8828125,-4.2041015625
0.199,0.1201171875,3.6435546875,-4.1240234375
0.1995,-0.80078125,3.84375,-3.4033203125
0.2,-1.44140625,4.2841796875,-3.203125
0.2005,-2.802734375,4.404296875,-2.08203125
0.201,-3.4033203125,4.484375,-1.4814453125
0.2015,-4.00390625,4.1640625,-0.6005859375
0.202,-4.484375,3.9638671875,0.1201171875
0.2025,-4.564453125,3.2431640625,0.9208984375
0.203,-4.8046875,2.7626953125,1.5615234375
0.2035,-5.0048828125,1.76171875,2.72265625
0.204,-4.6845703125,1.0810546875,3.0830078125
0.2045,-4.564453125,0.1201171875,3.923828125
0.205,-3.84375,-0.9208984375,4.1240234375
0.2055,-3.36328125,-1.681640625,4.4443359375
0.206,-2.4423828125,-2.7626953125,4.564453125
0.2065,-1.6416015625,-3.7236328125,4.64453125
0.207,-0.720703125,-4.0439453125,4.1240234375
0.2075,0.0400390625,-4.7646484375,4.0439453125
0.208,0.9609375,-4.8046875,3.203125
0.2085,1.7216796875,-5.1650390625,2.802734375
0.209,3.0830078125,-5.3251953125,1.5615234375
0.2095,3.5634765625,-5.044921875,0.880859375
0.21,4.083984375,-4.64453125,0.0
0.2105,4.3642578125,-4.244140625,-0.6806640625
0.211,4.404296875,-3.5634765625,-1.361328125
0.2115,4.484375,-2.8828125,-2.162109375
0.212,4.6044921875,-1.9619140625,-3.203125
0.2125,4.083984375,-1.0810546875,-3.5234375
0.213,3.9638671875,-0.2802734375,-4.244140625
0.2135,3.04296875,0.80078125,-4.32421875
0.214,2.6826171875,1.521484375,-4.564453125
0.2145,1.6416015625,2.6826171875,-4.64453125
0.215,0.9609375,3.36328125,-4.7646484375
0.2155,0.0,3.8037109375,-4.1240234375
0.216,-0.720703125,4.3642578125,-4.00390625
0.2165,-1.681640625,4.3642578125,-3.1630859375
0.217,-2.4423828125,4.6044921875,-2.642578125
0.2175,-3.8037109375,4.884765625,-1.44140625
0.218,-4.1640625,4.484375,-0.720703125
0.2185,-4.7646484375,4.1240234375,0.16015625
0.219,-4.96484375,3.6435546875,0.9208984375
0.2195,-5.0849609375,3.0029296875,1.5615234375
0.22,-5.125,2.162109375,2.482421875
0.2205,-5.28515625,1.28125,3.5234375
0.221,-4.5244140625,0.240234375,3.8037109375
0.2215,-4.5244140625,-0.640625,4.5244140625
0.222,-3.4833984375,-1.7216796875,4.6044921875
0.2225,-3.0830078125,-2.4423828125,4.8447265625
0.223,-1.921875,-3.7236328125,4.9248046875
0.2235,-1.041015625,-4.3642578125,4.724609375
0.224,0.0,-4.7646484375,4.083984375
0.2245,0.6806640625,-5.28515625,3.8837890625
0.225,1.76171875,-5.28515625,2.8427734375
0.2255,2.5625,-5.4453125,2.2421875
0.226,3.923828125,-5.60546875,1.0810546875
0.2265,4.1640625,-4.96484375,0.16015625
0.227,4.6044921875,-4.64453125,-0.6005859375
0.2275,4.724609375,-3.923828125,-1.3212890625
0.228,4.724609375,-3.203125,-2.08203125
0.2285,4.724609375,-2.2822265625,-3.0029296875
