wavelength,x,y,z
0.0,18.543090820312,1.6466064453125,-19.333862304688
0.0005,16.781372070312,5.4903564453125,-21.495971679688
0.001,14.098754882812,8.2930908203125,-21.656127929688
0.0015,10.855590820312,11.296020507812,-21.656127929688
0.002,6.0108642578125,15.179809570312,-20.695190429688
0.0025,1.0059814453125,18.182739257812,-19.013549804688
0.003,-3.2781982421875,20.104614257812,-16.851440429688
0.0035,-6.4412841796875,21.185668945312,-15.089721679688
0.004,-9.4442138671875,21.145629882812,-12.246948242188
0.0045,-12.927612304688,20.344848632812,-8.1629638671875
0.005,-16.170776367188,19.423950195312,-4.0389404296875
0.0055,-19.133666992188,17.462036132812,0.8057861328125
0.006,-21.135620117188,15.420043945312,4.7696533203125
0.0065,-21.495971679688,12.977661132812,7.5323486328125
0.007,-21.616088867188,9.9346923828125,10.615356445312
0.0075,-20.935424804688,5.4503173828125,14.499145507812
0.008,-19.814331054688,1.2862548828125,17.582153320312
0.0085,-17.852416992188,-2.8778076171875,19.784301757812
0.009,-16.210815429688,-6.2410888671875,21.586059570312
0.0095,-13.408081054688,-9.0838623046875,21.626098632812
0.01,-9.4842529296875,-12.327026367188,21.145629882812
0.0105,-4.9598388671875,-15.770385742188,20.184692382812
0.011,0.2852783203125,-18.613159179688,18.182739257812
0.0115,4.2491455078125,-20.454956054688,16.180786132812
0.012,7.0518798828125,-20.975463867188,14.218872070312
0.0125,10.014770507812,-21.015502929688,11.496215820312
0.013,13.978637695312,-20.054565429688,6.7315673828125
0.0135,17.061645507812,-18.773315429688,2.5675048828125
0.014,19.504028320312,-16.851440429688,-1.7967529296875
0.0145,21.265747070312,-15.009643554688,-5.3602294921875
0.015,21.225708007812,-12.206909179688,-8.2030029296875
0.0155,21.185668945312,-8.8035888671875,-11.526245117188
0.016,20.545043945312,-4.5594482421875,-15.129760742188
0.0165,19.183715820312,-0.1551513671875,-18.252807617188
0.017,17.181762695312,3.8487548828125,-20.214721679688
0.0175,15.339965820312,6.7315673828125,-21.455932617188
0.018,12.377075195312,9.7745361328125,-21.576049804688
0.0185,7.4923095703125,13.698364257812,-20.695190429688
0.019,3.2481689453125,16.661254882812,-19.614135742188
0.0195,-1.6365966796875,19.223754882812,-17.572143554688
0.02,-5.3201904296875,20.905395507812,-15.810424804688
0.0205,-8.0428466796875,20.785278320312,-13.207885742188
0.021,-11.125854492188,20.785278320312,-10.365112304688
0.0215,-15.249877929688,19.864379882812,-5.4403076171875
0.022,-18.332885742188,18.102661132812,-0.7156982421875
0.0225,-20.374877929688,16.260864257812,3.2481689453125
0.023,-21.776245117188,14.218872070312,6.5313720703125
0.0235,-21.656127929688,11.135864257812,9.5343017578125
0.024,-21.295776367188,6.9718017578125,13.418090820312
0.0245,-20.494995117188,3.0479736328125,16.621215820312
0.025,-18.853393554688,-1.5965576171875,19.504028320312
0.0255,-16.971557617188,-5.4002685546875,21.425903320312
0.026,-14.529174804688,-8.0828857421875,21.826293945312
0.0265,-11.606323242188,-11.045776367188,21.986450195312
0.027,-6.0008544921875,-15.329956054688,20.785278320312
0.0275,-1.3162841796875,-18.132690429688,19.063598632812
0.028,3.0479736328125,-20.174682617188,17.021606445312
0.0285,6.4913330078125,-21.576049804688,15.299926757812
0.029,9.5343017578125,-21.135620117188,12.136840820312
0.0295,12.897583007812,-20.655151367188,8.4532470703125
0.03,16.501098632812,-19.814331054688,4.0889892578125
0.0305,19.463989257812,-17.652221679688,-0.9959716796875
0.031,21.185668945312,-15.730346679688,-4.5994873046875
0.0315,21.866333007812,-13.328002929688,-7.6824951171875
0.032,21.826293945312,-10.285034179688,-10.605346679688
0.0325,21.105590820312,-5.4803466796875,-14.809448242188
0.033,20.024536132812,-1.4764404296875,-17.772338867188
0.0335,18.182739257812,2.8477783203125,-20.254760742188
0.034,16.461059570312,6.4512939453125,-22.056518554688
0.0345,13.097778320312,9.3341064453125,-21.736206054688
0.035,9.7344970703125,12.577270507812,-21.736206054688
0.0355,4.4893798828125,16.461059570312,-20.575073242188
0.036,-0.7957763671875,19.223754882812,-18.372924804688
0.0365,-4.4393310546875,20.745239257812,-16.531127929688
0.037,-7.5623779296875,21.746215820312,-14.529174804688
0.0375,-10.645385742188,21.265747070312,-11.326049804688
0.038,-14.649291992188,20.344848632812,-6.4813232421875
0.0385,-17.852416992188,19.143676757812,-2.2772216796875
0.039,-20.454956054688,16.981567382812,2.4874267578125
0.0395,-21.856323242188,14.979614257812,5.8907470703125
0.04,-21.976440429688,12.016723632812,8.9337158203125
0.0405,-21.856323242188,8.7735595703125,12.096801757812
0.041,-21.135620117188,3.9688720703125,16.140747070312
0.0415,-19.494018554688,-0.6356201171875,19.063598632812
0.042,-17.532104492188,-4.3992919921875,20.985473632812
0.0425,-15.770385742188,-7.5623779296875,22.466918945312
0.043,-12.206909179688,-10.565307617188,21.946411132812
0.0435,-7.7625732421875,-14.168823242188,21.305786132812
0.044,-3.0780029296875,-17.452026367188,20.144653320312
0.0445,2.2471923828125,-20.054565429688,17.702270507812
0.045,5.6104736328125,-21.295776367188,15.860473632812
0.0455,8.6534423828125,-21.495971679688,13.338012695312
0.046,11.696411132812,-21.295776367188,10.214965820312
0.0465,15.860473632812,-20.174682617188,5.0499267578125
0.047,18.863403320312,-18.453002929688,0.5255126953125
0.0475,20.945434570312,-16.491088867188,-3.5985107421875
0.048,22.066528320312,-14.409057617188,-6.7215576171875
0.0485,21.786254882812,-11.045776367188,-9.8446044921875
0.049,21.425903320312,-7.2420654296875,-13.328002929688
0.0495,20.625122070312,-2.9979248046875,-16.851440429688
0.05,18.823364257812,1.8468017578125,-19.734252929688
0.0505,16.781372070312,5.3302001953125,-21.215698242188
0.051,14.579223632812,8.2930908203125,-22.096557617188
0.0515,11.095825195312,11.336059570312,-21.816284179688
0.052,5.7305908203125,15.299926757812,-20.655151367188
0.0525,1.2061767578125,18.182739257812,-19.213745117188
0.053,-3.3582763671875,20.424926757812,-17.051635742188
0.0535,-6.5614013671875,21.425903320312,-15.249877929688
0.054,-9.6444091796875,21.185668945312,-12.046752929688
0.0545,-12.927612304688,20.785278320312,-8.6434326171875
0.055,-16.731323242188,19.584106445312,-3.7987060546875
0.0555,-19.614135742188,17.462036132812,1.2061767578125
0.056,-21.215698242188,15.580200195312,4.7296142578125
0.0565,-22.056518554688,13.257934570312,7.8126220703125
0.057,-21.696166992188,9.7745361328125,10.855590820312
0.0575,-21.095581054688,5.3302001953125,14.699340820312
0.058,-20.014526367188,1.2862548828125,17.862426757812
0.0585,-18.212768554688,-3.1981201171875,20.464965820312
0.059,-16.210815429688,-6.4012451171875,21.786254882812
0.0595,-13.328002929688,-9.3641357421875,21.906372070312
0.06,-9.7645263671875,-12.567260742188,21.706176757812
0.0605,-4.3592529296875,-16.451049804688,20.264770507812
0.061,0.6456298828125,-19.053588867188,18.182739257812
0.0615,4.3692626953125,-20.815307617188,16.421020507812
0.062,7.4923095703125,-21.536010742188,14.379028320312
0.0625,10.535278320312,-21.095581054688,10.975708007812
0.063,14.218872070312,-20.334838867188,6.7716064453125
0.0635,17.582153320312,-19.053588867188,2.3272705078125
0.064,20.184692382812,-16.811401367188,-2.4373779296875
0.0645,21.305786132812,-15.009643554688,-5.4803466796875
0.065,21.706176757812,-12.206909179688,-8.5233154296875
0.0655,21.305786132812,-8.8436279296875,-11.806518554688
0.066,20.464965820312,-4.1990966796875,-15.450073242188
0.0665,19.023559570312,0.0450439453125,-18.252807617188
0.067,17.341918945312,4.0089111328125,-20.494995117188
0.0675,15.339965820312,7.0518798828125,-21.576049804688
0.068,11.936645507812,10.054809570312,-21.295776367188
0.0685,7.8526611328125,13.458129882812,-20.895385742188
0.069,3.0079345703125,16.901489257812,-19.614135742188
0.0695,-1.9569091796875,19.263793945312,-17.171752929688
0.07,-5.0399169921875,20.464965820312,-15.690307617188
0.0705,-8.0828857421875,20.985473632812,-13.368041992188
0.071,-11.205932617188,20.424926757812,-9.8846435546875
0.0715,-14.929565429688,19.504028320312,-5.4002685546875
0.072,-17.932495117188,17.982543945312,-0.9959716796875
0.0725,-20.214721679688,15.980590820312,3.3282470703125
0.073,-21.095581054688,13.938598632812,6.0909423828125
0.0735,-21.135620117188,10.855590820312,9.2540283203125
0.074,-20.815307617188,7.1719970703125,12.657348632812
0.0745,-20.054565429688,2.9678955078125,16.180786132812
0.075,-18.212768554688,-1.4764404296875,18.743286132812
0.0755,-16.611206054688,-4.8397216796875,20.545043945312
0.076,-14.609252929688,-7.6824951171875,21.465942382812
0.0765,-10.885620117188,-10.725463867188,20.945434570312
0.077,-6.4012451171875,-14.288940429688,20.104614257812
0.0775,-1.7166748046875,-17.371948242188,18.703247070312
0.078,2.9278564453125,-19.534057617188,16.581176757812
0.0785,5.6905517578125,-20.414916992188,14.859497070312
0.079,8.6534423828125,-20.494995117188,12.216918945312
0.0795,12.176879882812,-20.014526367188,8.3731689453125
0.08,15.540161132812,-18.933471679688,4.1290283203125
0.0805,18.302856445312,-17.171752929688,-0.3953857421875
0.081,20.224731445312,-15.410034179688,-3.9588623046875
0.0815,20.785278320312,-13.127807617188,-6.7615966796875
0.082,20.545043945312,-9.9647216796875,-9.8846435546875
0.0825,20.024536132812,-5.9207763671875,-13.328002929688
0.083,19.223754882812,-1.7967529296875,-16.651245117188
0.0835,17.421997070312,2.4073486328125,-19.053588867188
0.084,15.700317382812,5.3702392578125,-20.374877929688
0.0845,13.297973632812,8.2930908203125,-20.855346679688
0.085,9.2940673828125,11.656372070312,-20.454956054688
0.0855,4.7296142578125,15.059692382812,-19.453979492188
0.086,0.1251220703125,17.782348632812,-17.652221679688
0.0865,-3.7586669921875,19.704223632812,-16.010620117188
0.087,-6.4412841796875,20.184692382812,-14.048706054688
0.0875,-9.4442138671875,19.984497070312,-11.165893554688
0.088,-13.127807617188,19.463989257812,-7.0819091796875
0.0885,-16.370971679688,18.142700195312,-2.6776123046875
0.089,-18.813354492188,16.260864257812,1.7266845703125
0.0895,-20.334838867188,14.539184570312,4.7296142578125
0.09,-20.735229492188,12.016723632812,7.6925048828125
0.0905,-20.494995117188,8.3731689453125,11.095825195312
0.091,-19.774291992188,4.4893798828125,14.379028320312
0.0915,-18.573120117188,0.3653564453125,17.301879882812
0.092,-16.891479492188,-3.6785888671875,19.704223632812
0.0925,-15.009643554688,-6.3612060546875,20.464965820312
0.093,-12.286987304688,-9.1239013671875,20.745239257812
0.0935,-7.9627685546875,-12.887573242188,20.184692382812
0.094,-3.1981201171875,-16.050659179688,18.823364257812
0.0945,1.2462158203125,-18.252807617188,16.861450195312
0.095,4.5294189453125,-19.894409179688,15.380004882812
0.0955,7.3321533203125,-20.174682617188,13.097778320312
0.096,10.415161132812,-19.654174804688,9.8145751953125
0.0965,13.938598632812,-19.133666992188,5.7706298828125
0.097,17.021606445312,-17.572143554688,1.3262939453125
0.0975,19.223754882812,-15.690307617188,-2.8377685546875
0.098,20.024536132812,-13.808471679688,-5.4403076171875
0.0985,20.264770507812,-11.085815429688,-8.4031982421875
0.099,19.904418945312,-7.0819091796875,-12.006713867188
0.0995,19.183715820312,-3.2781982421875,-15.169799804688
0.1,17.622192382812,0.8458251953125,-17.612182617188
0.1005,16.140747070312,4.3292236328125,-19.734252929688
0.101,13.898559570312,6.9718017578125,-20.214721679688
0.1015,10.815551757812,9.8946533203125,-20.014526367188
0.102,6.4512939453125,13.498168945312,-19.453979492188
0.1025,1.7667236328125,16.541137695312,-17.972534179688
0.103,-2.4373779296875,18.463012695312,-16.090698242188
0.1035,-5.1199951171875,19.584106445312,-14.649291992188
0.104,-8.0428466796875,19.704223632812,-12.166870117188
0.1045,-11.526245117188,19.063598632812,-8.2030029296875
0.105,-14.689331054688,18.262817382812,-4.3592529296875
0.1055,-17.452026367188,16.581176757812,0.0050048828125
0.106,-19.494018554688,14.859497070312,3.6085205078125
0.1065,-19.854370117188,12.657348632812,6.2110595703125
0.107,-19.934448242188,9.8946533203125,9.1739501953125
0.1075,-19.494018554688,5.7706298828125,12.817504882812
0.108,-18.573120117188,1.8067626953125,15.940551757812
0.1085,-16.931518554688,-2.0770263671875,18.062622070312
0.109,-15.570190429688,-4.9998779296875,19.784301757812
0.1095,-13.127807617188,-7.7225341796875,20.104614257812
0.11,-9.3240966796875,-10.925659179688,19.704223632812
0.1105,-5.2000732421875,-14.168823242188,18.863403320312
0.111,-0.5155029296875,-16.891479492188,17.141723632812
0.1115,3.2481689453125,-18.773315429688,15.500122070312
0.112,5.7305908203125,-19.293823242188,13.738403320312
0.1125,8.5733642578125,-19.494018554688,11.255981445312
0.113,12.417114257812,-18.813354492188,6.9718017578125
0.1135,15.299926757812,-17.732299804688,2.9678955078125
0.114,17.662231445312,-15.970581054688,-0.9559326171875
0.1145,19.343872070312,-14.409057617188,-4.0389404296875
0.115,19.504028320312,-11.926635742188,-6.6815185546875
0.1155,19.383911132812,-8.6033935546875,-9.9246826171875
0.116,18.903442382812,-4.9998779296875,-13.167846679688
0.1165,17.822387695312,-0.9158935546875,-16.170776367188
0.117,16.220825195312,2.8077392578125,-18.252807617188
0.1175,14.619262695312,5.3302001953125,-19.253784179688
0.118,12.216918945312,8.0928955078125,-19.614135742188
0.1185,7.6524658203125,11.816528320312,-18.973510742188
0.119,3.6885986328125,14.619262695312,-18.012573242188
0.1195,-0.5155029296875,16.941528320312,-16.370971679688
0.12,-3.8387451171875,18.663208007812,-14.929565429688
0.1205,-6.2811279296875,18.703247070312,-12.807495117188
0.121,-9.1639404296875,18.663208007812,-9.9647216796875
0.1215,-12.887573242188,18.062622070312,-6.0408935546875
0.122,-15.770385742188,16.661254882812,-1.7166748046875
0.1225,-17.812377929688,15.059692382812,1.9268798828125
0.123,-18.933471679688,13.498168945312,4.6094970703125
0.1235,-19.213745117188,10.975708007812,7.3321533203125
0.124,-18.853393554688,7.0919189453125,10.895629882812
0.1245,-18.332885742188,3.6485595703125,13.858520507812
0.125,-17.051635742188,-0.2752685546875,16.421020507812
0.1255,-15.730346679688,-3.5985107421875,18.583129882812
0.126,-13.728393554688,-6.0408935546875,18.983520507812
0.1265,-11.245971679688,-8.7235107421875,19.263793945312
0.127,-6.5614013671875,-12.487182617188,18.583129882812
0.1275,-2.2371826171875,-15.410034179688,17.141723632812
0.128,1.4864501953125,-17.211791992188,15.620239257812
0.1285,4.3292236328125,-18.613159179688,14.379028320312
0.129,7.0118408203125,-18.613159179688,11.896606445312
0.1295,10.255004882812,-18.252807617188,8.2930908203125
0.13,13.458129882812,-17.652221679688,4.8096923828125
0.1305,16.140747070312,-16.010620117188,0.6055908203125
0.131,17.942504882812,-14.569213867188,-2.6776123046875
0.1315,18.503051757812,-12.567260742188,-5.2401123046875
0.132,18.823364257812,-10.124877929688,-7.8826904296875
0.1325,18.382934570312,-5.9608154296875,-11.686401367188
0.133,17.622192382812,-2.3973388671875,-14.489135742188
0.1335,16.220825195312,1.1661376953125,-16.611206054688
0.134,15.099731445312,4.1290283203125,-18.573120117188
0.1345,12.617309570312,6.6915283203125,-18.693237304688
0.135,9.3341064453125,9.7745361328125,-18.573120117188
0.1355,5.3702392578125,13.137817382812,-18.092651367188
0.136,0.7657470703125,15.820434570312,-16.411010742188
0.1365,-2.5174560546875,17.462036132812,-15.049682617188
0.137,-5.0399169921875,18.302856445312,-13.568237304688
0.1375,-7.7225341796875,18.422973632812,-11.326049804688
0.138,-11.566284179688,17.782348632812,-6.9217529296875
0.1385,-14.409057617188,16.901489257812,-3.2781982421875
0.139,-16.731323242188,15.380004882812,0.4854736328125
0.1395,-18.453002929688,13.978637695312,3.6085205078125
0.14,-18.573120117188,11.576293945312,6.1309814453125
0.1405,-18.773315429688,8.6934814453125,9.1739501953125
0.141,-18.453002929688,4.8497314453125,12.777465820312
0.1415,-17.331909179688,0.8858642578125,15.580200195312
0.142,-15.850463867188,-2.4774169921875,17.502075195312
0.1425,-14.649291992188,-5.1199951171875,18.943481445312
0.143,-12.126831054688,-7.7225341796875,19.103637695312
0.1435,-7.7225341796875,-11.406127929688,18.503051757812
0.144,-3.9188232421875,-14.248901367188,17.702270507812
0.1445,0.4854736328125,-16.691284179688,15.980590820312
0.145,3.5684814453125,-18.292846679688,14.739379882812
0.1455,6.0108642578125,-18.573120117188,12.537231445312
0.146,8.8936767578125,-18.573120117188,10.094848632812
0.1465,12.777465820312,-17.892456054688,5.7305908203125
0.147,15.500122070312,-16.491088867188,1.7266845703125
0.1475,17.462036132812,-15.009643554688,-1.7166748046875
0.148,18.743286132812,-13.448120117188,-4.5194091796875
0.1485,18.743286132812,-10.885620117188,-7.0819091796875
0.149,18.543090820312,-7.2020263671875,-10.645385742188
0.1495,18.182739257812,-3.7186279296875,-13.688354492188
0.15,16.901489257812,0.3653564453125,-16.411010742188
0.1505,15.420043945312,3.5684814453125,-18.252807617188
0.151,13.458129882812,6.0909423828125,-18.933471679688
0.1515,10.935668945312,8.8135986328125,-19.173706054688
0.152,6.0108642578125,12.737426757812,-18.292846679688
0.1525,1.9268798828125,15.380004882812,-17.011596679688
0.153,-1.7567138671875,17.301879882812,-15.610229492188
0.1535,-4.6395263671875,18.663208007812,-14.328979492188
0.154,-7.3621826171875,18.503051757812,-11.526245117188
0.1545,-10.525268554688,18.262817382812,-8.3231201171875
0.155,-13.968627929688,17.622192382812,-4.3592529296875
0.1555,-16.651245117188,15.860473632812,0.0050048828125
0.156,-18.292846679688,14.338989257812,3.1280517578125
0.1565,-19.093627929688,12.377075195312,5.8106689453125
0.157,-19.173706054688,9.7745361328125,8.4532470703125
0.1575,-18.733276367188,5.4503173828125,12.337036132812
0.158,-17.932495117188,1.9268798828125,15.179809570312
0.1585,-16.531127929688,-1.8367919921875,17.582153320312
0.159,-15.169799804688,-4.8397216796875,19.223754882812
0.1595,-12.447143554688,-7.4422607421875,19.183715820312
0.16,-9.5242919921875,-10.405151367188,19.263793945312
0.1605,-4.7596435546875,-14.088745117188,18.302856445312
0.161,0.0050048828125,-16.651245117188,16.461059570312
0.1615,3.0479736328125,-18.132690429688,15.019653320312
0.162,5.8106689453125,-19.053588867188,13.458129882812
0.1625,8.4932861328125,-18.773315429688,10.735473632812
0.163,12.176879882812,-18.132690429688,6.5714111328125
0.1635,15.139770507812,-17.251831054688,2.8077392578125
0.164,17.542114257812,-15.530151367188,-1.3162841796875
0.1645,18.903442382812,-13.968627929688,-4.1190185546875
0.165,19.063598632812,-11.446166992188,-6.8016357421875
0.1655,19.143676757812,-8.6834716796875,-9.7645263671875
0.166,18.623168945312,-4.4793701171875,-13.448120117188
0.1665,17.301879882812,-0.5155029296875,-16.130737304688
0.167,15.860473632812,2.8477783203125,-17.972534179688
0.1675,14.459106445312,5.6104736328125,-19.413940429688
0.168,11.456176757812,8.2930908203125,-19.093627929688
0.1685,7.4122314453125,11.776489257812,-18.693237304688
0.169,3.3282470703125,14.819458007812,-17.932495117188
0.1695,-1.2762451171875,17.221801757812,-15.890502929688
0.17,-3.9989013671875,18.463012695312,-14.569213867188
0.1705,-6.6815185546875,18.823364257812,-12.487182617188
0.171,-9.4842529296875,18.623168945312,-9.7244873046875
0.1715,-13.247924804688,17.822387695312,-5.3201904296875
0.172,-16.010620117188,16.461059570312,-1.2362060546875
0.1725,-18.052612304688,14.859497070312,2.3673095703125
0.173,-19.173706054688,13.257934570312,5.0899658203125
0.1735,-19.093627929688,10.415161132812,7.7725830078125
0.174,-18.973510742188,7.0118408203125,11.135864257812
0.1745,-18.493041992188,3.1680908203125,14.419067382812
0.175,-16.931518554688,-0.9959716796875,16.981567382812
0.1755,-15.410034179688,-3.9588623046875,18.543090820312
0.176,-13.728393554688,-6.5614013671875,19.504028320312
0.1765,-10.645385742188,-9.4041748046875,19.343872070312
0.177,-5.8406982421875,-13.047729492188,18.463012695312
0.1775,-1.7567138671875,-15.890502929688,17.221801757812
0.178,2.2471923828125,-17.972534179688,15.620239257812
