wavelength,x,y,z
0.0,-1.031005859375,-6.716552734375,5.575439453125
0.0005,-1.791748046875,-6.596435546875,6.216064453125
0.001,-2.952880859375,-5.595458984375,6.536376953125
0.0015,-4.354248046875,-4.194091796875,6.736572265625
0.002,-5.555419921875,-2.712646484375,6.896728515625
0.0025,-6.156005859375,-1.511474609375,6.696533203125
0.003,-6.476318359375,-0.710693359375,6.536376953125
0.0035,-6.356201171875,0.250244140625,5.855712890625
0.004,-6.035888671875,1.411376953125,4.694580078125
0.0045,-5.835693359375,2.772705078125,3.373291015625
0.005,-5.555419921875,4.013916015625,2.092041015625
0.0055,-5.195068359375,4.854736328125,1.091064453125
0.006,-4.834716796875,5.415283203125,0.330322265625
0.0065,-3.873779296875,5.575439453125,-0.710693359375
0.007,-2.552490234375,5.735595703125,-2.072021484375
0.0075,-1.271240234375,5.895751953125,-3.593505859375
0.008,-0.150146484375,5.895751953125,-4.714599609375
0.0085,0.610595703125,6.055908203125,-5.595458984375
0.009,1.411376953125,5.735595703125,-6.156005859375
0.0095,2.612548828125,4.534423828125,-6.476318359375
0.01,4.013916015625,3.253173828125,-6.756591796875
0.0105,5.054931640625,1.931884765625,-6.796630859375
0.011,5.695556640625,0.890869140625,-6.676513671875
0.0115,5.895751953125,0.130126953125,-6.476318359375
0.012,5.735595703125,-0.830810546875,-5.755615234375
0.0125,5.535400390625,-2.072021484375,-4.674560546875
0.013,5.415283203125,-3.393310546875,-3.473388671875
0.0135,5.094970703125,-4.554443359375,-2.232177734375
0.014,4.854736328125,-5.435302734375,-1.311279296875
0.0145,4.334228515625,-5.875732421875,-0.510498046875
0.015,3.333251953125,-6.115966796875,0.610595703125
0.0155,2.092041015625,-6.316162109375,2.052001953125
0.016,0.770751953125,-6.436279296875,3.493408203125
0.0165,-0.270263671875,-6.556396484375,4.534423828125
0.017,-0.910888671875,-6.716552734375,5.375244140625
0.0175,-1.871826171875,-6.156005859375,5.815673828125
0.018,-3.153076171875,-4.954833984375,6.216064453125
0.0185,-4.434326171875,-3.673583984375,6.456298828125
0.019,-5.355224609375,-2.432373046875,6.456298828125
0.0195,-5.875732421875,-1.551513671875,6.416259765625
0.02,-5.995849609375,-0.790771484375,6.095947265625
0.0205,-5.795654296875,0.250244140625,5.295166015625
0.021,-5.715576171875,1.491455078125,4.214111328125
0.0215,-5.595458984375,2.812744140625,3.052978515625
0.022,-5.275146484375,3.853759765625,1.931884765625
0.0225,-5.114990234375,4.614501953125,1.171142578125
0.023,-4.474365234375,4.974853515625,0.330322265625
0.0235,-3.393310546875,5.175048828125,-0.910888671875
0.024,-2.312255859375,5.495361328125,-2.272216796875
0.0245,-1.111083984375,5.615478515625,-3.593505859375
0.025,-0.310302734375,5.815673828125,-4.554443359375
0.0255,0.490478515625,5.815673828125,-5.395263671875
0.026,1.531494140625,5.135009765625,-5.795654296875
0.0265,2.852783203125,3.973876953125,-6.156005859375
0.027,4.053955078125,2.732666015625,-6.396240234375
0.0275,4.854736328125,1.611572265625,-6.396240234375
0.028,5.375244140625,0.890869140625,-6.436279296875
0.0285,5.415283203125,0.090087890625,-6.035888671875
0.029,5.255126953125,-0.990966796875,-5.155029296875
0.0295,5.215087890625,-2.232177734375,-4.154052734375
0.03,5.094970703125,-3.513427734375,-3.072998046875
0.0305,4.854736328125,-4.474365234375,-2.072021484375
0.031,4.614501953125,-5.155029296875,-1.311279296875
0.0315,3.933837890625,-5.475341796875,-0.430419921875
0.032,2.852783203125,-5.755615234375,0.890869140625
0.0325,1.691650390625,-6.075927734375,2.292236328125
0.033,0.650634765625,-6.196044921875,3.493408203125
0.0335,0.010009765625,-6.516357421875,4.454345703125
0.034,-0.910888671875,-6.316162109375,5.094970703125
0.0345,-1.991943359375,-5.475341796875,5.495361328125
0.035,-3.273193359375,-4.394287109375,5.935791015625
0.0355,-4.394287109375,-3.193115234375,6.095947265625
0.036,-5.155029296875,-2.272216796875,6.135986328125
0.0365,-5.515380859375,-1.511474609375,6.095947265625
0.037,-5.515380859375,-0.710693359375,5.615478515625
0.0375,-5.435302734375,0.370361328125,4.774658203125
0.038,-5.435302734375,1.651611328125,3.813720703125
0.0385,-5.275146484375,2.812744140625,2.732666015625
0.039,-5.155029296875,3.773681640625,1.931884765625
0.0395,-4.834716796875,4.334228515625,1.131103515625
0.04,-4.033935546875,4.654541015625,0.210205078125
0.0405,-3.113037109375,5.014892578125,-1.151123046875
0.041,-1.951904296875,5.295166015625,-2.512451171875
0.0415,-1.151123046875,5.495361328125,-3.633544921875
0.042,-0.390380859375,5.815673828125,-4.554443359375
0.0425,0.610595703125,5.455322265625,-5.155029296875
0.043,1.851806640625,4.534423828125,-5.595458984375
0.0435,3.093017578125,3.493408203125,-6.035888671875
0.044,4.093994140625,2.332275390625,-6.156005859375
0.0445,4.774658203125,1.451416015625,-6.276123046875
0.045,5.054931640625,0.770751953125,-6.115966796875
0.0455,5.014892578125,-0.190185546875,-5.515380859375
0.046,5.014892578125,-1.271240234375,-4.674560546875
0.0465,4.974853515625,-2.552490234375,-3.713623046875
0.047,4.854736328125,-3.593505859375,-2.672607421875
0.0475,4.814697265625,-4.514404296875,-1.951904296875
0.048,4.294189453125,-4.954833984375,-1.151123046875
0.0485,3.413330078125,-5.315185546875,0.010009765625
0.049,2.412353515625,-5.715576171875,1.331298828125
0.0495,1.291259765625,-5.955810546875,2.572509765625
0.05,0.610595703125,-6.196044921875,3.613525390625
0.0505,-0.190185546875,-6.356201171875,4.494384765625
0.051,-1.191162109375,-5.795654296875,4.974853515625
0.0515,-2.432373046875,-4.874755859375,5.415283203125
0.052,-3.633544921875,-3.833740234375,5.775634765625
0.0525,-4.514404296875,-2.752685546875,5.895751953125
0.053,-5.074951171875,-2.072021484375,6.015869140625
0.0535,-5.195068359375,-1.311279296875,5.735595703125
0.054,-5.195068359375,-0.470458984375,5.094970703125
0.0545,-5.275146484375,0.770751953125,4.334228515625
0.055,-5.195068359375,1.971923828125,3.333251953125
0.0555,-5.114990234375,2.972900390625,2.452392578125
0.056,-4.994873046875,3.773681640625,1.731689453125
0.0565,-4.474365234375,4.174072265625,0.890869140625
0.057,-3.593505859375,4.534423828125,-0.310302734375
0.0575,-2.712646484375,5.014892578125,-1.591552734375
0.058,-1.711669921875,5.335205078125,-2.792724609375
0.0585,-0.990966796875,5.695556640625,-3.833740234375
0.059,-0.190185546875,5.615478515625,-4.634521484375
0.0595,1.010986328125,4.974853515625,-5.155029296875
0.06,2.292236328125,4.013916015625,-5.635498046875
0.0605,3.453369140625,2.892822265625,-5.915771484375
0.061,4.294189453125,1.971923828125,-6.115966796875
0.0615,4.814697265625,1.291259765625,-6.196044921875
0.062,4.894775390625,0.530517578125,-5.755615234375
0.0625,4.894775390625,-0.630615234375,-5.074951171875
0.063,4.974853515625,-1.831787109375,-4.194091796875
0.0635,4.894775390625,-3.032958984375,-3.193115234375
0.064,4.814697265625,-3.993896484375,-2.392333984375
0.0645,4.534423828125,-4.674560546875,-1.591552734375
0.065,3.813720703125,-5.074951171875,-0.630615234375
0.0655,2.852783203125,-5.515380859375,0.650634765625
0.066,1.851806640625,-5.755615234375,2.052001953125
0.0665,0.970947265625,-6.115966796875,3.133056640625
0.067,0.290283203125,-6.396240234375,4.134033203125
0.0675,-0.710693359375,-6.075927734375,4.774658203125
0.068,-1.951904296875,-5.195068359375,5.255126953125
0.0685,-3.193115234375,-4.194091796875,5.695556640625
0.069,-4.234130859375,-3.072998046875,5.855712890625
0.0695,-4.914794921875,-2.272216796875,6.015869140625
0.07,-5.195068359375,-1.591552734375,5.895751953125
0.0705,-5.195068359375,-0.670654296875,5.295166015625
0.071,-5.235107421875,0.490478515625,4.494384765625
0.0715,-5.275146484375,1.771728515625,3.533447265625
0.072,-5.155029296875,2.852783203125,2.572509765625
0.0725,-5.114990234375,3.693603515625,1.811767578125
0.073,-4.634521484375,4.174072265625,1.010986328125
0.0735,-3.793701171875,4.494384765625,-0.150146484375
0.074,-2.832763671875,5.014892578125,-1.431396484375
0.0745,-1.791748046875,5.255126953125,-2.752685546875
0.075,-0.990966796875,5.615478515625,-3.833740234375
0.0755,-0.270263671875,5.735595703125,-4.674560546875
0.076,0.890869140625,5.135009765625,-5.195068359375
0.0765,2.212158203125,4.134033203125,-5.675537109375
0.077,3.493408203125,2.972900390625,-6.035888671875
0.0775,4.334228515625,1.931884765625,-6.115966796875
0.078,4.934814453125,1.211181640625,-6.276123046875
0.0785,5.054931640625,0.450439453125,-5.915771484375
0.079,4.974853515625,-0.630615234375,-5.114990234375
0.0795,5.054931640625,-1.951904296875,-4.234130859375
0.08,4.974853515625,-3.153076171875,-3.153076171875
0.0805,4.814697265625,-4.194091796875,-2.232177734375
0.081,4.614501953125,-4.914794921875,-1.471435546875
0.0815,3.853759765625,-5.275146484375,-0.630615234375
0.082,2.892822265625,-5.515380859375,0.690673828125
0.0825,1.771728515625,-5.915771484375,2.172119140625
0.083,0.770751953125,-6.115966796875,3.333251953125
0.0835,0.130126953125,-6.436279296875,4.334228515625
0.084,-0.790771484375,-6.236083984375,4.974853515625
0.0845,-1.991943359375,-5.315185546875,5.415283203125
0.085,-3.353271484375,-4.234130859375,5.855712890625
0.0855,-4.474365234375,-3.072998046875,6.095947265625
0.086,-5.155029296875,-2.072021484375,6.135986328125
0.0865,-5.515380859375,-1.391357421875,6.055908203125
0.087,-5.475341796875,-0.590576171875,5.455322265625
0.0875,-5.395263671875,0.610595703125,4.574462890625
0.088,-5.435302734375,1.971923828125,3.533447265625
0.0885,-5.275146484375,3.052978515625,2.492431640625
0.089,-5.114990234375,3.973876953125,1.611572265625
0.0895,-4.754638671875,4.494384765625,0.850830078125
0.09,-3.833740234375,4.814697265625,-0.230224609375
0.0905,-2.752685546875,5.135009765625,-1.551513671875
0.091,-1.631591796875,5.415283203125,-2.952880859375
0.0915,-0.790771484375,5.695556640625,-4.033935546875
0.092,0.010009765625,5.855712890625,-4.954833984375
0.0925,0.970947265625,5.375244140625,-5.475341796875
0.093,2.292236328125,4.294189453125,-5.915771484375
0.0935,3.693603515625,3.052978515625,-6.276123046875
0.094,4.614501953125,1.931884765625,-6.356201171875
0.0945,5.215087890625,1.010986328125,-6.396240234375
0.095,5.415283203125,0.290283203125,-6.115966796875
0.0955,5.255126953125,-0.790771484375,-5.355224609375
0.096,5.215087890625,-2.072021484375,-4.314208984375
0.0965,5.175048828125,-3.433349609375,-3.193115234375
0.097,4.974853515625,-4.514404296875,-2.112060546875
0.0975,4.734619140625,-5.275146484375,-1.351318359375
0.098,4.053955078125,-5.635498046875,-0.470458984375
0.0985,2.972900390625,-5.795654296875,0.850830078125
0.099,1.771728515625,-6.156005859375,2.372314453125
0.0995,0.610595703125,-6.356201171875,3.693603515625
0.1,-0.270263671875,-6.556396484375,4.694580078125
0.1005,-1.031005859375,-6.476318359375,5.415283203125
0.101,-2.192138671875,-5.635498046875,5.855712890625
0.1015,-3.593505859375,-4.394287109375,6.256103515625
0.102,-4.834716796875,-3.072998046875,6.496337890625
0.1025,-5.635498046875,-1.911865234375,6.416259765625
0.103,-6.035888671875,-1.151123046875,6.376220703125
0.1035,-5.995849609375,-0.270263671875,5.775634765625
0.104,-5.755615234375,1.010986328125,4.734619140625
0.1045,-5.755615234375,2.412353515625,3.493408203125
0.105,-5.555419921875,3.693603515625,2.252197265625
0.1055,-5.275146484375,4.534423828125,1.291259765625
0.106,-4.834716796875,5.135009765625,0.530517578125
0.1065,-3.913818359375,5.415283203125,-0.630615234375
0.107,-2.592529296875,5.615478515625,-2.031982421875
0.1075,-1.311279296875,5.895751953125,-3.593505859375
0.108,-0.270263671875,5.935791015625,-4.754638671875
0.1085,0.530517578125,6.095947265625,-5.635498046875
0.109,1.451416015625,5.615478515625,-6.196044921875
0.1095,2.852783203125,4.374267578125,-6.556396484375
0.11,4.294189453125,2.972900390625,-6.876708984375
0.1105,5.335205078125,1.611572265625,-6.916748046875
0.111,5.895751953125,0.570556640625,-6.716552734375
0.1115,6.055908203125,-0.310302734375,-6.436279296875
0.112,5.855712890625,-1.311279296875,-5.555419921875
0.1125,5.615478515625,-2.712646484375,-4.234130859375
0.113,5.455322265625,-4.154052734375,-2.912841796875
0.1135,5.094970703125,-5.235107421875,-1.751708984375
0.114,4.814697265625,-5.955810546875,-0.830810546875
0.1145,4.053955078125,-6.276123046875,0.130126953125
0.115,2.852783203125,-6.396240234375,1.291259765625
0.1155,1.411376953125,-6.556396484375,2.892822265625
0.116,0.130126953125,-6.676513671875,4.334228515625
0.1165,-0.870849609375,-6.676513671875,5.295166015625
0.117,-1.551513671875,-6.676513671875,6.015869140625
0.1175,-2.552490234375,-5.835693359375,6.416259765625
0.118,-3.993896484375,-4.434326171875,6.656494140625
0.1185,-5.275146484375,-3.032958984375,6.896728515625
0.119,-6.115966796875,-1.751708984375,6.736572265625
0.1195,-6.476318359375,-0.830810546875,6.576416015625
0.12,-6.396240234375,0.050048828125,6.095947265625
0.1205,-6.115966796875,1.091064453125,5.014892578125
0.121,-5.915771484375,2.492431640625,3.693603515625
0.1215,-5.755615234375,3.853759765625,2.332275390625
0.122,-5.315185546875,4.814697265625,1.251220703125
0.1225,-4.994873046875,5.455322265625,0.450439453125
0.123,-4.154052734375,5.655517578125,-0.590576171875
0.1235,-2.832763671875,5.735595703125,-1.871826171875
0.124,-1.471435546875,6.015869140625,-3.393310546875
0.1245,-0.270263671875,6.055908203125,-4.714599609375
0.125,0.610595703125,6.135986328125,-5.635498046875
0.1255,1.331298828125,5.935791015625,-6.276123046875
0.126,2.532470703125,4.934814453125,-6.596435546875
0.1265,3.973876953125,3.493408203125,-6.916748046875
0.127,5.175048828125,2.052001953125,-7.076904296875
0.1275,5.855712890625,0.850830078125,-6.876708984375
0.128,6.216064453125,0.050048828125,-6.716552734375
0.1285,6.055908203125,-0.990966796875,-6.035888671875
0.129,5.735595703125,-2.152099609375,-4.834716796875
0.1295,5.575439453125,-3.593505859375,-3.553466796875
0.13,5.295166015625,-4.834716796875,-2.232177734375
0.1305,4.974853515625,-5.715576171875,-1.231201171875
0.131,4.494384765625,-6.236083984375,-0.390380859375
0.1315,3.533447265625,-6.396240234375,0.690673828125
0.132,2.092041015625,-6.476318359375,2.172119140625
0.1325,0.690673828125,-6.676513671875,3.773681640625
0.133,-0.510498046875,-6.676513671875,4.854736328125
0.1335,-1.151123046875,-6.796630859375,5.735595703125
0.134,-2.031982421875,-6.356201171875,6.256103515625
0.1345,-3.353271484375,-5.114990234375,6.536376953125
0.135,-4.754638671875,-3.713623046875,6.856689453125
0.1355,-5.755615234375,-2.312255859375,6.856689453125
0.136,-6.356201171875,-1.271240234375,6.696533203125
0.1365,-6.476318359375,-0.510498046875,6.376220703125
0.137,-6.276123046875,0.530517578125,5.575439453125
0.1375,-6.035888671875,1.851806640625,4.294189453125
0.138,-5.875732421875,3.333251953125,2.932861328125
0.1385,-5.515380859375,4.494384765625,1.731689453125
0.139,-5.195068359375,5.255126953125,0.770751953125
0.1395,-4.554443359375,5.615478515625,0.010009765625
0.14,-3.433349609375,5.735595703125,-1.271240234375
0.1405,-2.031982421875,5.935791015625,-2.832763671875
0.141,-0.630615234375,6.055908203125,-4.354248046875
0.1415,0.330322265625,6.095947265625,-5.315185546875
0.142,1.010986328125,6.135986328125,-6.115966796875
0.1425,2.052001953125,5.415283203125,-6.556396484375
0.143,3.493408203125,3.973876953125,-6.876708984375
0.1435,4.854736328125,2.572509765625,-7.076904296875
0.144,5.735595703125,1.251220703125,-6.996826171875
0.1445,6.176025390625,0.250244140625,-6.876708984375
0.145,6.135986328125,-0.710693359375,-6.396240234375
0.1455,5.895751953125,-1.791748046875,-5.315185546875
0.146,5.695556640625,-3.153076171875,-3.993896484375
0.1465,5.495361328125,-4.554443359375,-2.592529296875
0.147,5.094970703125,-5.555419921875,-1.431396484375
0.1475,4.734619140625,-6.236083984375,-0.590576171875
0.148,3.853759765625,-6.396240234375,0.450439453125
0.1485,2.532470703125,-6.516357421875,1.771728515625
0.149,1.051025390625,-6.716552734375,3.413330078125
0.1495,-0.310302734375,-6.716552734375,4.734619140625
0.15,-1.071044921875,-6.756591796875,5.575439453125
0.1505,-1.791748046875,-6.556396484375,6.216064453125
0.151,-2.952880859375,-5.515380859375,6.536376953125
0.1515,-4.394287109375,-4.114013671875,6.776611328125
0.152,-5.595458984375,-2.632568359375,6.896728515625
0.1525,-6.236083984375,-1.511474609375,6.696533203125
0.153,-6.516357421875,-0.710693359375,6.536376953125
0.1535,-6.356201171875,0.210205078125,5.775634765625
0.154,-6.035888671875,1.411376953125,4.654541015625
0.1545,-5.835693359375,2.852783203125,3.333251953125
0.155,-5.595458984375,4.053955078125,2.092041015625
0.1555,-5.195068359375,4.934814453125,1.091064453125
0.156,-4.794677734375,5.455322265625,0.290283203125
0.1565,-3.833740234375,5.575439453125,-0.750732421875
0.157,-2.552490234375,5.695556640625,-2.072021484375
0.1575,-1.231201171875,5.895751953125,-3.633544921875
0.158,0.010009765625,5.895751953125,-4.754638671875
0.1585,0.610595703125,6.095947265625,-5.635498046875
0.159,1.411376953125,5.695556640625,-6.115966796875
0.1595,2.692626953125,4.534423828125,-6.436279296875
0.16,4.053955078125,3.213134765625,-6.756591796875
0.1605,5.094970703125,1.851806640625,-6.796630859375
0.161,5.695556640625,0.770751953125,-6.676513671875
0.1615,5.895751953125,0.050048828125,-6.516357421875
0.162,5.735595703125,-0.870849609375,-5.755615234375
0.1625,5.495361328125,-2.072021484375,-4.674560546875
0.163,5.415283203125,-3.473388671875,-3.433349609375
0.1635,5.094970703125,-4.554443359375,-2.232177734375
0.164,4.894775390625,-5.435302734375,-1.311279296875
0.1645,4.334228515625,-5.875732421875,-0.510498046875
0.165,3.333251953125,-6.075927734375,0.610595703125
0.1655,2.052001953125,-6.276123046875,2.052001953125
0.166,0.770751953125,-6.396240234375,3.493408203125
0.1665,-0.270263671875,-6.556396484375,4.574462890625
0.167,-0.910888671875,-6.676513671875,5.415283203125
0.1675,-1.831787109375,-6.115966796875,5.855712890625
0.168,-3.153076171875,-4.994873046875,6.216064453125
0.1685,-4.474365234375,-3.713623046875,6.536376953125
0.169,-5.435302734375,-2.432373046875,6.496337890625
0.1695,-5.995849609375,-1.551513671875,6.456298828125
0.17,-6.075927734375,-0.750732421875,6.135986328125
0.1705,-5.875732421875,0.330322265625,5.295166015625
0.171,-5.755615234375,1.571533203125,4.214111328125
0.1715,-5.635498046875,2.932861328125,3.012939453125
0.172,-5.395263671875,3.973876953125,1.891845703125
0.1725,-5.114990234375,4.774658203125,1.091064453125
0.173,-4.434326171875,5.094970703125,0.250244140625
0.1735,-3.353271484375,5.255126953125,-0.990966796875
0.174,-2.152099609375,5.615478515625,-2.472412109375
0.1745,-0.950927734375,5.735595703125,-3.833740234375
0.175,-0.150146484375,5.895751953125,-4.834716796875
0.1755,0.650634765625,5.895751953125,-5.555419921875
0.176,1.731689453125,5.094970703125,-5.955810546875
0.1765,3.133056640625,3.853759765625,-6.316162109375
0.177,4.334228515625,2.492431640625,-6.596435546875
0.1775,5.094970703125,1.331298828125,-6.516357421875
0.178,5.535400390625,0.650634765625,-6.476318359375
0.1785,5.535400390625,-0.230224609375,-5.955810546875
0.179,5.335205078125,-1.311279296875,-4.994873046875
0.1795,5.255126953125,-2.592529296875,-3.953857421875
0.18,5.094970703125,-3.833740234375,-2.752685546875
0.1805,4.854736328125,-4.794677734375,-1.791748046875
0.181,4.534423828125,-5.435302734375,-1.031005859375
0.1815,3.773681640625,-5.635498046875,0.010009765625
0.182,2.612548828125,-5.835693359375,1.211181640625
0.1825,1.411376953125,-6.115966796875,2.612548828125
0.183,0.330322265625,-6.236083984375,3.813720703125
0.1835,-0.390380859375,-6.476318359375,4.734619140625
0.184,-1.151123046875,-6.276123046875,5.335205078125
0.1845,-2.272216796875,-5.355224609375,5.695556640625
0.185,-3.553466796875,-4.234130859375,6.055908203125
0.1855,-4.674560546875,-3.032958984375,6.176025390625
0.186,-5.355224609375,-2.031982421875,6.216064453125
0.1865,-5.635498046875,-1.311279296875,6.095947265625
0.187,-5.595458984375,-0.590576171875,5.575439453125
0.1875,-5.435302734375,0.610595703125,4.694580078125
0.188,-5.435302734375,1.891845703125,3.653564453125
