wavelength,x,y,z
0.0,5.335205078125,-23.773193359375,12.702392578125
0.0005,10.019775390625,-23.773193359375,7.777587890625
0.001,14.063720703125,-24.694091796875,4.494384765625
0.0015,17.026611328125,-23.693115234375,0.690673828125
0.002,20.109619140625,-22.411865234375,-3.273193359375
0.0025,21.791259765625,-19.929443359375,-6.916748046875
0.003,23.873291015625,-17.286865234375,-10.760498046875
0.0035,23.192626953125,-12.562255859375,-13.843505859375
0.004,22.992431640625,-8.518310546875,-16.526123046875
0.0045,22.351806640625,-5.595458984375,-17.767333984375
0.005,20.109619140625,-0.150146484375,-19.649169921875
0.0055,18.107666015625,4.093994140625,-20.730224609375
0.006,13.943603515625,9.259033203125,-20.650146484375
0.0065,10.380126953125,13.543212890625,-20.650146484375
0.007,5.735595703125,16.826416015625,-18.568115234375
0.0075,2.052001953125,19.468994140625,-16.806396484375
0.008,-3.032958984375,21.751220703125,-13.523193359375
0.0085,-7.757568359375,24.313720703125,-10.920654296875
0.009,-12.322021484375,23.633056640625,-5.635498046875
0.0095,-15.885498046875,24.193603515625,-2.592529296875
0.01,-18.407958984375,22.992431640625,1.091064453125
0.0105,-21.330810546875,21.310791015625,5.215087890625
0.011,-22.852294921875,18.628173828125,8.818603515625
0.0115,-24.213623046875,15.144775390625,12.662353515625
0.012,-23.613037109375,10.820556640625,15.385009765625
0.0125,-23.052490234375,6.576416015625,17.867431640625
0.013,-22.091552734375,3.693603515625,18.708251953125
0.0135,-19.849365234375,-1.751708984375,20.510009765625
0.014,-17.567138671875,-6.396240234375,21.751220703125
0.0145,-12.762451171875,-11.401123046875,20.950439453125
0.015,-9.759521484375,-15.004638671875,20.830322265625
0.0155,-5.034912109375,-18.207763671875,18.588134765625
0.016,-0.790771484375,-20.770263671875,16.305908203125
0.0165,3.773681640625,-22.772216796875,13.262939453125
0.017,9.138916015625,-25.054443359375,9.819580078125
0.0175,12.902587890625,-24.173583984375,5.054931640625
0.018,16.506103515625,-24.493896484375,1.931884765625
0.0185,18.748291015625,-23.052490234375,-1.671630859375
0.019,21.751220703125,-21.090576171875,-5.955810546875
0.0195,23.112548828125,-18.327880859375,-9.399169921875
0.02,23.873291015625,-14.083740234375,-13.403076171875
0.0205,23.512939453125,-10.440185546875,-15.605224609375
0.021,22.511962890625,-6.075927734375,-17.807373046875
0.0215,21.190673828125,-2.752685546875,-18.688232421875
0.022,18.948486328125,2.412353515625,-20.369873046875
0.0225,16.025634765625,7.657470703125,-21.531005859375
0.023,10.820556640625,12.422119140625,-20.209716796875
0.0235,8.258056640625,15.585205078125,-20.089599609375
0.024,3.373291015625,18.468017578125,-17.406982421875
0.0245,-1.271240234375,21.190673828125,-15.044677734375
0.025,-5.595458984375,22.952392578125,-11.921630859375
0.0255,-11.240966796875,24.874267578125,-7.957763671875
0.026,-14.564208984375,23.793212890625,-3.513427734375
0.0265,-18.007568359375,23.913330078125,-0.190185546875
0.027,-20.089599609375,22.071533203125,3.453369140625
0.0275,-22.812255859375,19.989501953125,7.657470703125
0.028,-23.973388671875,16.506103515625,11.461181640625
0.0285,-24.053466796875,11.861572265625,15.064697265625
0.029,-23.933349609375,8.778564453125,16.946533203125
0.0295,-22.451904296875,3.973876953125,19.068603515625
0.03,-20.810302734375,0.130126953125,20.109619140625
0.0305,-18.728271484375,-4.514404296875,21.390869140625
0.031,-15.044677734375,-10.400146484375,22.431884765625
0.0315,-9.919677734375,-14.364013671875,20.550048828125
0.032,-7.156982421875,-17.647216796875,20.309814453125
0.0325,-1.911865234375,-20.289794921875,16.946533203125
0.033,2.852783203125,-23.092529296875,14.464111328125
0.0335,7.177001953125,-24.333740234375,10.940673828125
0.034,12.782470703125,-25.815185546875,6.696533203125
0.0345,15.545166015625,-24.533935546875,2.732666015625
0.035,19.228759765625,-24.093505859375,-1.191162109375
0.0355,21.110595703125,-21.971435546875,-4.754638671875
0.036,23.673095703125,-19.809326171875,-8.758544921875
0.0365,24.313720703125,-15.685302734375,-12.602294921875
0.037,24.033447265625,-10.800537109375,-16.005615234375
0.0375,23.833251953125,-8.197998046875,-17.366943359375
0.038,21.751220703125,-2.912841796875,-19.288818359375
0.0385,19.989501953125,1.211181640625,-20.409912109375
0.039,17.306884765625,5.895751953125,-21.210693359375
0.0395,13.182861328125,11.661376953125,-21.891357421875
0.04,8.137939453125,15.304931640625,-19.729248046875
0.0405,5.094970703125,18.387939453125,-19.048583984375
0.041,-0.190185546875,20.670166015625,-15.565185546875
0.0415,-4.834716796875,23.552978515625,-13.202880859375
0.042,-9.439208984375,24.153564453125,-8.838623046875
0.0425,-14.404052734375,25.114501953125,-4.754638671875
0.043,-17.046630859375,24.273681640625,-1.271240234375
0.0435,-20.449951171875,22.992431640625,3.133056640625
0.044,-22.091552734375,20.670166015625,6.536376953125
0.0445,-24.173583984375,18.227783203125,10.300048828125
0.045,-24.533935546875,13.743408203125,14.143798828125
0.0455,-23.773193359375,8.978759765625,16.946533203125
0.046,-23.813232421875,6.376220703125,18.508056640625
0.0465,-21.290771484375,1.010986328125,20.029541015625
0.047,-19.689208984375,-3.153076171875,21.350830078125
0.0475,-16.205810546875,-7.997802734375,21.591064453125
0.048,-12.322021484375,-13.403076171875,22.071533203125
0.0485,-7.717529296875,-16.526123046875,19.909423828125
0.049,-3.833740234375,-19.769287109375,18.548095703125
0.0495,1.131103515625,-21.771240234375,15.064697265625
0.05,5.615478515625,-24.573974609375,12.862548828125
0.0505,10.500244140625,-24.614013671875,7.857666015625
0.051,14.864501953125,-25.134521484375,3.973876953125
0.0515,17.427001953125,-24.573974609375,0.970947265625
0.052,20.750244140625,-22.772216796875,-3.793701171875
0.0525,22.471923828125,-20.449951171875,-7.317138671875
0.053,24.033447265625,-17.527099609375,-10.880615234375
0.0535,24.353759765625,-13.082763671875,-14.604248046875
0.054,23.312744140625,-8.478271484375,-16.966552734375
0.0545,23.072509765625,-5.715576171875,-18.407958984375
0.055,20.389892578125,-0.310302734375,-19.889404296875
0.0555,18.748291015625,4.174072265625,-21.490966796875
0.056,14.263916015625,9.098876953125,-20.850341796875
0.0565,10.500244140625,13.943603515625,-21.210693359375
0.057,6.256103515625,16.906494140625,-19.168701171875
0.0575,1.811767578125,20.069580078125,-17.166748046875
0.058,-2.912841796875,22.031494140625,-13.803466796875
0.0585,-7.877685546875,24.754150390625,-11.040771484375
0.059,-12.402099609375,24.393798828125,-6.115966796875
0.0595,-16.486083984375,24.593994140625,-2.232177734375
0.06,-18.768310546875,23.833251953125,0.730712890625
0.0605,-21.811279296875,21.631103515625,5.495361328125
0.061,-23.532958984375,19.108642578125,9.058837890625
0.0615,-24.373779296875,15.184814453125,12.862548828125
0.062,-24.614013671875,11.260986328125,15.945556640625
0.0625,-23.412841796875,6.576416015625,18.227783203125
0.063,-22.692138671875,3.453369140625,19.468994140625
0.0635,-20.009521484375,-1.951904296875,20.830322265625
0.064,-18.047607421875,-6.796630859375,22.511962890625
0.0645,-12.962646484375,-11.841552734375,21.350830078125
0.065,-9.559326171875,-15.885498046875,21.230712890625
0.0655,-5.275146484375,-18.608154296875,19.068603515625
0.066,-0.270263671875,-21.651123046875,16.466064453125
0.0665,4.174072265625,-23.332763671875,13.262939453125
0.067,9.619384765625,-25.494873046875,9.659423828125
0.0675,13.583251953125,-25.054443359375,5.175048828125
0.068,17.226806640625,-24.774169921875,1.331298828125
0.0685,19.388916015625,-23.693115234375,-1.711669921875
0.069,22.271728515625,-21.250732421875,-6.476318359375
0.0695,23.993408203125,-18.648193359375,-9.999755859375
0.07,24.033447265625,-13.883544921875,-13.763427734375
0.0705,24.353759765625,-10.560302734375,-16.325927734375
0.071,22.832275390625,-5.995849609375,-18.207763671875
0.0715,21.591064453125,-2.312255859375,-19.489013671875
0.072,18.948486328125,2.692626953125,-20.530029296875
0.0725,16.145751953125,7.897705078125,-22.051513671875
0.073,10.940673828125,12.582275390625,-20.489990234375
0.0735,7.817626953125,16.225830078125,-20.169677734375
0.074,3.693603515625,18.588134765625,-17.767333984375
0.0745,-1.471435546875,21.671142578125,-15.044677734375
0.075,-5.835693359375,23.312744140625,-11.841552734375
0.0755,-11.361083984375,24.794189453125,-7.557373046875
0.076,-14.764404296875,24.473876953125,-3.753662109375
0.0765,-18.207763671875,23.833251953125,0.210205078125
0.077,-20.129638671875,22.431884765625,3.253173828125
0.0775,-22.612060546875,19.949462890625,7.617431640625
0.078,-24.293701171875,16.786376953125,11.541259765625
0.0785,-23.653076171875,11.821533203125,14.824462890625
0.079,-24.213623046875,8.938720703125,17.226806640625
0.0795,-22.411865234375,4.454345703125,18.708251953125
0.08,-20.970458984375,0.290283203125,20.189697265625
0.0805,-18.528076171875,-4.274169921875,21.070556640625
0.081,-15.124755859375,-10.119873046875,22.271728515625
0.0815,-10.320068359375,-13.883544921875,20.469970703125
0.082,-6.956787109375,-17.527099609375,20.069580078125
0.0825,-2.872802734375,-19.408935546875,17.266845703125
0.083,2.252197265625,-22.451904296875,14.624267578125
0.0835,6.856689453125,-23.973388671875,11.140869140625
0.084,12.061767578125,-24.814208984375,6.616455078125
0.0845,14.944580078125,-24.654052734375,3.533447265625
0.085,18.508056640625,-23.613037109375,-0.830810546875
0.0855,20.389892578125,-21.971435546875,-3.993896484375
0.086,22.552001953125,-19.649169921875,-7.877685546875
0.0865,24.113525390625,-15.885498046875,-12.201904296875
0.087,23.032470703125,-11.000732421875,-15.004638671875
0.0875,23.633056640625,-8.398193359375,-17.046630859375
0.088,21.470947265625,-3.913818359375,-18.247802734375
0.0885,19.989501953125,0.610595703125,-20.009521484375
0.089,17.146728515625,5.094970703125,-20.570068359375
0.0895,13.022705078125,11.020751953125,-21.410888671875
0.09,8.938720703125,14.183837890625,-19.689208984375
0.0905,5.094970703125,17.867431640625,-18.728271484375
0.091,0.970947265625,19.629150390625,-15.765380859375
0.0915,-3.873779296875,22.552001953125,-13.322998046875
0.092,-8.838623046875,23.753173828125,-9.279052734375
0.0925,-13.643310546875,24.033447265625,-4.634521484375
0.093,-16.165771484375,24.113525390625,-2.192138671875
0.0935,-19.408935546875,22.391845703125,2.532470703125
0.094,-21.370849609375,20.550048828125,5.855712890625
0.0945,-23.012451171875,17.987548828125,9.339111328125
0.095,-24.213623046875,13.903564453125,13.663330078125
0.0955,-22.972412109375,9.138916015625,16.065673828125
0.096,-23.332763671875,6.416259765625,17.987548828125
0.0965,-20.890380859375,1.931884765625,18.988525390625
0.097,-19.529052734375,-2.632568359375,20.790283203125
0.0975,-16.005615234375,-7.397216796875,20.990478515625
0.098,-11.881591796875,-12.762451171875,21.270751953125
0.0985,-8.358154296875,-15.565185546875,19.909423828125
0.099,-3.833740234375,-19.008544921875,18.067626953125
0.0995,0.330322265625,-20.730224609375,15.144775390625
0.1,4.814697265625,-23.292724609375,12.742431640625
0.1005,9.939697265625,-24.293701171875,8.298095703125
0.101,13.943603515625,-23.853271484375,3.853759765625
0.1015,16.706298828125,-24.333740234375,1.571533203125
0.102,19.509033203125,-22.051513671875,-3.153076171875
0.1025,21.631103515625,-20.209716796875,-6.556396484375
0.103,22.592041015625,-17.046630859375,-9.959716796875
0.1035,23.633056640625,-13.002685546875,-13.923583984375
0.104,22.431884765625,-8.798583984375,-15.885498046875
0.1045,22.271728515625,-5.635498046875,-17.847412109375
0.105,19.669189453125,-1.551513671875,-18.888427734375
0.1055,18.468017578125,3.133056640625,-20.489990234375
0.106,14.143798828125,8.218017578125,-20.249755859375
0.1065,10.099853515625,12.942626953125,-19.969482421875
0.107,7.177001953125,15.705322265625,-19.088623046875
0.1075,2.212158203125,18.868408203125,-16.566162109375
0.108,-1.951904296875,20.750244140625,-13.843505859375
0.1085,-6.356201171875,22.832275390625,-11.040771484375
0.109,-11.521240234375,23.833251953125,-6.756591796875
0.1095,-14.844482421875,22.952392578125,-2.552490234375
0.11,-17.647216796875,23.192626953125,0.010009765625
0.1105,-20.009521484375,20.790283203125,4.334228515625
0.111,-22.291748046875,18.948486328125,7.897705078125
0.1115,-22.572021484375,15.024658203125,11.341064453125
0.112,-23.452880859375,11.180908203125,14.984619140625
0.1125,-22.491943359375,7.417236328125,16.666259765625
0.113,-21.771240234375,3.613525390625,18.628173828125
0.1135,-19.489013671875,-0.710693359375,19.428955078125
0.114,-17.887451171875,-5.355224609375,21.150634765625
0.1145,-13.322998046875,-10.320068359375,20.750244140625
0.115,-9.198974609375,-14.444091796875,19.989501953125
0.1155,-6.396240234375,-17.086669921875,19.068603515625
0.116,-1.031005859375,-20.049560546875,16.105712890625
0.1165,3.133056640625,-22.091552734375,13.463134765625
0.117,7.817626953125,-23.412841796875,9.779541015625
0.1175,12.422119140625,-24.413818359375,6.055908203125
0.118,15.505126953125,-23.332763671875,1.931884765625
0.1185,18.307861328125,-23.052490234375,-0.990966796875
0.119,20.590087890625,-20.530029296875,-5.275146484375
0.1195,22.872314453125,-18.528076171875,-8.878662109375
0.12,22.431884765625,-13.923583984375,-12.161865234375
0.1205,23.152587890625,-10.320068359375,-15.364990234375
0.121,22.111572265625,-6.996826171875,-16.726318359375
0.1215,20.790283203125,-2.552490234375,-18.688232421875
0.122,18.468017578125,1.731689453125,-19.448974609375
0.1225,15.865478515625,6.776611328125,-20.650146484375
0.123,11.501220703125,11.381103515625,-20.089599609375
0.1235,7.377197265625,15.064697265625,-18.928466796875
0.124,4.494384765625,17.427001953125,-17.647216796875
0.1245,-0.870849609375,20.269775390625,-14.604248046875
0.125,-5.155029296875,22.431884765625,-12.041748046875
0.1255,-9.959716796875,22.912353515625,-7.517333984375
0.126,-13.843505859375,23.833251953125,-4.354248046875
0.1265,-16.766357421875,22.712158203125,-0.430419921875
0.127,-19.368896484375,21.791259765625,2.852783203125
0.1275,-21.210693359375,19.228759765625,6.776611328125
0.128,-23.292724609375,16.626220703125,10.620361328125
0.1285,-22.491943359375,11.901611328125,13.583251953125
0.129,-23.012451171875,8.378173828125,16.426025390625
0.1295,-22.011474609375,5.295166015625,17.507080078125
0.13,-20.369873046875,0.410400390625,19.428955078125
0.1305,-18.127685546875,-3.713623046875,20.349853515625
0.131,-14.604248046875,-8.998779296875,20.950439453125
0.1315,-10.840576171875,-13.002685546875,20.469970703125
0.132,-6.676513671875,-16.526123046875,19.068603515625
0.1325,-3.313232421875,-18.728271484375,17.266845703125
0.133,1.731689453125,-21.290771484375,14.303955078125
0.1335,6.456298828125,-23.653076171875,11.381103515625
0.134,10.900634765625,-23.372802734375,6.616455078125
0.1345,14.464111328125,-24.213623046875,3.813720703125
0.135,17.346923828125,-22.932373046875,-0.150146484375
0.1355,19.989501953125,-21.651123046875,-3.793701171875
0.136,21.671142578125,-19.088623046875,-7.397216796875
0.1365,23.472900390625,-15.725341796875,-11.641357421875
0.137,22.552001953125,-11.361083984375,-14.203857421875
0.1375,22.792236328125,-7.837646484375,-16.806396484375
0.138,21.430908203125,-4.634521484375,-17.647216796875
0.1385,19.589111328125,0.490478515625,-19.609130859375
0.139,16.946533203125,5.175048828125,-20.489990234375
0.1395,12.542236328125,10.500244140625,-20.449951171875
0.14,9.419189453125,13.903564453125,-20.009521484375
0.1405,4.814697265625,17.427001953125,-18.167724609375
0.141,0.970947265625,19.589111328125,-15.885498046875
0.1415,-3.673583984375,21.911376953125,-13.082763671875
0.142,-9.118896484375,24.113525390625,-9.399169921875
0.1425,-13.122802734375,23.312744140625,-4.554443359375
0.143,-16.446044921875,24.033447265625,-1.951904296875
0.1435,-19.088623046875,22.191650390625,2.292236328125
0.144,-21.651123046875,20.550048828125,6.095947265625
0.1445,-22.852294921875,17.667236328125,9.459228515625
0.145,-24.173583984375,13.463134765625,13.823486328125
0.1455,-23.172607421875,9.459228515625,15.865478515625
0.146,-23.012451171875,5.495361328125,18.347900390625
0.1465,-21.130615234375,1.971923828125,19.068603515625
0.147,-19.368896484375,-2.912841796875,20.830322265625
0.1475,-16.005615234375,-8.037841796875,21.510986328125
0.148,-11.240966796875,-13.082763671875,20.830322265625
0.1485,-8.598388671875,-15.965576171875,20.349853515625
0.149,-3.353271484375,-19.248779296875,17.787353515625
0.1495,0.850830078125,-21.450927734375,15.224853515625
0.15,5.014892578125,-23.252685546875,12.382080078125
0.1505,10.740478515625,-25.054443359375,8.137939453125
0.151,14.183837890625,-23.773193359375,3.533447265625
0.1515,17.547119140625,-24.333740234375,0.770751953125
0.152,19.869384765625,-22.131591796875,-3.393310546875
0.1525,22.431884765625,-20.329833984375,-7.237060546875
0.153,23.032470703125,-16.966552734375,-10.480224609375
0.1535,23.753173828125,-12.522216796875,-14.564208984375
0.154,22.952392578125,-9.118896484375,-16.165771484375
0.1545,22.191650390625,-4.714599609375,-18.447998046875
0.155,20.189697265625,-0.990966796875,-19.128662109375
0.1555,18.307861328125,3.693603515625,-20.570068359375
0.156,14.343994140625,9.098876953125,-20.970458984375
0.1565,9.459228515625,13.543212890625,-19.729248046875
0.157,7.016845703125,16.385986328125,-19.408935546875
0.1575,1.651611328125,19.348876953125,-16.406005859375
0.158,-2.592529296875,21.711181640625,-13.963623046875
0.1585,-6.676513671875,22.992431640625,-10.760498046875
0.159,-12.201904296875,24.513916015625,-6.556396484375
0.1595,-15.244873046875,23.232666015625,-2.312255859375
0.16,-18.608154296875,23.272705078125,0.970947265625
0.1605,-20.530029296875,21.030517578125,4.774658203125
0.161,-23.052490234375,19.068603515625,8.498291015625
0.1615,-23.212646484375,15.064697265625,11.901611328125
0.162,-23.653076171875,10.540283203125,15.585205078125
0.1625,-23.212646484375,7.697509765625,17.106689453125
0.163,-21.811279296875,2.892822265625,19.228759765625
0.1635,-19.929443359375,-1.071044921875,20.109619140625
0.164,-17.767333984375,-5.635498046875,21.310791015625
0.1645,-13.603271484375,-11.080810546875,21.631103515625
0.165,-8.758544921875,-15.044677734375,19.989501953125
0.1655,-6.035888671875,-18.007568359375,19.468994140625
0.166,-0.550537109375,-20.770263671875,16.105712890625
0.1665,3.813720703125,-23.252685546875,13.743408203125
0.167,8.258056640625,-23.813232421875,9.579345703125
0.1675,13.262939453125,-25.134521484375,5.735595703125
0.168,16.145751953125,-24.013427734375,1.811767578125
0.1685,19.669189453125,-23.412841796875,-2.072021484375
0.169,21.470947265625,-21.010498046875,-5.875732421875
0.1695,23.833251953125,-18.808349609375,-9.639404296875
0.17,23.552978515625,-14.243896484375,-13.002685546875
0.1705,23.633056640625,-9.759521484375,-16.325927734375
0.171,23.192626953125,-6.956787109375,-17.607177734375
0.1715,21.110595703125,-1.591552734375,-19.649169921875
0.172,19.148681640625,2.532470703125,-20.530029296875
0.1725,15.865478515625,7.537353515625,-21.130615234375
0.173,11.781494140625,12.582275390625,-21.290771484375
0.1735,6.976806640625,16.185791015625,-19.288818359375
0.174,3.653564453125,19.108642578125,-18.087646484375
0.1745,-1.871826171875,21.591064453125,-14.564208984375
0.175,-6.396240234375,24.193603515625,-12.161865234375
0.1755,-11.040771484375,23.993408203125,-7.116943359375
0.176,-15.324951171875,24.834228515625,-3.553466796875
0.1765,-18.007568359375,23.673095703125,0.170166015625
0.177,-21.130615234375,22.351806640625,4.214111328125
0.1775,-22.692138671875,19.509033203125,7.977783203125
0.178,-24.573974609375,16.666259765625,11.781494140625
0.1785,-23.973388671875,12.021728515625,14.864501953125
0.179,-23.613037109375,7.657470703125,17.667236328125
0.1795,-23.012451171875,4.854736328125,18.788330078125
0.18,-20.650146484375,-0.670654296875,20.550048828125
0.1805,-18.648193359375,-4.874755859375,21.631103515625
