wavelength,x,y,z
0.0,-3.353271484375,-0.030029296875,3.213134765625
0.0005,-2.712646484375,-1.031005859375,3.613525390625
0.001,-2.392333984375,-1.711669921875,3.933837890625
0.0015,-1.631591796875,-2.432373046875,3.893798828125
0.002,-0.910888671875,-2.832763671875,3.613525390625
0.0025,-0.070068359375,-3.273193359375,3.373291015625
0.003,0.730712890625,-3.873779296875,3.093017578125
0.0035,1.571533203125,-4.114013671875,2.492431640625
0.004,2.092041015625,-4.234130859375,2.132080078125
0.0045,2.692626953125,-4.154052734375,1.531494140625
0.005,2.932861328125,-3.673583984375,0.810791015625
0.0055,3.493408203125,-3.553466796875,0.170166015625
0.006,3.773681640625,-2.792724609375,-0.830810546875
0.0065,4.013916015625,-2.312255859375,-1.591552734375
0.007,3.973876953125,-1.591552734375,-2.312255859375
0.0075,3.853759765625,-0.910888671875,-2.832763671875
0.008,3.453369140625,-0.110107421875,-3.193115234375
0.0085,3.333251953125,0.570556640625,-3.833740234375
0.009,2.612548828125,1.531494140625,-4.154052734375
0.0095,2.212158203125,2.052001953125,-4.314208984375
0.01,1.411376953125,2.812744140625,-4.194091796875
0.0105,0.570556640625,3.133056640625,-3.713623046875
0.011,-0.150146484375,3.653564453125,-3.473388671875
0.0115,-1.151123046875,4.013916015625,-2.912841796875
0.012,-1.871826171875,4.174072265625,-2.392333984375
0.0125,-2.352294921875,4.134033203125,-1.871826171875
0.013,-2.872802734375,4.013916015625,-1.271240234375
0.0135,-3.072998046875,3.453369140625,-0.510498046875
0.014,-3.673583984375,3.373291015625,0.090087890625
0.0145,-3.833740234375,2.412353515625,1.291259765625
0.015,-4.033935546875,2.011962890625,1.891845703125
0.0155,-3.913818359375,1.211181640625,2.572509765625
0.016,-3.633544921875,0.490478515625,2.972900390625
0.0165,-3.273193359375,-0.310302734375,3.373291015625
0.017,-2.952880859375,-1.111083984375,3.893798828125
0.0175,-2.272216796875,-2.072021484375,4.134033203125
0.018,-1.711669921875,-2.552490234375,4.134033203125
0.0185,-0.910888671875,-3.193115234375,3.973876953125
0.019,0.010009765625,-3.473388671875,3.493408203125
0.0195,0.690673828125,-4.073974609375,3.333251953125
0.02,1.771728515625,-4.354248046875,2.572509765625
0.0205,2.372314453125,-4.514404296875,2.172119140625
0.021,2.812744140625,-4.274169921875,1.531494140625
0.0215,3.293212890625,-4.073974609375,0.890869140625
0.022,3.533447265625,-3.513427734375,0.090087890625
0.0225,4.013916015625,-3.233154296875,-0.630615234375
0.023,4.174072265625,-2.272216796875,-1.791748046875
0.0235,4.294189453125,-1.791748046875,-2.312255859375
0.024,4.053955078125,-0.950927734375,-2.992919921875
0.0245,3.693603515625,-0.230224609375,-3.353271484375
0.025,3.413330078125,0.490478515625,-3.873779296875
0.0255,2.892822265625,1.411376953125,-4.274169921875
0.026,2.292236328125,2.252197265625,-4.514404296875
0.0265,1.571533203125,2.692626953125,-4.234130859375
0.027,0.810791015625,3.293212890625,-4.073974609375
0.0275,-0.070068359375,3.533447265625,-3.473388671875
0.028,-0.790771484375,4.093994140625,-3.353271484375
0.0285,-1.871826171875,4.214111328125,-2.432373046875
0.029,-2.312255859375,4.334228515625,-2.072021484375
0.0295,-2.752685546875,4.013916015625,-1.351318359375
0.03,-3.153076171875,3.773681640625,-0.750732421875
0.0305,-3.473388671875,3.293212890625,0.010009765625
0.031,-3.873779296875,2.852783203125,0.770751953125
0.0315,-4.033935546875,2.052001953125,1.771728515625
0.032,-3.993896484375,1.571533203125,2.252197265625
0.0325,-3.793701171875,0.730712890625,2.852783203125
0.033,-3.353271484375,0.010009765625,3.173095703125
0.0335,-3.193115234375,-0.750732421875,3.733642578125
0.034,-2.552490234375,-1.631591796875,4.053955078125
0.0345,-2.072021484375,-2.272216796875,4.214111328125
0.035,-1.271240234375,-2.752685546875,3.933837890625
0.0355,-0.510498046875,-3.313232421875,3.773681640625
0.036,0.330322265625,-3.673583984375,3.253173828125
0.0365,1.051025390625,-4.194091796875,3.133056640625
0.037,2.052001953125,-4.354248046875,2.292236328125
0.0375,2.412353515625,-4.394287109375,1.971923828125
0.038,2.932861328125,-4.154052734375,1.291259765625
0.0385,3.253173828125,-3.753662109375,0.610595703125
0.039,3.693603515625,-3.393310546875,-0.150146484375
0.0395,3.973876953125,-2.752685546875,-1.111083984375
0.04,4.214111328125,-2.112060546875,-1.951904296875
0.0405,4.093994140625,-1.551513671875,-2.432373046875
0.041,3.933837890625,-0.790771484375,-3.072998046875
0.0415,3.493408203125,0.010009765625,-3.473388671875
0.042,3.373291015625,0.770751953125,-4.033935546875
0.0425,2.612548828125,1.771728515625,-4.354248046875
0.043,2.172119140625,2.332275390625,-4.434326171875
0.0435,1.211181640625,2.852783203125,-4.073974609375
0.044,0.450439453125,3.333251953125,-3.833740234375
0.0445,-0.390380859375,3.773681640625,-3.353271484375
0.045,-1.191162109375,4.134033203125,-3.032958984375
0.0455,-2.112060546875,4.334228515625,-2.312255859375
0.046,-2.432373046875,4.134033203125,-1.831787109375
0.0465,-2.952880859375,3.973876953125,-1.151123046875
0.047,-3.233154296875,3.493408203125,-0.390380859375
0.0475,-3.753662109375,3.173095703125,0.330322265625
0.048,-3.913818359375,2.372314453125,1.331298828125
0.0485,-4.154052734375,1.771728515625,2.052001953125
0.049,-3.753662109375,1.010986328125,2.532470703125
0.0495,-3.673583984375,0.330322265625,3.052978515625
0.05,-3.193115234375,-0.470458984375,3.493408203125
0.0505,-2.952880859375,-1.191162109375,3.973876953125
0.051,-2.192138671875,-2.152099609375,4.214111328125
0.0515,-1.591552734375,-2.592529296875,4.093994140625
0.052,-0.710693359375,-3.153076171875,3.813720703125
0.0525,0.050048828125,-3.593505859375,3.453369140625
0.053,0.850830078125,-3.993896484375,3.133056640625
0.0535,1.691650390625,-4.274169921875,2.572509765625
0.054,2.492431640625,-4.474365234375,2.052001953125
0.0545,2.692626953125,-4.114013671875,1.451416015625
0.055,3.253173828125,-3.993896484375,0.810791015625
0.0555,3.493408203125,-3.393310546875,0.010009765625
0.056,3.973876953125,-3.153076171875,-0.710693359375
0.0565,4.093994140625,-2.272216796875,-1.751708984375
0.057,4.174072265625,-1.791748046875,-2.312255859375
0.0575,3.813720703125,-0.950927734375,-2.832763671875
0.058,3.693603515625,-0.270263671875,-3.353271484375
0.0585,3.253173828125,0.570556640625,-3.793701171875
0.059,2.932861328125,1.291259765625,-4.154052734375
0.0595,2.252197265625,2.212158203125,-4.434326171875
0.06,1.571533203125,2.572509765625,-4.114013671875
0.0605,0.730712890625,3.173095703125,-3.873779296875
0.061,-0.070068359375,3.533447265625,-3.433349609375
0.0615,-0.790771484375,3.973876953125,-3.193115234375
0.062,-1.671630859375,4.134033203125,-2.552490234375
0.0625,-2.272216796875,4.254150390625,-2.072021484375
0.063,-2.512451171875,3.813720703125,-1.431396484375
0.0635,-3.072998046875,3.773681640625,-0.870849609375
0.064,-3.353271484375,3.173095703125,0.010009765625
0.0645,-3.793701171875,2.852783203125,0.690673828125
0.065,-3.913818359375,1.971923828125,1.731689453125
0.0655,-3.873779296875,1.531494140625,2.092041015625
0.066,-3.553466796875,0.690673828125,2.652587890625
0.0665,-3.353271484375,0.050048828125,3.133056640625
0.067,-3.032958984375,-0.710693359375,3.573486328125
0.0675,-2.552490234375,-1.471435546875,3.933837890625
0.068,-1.991943359375,-2.232177734375,4.134033203125
0.0685,-1.231201171875,-2.592529296875,3.733642578125
0.069,-0.550537109375,-3.193115234375,3.653564453125
0.0695,0.330322265625,-3.553466796875,3.173095703125
0.07,1.010986328125,-4.033935546875,3.012939453125
0.0705,1.931884765625,-4.194091796875,2.332275390625
0.071,2.292236328125,-4.234130859375,1.931884765625
0.0715,2.692626953125,-3.873779296875,1.291259765625
0.072,3.133056640625,-3.713623046875,0.690673828125
0.0725,3.493408203125,-3.193115234375,-0.190185546875
0.073,3.853759765625,-2.832763671875,-0.990966796875
0.0735,4.013916015625,-2.112060546875,-1.871826171875
0.074,3.853759765625,-1.471435546875,-2.232177734375
0.0745,3.733642578125,-0.710693359375,-2.872802734375
0.075,3.453369140625,0.010009765625,-3.273193359375
0.0755,3.173095703125,0.730712890625,-3.833740234375
0.076,2.612548828125,1.531494140625,-4.073974609375
0.0765,2.092041015625,2.092041015625,-4.154052734375
0.077,1.251220703125,2.492431640625,-3.713623046875
0.0775,0.570556640625,3.133056640625,-3.713623046875
0.078,-0.270263671875,3.493408203125,-3.193115234375
0.0785,-0.950927734375,3.853759765625,-2.952880859375
0.079,-1.751708984375,4.013916015625,-2.352294921875
0.0795,-2.031982421875,3.853759765625,-1.951904296875
0.08,-2.472412109375,3.693603515625,-1.271240234375
0.0805,-2.872802734375,3.333251953125,-0.630615234375
0.081,-3.273193359375,2.972900390625,0.130126953125
0.0815,-3.553466796875,2.412353515625,0.890869140625
0.082,-3.753662109375,1.931884765625,1.611572265625
0.0825,-3.433349609375,1.291259765625,1.931884765625
0.083,-3.473388671875,0.690673828125,2.572509765625
0.0835,-3.072998046875,-0.070068359375,3.012939453125
0.084,-2.872802734375,-0.750732421875,3.533447265625
0.0845,-2.312255859375,-1.551513671875,3.733642578125
0.085,-1.831787109375,-1.951904296875,3.693603515625
0.0855,-1.031005859375,-2.472412109375,3.413330078125
0.086,-0.390380859375,-3.032958984375,3.333251953125
0.0865,0.370361328125,-3.473388671875,3.052978515625
0.087,1.010986328125,-3.833740234375,2.772705078125
0.0875,1.651611328125,-3.993896484375,2.332275390625
0.088,1.931884765625,-3.793701171875,1.931884765625
0.0885,2.452392578125,-3.833740234375,1.371337890625
0.089,2.852783203125,-3.393310546875,0.610595703125
0.0895,3.333251953125,-3.193115234375,-0.150146484375
0.09,3.573486328125,-2.472412109375,-0.990966796875
0.0905,3.733642578125,-2.152099609375,-1.431396484375
0.091,3.493408203125,-1.391357421875,-1.951904296875
0.0915,3.573486328125,-0.910888671875,-2.592529296875
0.092,3.253173828125,0.010009765625,-3.153076171875
0.0925,3.052978515625,0.650634765625,-3.633544921875
0.093,2.572509765625,1.411376953125,-3.913818359375
0.0935,1.971923828125,1.811767578125,-3.713623046875
0.094,1.251220703125,2.412353515625,-3.593505859375
0.0945,0.450439453125,2.932861328125,-3.393310546875
0.095,-0.230224609375,3.453369140625,-3.193115234375
0.0955,-0.990966796875,3.693603515625,-2.792724609375
0.096,-1.471435546875,3.893798828125,-2.472412109375
0.0965,-1.831787109375,3.533447265625,-1.911865234375
0.097,-2.432373046875,3.653564453125,-1.431396484375
0.0975,-2.832763671875,3.133056640625,-0.510498046875
0.098,-3.313232421875,2.932861328125,0.210205078125
0.0985,-3.553466796875,2.252197265625,1.131103515625
0.099,-3.553466796875,1.851806640625,1.531494140625
0.0995,-3.313232421875,1.051025390625,2.092041015625
0.1,-3.273193359375,0.450439453125,2.692626953125
0.1005,-2.992919921875,-0.390380859375,3.213134765625
0.101,-2.632568359375,-1.111083984375,3.573486328125
0.1015,-2.072021484375,-1.791748046875,3.773681640625
0.102,-1.351318359375,-2.192138671875,3.453369140625
0.1025,-0.670654296875,-2.872802734375,3.493408203125
0.103,0.130126953125,-3.273193359375,3.093017578125
0.1035,0.810791015625,-3.713623046875,2.892822265625
0.104,1.571533203125,-3.953857421875,2.412353515625
0.1045,1.931884765625,-3.953857421875,1.971923828125
0.105,2.292236328125,-3.673583984375,1.331298828125
0.1055,2.812744140625,-3.593505859375,0.770751953125
0.106,3.173095703125,-2.992919921875,-0.070068359375
0.1065,3.533447265625,-2.672607421875,-0.750732421875
0.107,3.693603515625,-1.991943359375,-1.551513671875
0.1075,3.493408203125,-1.471435546875,-1.911865234375
0.108,3.453369140625,-0.790771484375,-2.512451171875
0.1085,3.213134765625,-0.070068359375,-3.032958984375
0.109,3.012939453125,0.610595703125,-3.513427734375
0.1095,2.532470703125,1.291259765625,-3.753662109375
0.11,2.052001953125,1.771728515625,-3.793701171875
0.1105,1.251220703125,2.212158203125,-3.393310546875
0.111,0.650634765625,2.852783203125,-3.473388671875
0.1115,-0.150146484375,3.173095703125,-3.072998046875
0.112,-0.710693359375,3.573486328125,-2.872802734375
0.1125,-1.431396484375,3.733642578125,-2.392333984375
0.113,-1.671630859375,3.573486328125,-2.031982421875
0.1135,-2.192138671875,3.453369140625,-1.471435546875
0.114,-2.592529296875,3.253173828125,-0.790771484375
0.1145,-3.032958984375,2.892822265625,0.010009765625
0.115,-3.353271484375,2.492431640625,0.690673828125
0.1155,-3.513427734375,1.971923828125,1.291259765625
0.116,-3.233154296875,1.371337890625,1.651611328125
0.1165,-3.353271484375,0.810791015625,2.372314453125
0.117,-3.032958984375,0.010009765625,2.852783203125
0.1175,-2.872802734375,-0.630615234375,3.373291015625
0.118,-2.352294921875,-1.351318359375,3.573486328125
0.1185,-1.831787109375,-1.791748046875,3.533447265625
0.119,-1.071044921875,-2.352294921875,3.333251953125
0.1195,-0.390380859375,-2.952880859375,3.333251953125
0.12,0.330322265625,-3.353271484375,3.012939453125
0.1205,0.970947265625,-3.793701171875,2.772705078125
0.121,1.571533203125,-3.953857421875,2.372314453125
0.1215,1.811767578125,-3.713623046875,1.851806640625
0.122,2.452392578125,-3.713623046875,1.291259765625
0.1225,2.852783203125,-3.273193359375,0.490478515625
0.123,3.333251953125,-2.952880859375,-0.270263671875
0.1235,3.573486328125,-2.392333984375,-1.071044921875
0.124,3.653564453125,-1.951904296875,-1.591552734375
0.1245,3.413330078125,-1.231201171875,-2.072021484375
0.125,3.493408203125,-0.630615234375,-2.712646484375
0.1255,3.133056640625,0.210205078125,-3.233154296875
0.126,2.852783203125,0.890869140625,-3.673583984375
0.1265,2.292236328125,1.571533203125,-3.833740234375
0.127,1.611572265625,1.971923828125,-3.593505859375
0.1275,0.930908203125,2.572509765625,-3.513427734375
0.128,0.170166015625,3.093017578125,-3.233154296875
0.1285,-0.510498046875,3.453369140625,-2.912841796875
0.129,-1.191162109375,3.653564453125,-2.592529296875
0.1295,-1.671630859375,3.693603515625,-2.192138671875
0.13,-1.951904296875,3.413330078125,-1.551513671875
0.1305,-2.552490234375,3.453369140625,-1.031005859375
0.131,-2.872802734375,2.852783203125,-0.150146484375
0.1315,-3.273193359375,2.612548828125,0.490478515625
0.132,-3.433349609375,1.971923828125,1.291259765625
0.1325,-3.353271484375,1.531494140625,1.651611328125
0.133,-3.153076171875,0.810791015625,2.172119140625
0.1335,-3.153076171875,0.210205078125,2.732666015625
0.134,-2.752685546875,-0.590576171875,3.173095703125
0.1345,-2.432373046875,-1.191162109375,3.493408203125
0.135,-1.911865234375,-1.791748046875,3.533447265625
0.1355,-1.191162109375,-2.152099609375,3.253173828125
0.136,-0.550537109375,-2.832763671875,3.293212890625
0.1365,0.250244140625,-3.233154296875,2.932861328125
0.137,0.810791015625,-3.673583984375,2.732666015625
0.1375,1.451416015625,-3.833740234375,2.292236328125
0.138,1.771728515625,-3.713623046875,1.971923828125
0.1385,2.132080078125,-3.473388671875,1.411376953125
0.139,2.692626953125,-3.433349609375,0.810791015625
0.1395,3.012939453125,-2.872802734375,-0.030029296875
0.14,3.373291015625,-2.592529296875,-0.630615234375
0.1405,3.533447265625,-1.991943359375,-1.351318359375
0.141,3.373291015625,-1.551513671875,-1.711669921875
0.1415,3.413330078125,-0.950927734375,-2.392333984375
0.142,3.213134765625,-0.190185546875,-2.872802734375
0.1425,3.012939453125,0.450439453125,-3.393310546875
0.143,2.612548828125,1.131103515625,-3.593505859375
0.1435,2.092041015625,1.571533203125,-3.673583984375
0.144,1.331298828125,2.052001953125,-3.353271484375
0.1445,0.770751953125,2.692626953125,-3.473388671875
0.145,-0.030029296875,3.052978515625,-3.032958984375
0.1455,-0.590576171875,3.493408203125,-2.952880859375
0.146,-1.191162109375,3.613525390625,-2.472412109375
0.1465,-1.431396484375,3.533447265625,-2.112060546875
0.147,-1.991943359375,3.453369140625,-1.511474609375
0.1475,-2.512451171875,3.213134765625,-0.830810546875
0.148,-2.952880859375,2.852783203125,-0.030029296875
0.1485,-3.233154296875,2.452392578125,0.610595703125
0.149,-3.393310546875,2.011962890625,1.211181640625
0.1495,-3.193115234375,1.371337890625,1.611572265625
0.15,-3.353271484375,0.770751953125,2.372314453125
0.1505,-2.992919921875,0.010009765625,2.852783203125
0.151,-2.792724609375,-0.630615234375,3.333251953125
0.1515,-2.272216796875,-1.351318359375,3.493408203125
0.152,-1.711669921875,-1.791748046875,3.373291015625
0.1525,-0.990966796875,-2.392333984375,3.253173828125
0.153,-0.310302734375,-3.072998046875,3.213134765625
0.1535,0.490478515625,-3.393310546875,2.852783203125
0.154,1.051025390625,-3.713623046875,2.692626953125
0.1545,1.571533203125,-3.833740234375,2.252197265625
0.155,1.891845703125,-3.553466796875,1.731689453125
0.1555,2.532470703125,-3.553466796875,1.131103515625
0.156,2.892822265625,-3.072998046875,0.290283203125
0.1565,3.333251953125,-2.752685546875,-0.430419921875
0.157,3.493408203125,-2.192138671875,-1.151123046875
0.1575,3.493408203125,-1.751708984375,-1.631591796875
0.158,3.293212890625,-1.031005859375,-2.112060546875
0.1585,3.373291015625,-0.430419921875,-2.832763671875
0.159,2.972900390625,0.370361328125,-3.273193359375
0.1595,2.692626953125,1.010986328125,-3.633544921875
0.16,2.092041015625,1.611572265625,-3.713623046875
0.1605,1.411376953125,2.052001953125,-3.393310546875
0.161,0.770751953125,2.612548828125,-3.393310546875
0.1615,-0.030029296875,3.173095703125,-3.072998046875
0.162,-0.670654296875,3.453369140625,-2.792724609375
0.1625,-1.231201171875,3.573486328125,-2.472412109375
0.163,-1.631591796875,3.613525390625,-2.031982421875
0.1635,-1.951904296875,3.333251953125,-1.431396484375
0.164,-2.592529296875,3.373291015625,-0.910888671875
0.1645,-2.872802734375,2.732666015625,0.010009765625
0.165,-3.273193359375,2.532470703125,0.610595703125
0.1655,-3.353271484375,1.891845703125,1.291259765625
0.166,-3.233154296875,1.411376953125,1.651611328125
0.1665,-3.153076171875,0.690673828125,2.252197265625
0.167,-3.072998046875,0.050048828125,2.852783203125
0.1675,-2.672607421875,-0.670654296875,3.253173828125
0.168,-2.312255859375,-1.311279296875,3.493408203125
0.1685,-1.711669921875,-1.871826171875,3.493408203125
0.169,-0.990966796875,-2.312255859375,3.213134765625
0.1695,-0.350341796875,-2.912841796875,3.333251953125
0.17,0.450439453125,-3.353271484375,2.852783203125
0.1705,1.010986328125,-3.753662109375,2.692626953125
0.171,1.571533203125,-3.833740234375,2.252197265625
0.1715,1.931884765625,-3.753662109375,1.811767578125
0.172,2.372314453125,-3.473388671875,1.171142578125
0.1725,2.932861328125,-3.353271484375,0.490478515625
0.173,3.253173828125,-2.752685546875,-0.390380859375
0.1735,3.573486328125,-2.432373046875,-1.031005859375
0.174,3.613525390625,-1.791748046875,-1.711669921875
0.1745,3.413330078125,-1.191162109375,-2.112060546875
0.175,3.453369140625,-0.510498046875,-2.792724609375
0.1755,3.133056640625,0.250244140625,-3.273193359375
0.176,2.812744140625,0.970947265625,-3.713623046875
0.1765,2.292236328125,1.531494140625,-3.873779296875
0.177,1.611572265625,2.052001953125,-3.713623046875
0.1775,0.930908203125,2.572509765625,-3.473388671875
0.178,0.170166015625,3.213134765625,-3.393310546875
0.1785,-0.710693359375,3.493408203125,-2.792724609375
0.179,-1.231201171875,3.773681640625,-2.592529296875
0.1795,-1.791748046875,3.733642578125,-2.031982421875
0.18,-2.112060546875,3.533447265625,-1.511474609375
0.1805,-2.592529296875,3.333251953125,-0.870849609375
0.181,-3.072998046875,3.012939453125,-0.070068359375
0.1815,-3.353271484375,2.412353515625,0.730712890625
0.182,-3.553466796875,1.971923828125,1.331298828125
0.1825,-3.473388671875,1.371337890625,1.931884765625
0.183,-3.153076171875,0.650634765625,2.292236328125
0.1835,-3.193115234375,0.050048828125,2.972900390625
0.184,-2.672607421875,-0.790771484375,3.333251953125
0.1845,-2.392333984375,-1.511474609375,3.613525390625
0.185,-1.671630859375,-2.031982421875,3.573486328125
0.1855,-0.990966796875,-2.552490234375,3.253173828125
0.186,-0.310302734375,-2.912841796875,3.173095703125
0.1865,0.410400390625,-3.513427734375,3.012939453125
0.187,1.251220703125,-3.753662109375,2.492431640625
0.1875,1.651611328125,-3.873779296875,2.252197265625
0.188,2.172119140625,-3.833740234375,1.731689453125
