wavelength,x,y,z
0.0,1.9569091796875,-20.625122070312,18.533081054688
0.0005,6.1610107421875,-22.506958007812,16.370971679688
0.001,9.0838623046875,-22.587036132812,13.768432617188
0.0015,12.206909179688,-22.587036132812,10.805541992188
0.002,16.130737304688,-21.465942382812,6.0408935546875
0.0025,19.494018554688,-19.784301757812,1.0760498046875
0.003,21.896362304688,-17.582153320312,-3.4483642578125
0.0035,23.017456054688,-15.259887695312,-6.7315673828125
0.004,22.977416992188,-12.337036132812,-9.6944580078125
0.0045,22.416870117188,-8.1329345703125,-13.418090820312
0.005,21.255737304688,-3.8087158203125,-15.380004882812
0.0055,19.774291992188,1.0360107421875,-19.904418945312
0.006,17.532104492188,5.2401123046875,-21.946411132812
0.0065,14.729370117188,8.1629638671875,-22.146606445312
0.007,11.966674804688,11.165893554688,-22.466918945312
0.0075,6.6014404296875,15.209838867188,-21.345825195312
0.008,1.5565185546875,18.453002929688,-19.784301757812
0.0085,-3.2481689453125,20.775268554688,-17.622192382812
0.009,-6.8917236328125,22.216674804688,-15.700317382812
0.0095,-9.7745361328125,22.056518554688,-12.897583007812
0.01,-12.937622070312,21.736206054688,-9.5343017578125
0.0105,-16.581176757812,20.615112304688,-4.9698486328125
0.011,-19.904418945312,18.693237304688,0.2752685546875
0.0115,-21.826293945312,16.491088867188,4.3992919921875
0.012,-22.306762695312,14.048706054688,7.2020263671875
0.0125,-22.466918945312,11.125854492188,11.526245117188
0.013,-21.746215820312,6.4412841796875,14.248901367188
0.0135,-20.545043945312,2.1971435546875,17.331909179688
0.014,-18.863403320312,-2.2872314453125,20.094604492188
0.0145,-16.821411132812,-6.0509033203125,21.856323242188
0.015,-13.898559570312,-8.8135986328125,23.057495117188
0.0155,-10.775512695312,-11.856567382812,21.816284179688
0.016,-5.5303955078125,-15.700317382812,20.655151367188
0.0165,-0.1651611328125,-19.063598632812,18.813354492188
0.017,4.1590576171875,-20.905395507812,17.932495117188
0.0175,7.2821044921875,-21.866333007812,14.729370117188
0.018,10.325073242188,-21.906372070312,12.006713867188
0.0185,13.928588867188,-21.145629882812,7.8026123046875
0.019,17.171752929688,-20.064575195312,3.5985107421875
0.0195,20.214721679688,-18.142700195312,-1.3663330078125
0.02,21.896362304688,-16.020629882812,-5.0899658203125
0.0205,21.976440429688,-13.297973632812,-7.8526611328125
0.021,22.096557617188,-10.295043945312,-10.895629882812
0.0215,21.215698242188,-5.4503173828125,-15.019653320312
0.022,19.974487304688,-0.8458251953125,-18.262817382812
0.0225,19.213745117188,3.2381591796875,-20.384887695312
0.023,15.970581054688,6.6815185546875,-21.866333007812
0.0235,12.887573242188,9.5643310546875,-20.505004882812
0.024,8.6033935546875,13.247924804688,-21.145629882812
0.0245,3.9989013671875,16.611206054688,-20.304809570312
0.025,-1.6065673828125,19.774291992188,-18.222778320312
0.0255,-5.4503173828125,21.295776367188,-16.180786132812
0.026,-8.3331298828125,21.736206054688,-13.818481445312
0.0265,-11.296020507812,21.896362304688,-11.255981445312
0.027,-15.420043945312,20.695190429688,-6.1309814453125
0.0275,-18.583129882812,20.494995117188,-1.6466064453125
0.028,-21.025512695312,17.291870117188,2.7977294921875
0.0285,-22.306762695312,15.089721679688,6.2010498046875
0.029,-22.106567382812,12.086791992188,9.0438232421875
0.0295,-21.946411132812,8.4432373046875,12.487182617188
0.03,-21.025512695312,3.8787841796875,16.250854492188
0.0305,-19.504028320312,-1.1260986328125,19.494018554688
0.031,-17.341918945312,-4.8897705078125,21.175659179688
0.0315,-15.179809570312,-7.8526611328125,22.056518554688
0.032,-12.216918945312,-11.055786132812,22.256713867188
0.0325,-6.8116455078125,-14.819458007812,20.975463867188
0.033,-2.2071533203125,-17.982543945312,19.694213867188
0.0335,2.8778076171875,-20.665161132812,17.572143554688
0.034,6.5213623046875,-21.906372070312,15.530151367188
0.0345,9.4442138671875,-21.826293945312,12.727416992188
0.035,12.487182617188,-20.505004882812,9.9246826171875
0.0355,16.571166992188,-20.545043945312,4.7596435546875
0.036,19.734252929688,-18.663208007812,-0.3253173828125
0.0365,21.455932617188,-15.380004882812,-4.0089111328125
0.037,22.296752929688,-14.379028320312,-7.0518798828125
0.0375,22.016479492188,-11.336059570312,-9.8546142578125
0.038,21.415893554688,-6.8116455078125,-13.738403320312
0.0385,20.414916992188,-2.6075439453125,-16.941528320312
0.039,18.693237304688,2.0369873046875,-19.904418945312
0.0395,16.370971679688,5.6805419921875,-21.305786132812
0.04,13.688354492188,8.4832763671875,-21.505981445312
0.0405,10.805541992188,11.446166992188,-21.666137695312
0.041,5.0799560546875,15.570190429688,-20.264770507812
0.0415,0.1151123046875,18.533081054688,-18.583129882812
0.042,-4.0089111328125,20.535034179688,-15.380004882812
0.0425,-7.2520751953125,21.616088867188,-14.699340820312
0.043,-10.214965820312,21.295776367188,-11.576293945312
0.0435,-13.338012695312,20.775268554688,-8.0528564453125
0.044,-16.981567382812,19.694213867188,-3.6085205078125
0.0445,-19.944458007812,17.532104492188,1.4764404296875
0.045,-21.145629882812,15.530151367188,4.7196044921875
0.0455,-21.505981445312,13.047729492188,7.4822998046875
0.046,-21.465942382812,10.204956054688,10.204956054688
0.0465,-19.223754882812,5.2401123046875,14.328979492188
0.047,-19.303833007812,1.0360107421875,17.371948242188
0.0475,-17.662231445312,-3.0479736328125,19.694213867188
0.048,-15.700317382812,-6.2510986328125,20.975463867188
0.0485,-12.657348632812,-8.9337158203125,20.735229492188
0.049,-9.2540283203125,-12.136840820312,20.615112304688
0.0495,-4.1690673828125,-15.900512695312,19.413940429688
0.05,1.1160888671875,-18.663208007812,17.331909179688
0.0505,4.4793701171875,-20.024536132812,15.610229492188
0.051,7.3621826171875,-20.865356445312,13.648315429688
0.0515,9.8846435546875,-20.785278320312,11.085815429688
0.052,13.928588867188,-19.744262695312,7.6824951171875
0.0525,17.051635742188,-18.583129882812,2.2371826171875
0.053,19.494018554688,-16.701293945312,-2.0469970703125
0.0535,20.454956054688,-14.779418945312,-4.9298095703125
0.054,20.454956054688,-12.056762695312,-7.5723876953125
0.0545,20.414916992188,-9.0137939453125,-10.575317382812
0.055,19.574096679688,-4.4893798828125,-12.817504882812
0.0555,18.092651367188,1.2762451171875,-17.341918945312
0.056,16.411010742188,3.3182373046875,-18.983520507812
0.0565,14.569213867188,6.2410888671875,-20.144653320312
0.057,11.646362304688,8.9237060546875,-19.984497070312
0.0575,7.2020263671875,12.487182617188,-19.383911132812
0.058,2.7176513671875,15.930541992188,-18.422973632812
0.0585,-2.0870361328125,18.533081054688,-16.380981445312
0.059,-5.0098876953125,19.574096679688,-14.779418945312
0.0595,-7.8126220703125,19.854370117188,-12.977661132812
0.06,-10.535278320312,19.894409179688,-10.054809570312
0.0605,-14.379028320312,18.893432617188,-5.2901611328125
0.061,-17.341918945312,17.331909179688,-0.8858642578125
0.0615,-19.183715820312,15.650268554688,3.8387451171875
0.062,-20.024536132812,13.728393554688,5.3602294921875
0.0625,-19.864379882812,10.925659179688,7.9627685546875
0.063,-19.784301757812,7.1619873046875,11.366088867188
0.0635,-18.903442382812,3.1180419921875,14.809448242188
0.064,-17.381958007812,-1.2462158203125,17.612182617188
0.0645,-15.580200195312,-4.2091064453125,18.893432617188
0.065,-13.658325195312,-6.8516845703125,19.654174804688
0.0655,-10.895629882812,-9.5343017578125,19.614135742188
0.066,-5.7706298828125,-13.378051757812,18.533081054688
0.0665,-1.3262939453125,-16.380981445312,17.331909179688
0.067,2.7576904296875,-18.543090820312,15.690307617188
0.0675,5.6004638671875,-19.504028320312,14.048706054688
0.068,8.3231201171875,-19.544067382812,11.486206054688
0.0685,11.406127929688,-19.383911132812,8.4832763671875
0.069,14.929565429688,-18.463012695312,4.1590576171875
0.0695,17.772338867188,-16.741333007812,-0.3653564453125
0.07,19.013549804688,-15.139770507812,-3.1680908203125
0.0705,19.614135742188,-13.137817382812,-5.7706298828125
0.071,19.654174804688,-10.134887695312,-8.3731689453125
0.0715,18.893432617188,-6.0108642578125,-12.216918945312
0.072,18.092651367188,-2.0469970703125,-14.098754882812
0.0725,16.691284179688,1.8768310546875,-17.822387695312
0.073,14.769409179688,4.7596435546875,-18.863403320312
0.0735,12.407104492188,7.3621826171875,-19.183715820312
0.074,9.1239013671875,10.525268554688,-19.143676757812
0.0745,4.1990966796875,14.208862304688,-18.102661132812
0.075,-0.4854736328125,16.931518554688,-16.380981445312
0.0755,-3.6085205078125,18.533081054688,-15.059692382812
0.076,-6.3712158203125,19.333862304688,-13.338012695312
0.0765,-9.0137939453125,19.173706054688,-10.695434570312
0.077,-12.537231445312,18.573120117188,-6.7716064453125
0.0775,-15.700317382812,17.572143554688,-2.7276611328125
0.078,-18.142700195312,15.810424804688,1.5164794921875
0.0785,-18.943481445312,14.048706054688,3.9989013671875
0.079,-19.263793945312,11.806518554688,6.5614013671875
0.0795,-17.942504882812,8.8436279296875,9.4442138671875
0.08,-18.503051757812,4.4793701171875,13.087768554688
0.0805,-17.341918945312,0.3153076171875,16.010620117188
0.081,-15.980590820312,-3.0079345703125,17.972534179688
0.0815,-14.138793945312,-5.6905517578125,18.933471679688
0.082,-11.416137695312,-8.2130126953125,18.853393554688
0.0825,-7.5723876953125,-11.616333007812,18.533081054688
0.083,-2.9278564453125,-15.139770507812,17.572143554688
0.0835,1.6365966796875,-17.542114257812,15.730346679688
0.084,4.2391357421875,-18.583129882812,14.328979492188
0.0845,7.0018310546875,-17.942504882812,12.487182617188
0.085,9.7244873046875,-19.103637695312,9.6844482421875
0.0855,13.368041992188,-18.262817382812,5.4403076171875
0.086,16.330932617188,-17.021606445312,1.3162841796875
0.0865,18.372924804688,-15.460083007812,-2.3272705078125
0.087,18.893432617188,-13.498168945312,-4.6495361328125
0.0875,18.973510742188,-10.935668945312,-7.3321533203125
0.088,18.733276367188,-7.4923095703125,-10.575317382812
0.0885,18.172729492188,-3.4483642578125,-14.058715820312
0.089,17.932495117188,0.6756591796875,-16.701293945312
0.0895,15.169799804688,3.5584716796875,-18.102661132812
0.09,13.247924804688,6.3211669921875,-18.943481445312
0.0905,10.204956054688,9.4442138671875,-18.342895507812
0.091,5.6805419921875,12.687377929688,-17.982543945312
0.0915,1.1961669921875,15.930541992188,-16.861450195312
0.092,-2.8878173828125,18.052612304688,-15.259887695312
0.0925,-5.4102783203125,18.773315429688,-13.618286132812
0.093,-8.0928955078125,19.093627929688,-11.456176757812
0.0935,-11.215942382812,18.813354492188,-8.2130126953125
0.094,-14.579223632812,17.772338867188,-4.0089111328125
0.0945,-17.221801757812,16.210815429688,0.2752685546875
0.095,-18.903442382812,14.569213867188,3.3182373046875
0.0955,-19.263793945312,12.487182617188,5.8807373046875
0.096,-19.183715820312,9.6043701171875,8.6434326171875
0.0965,-18.583129882812,5.7205810546875,12.006713867188
0.097,-17.862426757812,1.5565185546875,15.329956054688
0.0975,-16.300903320312,-2.3673095703125,17.732299804688
0.098,-14.579223632812,-4.8897705078125,18.573120117188
0.0985,-12.617309570312,-7.4122314453125,19.253784179688
0.099,-8.8536376953125,-10.775512695312,18.893432617188
0.0995,-4.1690673828125,-14.138793945312,17.852416992188
0.1,0.3953857421875,-16.941528320312,16.250854492188
0.1005,3.8787841796875,-18.743286132812,14.809448242188
0.101,7.6824951171875,-17.942504882812,12.967651367188
0.1015,9.2440185546875,-17.942504882812,10.405151367188
0.102,12.647338867188,-18.743286132812,6.6014404296875
0.1025,15.930541992188,-17.582153320312,2.3572998046875
0.103,18.012573242188,-16.100708007812,-1.6866455078125
0.1035,19.093627929688,-12.817504882812,-4.2491455078125
0.104,19.453979492188,-11.856567382812,-6.9317626953125
0.1045,20.494995117188,-8.3331298828125,-10.134887695312
0.105,18.453002929688,-4.4493408203125,-13.338012695312
0.1055,17.331909179688,-0.3253173828125,-16.340942382812
0.106,15.810424804688,3.3182373046875,-18.422973632812
0.1065,13.768432617188,5.8006591796875,-18.983520507812
0.107,11.205932617188,8.4432373046875,-19.183715820312
0.1075,7.0418701171875,12.046752929688,-18.663208007812
0.108,2.3973388671875,16.651245117188,-17.502075195312
0.1085,-1.9669189453125,17.612182617188,-15.700317382812
0.109,-4.8497314453125,18.893432617188,-14.298950195312
0.1095,-7.4522705078125,19.293823242188,-12.256958007812
0.11,-10.415161132812,19.013549804688,-9.1739501953125
0.1105,-13.738403320312,18.292846679688,-5.2501220703125
0.111,-16.821411132812,16.851440429688,-0.8057861328125
0.1115,-18.783325195312,15.089721679688,2.8377685546875
0.112,-19.183715820312,13.087768554688,6.4012451171875
0.1125,-19.423950195312,10.685424804688,7.8026123046875
0.113,-18.943481445312,6.7215576171875,11.286010742188
0.1135,-18.222778320312,2.7576904296875,14.529174804688
0.114,-16.741333007812,-1.1661376953125,16.971557617188
0.1145,-15.259887695312,-4.1690673828125,18.733276367188
0.115,-13.137817382812,-6.7315673828125,19.053588867188
0.1155,-10.134887695312,-9.4942626953125,18.933471679688
0.116,-5.8907470703125,-12.937622070312,18.212768554688
0.1165,-1.1260986328125,-16.140747070312,16.931518554688
0.117,2.7576904296875,-18.142700195312,15.209838867188
0.1175,5.2801513671875,-18.903442382812,13.688354492188
0.118,8.0428466796875,-19.303833007812,11.566284179688
0.1185,11.366088867188,-18.823364257812,7.8826904296875
0.119,14.489135742188,-17.902465820312,3.9989013671875
0.1195,17.251831054688,-16.421020507812,-0.1651611328125
0.12,18.893432617188,-14.779418945312,-3.4884033203125
0.1205,19.093627929688,-12.617309570312,-5.7706298828125
0.121,19.173706054688,-9.8946533203125,-8.6534423828125
0.1215,18.573120117188,-5.8907470703125,-12.056762695312
0.122,17.772338867188,-1.6866455078125,-15.339965820312
0.1225,16.210815429688,2.0770263671875,-17.381958007812
0.123,14.489135742188,4.7596435546875,-18.583129882812
0.1235,12.286987304688,7.4022216796875,-19.103637695312
0.124,8.2830810546875,10.725463867188,-18.623168945312
0.1245,4.2791748046875,13.928588867188,-17.822387695312
0.125,-0.5255126953125,16.691284179688,-16.340942382812
0.1255,-3.9288330078125,18.533081054688,-14.739379882812
0.126,-6.2911376953125,18.853393554688,-12.857543945312
0.1265,-8.8936767578125,20.494995117188,-10.775512695312
0.127,-12.697387695312,18.453002929688,-6.4512939453125
0.1275,-15.740356445312,17.251831054688,-2.3272705078125
0.128,-17.982543945312,15.650268554688,1.5164794921875
0.1285,-19.263793945312,13.928588867188,4.4393310546875
0.129,-19.383911132812,11.486206054688,6.9217529296875
0.1295,-19.263793945312,8.0828857421875,10.204956054688
0.13,-18.583129882812,4.2791748046875,13.408081054688
0.1305,-17.261840820312,0.0350341796875,16.531127929688
0.131,-15.900512695312,-3.5284423828125,18.533081054688
0.1315,-13.938598632812,-5.9708251953125,19.053588867188
0.132,-11.696411132812,-8.6534423828125,19.494018554688
0.1325,-6.9317626953125,-12.457153320312,18.773315429688
0.133,-2.5274658203125,-15.540161132812,17.572143554688
0.1335,1.7967529296875,-17.902465820312,15.970581054688
0.134,5.0799560546875,-19.383911132812,14.449096679688
0.1345,7.6424560546875,-19.504028320312,12.166870117188
0.135,10.525268554688,-19.544067382812,9.4442138671875
0.1355,14.168823242188,-18.743286132812,5.1600341796875
0.136,17.291870117188,-17.261840820312,0.5955810546875
0.1365,19.173706054688,-15.540161132812,-2.9278564453125
0.137,19.854370117188,-13.538208007812,-5.7305908203125
0.1375,20.014526367188,-11.055786132812,-8.3331298828125
0.138,19.494018554688,-6.6114501953125,-12.216918945312
0.1385,18.733276367188,-2.6876220703125,-15.460083007812
0.139,17.291870117188,1.3963623046875,-16.661254882812
0.1395,15.490112304688,4.7996826171875,-19.584106445312
0.14,12.927612304688,7.3621826171875,-19.664184570312
0.1405,10.204956054688,10.204956054688,-19.904418945312
0.141,5.1600341796875,15.369995117188,-18.943481445312
0.1415,0.2352294921875,17.251831054688,-17.341918945312
0.142,-3.5684814453125,19.053588867188,-15.580200195312
0.1425,-6.5714111328125,20.174682617188,-13.898559570312
0.143,-9.3341064453125,20.134643554688,-11.255981445312
0.1435,-12.737426757812,19.494018554688,-7.4923095703125
0.144,-15.980590820312,18.533081054688,-3.4884033203125
0.1445,-18.863403320312,16.691284179688,1.2362060546875
0.145,-20.224731445312,14.769409179688,4.4793701171875
0.1455,-20.424926757812,12.327026367188,7.0418701171875
0.146,-20.585083007812,9.6444091796875,9.8846435546875
0.1465,-19.744262695312,4.9598388671875,13.848510742188
0.147,-18.583129882812,0.7156982421875,16.931518554688
0.1475,-16.861450195312,-3.0880126953125,19.053588867188
0.148,-15.139770507812,-6.2110595703125,20.454956054688
0.1485,-12.216918945312,-8.8536376953125,20.254760742188
0.149,-8.5333251953125,-12.056762695312,19.894409179688
0.1495,-3.8087158203125,-15.620239257812,18.933471679688
0.15,1.3563232421875,-18.543090820312,16.931518554688
0.1505,4.7596435546875,-19.904418945312,15.209838867188
0.151,7.6424560546875,-19.223754882812,13.127807617188
0.1515,10.365112304688,-20.545043945312,10.645385742188
0.152,14.328979492188,-19.544067382812,5.8006591796875
0.1525,17.452026367188,-18.262817382812,1.5565185546875
0.153,19.694213867188,-16.541137695312,-1.2862548828125
0.1535,20.775268554688,-14.539184570312,-5.5303955078125
0.154,20.615112304688,-11.616333007812,-8.2130126953125
0.1545,20.454956054688,-8.3331298828125,-11.255981445312
0.155,19.694213867188,-3.9288330078125,-14.939575195312
0.1555,18.172729492188,0.6756591796875,-18.062622070312
0.156,16.210815429688,4.1190185546875,-19.584106445312
0.1565,14.208862304688,7.0418701171875,-20.545043945312
0.157,11.326049804688,9.8045654296875,-19.223754882812
0.1575,7.6824951171875,13.568237304688,-19.544067382812
0.158,1.9168701171875,16.731323242188,-18.903442382812
0.1585,-2.8878173828125,19.293823242188,-16.501098632812
0.159,-5.9708251953125,20.414916992188,-14.659301757812
0.1595,-8.8135986328125,20.454956054688,-12.096801757812
0.16,-10.255004882812,20.414916992188,-9.5343017578125
0.1605,-15.420043945312,20.494995117188,-4.5294189453125
0.161,-18.503051757812,17.371948242188,0.2352294921875
0.1615,-20.184692382812,15.530151367188,3.6385498046875
0.162,-20.985473632812,13.408081054688,6.5213623046875
0.1625,-20.705200195312,10.485229492188,9.2440185546875
0.163,-20.224731445312,6.4412841796875,14.088745117188
0.1635,-19.343872070312,2.2772216796875,16.130737304688
0.164,-17.742309570312,-2.2071533203125,18.933471679688
0.1645,-15.700317382812,-5.3302001953125,20.134643554688
0.165,-13.338012695312,-8.0128173828125,21.776245117188
0.1655,-10.415161132812,-10.815551757812,20.535034179688
0.166,-4.8897705078125,-14.459106445312,19.333862304688
0.1665,-0.1651611328125,-17.822387695312,17.652221679688
0.167,5.1199951171875,-19.744262695312,15.930541992188
0.1675,6.8416748046875,-20.665161132812,15.369995117188
0.168,9.8446044921875,-19.223754882812,11.045776367188
0.1685,12.847534179688,-20.144653320312,7.8026123046875
0.169,16.451049804688,-19.063598632812,3.2781982421875
0.1695,19.373901367188,-17.061645507812,-1.6466064453125
0.17,20.414916992188,-15.059692382812,-4.5294189453125
0.1705,20.975463867188,-12.697387695312,-7.4522705078125
0.171,20.695190429688,-9.6944580078125,-10.214965820312
0.1715,19.854370117188,-5.0499267578125,-14.058715820312
0.172,18.813354492188,-0.9259033203125,-17.181762695312
0.1725,17.091674804688,3.1580810546875,-19.504028320312
0.173,15.009643554688,6.2410888671875,-19.223754882812
0.1735,12.006713867188,9.0838623046875,-20.464965820312
0.174,8.4832763671875,12.166870117188,-20.344848632812
0.1745,3.3582763671875,15.970581054688,-19.103637695312
0.175,-1.8468017578125,18.853393554688,-16.981567382812
0.1755,-5.0899658203125,20.174682617188,-15.299926757812
0.176,-8.0128173828125,20.895385742188,-13.297973632812
0.1765,-10.975708007812,20.535034179688,-8.9737548828125
0.177,-14.499145507812,19.694213867188,-5.9307861328125
0.1775,-17.742309570312,18.412963867188,-1.5665283203125
0.178,-20.464965820312,16.290893554688,2.9979248046875
