wavelength,x,y,z
0.0,-3.873779296875,3.052978515625,0.290283203125
0.0005,-4.073974609375,2.532470703125,1.051025390625
0.001,-4.114013671875,1.691650390625,1.971923828125
0.0015,-3.873779296875,1.131103515625,2.452392578125
0.002,-3.553466796875,0.290283203125,2.972900390625
0.0025,-3.273193359375,-0.470458984375,3.413330078125
0.003,-2.712646484375,-1.231201171875,3.653564453125
0.0035,-2.072021484375,-2.112060546875,3.853759765625
0.004,-1.271240234375,-3.032958984375,3.973876953125
0.0045,-0.350341796875,-3.473388671875,3.493408203125
0.005,0.330322265625,-4.114013671875,3.453369140625
0.0055,1.051025390625,-4.354248046875,2.892822265625
0.006,1.731689453125,-4.554443359375,2.452392578125
0.0065,2.532470703125,-4.834716796875,1.771728515625
0.007,3.052978515625,-4.674560546875,1.010986328125
0.0075,3.253173828125,-4.234130859375,0.330322265625
0.008,3.573486328125,-4.033935546875,-0.350341796875
0.0085,3.573486328125,-3.193115234375,-1.311279296875
0.009,3.693603515625,-2.632568359375,-2.072021484375
0.0095,3.773681640625,-1.751708984375,-3.032958984375
0.01,3.293212890625,-0.990966796875,-3.393310546875
0.0105,3.052978515625,-0.230224609375,-3.913818359375
0.011,2.572509765625,0.610595703125,-4.154052734375
0.0115,1.971923828125,1.371337890625,-4.474365234375
0.012,1.211181640625,2.332275390625,-4.594482421875
0.0125,0.450439453125,3.173095703125,-4.634521484375
0.013,-0.630615234375,3.533447265625,-3.993896484375
0.0135,-1.231201171875,4.134033203125,-3.953857421875
0.014,-2.072021484375,4.294189453125,-3.153076171875
0.0145,-2.672607421875,4.494384765625,-2.712646484375
0.015,-3.433349609375,4.614501953125,-1.951904296875
0.0155,-3.793701171875,4.214111328125,-1.191162109375
0.016,-3.993896484375,3.853759765625,-0.510498046875
0.0165,-4.234130859375,3.453369140625,0.250244140625
0.017,-4.194091796875,2.572509765625,1.171142578125
0.0175,-4.234130859375,1.971923828125,1.931884765625
0.018,-4.194091796875,1.131103515625,2.732666015625
0.0185,-3.673583984375,0.290283203125,3.052978515625
0.019,-3.513427734375,-0.430419921875,3.653564453125
0.0195,-2.832763671875,-1.271240234375,3.813720703125
0.02,-2.272216796875,-2.072021484375,4.053955078125
0.0205,-1.391357421875,-2.992919921875,4.134033203125
0.021,-0.590576171875,-3.713623046875,3.973876953125
0.0215,0.370361328125,-4.073974609375,3.413330078125
0.022,0.970947265625,-4.634521484375,3.333251953125
0.0225,1.931884765625,-4.754638671875,2.412353515625
0.023,2.492431640625,-4.954833984375,1.971923828125
0.0235,3.173095703125,-4.994873046875,1.251220703125
0.024,3.493408203125,-4.514404296875,0.370361328125
0.0245,3.773681640625,-4.234130859375,-0.350341796875
0.025,3.893798828125,-3.633544921875,-1.231201171875
0.0255,3.973876953125,-2.712646484375,-2.232177734375
0.026,3.853759765625,-2.072021484375,-2.872802734375
0.0265,3.813720703125,-1.151123046875,-3.713623046875
0.027,3.173095703125,-0.270263671875,-3.993896484375
0.0275,2.972900390625,0.490478515625,-4.554443359375
0.028,2.052001953125,1.571533203125,-4.674560546875
0.0285,1.411376953125,2.412353515625,-4.914794921875
0.029,0.490478515625,3.213134765625,-4.794677734375
0.0295,-0.470458984375,3.893798828125,-4.514404296875
0.03,-1.351318359375,4.214111328125,-3.913818359375
0.0305,-2.031982421875,4.654541015625,-3.633544921875
0.031,-3.072998046875,4.774658203125,-2.592529296875
0.0315,-3.473388671875,4.774658203125,-2.112060546875
0.032,-4.114013671875,4.734619140625,-1.311279296875
0.0325,-4.314208984375,4.013916015625,-0.510498046875
0.033,-4.514404296875,3.693603515625,0.290283203125
0.0335,-4.594482421875,2.812744140625,1.291259765625
0.034,-4.554443359375,1.971923828125,2.252197265625
0.0345,-4.354248046875,1.291259765625,2.812744140625
0.035,-4.154052734375,0.370361328125,3.573486328125
0.0355,-3.473388671875,-0.630615234375,3.813720703125
0.036,-3.193115234375,-1.271240234375,4.294189453125
0.0365,-2.112060546875,-2.472412109375,4.334228515625
0.037,-1.471435546875,-3.193115234375,4.494384765625
0.0375,-0.510498046875,-3.953857421875,4.174072265625
0.038,0.450439453125,-4.514404296875,3.853759765625
0.0385,1.251220703125,-4.834716796875,3.293212890625
0.039,1.931884765625,-5.155029296875,2.812744140625
0.0395,2.972900390625,-5.275146484375,1.851806640625
0.04,3.293212890625,-5.155029296875,1.291259765625
0.0405,3.893798828125,-5.074951171875,0.450439453125
0.041,4.013916015625,-4.354248046875,-0.510498046875
0.0415,4.254150390625,-3.993896484375,-1.271240234375
0.042,4.214111328125,-2.872802734375,-2.392333984375
0.0425,4.214111328125,-2.072021484375,-3.193115234375
0.043,3.853759765625,-1.271240234375,-3.713623046875
0.0435,3.613525390625,-0.350341796875,-4.434326171875
0.044,2.852783203125,0.650634765625,-4.634521484375
0.0445,2.492431640625,1.411376953125,-5.034912109375
0.045,1.331298828125,2.692626953125,-5.155029296875
0.0455,0.690673828125,3.333251953125,-5.114990234375
0.046,-0.470458984375,4.053955078125,-4.754638671875
0.0465,-1.311279296875,4.574462890625,-4.354248046875
0.047,-2.072021484375,4.814697265625,-3.793701171875
0.0475,-2.912841796875,5.094970703125,-3.113037109375
0.048,-3.873779296875,5.175048828125,-2.112060546875
0.0485,-4.154052734375,4.814697265625,-1.471435546875
0.049,-4.674560546875,4.574462890625,-0.590576171875
0.0495,-4.754638671875,3.853759765625,0.330322265625
0.05,-4.874755859375,3.373291015625,1.131103515625
0.0505,-4.794677734375,2.252197265625,2.252197265625
0.051,-4.754638671875,1.491455078125,3.012939453125
0.0515,-4.194091796875,0.570556640625,3.493408203125
0.052,-3.953857421875,-0.390380859375,4.134033203125
0.0525,-3.193115234375,-1.311279296875,4.334228515625
0.053,-2.672607421875,-2.072021484375,4.574462890625
0.0535,-1.551513671875,-3.353271484375,4.694580078125
0.054,-0.790771484375,-3.953857421875,4.494384765625
0.0545,0.330322265625,-4.594482421875,4.013916015625
0.055,1.131103515625,-5.034912109375,3.613525390625
0.0555,1.851806640625,-5.195068359375,3.052978515625
0.056,2.692626953125,-5.395263671875,2.252197265625
0.0565,3.573486328125,-5.595458984375,1.411376953125
0.057,3.813720703125,-5.074951171875,0.610595703125
0.0575,4.294189453125,-4.914794921875,-0.270263671875
0.058,4.294189453125,-3.993896484375,-1.151123046875
0.0585,4.414306640625,-3.473388671875,-1.911865234375
0.059,4.334228515625,-2.272216796875,-3.113037109375
0.0595,4.174072265625,-1.591552734375,-3.713623046875
0.06,3.613525390625,-0.630615234375,-4.154052734375
0.0605,3.293212890625,0.330322265625,-4.754638671875
0.061,2.532470703125,1.211181640625,-4.874755859375
0.0615,1.971923828125,1.971923828125,-5.114990234375
0.062,0.890869140625,3.253173828125,-5.275146484375
0.0625,0.050048828125,3.733642578125,-4.874755859375
0.063,-0.990966796875,4.414306640625,-4.514404296875
0.0635,-1.791748046875,4.774658203125,-4.033935546875
0.064,-2.512451171875,4.934814453125,-3.393310546875
0.0645,-3.353271484375,5.014892578125,-2.592529296875
0.065,-4.154052734375,5.094970703125,-1.831787109375
0.0655,-4.314208984375,4.494384765625,-0.990966796875
0.066,-4.794677734375,4.414306640625,-0.190185546875
0.0665,-4.754638671875,3.493408203125,0.770751953125
0.067,-4.834716796875,2.892822265625,1.571533203125
0.0675,-4.754638671875,1.771728515625,2.692626953125
0.068,-4.514404296875,1.091064453125,3.213134765625
0.0685,-3.913818359375,0.050048828125,3.693603515625
0.069,-3.593505859375,-0.790771484375,4.174072265625
0.0695,-2.872802734375,-1.631591796875,4.334228515625
0.07,-2.232177734375,-2.512451171875,4.494384765625
0.0705,-1.231201171875,-3.673583984375,4.654541015625
0.071,-0.270263671875,-4.114013671875,4.093994140625
0.0715,0.650634765625,-4.754638671875,3.853759765625
0.072,1.411376953125,-4.994873046875,3.333251953125
0.0725,2.092041015625,-5.235107421875,2.692626953125
0.073,2.972900390625,-5.395263671875,1.891845703125
0.0735,3.693603515625,-5.435302734375,1.091064453125
0.074,3.853759765625,-4.674560546875,0.170166015625
0.0745,4.214111328125,-4.554443359375,-0.590576171875
0.075,4.134033203125,-3.553466796875,-1.471435546875
0.0755,4.254150390625,-2.952880859375,-2.272216796875
0.076,4.214111328125,-1.911865234375,-3.393310546875
0.0765,3.853759765625,-1.111083984375,-3.833740234375
0.077,3.333251953125,-0.150146484375,-4.354248046875
0.0775,2.932861328125,0.690673828125,-4.754638671875
0.078,2.252197265625,1.531494140625,-4.874755859375
0.0785,1.451416015625,2.412353515625,-4.994873046875
0.079,0.570556640625,3.493408203125,-5.114990234375
0.0795,-0.590576171875,3.853759765625,-4.434326171875
0.08,-1.271240234375,4.494384765625,-4.314208984375
0.0805,-2.072021484375,4.614501953125,-3.593505859375
0.081,-2.752685546875,4.774658203125,-3.032958984375
0.0815,-3.593505859375,4.934814453125,-2.232177734375
0.082,-4.154052734375,4.814697265625,-1.431396484375
0.0825,-4.314208984375,4.174072265625,-0.590576171875
0.083,-4.634521484375,3.973876953125,0.130126953125
0.0835,-4.514404296875,3.012939453125,1.091064453125
0.084,-4.554443359375,2.372314453125,1.851806640625
0.0845,-4.514404296875,1.411376953125,2.852783203125
0.085,-4.033935546875,0.610595703125,3.213134765625
0.0855,-3.713623046875,-0.310302734375,3.773681640625
0.086,-3.193115234375,-1.031005859375,4.013916015625
0.0865,-2.552490234375,-1.911865234375,4.214111328125
0.087,-1.751708984375,-2.832763671875,4.334228515625
0.0875,-0.910888671875,-3.713623046875,4.294189453125
0.088,0.170166015625,-4.114013671875,3.693603515625
0.0885,0.770751953125,-4.794677734375,3.613525390625
0.089,1.571533203125,-4.834716796875,2.852783203125
0.0895,2.252197265625,-5.114990234375,2.332275390625
0.09,3.093017578125,-5.195068359375,1.571533203125
0.0905,3.533447265625,-4.874755859375,0.770751953125
0.091,3.733642578125,-4.434326171875,0.010009765625
0.0915,3.973876953125,-4.114013671875,-0.750732421875
0.092,3.973876953125,-3.153076171875,-1.751708984375
0.0925,3.973876953125,-2.512451171875,-2.512451171875
0.093,3.973876953125,-1.591552734375,-3.473388671875
0.0935,3.413330078125,-0.710693359375,-3.793701171875
0.094,3.173095703125,0.130126953125,-4.354248046875
0.0945,2.492431640625,0.970947265625,-4.514404296875
0.095,1.931884765625,1.771728515625,-4.794677734375
0.0955,1.010986328125,2.692626953125,-4.834716796875
0.096,0.170166015625,3.493408203125,-4.714599609375
0.0965,-0.870849609375,3.813720703125,-4.114013671875
0.097,-1.471435546875,4.374267578125,-4.033935546875
0.0975,-2.352294921875,4.454345703125,-3.113037109375
0.098,-2.912841796875,4.654541015625,-2.632568359375
0.0985,-3.713623046875,4.734619140625,-1.871826171875
0.099,-3.953857421875,4.254150390625,-1.031005859375
0.0995,-4.194091796875,3.933837890625,-0.350341796875
0.1,-4.314208984375,3.373291015625,0.490478515625
0.1005,-4.354248046875,2.532470703125,1.411376953125
0.101,-4.274169921875,1.931884765625,2.052001953125
0.1015,-4.194091796875,1.051025390625,2.892822265625
0.102,-3.593505859375,0.170166015625,3.173095703125
0.1025,-3.513427734375,-0.510498046875,3.733642578125
0.103,-2.712646484375,-1.391357421875,3.813720703125
0.1035,-2.192138671875,-2.192138671875,4.093994140625
0.104,-1.271240234375,-3.032958984375,4.013916015625
0.1045,-0.510498046875,-3.713623046875,3.813720703125
0.105,0.410400390625,-4.114013671875,3.333251953125
0.1055,0.970947265625,-4.554443359375,3.173095703125
0.106,1.851806640625,-4.634521484375,2.412353515625
0.1065,2.292236328125,-4.834716796875,1.971923828125
0.107,3.052978515625,-4.834716796875,1.291259765625
0.1075,3.213134765625,-4.314208984375,0.450439453125
0.108,3.573486328125,-4.154052734375,-0.190185546875
0.1085,3.653564453125,-3.393310546875,-1.111083984375
0.109,3.773681640625,-2.752685546875,-1.911865234375
0.1095,3.693603515625,-2.072021484375,-2.592529296875
0.11,3.573486328125,-1.351318359375,-3.313232421875
0.1105,3.052978515625,-0.510498046875,-3.633544921875
0.111,2.892822265625,0.170166015625,-4.154052734375
0.1115,2.092041015625,1.131103515625,-4.274169921875
0.112,1.611572265625,1.931884765625,-4.594482421875
0.1125,0.730712890625,2.692626953125,-4.514404296875
0.113,-0.190185546875,3.253173828125,-4.194091796875
0.1135,-0.950927734375,3.693603515625,-3.913818359375
0.114,-1.591552734375,4.134033203125,-3.513427734375
0.1145,-2.432373046875,4.334228515625,-2.832763671875
0.115,-2.872802734375,4.454345703125,-2.392333984375
0.1155,-3.553466796875,4.414306640625,-1.631591796875
0.116,-3.713623046875,3.853759765625,-0.870849609375
0.1165,-4.033935546875,3.733642578125,-0.310302734375
0.117,-3.993896484375,2.772705078125,0.770751953125
0.1175,-4.194091796875,2.292236328125,1.451416015625
0.118,-3.993896484375,1.531494140625,2.172119140625
0.1185,-3.833740234375,0.810791015625,2.732666015625
0.119,-3.353271484375,0.010009765625,3.093017578125
0.1195,-3.153076171875,-0.670654296875,3.533447265625
0.12,-2.312255859375,-1.671630859375,3.693603515625
0.1205,-1.791748046875,-2.432373046875,3.853759765625
0.121,-0.950927734375,-3.193115234375,3.733642578125
0.1215,-0.150146484375,-3.673583984375,3.333251953125
0.122,0.530517578125,-4.114013671875,3.213134765625
0.1225,1.291259765625,-4.314208984375,2.652587890625
0.123,1.971923828125,-4.554443359375,2.132080078125
0.1235,2.412353515625,-4.514404296875,1.651611328125
0.124,2.892822265625,-4.474365234375,0.970947265625
0.1245,3.093017578125,-3.913818359375,0.250244140625
0.125,3.413330078125,-3.793701171875,-0.470458984375
0.1255,3.413330078125,-2.832763671875,-1.471435546875
0.126,3.573486328125,-2.432373046875,-2.072021484375
0.1265,3.413330078125,-1.631591796875,-2.752685546875
0.127,3.173095703125,-0.990966796875,-3.233154296875
0.1275,2.852783203125,-0.270263671875,-3.713623046875
0.128,2.412353515625,0.570556640625,-3.993896484375
0.1285,1.731689453125,1.451416015625,-4.274169921875
0.129,1.171142578125,2.092041015625,-4.354248046875
0.1295,0.330322265625,2.812744140625,-4.234130859375
0.13,-0.550537109375,3.293212890625,-3.833740234375
0.1305,-1.151123046875,3.813720703125,-3.713623046875
0.131,-1.951904296875,3.973876953125,-2.992919921875
0.1315,-2.552490234375,4.254150390625,-2.592529296875
0.132,-2.992919921875,4.134033203125,-1.991943359375
0.1325,-3.393310546875,3.973876953125,-1.311279296875
0.133,-3.593505859375,3.573486328125,-0.630615234375
0.1335,-3.913818359375,3.253173828125,0.130126953125
0.134,-3.913818359375,2.372314453125,1.131103515625
0.1345,-3.993896484375,1.971923828125,1.651611328125
0.135,-3.833740234375,1.131103515625,2.372314453125
0.1355,-3.513427734375,0.450439453125,2.812744140625
0.136,-3.273193359375,-0.310302734375,3.253173828125
0.1365,-2.632568359375,-1.231201171875,3.493408203125
0.137,-2.072021484375,-2.112060546875,3.813720703125
0.1375,-1.271240234375,-2.752685546875,3.653564453125
0.138,-0.590576171875,-3.353271484375,3.573486328125
0.1385,0.290283203125,-3.793701171875,3.173095703125
0.139,0.850830078125,-4.194091796875,2.972900390625
0.1395,1.771728515625,-4.434326171875,2.212158203125
0.14,2.252197265625,-4.554443359375,1.891845703125
0.1405,2.692626953125,-4.434326171875,1.131103515625
0.141,3.052978515625,-4.154052734375,0.490478515625
0.1415,3.253173828125,-3.753662109375,-0.310302734375
0.142,3.453369140625,-3.193115234375,-1.111083984375
0.1425,3.533447265625,-2.432373046875,-2.031982421875
0.143,3.453369140625,-1.911865234375,-2.552490234375
0.1435,3.293212890625,-1.151123046875,-3.193115234375
0.144,2.852783203125,-0.390380859375,-3.553466796875
0.1445,2.612548828125,0.330322265625,-4.033935546875
0.145,1.851806640625,1.291259765625,-4.234130859375
0.1455,1.291259765625,2.092041015625,-4.514404296875
0.146,0.450439453125,2.732666015625,-4.154052734375
0.1465,-0.350341796875,3.373291015625,-4.033935546875
0.147,-1.151123046875,3.693603515625,-3.593505859375
0.1475,-1.711669921875,4.053955078125,-3.273193359375
0.148,-2.632568359375,4.254150390625,-2.512451171875
0.1485,-3.032958984375,4.294189453125,-2.072021484375
0.149,-3.473388671875,4.093994140625,-1.311279296875
0.1495,-3.713623046875,3.693603515625,-0.630615234375
0.15,-3.913818359375,3.253173828125,0.130126953125
0.1505,-3.993896484375,2.532470703125,1.010986328125
0.151,-4.114013671875,1.931884765625,1.851806640625
0.1515,-3.833740234375,1.251220703125,2.252197265625
0.152,-3.713623046875,0.490478515625,2.932861328125
0.1525,-3.193115234375,-0.390380859375,3.213134765625
0.153,-2.872802734375,-1.031005859375,3.653564453125
0.1535,-2.031982421875,-2.112060546875,3.773681640625
0.154,-1.471435546875,-2.752685546875,3.893798828125
0.1545,-0.550537109375,-3.313232421875,3.533447265625
0.155,0.170166015625,-3.873779296875,3.413330078125
0.1555,0.890869140625,-4.194091796875,2.932861328125
0.156,1.531494140625,-4.474365234375,2.532470703125
0.1565,2.412353515625,-4.754638671875,1.811767578125
0.157,2.732666015625,-4.514404296875,1.251220703125
0.1575,3.213134765625,-4.434326171875,0.570556640625
0.158,3.373291015625,-3.873779296875,-0.270263671875
0.1585,3.573486328125,-3.473388671875,-0.990966796875
0.159,3.613525390625,-2.552490234375,-1.991943359375
0.1595,3.733642578125,-1.991943359375,-2.712646484375
0.16,3.333251953125,-1.231201171875,-3.153076171875
0.1605,3.173095703125,-0.590576171875,-3.833740234375
0.161,2.572509765625,0.330322265625,-3.993896484375
0.1615,2.212158203125,1.010986328125,-4.394287109375
0.162,1.291259765625,2.252197265625,-4.554443359375
0.1625,0.610595703125,2.852783203125,-4.514404296875
0.163,-0.390380859375,3.453369140625,-4.114013671875
0.1635,-1.071044921875,3.933837890625,-3.873779296875
0.164,-1.791748046875,4.134033203125,-3.353271484375
0.1645,-2.512451171875,4.374267578125,-2.752685546875
0.165,-3.353271484375,4.574462890625,-2.072021484375
0.1655,-3.553466796875,4.134033203125,-1.311279296875
0.166,-3.993896484375,4.053955078125,-0.710693359375
0.1665,-4.033935546875,3.373291015625,0.130126953125
0.167,-4.194091796875,2.852783203125,0.890869140625
0.1675,-4.154052734375,1.931884765625,1.931884765625
0.168,-4.154052734375,1.331298828125,2.532470703125
0.1685,-3.673583984375,0.410400390625,2.932861328125
0.169,-3.553466796875,-0.310302734375,3.493408203125
0.1695,-2.872802734375,-1.151123046875,3.653564453125
0.17,-2.352294921875,-1.871826171875,3.933837890625
0.1705,-1.471435546875,-2.952880859375,4.134033203125
0.171,-0.630615234375,-3.473388671875,3.813720703125
0.1715,0.250244140625,-4.073974609375,3.533447265625
0.172,0.890869140625,-4.434326171875,3.213134765625
0.1725,1.571533203125,-4.634521484375,2.692626953125
0.173,2.372314453125,-4.834716796875,1.971923828125
0.1735,3.133056640625,-4.994873046875,1.331298828125
0.174,3.333251953125,-4.434326171875,0.490478515625
0.1745,3.733642578125,-4.354248046875,-0.150146484375
0.175,3.733642578125,-3.553466796875,-1.031005859375
0.1755,3.853759765625,-2.992919921875,-1.831787109375
0.176,3.893798828125,-2.031982421875,-2.872802734375
0.1765,3.693603515625,-1.391357421875,-3.473388671875
0.177,3.213134765625,-0.470458984375,-3.913818359375
0.1775,2.932861328125,0.290283203125,-4.434326171875
0.178,2.252197265625,1.171142578125,-4.514404296875
0.1785,1.611572265625,2.052001953125,-4.794677734375
0.179,0.730712890625,3.173095703125,-4.954833984375
0.1795,-0.350341796875,3.653564453125,-4.394287109375
0.18,-1.111083984375,4.214111328125,-4.194091796875
0.1805,-1.911865234375,4.494384765625,-3.593505859375
0.181,-2.632568359375,4.654541015625,-2.952880859375
0.1815,-3.473388671875,4.814697265625,-2.232177734375
0.182,-4.114013671875,4.774658203125,-1.431396484375
0.1825,-4.194091796875,4.093994140625,-0.590576171875
0.183,-4.554443359375,3.973876953125,0.090087890625
0.1835,-4.474365234375,2.932861328125,1.131103515625
0.184,-4.514404296875,2.332275390625,1.891845703125
0.1845,-4.434326171875,1.291259765625,2.812744140625
0.185,-4.073974609375,0.410400390625,3.333251953125
0.1855,-3.593505859375,-0.510498046875,3.733642578125
0.186,-3.193115234375,-1.111083984375,4.093994140625
0.1865,-2.392333984375,-2.072021484375,4.214111328125
0.187,-1.631591796875,-2.912841796875,4.334228515625
0.1875,-0.710693359375,-3.873779296875,4.334228515625
0.188,0.290283203125,-4.274169921875,3.693603515625
