wavelength,x,y,z
0.0,17.622192382812,-18.933471679688,2.0069580078125
0.0005,20.585083007812,-17.612182617188,-2.2371826171875
0.001,21.786254882812,-15.890502929688,-5.1600341796875
0.0015,21.465942382812,-12.927612304688,-7.8426513671875
0.002,21.265747070312,-9.4442138671875,-11.045776367188
0.0025,20.424926757812,-4.3592529296875,-15.209838867188
0.003,19.143676757812,0.2052001953125,-18.533081054688
0.0035,17.782348632812,3.4884033203125,-20.454956054688
0.004,15.860473632812,6.2911376953125,-21.415893554688
0.0045,12.457153320312,9.1339111328125,-20.935424804688
0.005,7.2921142578125,13.257934570312,-20.014526367188
0.0055,2.5274658203125,16.741333007812,-18.933471679688
0.006,-2.3572998046875,19.784301757812,-17.371948242188
0.0065,-5.3201904296875,21.025512695312,-15.890502929688
0.007,-7.8826904296875,20.865356445312,-13.408081054688
0.0075,-10.965698242188,20.705200195312,-10.405151367188
0.008,-15.369995117188,19.504028320312,-4.9197998046875
0.0085,-18.693237304688,18.062622070312,-0.3153076171875
0.009,-20.975463867188,16.821411132812,3.1680908203125
0.0095,-21.776245117188,14.859497070312,5.8907470703125
0.01,-21.295776367188,11.616333007812,8.6934814453125
0.0105,-20.815307617188,7.4122314453125,12.497192382812
0.011,-20.014526367188,2.9278564453125,16.140747070312
0.0115,-18.813354492188,-1.5565185546875,19.423950195312
0.012,-17.171752929688,-4.5594482421875,20.865356445312
0.0125,-14.929565429688,-7.1219482421875,21.225708007812
0.013,-11.566284179688,-10.124877929688,20.945434570312
0.0135,-5.6805419921875,-14.529174804688,19.504028320312
0.014,-0.9158935546875,-17.692260742188,18.222778320312
0.0145,3.1680908203125,-20.214721679688,16.941528320312
0.015,6.0509033203125,-21.135620117188,15.259887695312
0.0155,8.8135986328125,-20.655151367188,12.176879882812
0.016,12.176879882812,-20.294799804688,8.6134033203125
0.0165,16.180786132812,-19.213745117188,3.6885986328125
0.017,19.504028320312,-17.652221679688,-1.1561279296875
0.0175,21.065551757812,-16.370971679688,-3.9989013671875
0.018,21.465942382812,-14.048706054688,-6.6014404296875
0.0185,21.025512695312,-10.805541992188,-9.3641357421875
0.019,20.184692382812,-5.8006591796875,-13.608276367188
0.0195,19.303833007812,-1.7166748046875,-16.811401367188
0.02,18.222778320312,2.2872314453125,-19.734252929688
0.0205,16.340942382812,5.1700439453125,-20.775268554688
0.021,13.458129882812,7.7725830078125,-20.535034179688
0.0215,9.7344970703125,11.215942382812,-20.174682617188
0.022,3.9688720703125,15.380004882812,-18.933471679688
0.0225,-0.9959716796875,18.463012695312,-17.371948242188
0.023,-3.9989013671875,20.184692382812,-16.290893554688
0.0235,-6.6815185546875,20.785278320312,-14.449096679688
0.024,-9.4842529296875,20.184692382812,-11.245971679688
0.0245,-13.368041992188,19.383911132812,-6.7615966796875
0.025,-16.811401367188,18.382934570312,-2.3973388671875
0.0255,-19.894409179688,16.901489257812,2.0069580078125
0.026,-20.855346679688,15.380004882812,4.5294189453125
0.0265,-20.855346679688,12.777465820312,7.0919189453125
0.027,-20.535034179688,9.4542236328125,10.174926757812
0.0275,-19.654174804688,4.3292236328125,14.379028320312
0.028,-18.533081054688,0.1251220703125,17.542114257812
0.0285,-17.532104492188,-3.1180419921875,19.744262695312
0.029,-15.730346679688,-5.7606201171875,20.625122070312
0.0295,-12.487182617188,-8.3631591796875,20.024536132812
0.03,-8.0828857421875,-12.126831054688,19.504028320312
0.0305,-2.9178466796875,-15.890502929688,18.302856445312
0.031,1.8468017578125,-18.773315429688,16.781372070312
0.0315,4.3692626953125,-19.934448242188,15.580200195312
0.032,6.9718017578125,-20.294799804688,13.538208007812
0.0325,9.9346923828125,-19.894409179688,10.335083007812
0.033,14.058715820312,-18.893432617188,5.3702392578125
0.0335,17.301879882812,-17.812377929688,1.1260986328125
0.034,19.824340820312,-16.611206054688,-2.4774169921875
0.0345,20.464965820312,-14.769409179688,-4.8797607421875
0.035,20.144653320312,-11.806518554688,-7.5223388671875
0.0355,19.864379882812,-8.2030029296875,-10.925659179688
0.036,19.183715820312,-3.5985107421875,-14.769409179688
0.0365,17.942504882812,0.6856689453125,-17.892456054688
0.037,16.701293945312,3.4884033203125,-19.293823242188
0.0375,14.739379882812,6.0909423828125,-20.054565429688
0.038,11.255981445312,8.9337158203125,-19.534057617188
0.0385,6.0909423828125,13.057739257812,-18.653198242188
0.039,1.5264892578125,16.461059570312,-17.652221679688
0.0395,-2.6776123046875,19.063598632812,-16.370971679688
0.04,-5.1199951171875,19.824340820312,-14.889526367188
0.0405,-7.8426513671875,19.744262695312,-12.367065429688
0.041,-11.045776367188,19.423950195312,-8.9237060546875
0.0415,-15.009643554688,18.302856445312,-4.1190185546875
0.042,-18.252807617188,17.101684570312,0.3253173828125
0.0425,-20.094604492188,15.940551757812,3.3282470703125
0.043,-20.535034179688,13.778442382812,5.8106689453125
0.0435,-20.174682617188,10.575317382812,8.6134033203125
0.044,-19.614135742188,6.1710205078125,12.537231445312
0.0445,-18.933471679688,1.9669189453125,16.060668945312
0.045,-17.692260742188,-2.1571044921875,18.983520507812
0.0455,-16.170776367188,-4.6395263671875,19.944458007812
0.046,-13.808471679688,-7.3221435546875,20.304809570312
0.0465,-9.8846435546875,-10.645385742188,19.784301757812
0.047,-4.3592529296875,-14.649291992188,18.503051757812
0.0475,0.2852783203125,-17.812377929688,17.301879882812
0.048,3.8087158203125,-19.974487304688,16.140747070312
0.0485,6.3311767578125,-20.454956054688,14.258911132812
0.049,9.2540283203125,-20.134643554688,11.215942382812
0.0495,13.017700195312,-19.574096679688,7.0518798828125
0.05,16.661254882812,-18.412963867188,2.4473876953125
0.0505,19.704223632812,-17.011596679688,-1.9569091796875
0.051,20.825317382812,-15.530151367188,-4.5194091796875
0.0515,20.985473632812,-12.967651367188,-7.2020263671875
0.052,20.505004882812,-9.3240966796875,-10.445190429688
0.0525,19.664184570312,-4.5594482421875,-14.328979492188
0.053,18.703247070312,-0.4354248046875,-17.572143554688
0.0535,17.542114257812,3.3282470703125,-20.054565429688
0.054,15.299926757812,5.8907470703125,-20.494995117188
0.0545,12.377075195312,8.6534423828125,-20.374877929688
0.055,7.6925048828125,12.537231445312,-19.734252929688
0.0555,2.4073486328125,16.180786132812,-18.292846679688
0.056,-2.1170654296875,19.023559570312,-16.851440429688
0.0565,-4.9998779296875,20.464965820312,-15.650268554688
0.057,-7.5623779296875,20.505004882812,-13.408081054688
0.0575,-10.645385742188,19.904418945312,-9.9246826171875
0.058,-14.449096679688,19.063598632812,-5.3602294921875
0.0585,-17.892456054688,17.822387695312,-0.8358154296875
0.059,-20.454956054688,16.421020507812,3.1280517578125
0.0595,-20.895385742188,14.459106445312,5.4503173828125
0.06,-20.855346679688,11.616333007812,8.2930908203125
0.0605,-20.334838867188,7.5323486328125,11.816528320312
0.061,-19.333862304688,3.0079345703125,15.500122070312
0.0615,-18.212768554688,-1.1561279296875,18.382934570312
0.062,-16.971557617188,-4.2391357421875,20.344848632812
0.0625,-14.649291992188,-6.6815185546875,20.464965820312
0.063,-11.245971679688,-9.5643310546875,19.984497070312
0.0635,-6.3612060546875,-13.448120117188,19.183715820312
0.064,-1.2762451171875,-16.931518554688,17.782348632812
0.0645,2.8878173828125,-19.413940429688,16.340942382812
0.065,5.2501220703125,-20.214721679688,14.939575195312
0.0655,7.9727783203125,-20.214721679688,12.497192382812
0.066,11.376098632812,-19.494018554688,8.6134033203125
0.0665,14.979614257812,-18.493041992188,4.1690673828125
0.067,18.142700195312,-17.291870117188,-0.1551513671875
0.0675,20.224731445312,-16.010620117188,-3.4783935546875
0.068,20.344848632812,-13.808471679688,-5.7606201171875
0.0685,20.144653320312,-10.765502929688,-8.6033935546875
0.069,19.584106445312,-6.4012451171875,-12.407104492188
0.0695,18.743286132812,-2.1971435546875,-15.810424804688
0.07,17.542114257812,1.6466064453125,-18.412963867188
0.0705,16.140747070312,4.2891845703125,-19.694213867188
0.071,13.698364257812,6.8917236328125,-19.894409179688
0.0715,9.6143798828125,10.214965820312,-19.213745117188
0.072,4.8096923828125,13.898559570312,-18.292846679688
0.0725,0.0850830078125,17.221801757812,-17.131713867188
0.073,-3.5184326171875,19.343872070312,-15.890502929688
0.0735,-5.7205810546875,19.584106445312,-14.248901367188
0.074,-8.4832763671875,19.664184570312,-11.686401367188
0.0745,-12.367065429688,18.903442382812,-7.2020263671875
0.075,-15.770385742188,17.902465820312,-2.8778076171875
0.0755,-18.693237304688,16.741333007812,1.1260986328125
0.076,-20.254760742188,15.380004882812,3.9288330078125
0.0765,-20.214721679688,12.857543945312,6.4112548828125
0.077,-20.014526367188,9.4141845703125,9.6143798828125
0.0775,-19.293823242188,4.9698486328125,13.418090820312
0.078,-18.453002929688,0.7657470703125,16.821411132812
0.0785,-17.251831054688,-2.8377685546875,19.223754882812
0.079,-15.530151367188,-5.1600341796875,19.824340820312
0.0795,-12.887573242188,-7.8826904296875,19.984497070312
0.08,-8.0428466796875,-11.766479492188,19.143676757812
0.0805,-3.2381591796875,-15.169799804688,17.902465820312
0.081,1.1260986328125,-18.092651367188,16.701293945312
0.0815,4.3292236328125,-19.894409179688,15.500122070312
0.082,6.6915283203125,-19.774291992188,13.297973632812
0.0825,9.6143798828125,-19.574096679688,10.375122070312
0.083,13.658325195312,-18.813354492188,5.7305908203125
0.0835,16.981567382812,-17.612182617188,1.2862548828125
0.084,19.504028320312,-16.411010742188,-2.3172607421875
0.0845,20.384887695312,-14.769409179688,-4.8397216796875
0.085,20.304809570312,-12.006713867188,-7.5223388671875
0.0855,19.864379882812,-7.8426513671875,-11.245971679688
0.086,19.023559570312,-3.7186279296875,-14.569213867188
0.0865,18.102661132812,0.4454345703125,-17.772338867188
0.087,16.781372070312,3.7286376953125,-19.774291992188
0.0875,14.338989257812,6.1309814453125,-19.814331054688
0.088,11.536254882812,8.9337158203125,-19.854370117188
0.0885,6.1309814453125,13.177856445312,-18.893432617188
0.089,1.2862548828125,16.421020507812,-17.492065429688
0.0895,-2.5174560546875,18.823364257812,-16.370971679688
0.09,-5.2801513671875,20.104614257812,-15.009643554688
0.0905,-7.8426513671875,19.864379882812,-12.367065429688
0.091,-11.205932617188,19.263793945312,-8.7635498046875
0.0915,-14.889526367188,18.463012695312,-4.3992919921875
0.092,-18.172729492188,17.141723632812,0.2052001953125
0.0925,-20.334838867188,15.820434570312,3.4884033203125
0.093,-20.454956054688,13.698364257812,5.8106689453125
0.0935,-20.454956054688,10.855590820312,8.6134033203125
0.094,-19.734252929688,6.0108642578125,12.817504882812
0.0945,-18.813354492188,1.9268798828125,15.980590820312
0.095,-17.812377929688,-1.8367919921875,18.703247070312
0.0955,-16.411010742188,-4.8397216796875,20.384887695312
0.096,-13.608276367188,-7.2420654296875,20.064575195312
0.0965,-10.004760742188,-10.445190429688,19.704223632812
0.097,-4.8797607421875,-14.409057617188,18.663208007812
0.0975,0.1651611328125,-17.652221679688,17.141723632812
0.098,3.4884033203125,-19.534057617188,15.980590820312
0.0985,5.9307861328125,-20.174682617188,14.379028320312
0.099,8.6934814453125,-20.014526367188,11.656372070312
0.0995,12.657348632812,-19.093627929688,6.9718017578125
0.1,15.940551757812,-18.132690429688,2.8878173828125
0.1005,18.903442382812,-16.971557617188,-1.1961669921875
0.101,20.464965820312,-15.530151367188,-4.1590576171875
0.1015,20.264770507812,-12.927612304688,-6.5213623046875
0.102,20.144653320312,-9.8045654296875,-9.5643310546875
0.1025,19.423950195312,-4.9998779296875,-13.608276367188
0.103,18.422973632812,-0.7957763671875,-16.851440429688
0.1035,17.221801757812,2.4874267578125,-18.933471679688
0.104,15.660278320312,5.1700439453125,-20.054565429688
0.1045,12.657348632812,7.8126220703125,-19.774291992188
0.105,7.9727783203125,11.576293945312,-19.053588867188
0.1055,3.4884033203125,14.979614257812,-18.132690429688
0.106,-1.2762451171875,18.142700195312,-16.811401367188
0.1065,-4.2791748046875,19.704223632812,-15.530151367188
0.107,-6.6014404296875,19.704223632812,-13.448120117188
0.1075,-9.4442138671875,19.704223632812,-10.845581054688
0.108,-13.728393554688,18.663208007812,-5.6805419921875
0.1085,-16.931518554688,17.542114257812,-1.4364013671875
0.109,-19.373901367188,16.461059570312,2.0469970703125
0.1095,-20.494995117188,14.779418945312,4.8096923828125
0.11,-20.214721679688,11.896606445312,7.3721923828125
0.1105,-19.934448242188,8.1729736328125,10.895629882812
0.111,-19.253784179688,3.7686767578125,14.579223632812
0.1115,-18.252807617188,-0.5955810546875,17.902465820312
0.112,-16.971557617188,-3.6385498046875,19.704223632812
0.1125,-14.889526367188,-6.0809326171875,20.144653320312
0.113,-11.966674804688,-8.9237060546875,20.064575195312
0.1135,-6.3211669921875,-13.167846679688,18.903442382812
0.114,-1.7967529296875,-16.330932617188,17.662231445312
0.1145,2.2872314453125,-18.973510742188,16.541137695312
0.115,5.1700439453125,-20.214721679688,15.139770507812
0.1155,7.7325439453125,-19.854370117188,12.417114257812
0.116,10.855590820312,-19.614135742188,9.2139892578125
0.1165,14.939575195312,-18.653198242188,4.4093017578125
0.117,18.262817382812,-17.251831054688,-0.3553466796875
0.1175,20.104614257812,-16.050659179688,-3.2381591796875
0.118,20.705200195312,-14.088745117188,-5.8406982421875
0.1185,20.344848632812,-11.045776367188,-8.4832763671875
0.119,19.704223632812,-6.3211669921875,-12.647338867188
0.1195,18.903442382812,-2.3572998046875,-15.810424804688
0.12,17.942504882812,1.7266845703125,-18.653198242188
0.1205,16.260864257812,4.5294189453125,-20.174682617188
0.121,13.578247070312,7.0518798828125,-19.974487304688
0.1215,10.255004882812,10.214965820312,-19.894409179688
0.122,4.5294189453125,14.499145507812,-18.613159179688
0.1225,-0.3153076171875,17.582153320312,-17.171752929688
0.123,-3.4783935546875,19.504028320312,-16.090698242188
0.1235,-6.1610107421875,20.344848632812,-14.449096679688
0.124,-8.9237060546875,19.784301757812,-11.406127929688
0.1245,-12.527221679688,19.103637695312,-7.2420654296875
0.125,-16.090698242188,18.182739257812,-2.9178466796875
0.1255,-19.213745117188,16.781372070312,1.5665283203125
0.126,-20.454956054688,15.339965820312,4.2091064453125
0.1265,-20.494995117188,12.817504882812,6.6915283203125
0.127,-20.334838867188,9.8546142578125,9.5343017578125
0.1275,-19.534057617188,4.6895751953125,13.938598632812
0.128,-18.453002929688,0.6055908203125,16.941528320312
0.1285,-17.492065429688,-2.7977294921875,19.343872070312
0.129,-15.810424804688,-5.5203857421875,20.464965820312
0.1295,-12.607299804688,-8.0428466796875,19.864379882812
0.13,-8.6434326171875,-11.566284179688,19.504028320312
0.1305,-3.3582763671875,-15.410034179688,18.262817382812
0.131,1.5264892578125,-18.412963867188,16.701293945312
0.1315,4.1690673828125,-19.734252929688,15.540161132812
0.132,6.7716064453125,-20.214721679688,13.538208007812
0.1325,9.6143798828125,-19.774291992188,10.615356445312
0.133,13.738403320312,-18.733276367188,5.6104736328125
0.1335,16.941528320312,-17.732299804688,1.4464111328125
0.134,19.624145507812,-16.531127929688,-2.3572998046875
0.1345,20.464965820312,-14.769409179688,-4.8397216796875
0.135,20.144653320312,-11.886596679688,-7.4422607421875
0.1355,19.904418945312,-8.5633544921875,-10.645385742188
0.136,19.183715820312,-3.8387451171875,-14.609252929688
0.1365,17.942504882812,0.4854736328125,-17.732299804688
0.137,16.701293945312,3.3282470703125,-19.373901367188
0.1375,14.859497070312,6.0108642578125,-20.134643554688
0.138,11.456176757812,8.8135986328125,-19.614135742188
0.1385,6.3712158203125,12.857543945312,-18.733276367188
0.139,1.8067626953125,16.260864257812,-17.732299804688
0.1395,-2.5975341796875,18.983520507812,-16.370971679688
0.14,-5.1600341796875,19.864379882812,-15.009643554688
0.1405,-7.7225341796875,19.784301757812,-12.527221679688
0.141,-10.765502929688,19.504028320312,-9.3240966796875
0.1415,-14.889526367188,18.422973632812,-4.3192138671875
0.142,-18.092651367188,17.101684570312,0.2052001953125
0.1425,-20.054565429688,15.980590820312,3.1680908203125
0.143,-20.655151367188,14.018676757812,5.7305908203125
0.1435,-20.214721679688,10.815551757812,8.4932861328125
0.144,-19.694213867188,6.5313720703125,12.216918945312
0.1445,-18.973510742188,2.2471923828125,15.820434570312
0.145,-17.892456054688,-1.9569091796875,18.863403320312
0.1455,-16.290893554688,-4.5594482421875,19.944458007812
0.146,-14.088745117188,-7.0819091796875,20.344848632812
0.1465,-10.405151367188,-10.204956054688,19.864379882812
0.147,-4.7596435546875,-14.369018554688,18.543090820312
0.1475,-0.1551513671875,-17.492065429688,17.301879882812
0.148,3.4884033203125,-19.734252929688,16.140747070312
0.1485,6.0509033203125,-20.334838867188,14.419067382812
0.149,8.8936767578125,-19.894409179688,11.376098632812
0.1495,12.377075195312,-19.413940429688,7.6124267578125
0.15,16.140747070312,-18.332885742188,2.9278564453125
0.1505,19.223754882812,-16.931518554688,-1.5965576171875
0.151,20.505004882812,-15.530151367188,-4.1990966796875
0.1515,20.785278320312,-13.167846679688,-6.8016357421875
0.152,20.344848632812,-9.7645263671875,-9.7645263671875
0.1525,19.544067382812,-4.9998779296875,-13.808471679688
0.153,18.703247070312,-0.9959716796875,-17.051635742188
0.1535,17.622192382812,2.8878173828125,-19.734252929688
0.154,15.580200195312,5.4903564453125,-20.374877929688
0.1545,12.657348632812,8.2130126953125,-20.254760742188
0.155,8.4932861328125,11.816528320312,-19.814331054688
0.1555,3.0479736328125,15.700317382812,-18.412963867188
0.156,-1.6766357421875,18.663208007812,-16.891479492188
0.1565,-4.5594482421875,20.184692382812,-15.730346679688
0.157,-7.2020263671875,20.464965820312,-13.688354492188
0.1575,-10.204956054688,19.944458007812,-10.325073242188
0.158,-14.048706054688,19.103637695312,-5.8006591796875
0.1585,-17.492065429688,17.942504882812,-1.3162841796875
0.159,-20.294799804688,16.541137695312,2.8477783203125
0.1595,-20.975463867188,14.739379882812,5.2901611328125
0.16,-21.015502929688,11.896606445312,8.1329345703125
0.1605,-20.535034179688,8.0928955078125,11.536254882812
0.161,-19.574096679688,3.2481689453125,15.420043945312
0.1615,-18.453002929688,-0.9959716796875,18.503051757812
0.162,-17.251831054688,-4.1990966796875,20.585083007812
0.1625,-15.009643554688,-6.7615966796875,20.945434570312
0.163,-11.566284179688,-9.7244873046875,20.464965820312
0.1635,-6.7215576171875,-13.608276367188,19.704223632812
0.164,-1.4364013671875,-17.251831054688,18.262817382812
0.1645,3.0880126953125,-19.934448242188,16.741333007812
0.165,5.6505126953125,-20.815307617188,15.339965820312
0.1655,8.4532470703125,-20.975463867188,12.857543945312
0.166,11.896606445312,-20.294799804688,8.9337158203125
0.1665,15.700317382812,-19.213745117188,4.1690673828125
0.167,19.063598632812,-17.932495117188,-0.3953857421875
0.1675,21.425903320312,-16.531127929688,-4.0389404296875
0.168,21.586059570312,-14.168823242188,-6.5213623046875
0.1685,21.345825195312,-11.005737304688,-9.6043701171875
0.169,20.705200195312,-6.5614013671875,-13.408081054688
0.1695,19.704223632812,-1.9569091796875,-16.971557617188
0.17,18.262817382812,2.2872314453125,-19.734252929688
0.1705,16.701293945312,5.2100830078125,-21.135620117188
0.171,14.058715820312,7.9727783203125,-21.335815429688
0.1715,9.7745361328125,11.296020507812,-20.575073242188
0.172,4.7296142578125,15.179809570312,-19.494018554688
0.1725,-0.4754638671875,18.623168945312,-18.012573242188
0.173,-4.4793701171875,20.865356445312,-16.531127929688
0.1735,-6.8817138671875,21.145629882812,-14.609252929688
0.174,-9.8446044921875,21.065551757812,-11.766479492188
0.1745,-13.648315429688,20.144653320312,-7.2020263671875
0.175,-17.251831054688,18.863403320312,-2.5174560546875
0.1755,-20.294799804688,17.421997070312,1.9268798828125
0.176,-22.016479492188,15.860473632812,5.1300048828125
0.1765,-21.896362304688,13.097778320312,7.7325439453125
0.177,-21.495971679688,9.4542236328125,11.015747070312
0.1775,-20.575073242188,4.7696533203125,14.859497070312
0.178,-19.534057617188,0.2452392578125,18.382934570312
