wavelength,x,y,z
0.0,-0.590576171875,-6.636474609375,5.014892578125
0.0005,-1.431396484375,-6.276123046875,5.615478515625
0.001,-2.712646484375,-5.235107421875,6.015869140625
0.0015,-4.114013671875,-3.993896484375,6.416259765625
0.002,-5.275146484375,-2.632568359375,6.576416015625
0.0025,-5.915771484375,-1.551513671875,6.456298828125
0.003,-6.236083984375,-0.750732421875,6.336181640625
0.0035,-6.075927734375,0.330322265625,5.495361328125
0.004,-5.875732421875,1.691650390625,4.254150390625
0.0045,-5.835693359375,3.052978515625,3.133056640625
0.005,-5.555419921875,4.174072265625,1.931884765625
0.0055,-5.275146484375,5.054931640625,1.010986328125
0.006,-4.634521484375,5.455322265625,0.130126953125
0.0065,-3.513427734375,5.575439453125,-1.111083984375
0.007,-2.112060546875,5.735595703125,-2.632568359375
0.0075,-0.830810546875,5.975830078125,-4.114013671875
0.008,0.250244140625,5.935791015625,-5.074951171875
0.0085,0.930908203125,6.015869140625,-5.915771484375
0.009,1.931884765625,5.215087890625,-6.316162109375
0.0095,3.333251953125,3.853759765625,-6.556396484375
0.01,4.614501953125,2.572509765625,-6.876708984375
0.0105,5.575439453125,1.251220703125,-6.796630859375
0.011,6.015869140625,0.250244140625,-6.596435546875
0.0115,6.095947265625,-0.710693359375,-6.156005859375
0.012,5.775634765625,-1.751708984375,-5.114990234375
0.0125,5.575439453125,-3.113037109375,-3.873779296875
0.013,5.415283203125,-4.514404296875,-2.592529296875
0.0135,5.054931640625,-5.435302734375,-1.471435546875
0.014,4.734619140625,-6.115966796875,-0.630615234375
0.0145,3.853759765625,-6.356201171875,0.370361328125
0.015,2.572509765625,-6.396240234375,1.571533203125
0.0155,1.211181640625,-6.596435546875,3.173095703125
0.016,-0.150146484375,-6.636474609375,4.494384765625
0.0165,-0.990966796875,-6.676513671875,5.375244140625
0.017,-1.671630859375,-6.596435546875,6.055908203125
0.0175,-2.792724609375,-5.635498046875,6.376220703125
0.018,-4.234130859375,-4.154052734375,6.656494140625
0.0185,-5.435302734375,-2.832763671875,6.856689453125
0.019,-6.156005859375,-1.591552734375,6.696533203125
0.0195,-6.556396484375,-0.710693359375,6.536376953125
0.02,-6.436279296875,0.290283203125,5.895751953125
0.0205,-6.156005859375,1.491455078125,4.734619140625
0.021,-5.955810546875,2.812744140625,3.493408203125
0.0215,-5.755615234375,4.134033203125,2.212158203125
0.022,-5.395263671875,5.014892578125,1.131103515625
0.0225,-4.954833984375,5.615478515625,0.330322265625
0.023,-3.953857421875,5.735595703125,-0.790771484375
0.0235,-2.592529296875,5.815673828125,-2.192138671875
0.024,-1.271240234375,6.095947265625,-3.713623046875
0.0245,0.050048828125,6.055908203125,-4.874755859375
0.025,0.770751953125,6.055908203125,-5.755615234375
0.0255,1.571533203125,5.735595703125,-6.316162109375
0.026,2.812744140625,4.574462890625,-6.596435546875
0.0265,4.174072265625,3.213134765625,-6.916748046875
0.027,5.335205078125,1.811767578125,-6.956787109375
0.0275,5.935791015625,0.610595703125,-6.756591796875
0.028,6.216064453125,-0.310302734375,-6.556396484375
0.0285,6.015869140625,-1.271240234375,-5.715576171875
0.029,5.735595703125,-2.552490234375,-4.474365234375
0.0295,5.615478515625,-3.913818359375,-3.193115234375
0.03,5.295166015625,-5.074951171875,-1.991943359375
0.0305,4.934814453125,-5.915771484375,-0.990966796875
0.031,4.414306640625,-6.356201171875,-0.190185546875
0.0315,3.253173828125,-6.436279296875,1.010986328125
0.032,1.851806640625,-6.556396484375,2.492431640625
0.0325,0.490478515625,-6.756591796875,3.973876953125
0.033,-0.630615234375,-6.716552734375,5.054931640625
0.0335,-1.311279296875,-6.796630859375,5.895751953125
0.034,-2.272216796875,-6.115966796875,6.296142578125
0.0345,-3.713623046875,-4.754638671875,6.536376953125
0.035,-4.994873046875,-3.473388671875,6.896728515625
0.0355,-5.955810546875,-2.072021484375,6.856689453125
0.036,-6.476318359375,-0.990966796875,6.656494140625
0.0365,-6.596435546875,-0.190185546875,6.256103515625
0.037,-6.356201171875,0.970947265625,5.255126953125
0.0375,-6.115966796875,2.372314453125,3.973876953125
0.038,-5.955810546875,3.773681640625,2.692626953125
0.0385,-5.555419921875,4.774658203125,1.531494140625
0.039,-5.195068359375,5.535400390625,0.610595703125
0.0395,-4.394287109375,5.775634765625,-0.430419921875
0.04,-3.153076171875,5.895751953125,-1.671630859375
0.0405,-1.711669921875,6.095947265625,-3.233154296875
0.041,-0.350341796875,6.095947265625,-4.634521484375
0.0415,0.650634765625,6.095947265625,-5.595458984375
0.042,1.291259765625,6.055908203125,-6.316162109375
0.0425,2.412353515625,5.094970703125,-6.636474609375
0.043,3.893798828125,3.653564453125,-6.916748046875
0.0435,5.135009765625,2.252197265625,-7.116943359375
0.044,5.895751953125,0.930908203125,-6.916748046875
0.0445,6.296142578125,0.010009765625,-6.756591796875
0.045,6.216064453125,-0.990966796875,-6.115966796875
0.0455,5.895751953125,-2.192138671875,-4.954833984375
0.046,5.735595703125,-3.553466796875,-3.673583984375
0.0465,5.495361328125,-4.914794921875,-2.272216796875
0.047,5.054931640625,-5.795654296875,-1.191162109375
0.0475,4.654541015625,-6.436279296875,-0.350341796875
0.048,3.653564453125,-6.556396484375,0.730712890625
0.0485,2.252197265625,-6.596435546875,2.092041015625
0.049,0.890869140625,-6.876708984375,3.693603515625
0.0495,-0.510498046875,-6.756591796875,4.894775390625
0.05,-1.271240234375,-6.756591796875,5.735595703125
0.0505,-2.031982421875,-6.436279296875,6.296142578125
0.051,-3.273193359375,-5.275146484375,6.536376953125
0.0515,-4.674560546875,-3.873779296875,6.856689453125
0.052,-5.755615234375,-2.432373046875,6.936767578125
0.0525,-6.396240234375,-1.271240234375,6.696533203125
0.053,-6.636474609375,-0.470458984375,6.456298828125
0.0535,-6.436279296875,0.610595703125,5.655517578125
0.054,-6.115966796875,1.891845703125,4.374267578125
0.0545,-5.955810546875,3.173095703125,3.173095703125
0.055,-5.635498046875,4.414306640625,1.931884765625
0.0555,-5.275146484375,5.215087890625,0.930908203125
0.056,-4.714599609375,5.655517578125,0.050048828125
0.0565,-3.673583984375,5.735595703125,-1.031005859375
0.057,-2.272216796875,5.815673828125,-2.512451171875
0.0575,-0.990966796875,6.015869140625,-3.993896484375
0.058,0.210205078125,5.975830078125,-5.034912109375
0.0585,0.890869140625,6.095947265625,-5.835693359375
0.059,1.771728515625,5.495361328125,-6.276123046875
0.0595,3.052978515625,4.214111328125,-6.516357421875
0.06,4.294189453125,3.012939453125,-6.836669921875
0.0605,5.295166015625,1.611572265625,-6.756591796875
0.061,5.855712890625,0.610595703125,-6.596435546875
0.0615,6.015869140625,-0.310302734375,-6.356201171875
0.062,5.775634765625,-1.231201171875,-5.475341796875
0.0625,5.575439453125,-2.472412109375,-4.354248046875
0.063,5.455322265625,-3.873779296875,-3.153076171875
0.0635,5.094970703125,-4.874755859375,-1.951904296875
0.064,4.854736328125,-5.755615234375,-1.111083984375
0.0645,4.214111328125,-6.115966796875,-0.270263671875
0.065,3.133056640625,-6.236083984375,0.930908203125
0.0655,1.931884765625,-6.476318359375,2.292236328125
0.066,0.530517578125,-6.516357421875,3.773681640625
0.0665,-0.470458984375,-6.596435546875,4.774658203125
0.067,-1.151123046875,-6.676513671875,5.615478515625
0.0675,-2.112060546875,-5.915771484375,5.975830078125
0.068,-3.473388671875,-4.674560546875,6.296142578125
0.0685,-4.754638671875,-3.473388671875,6.616455078125
0.069,-5.635498046875,-2.192138671875,6.536376953125
0.0695,-6.115966796875,-1.271240234375,6.496337890625
0.07,-6.196044921875,-0.430419921875,6.015869140625
0.0705,-5.955810546875,0.690673828125,5.094970703125
0.071,-5.835693359375,1.931884765625,4.053955078125
0.0715,-5.715576171875,3.253173828125,2.812744140625
0.072,-5.395263671875,4.294189453125,1.731689453125
0.0725,-5.114990234375,5.014892578125,0.890869140625
0.073,-4.314208984375,5.255126953125,0.010009765625
0.0735,-3.193115234375,5.375244140625,-1.311279296875
0.074,-1.991943359375,5.735595703125,-2.712646484375
0.0745,-0.710693359375,5.735595703125,-3.993896484375
0.075,0.170166015625,5.895751953125,-4.954833984375
0.0755,0.890869140625,5.735595703125,-5.635498046875
0.076,1.931884765625,4.854736328125,-5.915771484375
0.0765,3.213134765625,3.693603515625,-6.276123046875
0.077,4.414306640625,2.412353515625,-6.476318359375
0.0775,5.094970703125,1.291259765625,-6.396240234375
0.078,5.535400390625,0.530517578125,-6.396240234375
0.0785,5.495361328125,-0.390380859375,-5.755615234375
0.079,5.295166015625,-1.431396484375,-4.834716796875
0.0795,5.255126953125,-2.672607421875,-3.873779296875
0.08,5.094970703125,-3.833740234375,-2.712646484375
0.0805,4.854736328125,-4.794677734375,-1.751708984375
0.081,4.574462890625,-5.475341796875,-0.990966796875
0.0815,3.733642578125,-5.715576171875,0.010009765625
0.082,2.652587890625,-5.875732421875,1.171142578125
0.0825,1.531494140625,-6.196044921875,2.532470703125
0.083,0.490478515625,-6.276123046875,3.693603515625
0.0835,-0.310302734375,-6.516357421875,4.614501953125
0.084,-1.151123046875,-6.236083984375,5.215087890625
0.0845,-2.272216796875,-5.275146484375,5.575439453125
0.085,-3.513427734375,-4.274169921875,5.975830078125
0.0855,-4.554443359375,-3.072998046875,6.135986328125
0.086,-5.315185546875,-1.991943359375,6.176025390625
0.0865,-5.675537109375,-1.311279296875,6.095947265625
0.087,-5.635498046875,-0.510498046875,5.535400390625
0.0875,-5.515380859375,0.650634765625,4.654541015625
0.088,-5.555419921875,1.931884765625,3.693603515625
0.0885,-5.395263671875,3.052978515625,2.652587890625
0.089,-5.275146484375,3.973876953125,1.771728515625
0.0895,-4.794677734375,4.494384765625,0.970947265625
0.09,-3.993896484375,4.814697265625,0.010009765625
0.0905,-2.992919921875,5.175048828125,-1.311279296875
0.091,-1.791748046875,5.415283203125,-2.712646484375
0.0915,-0.950927734375,5.615478515625,-3.793701171875
0.092,-0.230224609375,5.815673828125,-4.714599609375
0.0925,0.770751953125,5.375244140625,-5.195068359375
0.093,1.931884765625,4.414306640625,-5.595458984375
0.0935,3.173095703125,3.413330078125,-6.035888671875
0.094,4.174072265625,2.252197265625,-6.115966796875
0.0945,4.854736328125,1.331298828125,-6.236083984375
0.095,5.135009765625,0.570556640625,-5.995849609375
0.0955,5.054931640625,-0.390380859375,-5.355224609375
0.096,5.054931640625,-1.431396484375,-4.554443359375
0.0965,5.054931640625,-2.712646484375,-3.553466796875
0.097,4.854736328125,-3.833740234375,-2.592529296875
0.0975,4.814697265625,-4.714599609375,-1.831787109375
0.098,4.214111328125,-5.114990234375,-0.990966796875
0.0985,3.373291015625,-5.355224609375,0.130126953125
0.099,2.452392578125,-5.795654296875,1.411376953125
0.0995,1.291259765625,-5.955810546875,2.652587890625
0.1,0.530517578125,-6.276123046875,3.693603515625
0.1005,-0.350341796875,-6.316162109375,4.534423828125
0.101,-1.311279296875,-5.715576171875,4.974853515625
0.1015,-2.512451171875,-4.834716796875,5.455322265625
0.102,-3.713623046875,-3.753662109375,5.775634765625
0.1025,-4.594482421875,-2.672607421875,5.895751953125
0.103,-5.195068359375,-1.951904296875,6.055908203125
0.1035,-5.315185546875,-1.151123046875,5.695556640625
0.104,-5.275146484375,-0.190185546875,4.974853515625
0.1045,-5.395263671875,0.970947265625,4.254150390625
0.105,-5.275146484375,2.172119140625,3.253173828125
0.1055,-5.195068359375,3.173095703125,2.372314453125
0.106,-5.034912109375,3.973876953125,1.571533203125
0.1065,-4.394287109375,4.374267578125,0.730712890625
0.107,-3.513427734375,4.734619140625,-0.510498046875
0.1075,-2.552490234375,5.175048828125,-1.831787109375
0.108,-1.551513671875,5.375244140625,-2.952880859375
0.1085,-0.790771484375,5.695556640625,-4.033935546875
0.109,0.130126953125,5.535400390625,-4.714599609375
0.1095,1.211181640625,4.814697265625,-5.155029296875
0.11,2.412353515625,3.933837890625,-5.675537109375
0.1105,3.533447265625,2.812744140625,-5.915771484375
0.111,4.414306640625,1.811767578125,-6.075927734375
0.1115,4.854736328125,1.091064453125,-6.115966796875
0.112,4.934814453125,0.290283203125,-5.635498046875
0.1125,4.894775390625,-0.790771484375,-4.874755859375
0.113,5.054931640625,-2.072021484375,-4.073974609375
0.1135,4.894775390625,-3.193115234375,-3.113037109375
0.114,4.854736328125,-4.154052734375,-2.272216796875
0.1145,4.494384765625,-4.794677734375,-1.471435546875
0.115,3.813720703125,-5.114990234375,-0.590576171875
0.1155,2.892822265625,-5.515380859375,0.730712890625
0.116,1.851806640625,-5.835693359375,2.052001953125
0.1165,0.930908203125,-6.115966796875,3.173095703125
0.117,0.250244140625,-6.356201171875,4.134033203125
0.1175,-0.830810546875,-6.035888671875,4.774658203125
0.118,-1.991943359375,-5.114990234375,5.215087890625
0.1185,-3.233154296875,-4.154052734375,5.735595703125
0.119,-4.274169921875,-3.072998046875,5.895751953125
0.1195,-5.034912109375,-2.192138671875,6.055908203125
0.12,-5.315185546875,-1.431396484375,5.815673828125
0.1205,-5.315185546875,-0.590576171875,5.255126953125
0.121,-5.315185546875,0.570556640625,4.494384765625
0.1215,-5.395263671875,1.851806640625,3.533447265625
0.122,-5.275146484375,2.932861328125,2.572509765625
0.1225,-5.155029296875,3.853759765625,1.771728515625
0.123,-4.594482421875,4.334228515625,0.970947265625
0.1235,-3.713623046875,4.614501953125,-0.190185546875
0.124,-2.832763671875,5.094970703125,-1.471435546875
0.1245,-1.711669921875,5.295166015625,-2.752685546875
0.125,-0.950927734375,5.575439453125,-3.833740234375
0.1255,-0.190185546875,5.695556640625,-4.634521484375
0.126,0.930908203125,5.054931640625,-5.114990234375
0.1265,2.132080078125,4.134033203125,-5.595458984375
0.127,3.413330078125,3.012939453125,-5.955810546875
0.1275,4.294189453125,1.931884765625,-6.035888671875
0.128,4.854736328125,1.171142578125,-6.156005859375
0.1285,5.014892578125,0.330322265625,-5.755615234375
0.129,4.934814453125,-0.750732421875,-5.034912109375
0.1295,5.014892578125,-1.871826171875,-4.234130859375
0.13,4.934814453125,-3.072998046875,-3.193115234375
0.1305,4.814697265625,-4.114013671875,-2.272216796875
0.131,4.654541015625,-4.874755859375,-1.511474609375
0.1315,3.973876953125,-5.195068359375,-0.630615234375
0.132,3.012939453125,-5.475341796875,0.610595703125
0.1325,2.011962890625,-5.915771484375,1.931884765625
0.133,0.970947265625,-6.115966796875,3.173095703125
0.1335,0.250244140625,-6.396240234375,4.134033203125
0.134,-0.710693359375,-6.196044921875,4.854736328125
0.1345,-1.871826171875,-5.395263671875,5.295166015625
0.135,-3.153076171875,-4.434326171875,5.775634765625
0.1355,-4.314208984375,-3.193115234375,6.015869140625
0.136,-5.114990234375,-2.192138671875,6.095947265625
0.1365,-5.515380859375,-1.431396484375,6.095947265625
0.137,-5.515380859375,-0.630615234375,5.495361328125
0.1375,-5.435302734375,0.610595703125,4.614501953125
0.138,-5.555419921875,1.931884765625,3.693603515625
0.1385,-5.395263671875,3.093017578125,2.572509765625
0.139,-5.235107421875,4.053955078125,1.691650390625
0.1395,-4.834716796875,4.614501953125,0.890869140625
0.14,-3.913818359375,4.854736328125,-0.190185546875
0.1405,-2.832763671875,5.175048828125,-1.511474609375
0.141,-1.671630859375,5.495361328125,-2.912841796875
0.1415,-0.750732421875,5.615478515625,-3.993896484375
0.142,0.050048828125,5.855712890625,-4.954833984375
0.1425,1.010986328125,5.295166015625,-5.435302734375
0.143,2.292236328125,4.214111328125,-5.835693359375
0.1435,3.573486328125,3.133056640625,-6.276123046875
0.144,4.574462890625,1.891845703125,-6.276123046875
0.1445,5.215087890625,0.970947265625,-6.316162109375
0.145,5.415283203125,0.130126953125,-6.035888671875
0.1455,5.255126953125,-0.910888671875,-5.275146484375
0.146,5.175048828125,-2.072021484375,-4.234130859375
0.1465,5.175048828125,-3.473388671875,-3.153076171875
0.147,4.934814453125,-4.434326171875,-2.072021484375
0.1475,4.774658203125,-5.275146484375,-1.271240234375
0.148,4.053955078125,-5.635498046875,-0.470458984375
0.1485,3.012939453125,-5.755615234375,0.770751953125
0.149,1.931884765625,-6.115966796875,2.172119140625
0.1495,0.650634765625,-6.276123046875,3.533447265625
0.15,-0.230224609375,-6.476318359375,4.494384765625
0.1505,-0.990966796875,-6.436279296875,5.295166015625
0.151,-2.072021484375,-5.635498046875,5.735595703125
0.1515,-3.393310546875,-4.434326171875,6.095947265625
0.152,-4.674560546875,-3.193115234375,6.416259765625
0.1525,-5.475341796875,-1.991943359375,6.376220703125
0.153,-6.035888671875,-1.271240234375,6.376220703125
0.1535,-5.955810546875,-0.350341796875,5.775634765625
0.154,-5.795654296875,0.930908203125,4.774658203125
0.1545,-5.755615234375,2.212158203125,3.733642578125
0.155,-5.635498046875,3.533447265625,2.492431640625
0.1555,-5.315185546875,4.494384765625,1.491455078125
0.156,-4.994873046875,5.175048828125,0.650634765625
0.1565,-4.073974609375,5.375244140625,-0.390380859375
0.157,-2.752685546875,5.535400390625,-1.791748046875
0.1575,-1.551513671875,5.895751953125,-3.353271484375
0.158,-0.390380859375,5.855712890625,-4.514404296875
0.1585,0.450439453125,6.055908203125,-5.435302734375
0.159,1.291259765625,5.615478515625,-5.995849609375
0.1595,2.572509765625,4.494384765625,-6.356201171875
0.16,3.933837890625,3.213134765625,-6.676513671875
0.1605,5.094970703125,1.811767578125,-6.756591796875
0.161,5.735595703125,0.690673828125,-6.596435546875
0.1615,6.015869140625,-0.270263671875,-6.436279296875
0.162,5.775634765625,-1.191162109375,-5.555419921875
0.1625,5.615478515625,-2.512451171875,-4.314208984375
0.163,5.495361328125,-3.913818359375,-3.072998046875
0.1635,5.215087890625,-5.034912109375,-1.911865234375
0.164,4.854736328125,-5.835693359375,-0.990966796875
0.1645,4.294189453125,-6.276123046875,0.010009765625
0.165,3.093017578125,-6.396240234375,1.131103515625
0.1655,1.731689453125,-6.516357421875,2.652587890625
0.166,0.370361328125,-6.716552734375,4.134033203125
0.1665,-0.670654296875,-6.676513671875,5.094970703125
0.167,-1.391357421875,-6.716552734375,5.935791015625
0.1675,-2.432373046875,-5.915771484375,6.336181640625
0.168,-3.873779296875,-4.514404296875,6.576416015625
0.1685,-5.114990234375,-3.193115234375,6.896728515625
0.169,-6.035888671875,-1.871826171875,6.736572265625
0.1695,-6.516357421875,-0.910888671875,6.576416015625
0.17,-6.556396484375,0.130126953125,6.095947265625
0.1705,-6.276123046875,1.251220703125,5.054931640625
0.171,-6.035888671875,2.572509765625,3.733642578125
0.1715,-5.835693359375,3.973876953125,2.412353515625
0.172,-5.475341796875,4.934814453125,1.291259765625
0.1725,-5.114990234375,5.655517578125,0.410400390625
0.173,-4.194091796875,5.815673828125,-0.630615234375
0.1735,-2.832763671875,5.895751953125,-1.951904296875
0.174,-1.471435546875,6.095947265625,-3.513427734375
0.1745,-0.150146484375,6.095947265625,-4.834716796875
0.175,0.770751953125,6.095947265625,-5.755615234375
0.1755,1.491455078125,5.935791015625,-6.396240234375
0.176,2.612548828125,4.894775390625,-6.676513671875
0.1765,4.053955078125,3.453369140625,-6.916748046875
0.177,5.255126953125,2.011962890625,-7.076904296875
0.1775,5.935791015625,0.730712890625,-6.876708984375
0.178,6.296142578125,-0.230224609375,-6.676513671875
0.1785,6.176025390625,-1.151123046875,-5.955810546875
0.179,5.855712890625,-2.352294921875,-4.754638671875
0.1795,5.655517578125,-3.673583984375,-3.473388671875
0.18,5.415283203125,-4.994873046875,-2.192138671875
0.1805,4.974853515625,-5.835693359375,-1.111083984375
0.181,4.534423828125,-6.436279296875,-0.270263671875
0.1815,3.493408203125,-6.516357421875,0.810791015625
0.182,2.092041015625,-6.556396484375,2.212158203125
0.1825,0.770751953125,-6.796630859375,3.733642578125
0.183,-0.510498046875,-6.716552734375,4.894775390625
0.1835,-1.271240234375,-6.796630859375,5.775634765625
0.184,-2.112060546875,-6.356201171875,6.336181640625
0.1845,-3.353271484375,-5.155029296875,6.576416015625
0.185,-4.674560546875,-3.833740234375,6.856689453125
0.1855,-5.795654296875,-2.432373046875,6.896728515625
0.186,-6.436279296875,-1.231201171875,6.696533203125
0.1865,-6.676513671875,-0.390380859375,6.456298828125
0.187,-6.396240234375,0.650634765625,5.615478515625
0.1875,-6.156005859375,1.931884765625,4.334228515625
0.188,-6.035888671875,3.333251953125,3.133056640625
