wavelength,x,y,z
0.0,11.291015625,-4.6845703125,-7.0068359375
0.0005,10.9306640625,-6.486328125,-4.8447265625
0.001,11.1708984375,-8.888671875,-2.72265625
0.0015,9.9296875,-9.9296875,-0.400390625
0.002,9.0888671875,-10.0498046875,0.7607421875
0.0025,8.328125,-10.73046875,2.2421875
0.003,5.685546875,-10.25,4.484375
0.0035,3.5634765625,-10.0498046875,6.3662109375
0.004,1.28125,-10.1298828125,8.6484375
0.0045,-0.8408203125,-8.568359375,9.2490234375
0.005,-1.8017578125,-8.48828125,9.9296875
0.0055,-3.923828125,-6.806640625,10.41015625
0.006,-5.9658203125,-4.564453125,10.169921875
0.0065,-8.3681640625,-2.08203125,10.1298828125
0.007,-10.25,0.3203125,9.609375
0.0075,-10.330078125,1.76171875,8.2880859375
0.008,-11.2109375,2.7626953125,8.1279296875
0.0085,-11.2509765625,5.28515625,5.5654296875
0.009,-10.890625,7.046875,3.443359375
0.0095,-10.890625,9.2890625,1.0810546875
0.01,-9.6494140625,10.1298828125,-1.041015625
0.0105,-8.728515625,10.169921875,-1.9619140625
0.011,-7.607421875,10.6103515625,-3.603515625
0.0115,-4.884765625,10.169921875,-5.92578125
0.012,-2.6826171875,9.8896484375,-7.84765625
0.0125,-0.3603515625,9.7294921875,-9.9697265625
0.013,1.5615234375,8.248046875,-10.25
0.0135,2.40234375,7.9677734375,-10.810546875
0.014,4.9248046875,5.8857421875,-11.2509765625
0.0145,6.88671875,3.5634765625,-10.8505859375
0.015,9.0888671875,1.12109375,-10.6103515625
0.0155,10.7705078125,-1.1611328125,-10.0498046875
0.016,10.810546875,-2.5625,-8.6884765625
0.0165,11.4912109375,-3.84375,-8.087890625
0.017,11.4912109375,-6.486328125,-5.4453125
0.0175,10.9306640625,-7.9677734375,-3.443359375
0.018,10.8505859375,-10.009765625,-1.1611328125
0.0185,9.529296875,-10.6103515625,0.9609375
0.019,8.3681640625,-10.490234375,1.921875
0.0195,6.8466796875,-10.8505859375,3.8837890625
0.02,4.1240234375,-10.41015625,6.1259765625
0.0205,2.001953125,-9.9697265625,7.8076171875
0.021,-0.3603515625,-9.689453125,9.849609375
0.0215,-2.08203125,-8.2080078125,10.0498046875
0.022,-3.1630859375,-7.52734375,10.41015625
0.0225,-5.9658203125,-5.1650390625,10.8505859375
0.023,-7.767578125,-2.8828125,10.2900390625
0.0235,-9.6494140625,-0.6005859375,9.8896484375
0.024,-11.1708984375,1.5615234375,9.2890625
0.0245,-11.130859375,3.123046875,7.6875
0.025,-11.5712890625,4.564453125,6.6064453125
0.0255,-11.611328125,7.287109375,3.8837890625
0.026,-10.8505859375,8.48828125,1.921875
0.0265,-10.6103515625,10.330078125,-0.2802734375
0.027,-9.208984375,10.8505859375,-2.2421875
0.0275,-7.7275390625,10.5302734375,-3.443359375
0.028,-5.845703125,10.8505859375,-5.60546875
0.0285,-3.203125,10.41015625,-7.8076171875
0.029,-1.1611328125,9.7294921875,-9.12890625
0.0295,1.0810546875,9.4091796875,-10.970703125
0.03,2.9228515625,7.767578125,-11.1708984375
0.0305,4.2841796875,6.646484375,-11.291015625
0.031,7.1669921875,4.083984375,-11.69140625
0.0315,8.888671875,1.6015625,-10.890625
0.032,10.3701171875,-0.5205078125,-10.2900390625
0.0325,11.69140625,-2.4423828125,-9.76953125
0.033,11.611328125,-4.244140625,-7.84765625
0.0335,11.771484375,-5.8857421875,-6.40625
0.034,11.8515625,-8.4482421875,-3.763671875
0.0345,10.650390625,-9.3291015625,-1.6015625
0.035,10.490234375,-10.890625,0.240234375
0.0355,8.888671875,-11.291015625,2.2822265625
0.036,7.046875,-10.8505859375,3.68359375
0.0365,4.96484375,-10.970703125,5.9658203125
0.037,2.3623046875,-10.5703125,8.0478515625
0.0375,0.3603515625,-9.5693359375,9.0888671875
0.038,-1.6015625,-9.3291015625,10.6904296875
0.0385,-3.68359375,-7.4072265625,10.810546875
0.039,-5.2451171875,-5.845703125,10.7705078125
0.0395,-8.1279296875,-3.283203125,11.05078125
0.04,-9.5693359375,-0.80078125,9.9697265625
0.0405,-10.73046875,1.0009765625,9.369140625
0.041,-11.8515625,2.7626953125,8.7685546875
0.0415,-11.5712890625,4.6845703125,6.4462890625
0.042,-11.5712890625,6.40625,4.8046875
0.0425,-11.611328125,8.96875,2.2421875
0.043,-10.1298828125,9.529296875,0.16015625
0.0435,-10.009765625,10.8505859375,-1.4013671875
0.044,-8.2080078125,11.0908203125,-3.5234375
0.0445,-6.1259765625,10.490234375,-5.0048828125
0.045,-4.083984375,10.650390625,-7.20703125
0.0455,-1.6015625,10.08984375,-9.0888671875
0.046,0.3603515625,8.96875,-9.849609375
0.0465,2.001953125,8.7685546875,-11.2509765625
0.047,4.1240234375,6.6865234375,-11.2509765625
0.0475,5.8056640625,4.884765625,-11.0908203125
0.048,8.6083984375,2.40234375,-11.4111328125
0.0485,9.76953125,-0.2001953125,-10.1298828125
0.049,10.810546875,-1.5615234375,-9.76953125
0.0495,11.69140625,-3.283203125,-8.96875
0.05,11.37109375,-5.1650390625,-6.646484375
0.0505,11.37109375,-7.0068359375,-4.7646484375
0.051,11.37109375,-9.2890625,-2.4423828125
0.0515,9.76953125,-9.6494140625,-0.400390625
0.052,9.7294921875,-10.8505859375,0.9609375
0.0525,7.7275390625,-10.890625,3.04296875
0.053,5.60546875,-10.3701171875,4.6044921875
0.0535,3.5234375,-10.5703125,6.966796875
0.054,1.0810546875,-9.8896484375,8.6484375
0.0545,-0.6806640625,-8.9287109375,9.2890625
0.055,-2.2021484375,-8.6484375,10.5302734375
0.0555,-4.404296875,-6.4462890625,10.5302734375
0.056,-6.326171875,-4.3642578125,10.3701171875
0.0565,-9.0888671875,-1.9619140625,10.6103515625
0.057,-9.9697265625,0.5205078125,9.12890625
0.0575,-10.890625,1.5615234375,8.9287109375
0.058,-11.5712890625,3.4833984375,7.8076171875
0.0585,-11.2509765625,5.4853515625,5.4052734375
0.059,-11.2509765625,7.5673828125,3.3232421875
0.0595,-11.05078125,9.689453125,0.9609375
0.06,-9.4091796875,9.8896484375,-1.0009765625
0.0605,-9.4091796875,10.8505859375,-2.0419921875
0.061,-7.0869140625,10.73046875,-4.32421875
0.0615,-4.8046875,10.2099609375,-6.1259765625
0.062,-2.6025390625,10.4501953125,-8.48828125
0.0625,0.0,9.44921875,-10.009765625
0.063,1.4013671875,8.5283203125,-10.41015625
0.0635,2.8427734375,8.1279296875,-11.4111328125
0.064,5.3251953125,5.6455078125,-11.3310546875
0.0645,7.3671875,3.283203125,-11.05078125
0.065,10.0498046875,0.6806640625,-11.1708984375
0.0655,10.73046875,-1.6015625,-9.6494140625
0.066,11.37109375,-2.40234375,-9.369140625
0.0665,11.8916015625,-4.484375,-7.84765625
0.067,11.53125,-6.6064453125,-5.28515625
0.0675,11.37109375,-8.6884765625,-3.04296875
0.068,11.0107421875,-10.650390625,-0.640625
0.0685,9.2490234375,-10.5302734375,1.12109375
0.069,9.0087890625,-11.2509765625,2.0419921875
0.0695,6.40625,-11.05078125,4.5244140625
0.07,3.9638671875,-10.4501953125,6.40625
0.0705,1.6015625,-10.5302734375,8.80859375
0.071,-0.9609375,-9.369140625,10.08984375
0.0715,-2.08203125,-8.48828125,10.2099609375
0.072,-3.5634765625,-7.6875,10.9306640625
0.0725,-6.2060546875,-5.044921875,10.8505859375
0.073,-8.1279296875,-2.642578125,10.41015625
0.0735,-10.6904296875,0.0,10.330078125
0.074,-11.05078125,1.9619140625,8.7685546875
0.0745,-11.53125,2.8427734375,8.328125
0.075,-11.931640625,5.2451171875,6.3662109375
0.0755,-11.4111328125,7.1669921875,3.84375
0.076,-11.130859375,9.1689453125,1.5615234375
0.0765,-10.5703125,10.8505859375,-0.8408203125
0.077,-8.888671875,10.5302734375,-2.2822265625
0.0775,-8.328125,10.970703125,-3.2431640625
0.078,-5.5654296875,10.8505859375,-5.92578125
0.0785,-3.203125,10.2099609375,-7.607421875
0.079,-0.8408203125,10.08984375,-9.8896484375
0.0795,1.44140625,8.9287109375,-10.890625
0.08,2.482421875,8.0078125,-10.9306640625
0.0805,4.2841796875,6.7265625,-11.4912109375
0.081,6.88671875,4.0439453125,-11.37109375
0.0815,8.568359375,1.76171875,-10.7705078125
0.082,10.8505859375,-0.640625,-10.650390625
0.0825,11.1708984375,-2.482421875,-9.12890625
0.083,11.53125,-3.4033203125,-8.48828125
0.0835,11.8115234375,-5.92578125,-6.2861328125
0.084,11.291015625,-7.6875,-3.9638671875
0.0845,10.890625,-9.4091796875,-1.8017578125
0.085,10.25,-10.890625,0.4404296875
0.0855,8.568359375,-10.5302734375,1.841796875
0.086,7.6875,-10.8505859375,3.0029296875
0.0865,4.884765625,-10.6904296875,5.7255859375
0.087,2.802734375,-10.08984375,7.1669921875
0.0875,0.48046875,-9.9697265625,9.3291015625
0.088,-1.681640625,-8.728515625,10.169921875
0.0885,-2.72265625,-7.84765625,10.169921875
0.089,-4.8447265625,-6.166015625,10.6904296875
0.0895,-7.3671875,-3.5634765625,10.6103515625
0.09,-8.728515625,-1.44140625,9.8095703125
0.0905,-10.7705078125,0.7607421875,9.7294921875
0.091,-11.0107421875,2.6025390625,8.0478515625
0.0915,-11.2509765625,3.763671875,7.1669921875
0.092,-11.53125,6.3662109375,4.8046875
0.0925,-10.970703125,7.927734375,2.642578125
0.093,-10.4501953125,9.4091796875,0.640625
0.0935,-9.8095703125,10.650390625,-1.44140625
0.094,-8.0078125,10.2900390625,-2.8828125
0.0945,-6.806640625,10.5302734375,-4.32421875
0.095,-4.083984375,10.3701171875,-6.9267578125
0.0955,-2.08203125,9.6494140625,-8.2080078125
0.096,0.1201171875,9.44921875,-10.1298828125
0.0965,2.001953125,8.16796875,-10.7705078125
0.097,3.3232421875,7.046875,-10.810546875
0.0975,5.7255859375,5.044921875,-11.2509765625
0.098,7.9677734375,2.6025390625,-10.9306640625
0.0985,9.208984375,0.48046875,-10.0498046875
0.099,10.970703125,-1.3212890625,-10.08984375
0.0995,11.1708984375,-3.2431640625,-8.2880859375
0.1,11.2509765625,-4.5244140625,-7.126953125
0.1005,11.53125,-7.1669921875,-4.724609375
0.101,10.7705078125,-8.48828125,-2.6025390625
0.1015,10.2099609375,-9.689453125,-0.80078125
0.102,9.529296875,-10.810546875,1.1611328125
0.1025,7.447265625,-10.3701171875,2.802734375
0.103,6.0458984375,-10.490234375,4.3642578125
0.1035,3.36328125,-10.41015625,6.966796875
0.104,1.361328125,-9.4892578125,7.9677734375
0.1045,-0.640625,-9.369140625,9.7294921875
0.105,-2.5625,-8.0478515625,10.2099609375
0.1055,-4.00390625,-6.56640625,10.2099609375
0.106,-6.5263671875,-4.3642578125,10.5302734375
0.1065,-8.568359375,-1.9619140625,10.169921875
0.107,-9.5693359375,0.16015625,9.12890625
0.1075,-11.05078125,1.6015625,9.12890625
0.108,-11.1708984375,3.68359375,7.126953125
0.1085,-11.05078125,5.0849609375,5.6455078125
0.109,-11.3310546875,7.6875,3.2431640625
0.1095,-10.2900390625,8.80859375,1.12109375
0.11,-9.76953125,9.76953125,-0.6005859375
0.1105,-8.9287109375,10.6904296875,-2.3623046875
0.111,-6.6865234375,10.1298828125,-4.1240234375
0.1115,-5.0048828125,10.169921875,-5.765625
0.112,-2.5224609375,10.08984375,-8.2080078125
0.1125,-0.6005859375,8.96875,-9.0087890625
0.113,1.0810546875,8.888671875,-10.4501953125
0.1135,3.123046875,7.3671875,-10.9306640625
0.114,4.6845703125,5.60546875,-10.7705078125
0.1145,7.287109375,3.36328125,-11.05078125
0.115,9.0888671875,0.9208984375,-10.3701171875
0.1155,9.8896484375,-0.9208984375,-9.44921875
0.116,11.1708984375,-2.2421875,-9.4091796875
0.1165,11.130859375,-4.32421875,-7.20703125
0.117,11.0107421875,-5.845703125,-5.525390625
0.1175,11.2509765625,-8.408203125,-3.203125
0.118,9.9697265625,-9.1689453125,-1.12109375
0.1185,9.609375,-10.0498046875,0.2802734375
0.119,8.48828125,-10.73046875,2.1220703125
0.1195,6.1259765625,-10.1298828125,3.8837890625
0.12,4.32421875,-10.2099609375,5.7255859375
0.1205,1.921875,-10.009765625,8.0078125
0.121,0.0,-8.8486328125,8.6083984375
0.1215,-1.361328125,-8.8486328125,9.9296875
0.122,-3.5634765625,-7.0869140625,10.25
0.1225,-5.28515625,-5.125,10.08984375
0.123,-7.9677734375,-2.7626953125,10.3701171875
0.1235,-9.4892578125,-0.3603515625,9.44921875
0.124,-10.08984375,1.1611328125,8.6484375
0.1245,-11.2509765625,2.5224609375,8.408203125
0.125,-11.05078125,4.724609375,6.005859375
0.1255,-10.890625,6.4462890625,4.0439453125
0.126,-11.130859375,8.9287109375,1.8017578125
0.1265,-9.609375,9.44921875,-0.400390625
0.127,-9.3291015625,10.2099609375,-1.44140625
0.1275,-7.9677734375,10.650390625,-3.36328125
0.128,-5.4453125,10.08984375,-5.28515625
0.1285,-3.443359375,10.1298828125,-7.3271484375
0.129,-1.0009765625,9.7294921875,-9.44921875
0.1295,0.880859375,8.4482421875,-9.76953125
0.13,2.001953125,8.4482421875,-10.890625
0.1305,4.32421875,6.3662109375,-11.1708984375
0.131,6.24609375,4.1640625,-10.8505859375
0.1315,9.0087890625,1.6416015625,-11.05078125
0.132,10.330078125,-0.80078125,-9.9697265625
0.1325,10.73046875,-1.9619140625,-9.208984375
0.133,11.69140625,-3.36328125,-8.6884765625
0.1335,11.451171875,-5.765625,-6.0458984375
0.134,11.1708984375,-7.6474609375,-3.84375
0.1345,11.2109375,-10.0498046875,-1.4814453125
0.135,9.5693359375,-10.2900390625,0.6005859375
0.1355,9.208984375,-10.7705078125,1.44140625
0.136,7.4072265625,-11.05078125,3.5234375
0.1365,4.6845703125,-10.4501953125,5.6455078125
0.137,2.4423828125,-10.4501953125,7.8076171875
0.1375,0.0,-9.9296875,9.76953125
0.138,-1.76171875,-8.5283203125,9.8896484375
0.1385,-2.7626953125,-8.328125,10.7705078125
0.139,-5.4853515625,-5.845703125,11.0107421875
0.1395,-7.3671875,-3.5234375,10.490234375
0.14,-9.9697265625,-0.8408203125,10.5302734375
0.1405,-11.130859375,1.521484375,9.2890625
0.141,-11.2509765625,2.6025390625,8.2880859375
0.1415,-12.01171875,4.32421875,7.3671875
0.142,-11.7314453125,6.88671875,4.484375
0.1425,-11.2509765625,8.48828125,2.322265625
0.143,-11.05078125,10.7705078125,-0.2802734375
0.1435,-9.2890625,10.810546875,-2.08203125
0.144,-8.6884765625,11.0107421875,-2.9228515625
0.1445,-6.56640625,11.2109375,-5.28515625
0.145,-3.84375,10.490234375,-7.3671875
0.1455,-1.4814453125,10.2099609375,-9.369140625
0.146,1.0009765625,9.529296875,-11.1708984375
0.1465,2.482421875,8.1279296875,-11.0107421875
0.147,3.6435546875,7.52734375,-11.611328125
0.1475,6.56640625,4.8046875,-11.8115234375
0.148,8.2080078125,2.482421875,-11.0908203125
0.1485,10.6103515625,0.0,-10.9306640625
0.149,11.5712890625,-2.2822265625,-9.76953125
0.1495,11.5712890625,-3.443359375,-8.568359375
0.15,12.171875,-5.3251953125,-7.20703125
0.1505,11.8115234375,-7.767578125,-4.404296875
0.151,11.1708984375,-9.0888671875,-2.40234375
0.1515,10.890625,-11.1708984375,0.080078125
0.152,9.048828125,-11.05078125,1.921875
0.1525,8.16796875,-11.0908203125,2.8427734375
0.153,5.8056640625,-11.291015625,5.365234375
0.1535,3.2431640625,-10.5703125,7.1669921875
0.154,0.9609375,-10.2099609375,9.0087890625
0.1545,-1.4013671875,-9.4892578125,10.6103515625
0.155,-2.8427734375,-7.9677734375,10.490234375
0.1555,-4.32421875,-6.9267578125,10.9306640625
0.156,-7.2470703125,-4.2041015625,11.130859375
0.1565,-8.6884765625,-1.9619140625,10.25
0.157,-10.7705078125,0.400390625,10.08984375
0.1575,-11.5712890625,2.4423828125,8.8486328125
0.158,-11.53125,3.8037109375,7.4072265625
0.1585,-11.931640625,5.8056640625,5.765625
0.159,-11.6513671875,8.16796875,3.04296875
0.1595,-10.7705078125,9.208984375,1.12109375
0.16,-10.5703125,11.0908203125,-1.1611328125
0.1605,-8.6484375,10.970703125,-2.962890625
0.161,-7.4072265625,10.8505859375,-4.1240234375
0.1615,-4.96484375,11.0107421875,-6.7666015625
0.162,-2.5224609375,10.2099609375,-8.48828125
0.1625,-0.400390625,9.76953125,-10.009765625
0.163,1.921875,9.0888671875,-11.4912109375
0.1635,3.5234375,7.3671875,-11.37109375
0.164,5.2451171875,6.005859375,-11.611328125
0.1645,8.16796875,3.203125,-11.8115234375
0.165,9.44921875,0.8408203125,-10.6103515625
0.1655,11.2109375,-1.1611328125,-10.490234375
0.166,12.01171875,-3.203125,-9.2490234375
0.1665,11.8115234375,-4.7646484375,-7.447265625
0.167,12.091796875,-6.8466796875,-5.6455078125
0.1675,11.8115234375,-9.12890625,-2.962890625
0.168,10.5703125,-9.8896484375,-1.0009765625
0.1685,10.41015625,-11.4912109375,0.9609375
0.169,8.2080078125,-11.451171875,3.0830078125
0.1695,6.56640625,-11.0908203125,4.404296875
0.17,4.1240234375,-11.3310546875,7.046875
0.1705,1.5615234375,-10.3701171875,8.6884765625
0.171,-0.4404296875,-9.6494140625,9.8896484375
0.1715,-2.4423828125,-9.048828125,11.2109375
0.172,-4.484375,-6.9267578125,11.130859375
0.1725,-6.3662109375,-5.125,11.130859375
0.173,-9.2490234375,-2.4423828125,11.3310546875
0.1735,-10.2099609375,0.16015625,9.76953125
0.174,-11.611328125,1.681640625,9.609375
0.1745,-12.33203125,3.763671875,8.248046875
0.175,-11.931640625,5.6455078125,5.9658203125
0.1755,-12.0517578125,7.6875,3.9638671875
0.176,-11.69140625,9.9697265625,1.3212890625
0.1765,-10.08984375,10.2900390625,-0.80078125
0.177,-10.009765625,11.6513671875,-2.2822265625
0.1775,-7.5673828125,11.451171875,-4.5244140625
0.178,-5.525390625,10.8505859375,-6.1259765625
0.1785,-3.1630859375,11.130859375,-8.6484375
0.179,-0.5205078125,9.9697265625,-10.08984375
0.1795,1.28125,9.12890625,-10.890625
0.18,3.123046875,8.48828125,-12.0517578125
0.1805,5.2451171875,6.1259765625,-11.8115234375
0.181,7.2470703125,3.9638671875,-11.6513671875
0.1815,10.0498046875,1.28125,-11.7314453125
0.182,10.7705078125,-1.201171875,-9.9697265625
0.1825,11.8515625,-2.322265625,-9.9697265625
0.183,12.4521484375,-4.4443359375,-8.3681640625
0.1835,11.8916015625,-6.3662109375,-5.92578125
0.184,11.9716796875,-8.48828125,-3.8037109375
0.1845,11.4111328125,-10.4501953125,-1.2412109375
0.185,9.76953125,-10.6103515625,0.640625
0.1855,9.6494140625,-11.771484375,1.921875
0.186,7.0068359375,-11.4111328125,4.2041015625
0.1865,4.8046875,-10.810546875,5.8857421875
0.187,2.5224609375,-11.05078125,8.4482421875
0.1875,-0.2001953125,-9.689453125,9.6494140625
0.188,-1.6015625,-9.0087890625,10.2900390625
0.1885,-3.36328125,-8.2080078125,11.291015625
0.189,-5.5654296875,-5.765625,11.0107421875
0.1895,-7.7275390625,-3.36328125,10.810546875
0.19,-10.2900390625,-0.80078125,10.7705078125
0.1905,-10.7705078125,1.4013671875,9.0087890625
0.191,-11.7314453125,2.3623046875,9.048828125
0.1915,-12.091796875,4.6044921875,7.1669921875
0.192,-11.5712890625,6.5263671875,4.64453125
0.1925,-11.6513671875,8.80859375,2.482421875
0.193,-10.890625,10.490234375,-0.16015625
0.1935,-9.369140625,10.490234375,-1.7216796875
0.194,-9.1689453125,11.4111328125,-2.9228515625
0.1945,-6.3662109375,10.970703125,-5.28515625
0.195,-4.00390625,10.490234375,-7.0869140625
0.1955,-1.76171875,10.6904296875,-9.5693359375
0.196,0.880859375,9.1689453125,-10.5703125
0.1965,1.921875,8.6484375,-11.05078125
0.197,3.84375,7.5673828125,-11.8115234375
0.1975,6.0859375,4.96484375,-11.53125
0.198,8.3681640625,2.482421875,-11.2509765625
0.1985,10.8505859375,-0.240234375,-11.05078125
0.199,11.0908203125,-2.0419921875,-9.44921875
0.1995,11.8916015625,-2.8828125,-9.4091796875
0.2,12.171875,-5.4453125,-7.1669921875
0.2005,11.611328125,-7.3271484375,-4.6845703125
0.201,11.5712890625,-9.6494140625,-2.322265625
0.2015,10.6904296875,-11.0908203125,0.2001953125
0.202,9.208984375,-10.890625,1.44140625
0.2025,8.6884765625,-11.53125,2.7626953125
0.203,5.7255859375,-11.130859375,5.365234375
0.2035,3.283203125,-10.6103515625,7.20703125
0.204,0.880859375,-10.650390625,9.6494140625
0.2045,-1.5615234375,-9.12890625,10.4501953125
0.205,-2.482421875,-8.48828125,10.6904296875
0.2055,-4.6044921875,-7.046875,11.37109375
0.206,-7.0068359375,-4.3642578125,11.0107421875
0.2065,-9.048828125,-1.921875,10.6103515625
0.207,-11.3310546875,0.7607421875,10.330078125
0.2075,-11.4111328125,2.482421875,8.6484375
0.208,-12.0517578125,3.5234375,8.16796875
0.2085,-12.251953125,6.326171875,5.60546875
0.209,-11.611328125,7.927734375,3.203125
0.2095,-11.3310546875,10.0498046875,0.80078125
0.21,-10.41015625,11.3310546875,-1.6015625
0.2105,-8.7685546875,10.9306640625,-2.802734375
0.211,-7.767578125,11.4111328125,-4.244140625
0.2115,-4.7646484375,11.0107421875,-6.966796875
0.212,-2.4423828125,10.41015625,-8.5283203125
0.2125,0.1201171875,10.2099609375,-10.8505859375
0.213,2.2021484375,8.728515625,-11.4111328125
0.2135,3.123046875,7.927734375,-11.4912109375
0.214,5.60546875,6.005859375,-11.9716796875
0.2145,7.8876953125,3.283203125,-11.5712890625
0.215,9.609375,0.9609375,-10.890625
0.2155,11.611328125,-1.44140625,-10.6103515625
0.216,11.6513671875,-3.203125,-8.8486328125
0.2165,12.01171875,-4.3642578125,-8.0478515625
0.217,12.171875,-7.126953125,-5.4453125
0.2175,11.37109375,-8.568359375,-3.203125
0.218,10.9306640625,-10.330078125,-1.0009765625
0.2185,9.9697265625,-11.37109375,1.2412109375
0.219,8.2880859375,-10.890625,2.5224609375
0.2195,6.966796875,-11.2109375,4.1240234375
0.22,4.083984375,-10.8505859375,6.6865234375
0.2205,2.001953125,-10.1298828125,8.0078125
0.221,-0.4404296875,-9.8896484375,10.08984375
0.2215,-2.322265625,-8.408203125,10.490234375
0.222,-3.4033203125,-7.447265625,10.5302734375
0.2225,-6.0458984375,-5.28515625,10.970703125
0.223,-8.0078125,-2.8427734375,10.490234375
