wavelength,x,y,z
0.0,13.087768554688,-20.625122070312,8.0828857421875
0.0005,16.491088867188,-19.544067382812,3.7586669921875
0.001,19.093627929688,-17.502075195312,-0.7257080078125
0.0015,20.014526367188,-15.540161132812,-2.5675048828125
0.002,20.935424804688,-12.737426757812,-6.9718017578125
0.0025,20.575073242188,-9.7745361328125,-8.9737548828125
0.003,20.414916992188,-5.4503173828125,-13.938598632812
0.0035,19.333862304688,-1.5665283203125,-16.621215820312
0.004,17.411987304688,2.2371826171875,-18.863403320312
0.0045,14.969604492188,5.3602294921875,-19.624145507812
0.005,12.286987304688,8.4031982421875,-20.344848632812
0.0055,8.4432373046875,12.126831054688,-20.064575195312
0.006,3.7987060546875,15.490112304688,-18.983520507812
0.0065,-0.4053955078125,17.812377929688,-17.221801757812
0.007,-3.7286376953125,19.373901367188,-15.420043945312
0.0075,-6.8516845703125,19.974487304688,-13.097778320312
0.008,-10.014770507812,19.974487304688,-10.495239257812
0.0085,-13.578247070312,19.534057617188,-6.7315673828125
0.009,-16.541137695312,18.453002929688,-2.6475830078125
0.0095,-18.943481445312,16.411010742188,1.5565185546875
0.01,-19.624145507812,14.409057617188,4.4793701171875
0.0105,-20.344848632812,11.686401367188,7.5223388671875
0.011,-20.144653320312,8.3631591796875,10.885620117188
0.0115,-19.624145507812,4.3192138671875,14.409057617188
0.012,-18.422973632812,0.5555419921875,16.971557617188
0.0125,-16.581176757812,-3.1680908203125,18.813354492188
0.013,-13.978637695312,-6.0108642578125,19.494018554688
0.0135,-11.296020507812,-9.2139892578125,19.774291992188
0.014,-7.1319580078125,-12.777465820312,19.494018554688
0.0145,-2.7677001953125,-15.980590820312,18.372924804688
0.015,1.3162841796875,-18.102661132812,16.370971679688
0.0155,4.4393310546875,-19.103637695312,14.689331054688
0.016,7.5623779296875,-19.744262695312,12.447143554688
0.0165,10.765502929688,-19.664184570312,9.3240966796875
0.017,14.248901367188,-18.983520507812,5.4803466796875
0.0175,16.811401367188,-17.662231445312,1.4364013671875
0.018,18.893432617188,-15.620239257812,-2.4073486328125
0.0185,19.253784179688,-13.418090820312,-3.8487548828125
0.019,19.814331054688,-10.615356445312,-8.0128173828125
0.0195,19.654174804688,-7.0919189453125,-11.816528320312
0.02,19.093627929688,-3.3282470703125,-15.059692382812
0.0205,17.452026367188,0.4754638671875,-16.981567382812
0.021,15.530151367188,3.8787841796875,-18.543090820312
0.0215,13.047729492188,6.9617919921875,-19.263793945312
0.022,9.7645263671875,10.204956054688,-19.343872070312
0.0225,5.8406982421875,13.648315429688,-18.863403320312
0.023,1.2362060546875,16.491088867188,-17.662231445312
0.0235,-2.6475830078125,18.252807617188,-15.700317382812
0.024,-5.3302001953125,18.893432617188,-13.818481445312
0.0245,-8.4532470703125,19.494018554688,-11.776489257812
0.025,-11.856567382812,20.494995117188,-7.9727783203125
0.0255,-15.059692382812,18.493041992188,-4.1290283203125
0.026,-17.341918945312,16.851440429688,-0.2452392578125
0.0265,-18.943481445312,14.849487304688,3.2381591796875
0.027,-19.544067382812,12.407104492188,6.0809326171875
0.0275,-19.824340820312,9.4842529296875,9.4041748046875
0.028,-19.504028320312,5.6805419921875,12.887573242188
0.0285,-18.743286132812,1.8768310546875,16.050659179688
0.029,-16.781372070312,-1.8067626953125,19.213745117188
0.0295,-14.739379882812,-4.8096923828125,18.813354492188
0.03,-12.417114257812,-7.9727783203125,19.654174804688
0.0305,-8.2130126953125,-10.255004882812,19.293823242188
0.031,-4.2091064453125,-14.779418945312,18.453002929688
0.0315,0.0750732421875,-17.261840820312,16.891479492188
0.032,3.7186279296875,-18.903442382812,15.129760742188
0.0325,6.3612060546875,-19.383911132812,12.967651367188
0.033,9.5242919921875,-19.624145507812,10.645385742188
0.0335,13.287963867188,-19.183715820312,6.6414794921875
0.034,16.090698242188,-18.142700195312,2.6776123046875
0.0345,19.213745117188,-16.421020507812,-1.1661376953125
0.035,19.253784179688,-14.218872070312,-4.1690673828125
0.0355,19.694213867188,-11.656372070312,-7.2120361328125
0.036,19.694213867188,-8.1729736328125,-10.775512695312
0.0365,20.494995117188,-4.6495361328125,-13.818481445312
0.037,18.052612304688,-0.7257080078125,-16.541137695312
0.0375,16.330932617188,3.1580810546875,-18.262817382812
0.038,13.728393554688,5.8807373046875,-18.703247070312
0.0385,11.486206054688,9.0438232421875,-19.423950195312
0.039,6.6815185546875,14.088745117188,-18.983520507812
0.0395,2.5174560546875,15.730346679688,-17.982543945312
0.04,-1.3262939453125,17.612182617188,-16.180786132812
0.0405,-4.6495361328125,19.173706054688,-14.258911132812
0.041,-7.6524658203125,19.173706054688,-12.136840820312
0.0415,-10.455200195312,19.453979492188,-9.3341064453125
0.042,-14.138793945312,19.013549804688,-5.4503173828125
0.0425,-16.861450195312,17.411987304688,-1.3663330078125
0.043,-18.783325195312,15.490112304688,2.3973388671875
0.0435,-19.504028320312,13.247924804688,5.2801513671875
0.044,-19.984497070312,10.685424804688,8.3631591796875
0.0445,-19.744262695312,6.5614013671875,12.286987304688
0.045,-18.943481445312,3.1180419921875,15.089721679688
0.0455,-17.622192382812,-0.6856689453125,17.411987304688
0.046,-15.780395507812,-4.2891845703125,19.133666992188
0.0465,-12.897583007812,-7.0118408203125,19.253784179688
0.047,-10.014770507812,-10.295043945312,19.614135742188
0.0475,-5.4503173828125,-12.817504882812,18.933471679688
0.048,-0.9259033203125,-16.981567382812,17.411987304688
0.0485,3.8387451171875,-18.623168945312,15.770385742188
0.049,5.8006591796875,-19.383911132812,13.848510742188
0.0495,8.8836669921875,-19.744262695312,11.326049804688
0.05,12.166870117188,-19.383911132812,7.8026123046875
0.0505,15.249877929688,-18.783325195312,3.9989013671875
0.051,17.772338867188,-16.981567382812,1.2762451171875
0.0515,19.253784179688,-14.939575195312,-3.5684814453125
0.052,19.574096679688,-12.377075195312,-6.2911376953125
0.0525,19.974487304688,-9.7344970703125,-9.5743408203125
0.053,19.453979492188,-5.4503173828125,-13.137817382812
0.0535,18.533081054688,-1.8868408203125,-16.380981445312
0.054,16.771362304688,1.7567138671875,-17.622192382812
0.0545,14.769409179688,4.9598388671875,-19.423950195312
0.055,11.926635742188,8.0828857421875,-19.343872070312
0.0555,8.0428466796875,11.646362304688,-17.942504882812
0.056,4.1590576171875,14.849487304688,-18.583129882812
0.0565,-0.4854736328125,17.291870117188,-17.021606445312
0.057,-3.8887939453125,18.573120117188,-15.059692382812
0.0575,-6.3311767578125,19.253784179688,-13.097778320312
0.058,-9.5743408203125,19.614135742188,-11.055786132812
0.0585,-13.458129882812,19.053588867188,-6.2510986328125
0.059,-16.220825195312,18.052612304688,-2.6075439453125
0.0595,-18.262817382812,16.290893554688,1.1160888671875
0.06,-19.544067382812,14.208862304688,4.4793701171875
0.0605,-19.704223632812,11.446166992188,7.2821044921875
0.061,-19.904418945312,8.2030029296875,10.605346679688
0.0615,-19.423950195312,4.4793701171875,14.208862304688
0.062,-18.262817382812,0.5555419921875,17.091674804688
0.0625,-16.220825195312,-3.0079345703125,18.292846679688
0.063,-14.138793945312,-5.9708251953125,19.333862304688
0.0635,-11.456176757812,-9.0137939453125,19.734252929688
0.064,-6.6514892578125,-13.057739257812,19.053588867188
0.0645,-2.8077392578125,-15.660278320312,18.252807617188
0.065,1.5164794921875,-17.902465820312,16.370971679688
0.0655,4.5194091796875,-19.383911132812,14.609252929688
0.066,7.6424560546875,-19.504028320312,12.206909179688
0.0665,10.645385742188,-19.864379882812,9.6043701171875
0.067,14.489135742188,-19.143676757812,5.3201904296875
0.0675,17.251831054688,-17.622192382812,1.0760498046875
0.068,18.853393554688,-15.700317382812,-2.2471923828125
0.0685,19.814331054688,-13.538208007812,-5.4903564453125
0.069,19.974487304688,-10.615356445312,-8.4932861328125
0.0695,19.814331054688,-6.6915283203125,-12.056762695312
0.07,20.494995117188,-3.2882080078125,-15.219848632812
0.0705,17.732299804688,0.6756591796875,-17.662231445312
0.071,15.490112304688,4.1590576171875,-18.943481445312
0.0715,12.887573242188,7.1619873046875,-19.423950195312
0.072,10.164916992188,10.285034179688,-19.944458007812
0.0725,5.0799560546875,14.369018554688,-18.983520507812
0.073,0.8358154296875,16.811401367188,-16.661254882812
0.0735,-2.7276611328125,18.693237304688,-15.780395507812
0.074,-6.0509033203125,19.774291992188,-13.858520507812
0.0745,-9.1739501953125,19.774291992188,-11.095825195312
0.075,-12.497192382812,19.694213867188,-7.8526611328125
0.0755,-15.900512695312,18.893432617188,-3.8887939453125
0.076,-18.463012695312,17.011596679688,0.8758544921875
0.0765,-19.704223632812,14.929565429688,5.1199951171875
0.077,-20.344848632812,12.286987304688,6.8016357421875
0.0775,-19.223754882812,9.6043701171875,9.8446044921875
0.078,-20.024536132812,5.0799560546875,14.008666992188
0.0785,-19.023559570312,1.3963623046875,16.691284179688
0.079,-17.301879882812,-2.3272705078125,18.693237304688
0.0795,-15.059692382812,-5.7305908203125,19.894409179688
0.08,-11.856567382812,-8.8536376953125,19.894409179688
0.0805,-8.4932861328125,-12.056762695312,20.174682617188
0.081,-4.0089111328125,-16.060668945312,19.173706054688
0.0815,0.9559326171875,-18.422973632812,17.131713867188
0.082,4.1990966796875,-19.504028320312,16.651245117188
0.0825,7.3621826171875,-20.344848632812,13.247924804688
0.083,10.445190429688,-20.344848632812,10.325073242188
0.0835,14.208862304688,-19.704223632812,6.1209716796875
0.084,17.131713867188,-18.583129882812,2.3973388671875
0.0845,19.333862304688,-16.621215820312,-1.8067626953125
0.085,20.174682617188,-14.459106445312,-5.2901611328125
0.0855,20.454956054688,-11.416137695312,-8.3731689453125
0.086,20.535034179688,-8.3731689453125,-11.376098632812
0.0865,19.894409179688,-4.0089111328125,-15.099731445312
0.087,18.412963867188,0.0350341796875,-17.662231445312
0.0875,16.411010742188,3.5184326171875,-19.183715820312
0.088,15.369995117188,6.8817138671875,-20.264770507812
0.0885,10.605346679688,10.084838867188,-19.984497070312
0.089,6.5614013671875,13.928588867188,-19.744262695312
0.0895,2.2371826171875,16.931518554688,-18.943481445312
0.09,-2.3272705078125,18.973510742188,-15.380004882812
0.0905,-5.3302001953125,19.814331054688,-14.699340820312
0.091,-8.5333251953125,20.334838867188,-12.256958007812
0.0915,-11.616333007812,20.334838867188,-9.3741455078125
0.092,-15.460083007812,19.494018554688,-4.5694580078125
0.0925,-18.222778320312,17.892456054688,-0.6055908203125
0.093,-19.984497070312,15.770385742188,2.9979248046875
0.0935,-20.625122070312,13.368041992188,6.1610107421875
0.094,-20.705200195312,10.204956054688,9.5242919921875
0.0945,-20.585083007812,6.6815185546875,12.927612304688
0.095,-19.904418945312,2.6776123046875,16.290893554688
0.0955,-18.102661132812,-1.5665283203125,18.693237304688
0.096,-15.860473632812,-4.8497314453125,19.814331054688
0.0965,-13.458129882812,-8.1329345703125,20.735229492188
0.097,-9.8546142578125,-11.616333007812,21.776245117188
0.0975,-5.0098876953125,-15.139770507812,19.734252929688
0.098,-0.6856689453125,-17.982543945312,18.252807617188
0.0985,3.5184326171875,-19.824340820312,16.250854492188
0.099,6.5213623046875,-20.464965820312,15.369995117188
0.0995,9.9246826171875,-20.745239257812,11.165893554688
0.1,13.167846679688,-19.223754882812,7.9627685546875
0.1005,16.691284179688,-19.504028320312,3.5184326171875
0.101,19.253784179688,-17.462036132812,-1.0059814453125
0.1015,20.535034179688,-15.420043945312,-4.3692626953125
0.102,21.175659179688,-12.777465820312,-7.5723876953125
0.1025,21.135620117188,-9.3341064453125,-10.935668945312
0.103,20.615112304688,-5.2100830078125,-14.619262695312
0.1035,19.694213867188,-1.3262939453125,-17.582153320312
0.104,17.732299804688,2.8377685546875,-19.744262695312
0.1045,15.089721679688,6.0008544921875,-20.665161132812
0.105,12.166870117188,9.4442138671875,-20.745239257812
0.1055,8.1629638671875,13.127807617188,-20.825317382812
0.106,3.3582763671875,17.932495117188,-19.704223632812
0.1065,-1.2462158203125,19.053588867188,-17.782348632812
0.107,-4.9298095703125,20.535034179688,-15.820434570312
0.1075,-8.0528564453125,21.015502929688,-13.458129882812
0.108,-11.456176757812,21.055541992188,-8.9737548828125
0.1085,-15.099731445312,21.776245117188,-6.2510986328125
0.109,-18.302856445312,19.173706054688,-1.9268798828125
0.1095,-20.585083007812,16.931518554688,2.6776123046875
0.11,-21.345825195312,14.529174804688,5.8406982421875
0.1105,-21.906372070312,11.606323242188,9.2440185546875
0.111,-21.666137695312,7.8026123046875,12.887573242188
0.1115,-20.865356445312,3.5584716796875,16.330932617188
0.112,-19.383911132812,-0.5655517578125,19.013549804688
0.1125,-17.261840820312,-4.5294189453125,20.775268554688
0.113,-14.419067382812,-7.7325439453125,21.215698242188
0.1135,-11.095825195312,-11.175903320312,21.455932617188
0.114,-6.6114501953125,-14.939575195312,20.935424804688
0.1145,-1.6466064453125,-18.262817382812,19.494018554688
0.115,2.9178466796875,-20.224731445312,17.171752929688
0.1155,6.2410888671875,-21.305786132812,15.089721679688
0.116,9.5643310546875,-21.706176757812,12.407104492188
0.1165,12.967651367188,-21.465942382812,9.0037841796875
0.117,16.491088867188,-19.223754882812,4.7996826171875
0.1175,19.453979492188,-18.783325195312,0.2352294921875
0.118,21.375854492188,-16.501098632812,-4.0089111328125
0.1185,21.656127929688,-13.738403320312,-7.0518798828125
0.119,21.976440429688,-10.615356445312,-10.455200195312
0.1195,21.576049804688,-6.4913330078125,-14.218872070312
0.12,20.655151367188,-2.4073486328125,-17.462036132812
0.1205,18.613159179688,1.7567138671875,-19.463989257812
0.121,16.330932617188,5.5203857421875,-21.145629882812
0.1215,13.368041992188,8.8836669921875,-21.505981445312
0.122,9.5643310546875,12.407104492188,-21.345825195312
0.1225,5.0399169921875,15.970581054688,-20.585083007812
0.123,0.1551513671875,19.053588867188,-18.983520507812
0.1235,-4.1690673828125,20.695190429688,-16.701293945312
0.124,-7.1719970703125,21.255737304688,-14.419067382812
0.1245,-10.535278320312,21.616088867188,-11.736450195312
0.125,-14.258911132812,21.095581054688,-7.6524658203125
0.1255,-17.542114257812,20.094604492188,-3.4884033203125
0.126,-20.104614257812,18.052612304688,1.0760498046875
0.1265,-20.505004882812,15.730346679688,4.9598388671875
0.127,-21.946411132812,14.088745117188,8.0828857421875
0.1275,-22.146606445312,9.4442138671875,11.646362304688
0.128,-21.465942382812,6.4012451171875,16.651245117188
0.1285,-20.464965820312,0.8758544921875,18.613159179688
0.129,-18.182739257812,-3.2882080078125,20.454956054688
0.1295,-15.780395507812,-6.6514892578125,21.536010742188
0.13,-12.777465820312,-10.014770507812,22.016479492188
0.1305,-8.2130126953125,-13.938598632812,21.455932617188
0.131,-2.5675048828125,-17.101684570312,20.454956054688
0.1315,1.1160888671875,-19.824340820312,18.453002929688
0.132,5.2401123046875,-21.425903320312,16.170776367188
0.1325,8.2030029296875,-21.586059570312,13.728393554688
0.133,12.807495117188,-21.946411132812,10.925659179688
0.1335,15.610229492188,-21.145629882812,6.2811279296875
0.134,18.693237304688,-19.744262695312,1.9168701171875
0.1345,20.855346679688,-17.622192382812,-2.4473876953125
0.135,22.136596679688,-15.179809570312,-6.0509033203125
0.1355,22.256713867188,-12.056762695312,-9.3341064453125
0.136,22.256713867188,-8.2130126953125,-13.217895507812
0.1365,21.455932617188,-4.1690673828125,-16.541137695312
0.137,20.014526367188,0.4354248046875,-19.544067382812
0.1375,17.532104492188,4.4793701171875,-21.145629882812
0.138,14.729370117188,8.9637451171875,-21.666137695312
0.1385,11.726440429688,11.125854492188,-22.226684570312
0.139,6.3612060546875,15.450073242188,-21.305786132812
0.1395,1.9168701171875,18.412963867188,-20.024536132812
0.14,-1.2862548828125,20.454956054688,-18.022583007812
0.1405,-6.5313720703125,21.896362304688,-15.780395507812
0.141,-9.6544189453125,21.856323242188,-12.737426757812
0.1415,-13.057739257812,21.936401367188,-9.6544189453125
0.142,-16.981567382812,21.095581054688,-5.0098876953125
0.1425,-20.104614257812,19.173706054688,1.2762451171875
0.143,-21.826293945312,16.891479492188,3.9188232421875
0.1435,-22.627075195312,14.208862304688,7.3621826171875
0.144,-22.787231445312,10.965698242188,10.805541992188
0.1445,-22.426879882812,6.3612060546875,15.049682617188
0.145,-21.505981445312,2.3572998046875,18.052612304688
0.1455,-19.704223632812,-2.0870361328125,20.735229492188
0.146,-17.061645507812,-6.1710205078125,22.336791992188
0.1465,-13.818481445312,-9.4141845703125,22.376831054688
0.147,-10.615356445312,-12.857543945312,22.737182617188
0.1475,-5.0098876953125,-17.101684570312,21.576049804688
0.148,0.0350341796875,-20.064575195312,19.734252929688
0.1485,4.1190185546875,-21.626098632812,17.411987304688
0.149,7.8026123046875,-22.707153320312,15.089721679688
0.1495,11.326049804688,-22.587036132812,11.726440429688
0.15,14.969604492188,-22.106567382812,7.8426513671875
0.1505,18.412963867188,-21.105590820312,3.5184326171875
0.151,21.375854492188,-18.783325195312,-1.6466064453125
0.1515,22.657104492188,-16.260864257812,-5.4503173828125
0.152,23.017456054688,-13.137817382812,-8.8536376953125
0.1525,23.097534179688,-10.014770507812,-12.176879882812
0.153,22.376831054688,-4.9698486328125,-16.621215820312
0.1535,21.015502929688,-0.8057861328125,-19.383911132812
0.154,18.853393554688,3.3182373046875,-21.305786132812
0.1545,16.210815429688,7.3221435546875,-22.707153320312
0.155,12.407104492188,10.725463867188,-22.466918945312
0.1555,8.4832763671875,14.369018554688,-22.386840820312
0.156,3.4383544921875,18.092651367188,-21.225708007812
0.1565,-1.8868408203125,20.855346679688,-18.943481445312
0.157,-5.5704345703125,22.016479492188,-16.621215820312
0.1575,-9.0137939453125,22.697143554688,-12.817504882812
0.158,-12.457153320312,22.697143554688,-10.895629882812
0.1585,-16.581176757812,21.736206054688,-6.0108642578125
0.159,-19.664184570312,20.374877929688,-1.6866455078125
0.1595,-22.066528320312,17.972534179688,2.9578857421875
0.16,-21.786254882812,15.329956054688,6.6014404296875
0.1605,-21.786254882812,11.886596679688,10.084838867188
0.161,-23.227661132812,8.5633544921875,13.488159179688
0.1615,-22.306762695312,3.7186279296875,17.532104492188
0.162,-19.223754882812,-0.9259033203125,20.334838867188
0.1625,-18.022583007812,-4.6895751953125,21.696166992188
0.163,-15.460083007812,-8.3331298828125,22.897338867188
0.1635,-11.616333007812,-11.776489257812,22.617065429688
0.164,-6.6114501953125,-15.860473632812,21.816284179688
0.1645,-2.0469970703125,-19.063598632812,20.655151367188
0.165,3.1180419921875,-21.425903320312,18.212768554688
0.1655,6.6815185546875,-22.306762695312,15.770385742188
0.166,10.084838867188,-22.587036132812,12.927612304688
0.1665,13.287963867188,-22.667114257812,9.9647216796875
0.167,17.452026367188,-21.425903320312,4.7996826171875
0.1675,20.334838867188,-19.624145507812,0.1551513671875
0.168,22.056518554688,-17.301879882812,-2.5675048828125
0.1685,22.897338867188,-14.619262695312,-7.4122314453125
0.169,22.737182617188,-10.975708007812,-10.895629882812
0.1695,22.456909179688,-7.0118408203125,-14.619262695312
0.17,21.616088867188,-2.7276611328125,-18.022583007812
0.1705,19.654174804688,1.9168701171875,-20.665161132812
0.171,16.931518554688,5.6004638671875,-21.746215820312
0.1715,15.369995117188,9.0838623046875,-22.466918945312
0.172,10.485229492188,12.567260742188,-22.466918945312
0.1725,4.9598388671875,16.771362304688,-21.305786132812
0.173,0.4754638671875,19.614135742188,-19.824340820312
0.1735,-3.9688720703125,21.455932617188,-17.622192382812
0.174,-7.4522705078125,22.296752929688,-15.179809570312
0.1745,-11.055786132812,22.256713867188,-11.856567382812
0.175,-14.459106445312,22.136596679688,-8.4932861328125
0.1755,-18.262817382812,20.935424804688,-3.7286376953125
0.176,-21.025512695312,18.693237304688,1.3963623046875
0.1765,-22.306762695312,16.290893554688,4.9197998046875
0.177,-21.786254882812,13.448120117188,8.4031982421875
0.1775,-22.907348632812,9.8846435546875,11.886596679688
0.178,-22.226684570312,5.2000732421875,16.010620117188
