wavelength,x,y,z
0.0,-2.792724609375,3.773681640625,-1.471435546875
0.0005,-3.233154296875,3.653564453125,-0.990966796875
0.001,-3.553466796875,3.253173828125,-0.230224609375
0.0015,-3.873779296875,2.852783203125,0.490478515625
0.002,-3.953857421875,1.931884765625,1.611572265625
0.0025,-3.993896484375,1.411376953125,2.252197265625
0.003,-3.953857421875,0.610595703125,2.932861328125
0.0035,-3.593505859375,0.010009765625,3.253173828125
0.004,-3.473388671875,-0.750732421875,3.773681640625
0.0045,-2.712646484375,-1.591552734375,3.893798828125
0.005,-2.031982421875,-2.432373046875,4.134033203125
0.0055,-1.191162109375,-3.032958984375,3.853759765625
0.006,-0.510498046875,-3.673583984375,3.813720703125
0.0065,0.370361328125,-3.953857421875,3.253173828125
0.007,0.970947265625,-4.354248046875,3.052978515625
0.0075,2.052001953125,-4.434326171875,2.092041015625
0.008,2.652587890625,-4.514404296875,1.571533203125
0.0085,3.133056640625,-4.354248046875,0.890869140625
0.009,3.453369140625,-4.073974609375,0.330322265625
0.0095,3.693603515625,-3.673583984375,-0.430419921875
0.01,3.853759765625,-2.952880859375,-1.191162109375
0.0105,3.933837890625,-2.112060546875,-2.232177734375
0.011,3.813720703125,-1.471435546875,-2.672607421875
0.0115,3.733642578125,-0.790771484375,-3.273193359375
0.012,3.253173828125,-0.150146484375,-3.553466796875
0.0125,3.093017578125,0.490478515625,-3.913818359375
0.013,2.212158203125,1.411376953125,-3.993896484375
0.0135,1.611572265625,2.172119140625,-4.154052734375
0.014,0.770751953125,2.692626953125,-3.833740234375
0.0145,0.130126953125,3.253173828125,-3.793701171875
0.015,-0.710693359375,3.533447265625,-3.273193359375
0.0155,-1.311279296875,3.813720703125,-2.912841796875
0.016,-2.392333984375,3.933837890625,-2.072021484375
0.0165,-2.832763671875,3.853759765625,-1.591552734375
0.017,-3.353271484375,3.773681640625,-0.950927734375
0.0175,-3.553466796875,3.333251953125,-0.310302734375
0.018,-3.913818359375,3.052978515625,0.450439453125
0.0185,-3.993896484375,2.172119140625,1.331298828125
0.019,-4.194091796875,1.531494140625,2.252197265625
0.0195,-3.873779296875,0.770751953125,2.732666015625
0.02,-3.873779296875,0.170166015625,3.333251953125
0.0205,-3.393310546875,-0.630615234375,3.613525390625
0.021,-3.153076171875,-1.231201171875,3.973876953125
0.0215,-2.232177734375,-2.272216796875,4.093994140625
0.022,-1.591552734375,-2.872802734375,4.093994140625
0.0225,-0.710693359375,-3.473388671875,3.853759765625
0.023,0.010009765625,-3.953857421875,3.613525390625
0.0235,0.770751953125,-4.314208984375,3.213134765625
0.024,1.571533203125,-4.474365234375,2.612548828125
0.0245,2.532470703125,-4.754638671875,1.851806640625
0.025,2.892822265625,-4.434326171875,1.211181640625
0.0255,3.493408203125,-4.474365234375,0.610595703125
0.026,3.653564453125,-3.833740234375,-0.150146484375
0.0265,3.973876953125,-3.473388671875,-0.790771484375
0.027,3.973876953125,-2.432373046875,-1.911865234375
0.0275,4.134033203125,-1.791748046875,-2.672607421875
0.028,3.733642578125,-0.990966796875,-3.153076171875
0.0285,3.693603515625,-0.470458984375,-3.633544921875
0.029,3.133056640625,0.370361328125,-3.873779296875
0.0295,2.692626953125,1.010986328125,-4.073974609375
0.03,1.851806640625,2.092041015625,-4.314208984375
0.0305,1.091064453125,2.572509765625,-4.033935546875
0.031,0.290283203125,3.173095703125,-3.873779296875
0.0315,-0.510498046875,3.533447265625,-3.513427734375
0.032,-1.231201171875,3.813720703125,-3.072998046875
0.0325,-2.072021484375,3.853759765625,-2.312255859375
0.033,-2.872802734375,4.053955078125,-1.671630859375
0.0335,-3.193115234375,3.573486328125,-0.990966796875
0.034,-3.673583984375,3.693603515625,-0.510498046875
0.0345,-3.833740234375,3.012939453125,0.330322265625
0.035,-4.033935546875,2.612548828125,0.970947265625
0.0355,-4.114013671875,1.571533203125,2.092041015625
0.036,-4.073974609375,1.010986328125,2.652587890625
0.0365,-3.793701171875,0.250244140625,3.133056640625
0.037,-3.673583984375,-0.310302734375,3.533447265625
0.0375,-3.193115234375,-1.031005859375,3.813720703125
0.038,-2.552490234375,-1.791748046875,3.973876953125
0.0385,-1.871826171875,-2.712646484375,4.174072265625
0.039,-0.990966796875,-3.153076171875,3.813720703125
0.0395,-0.350341796875,-3.833740234375,3.853759765625
0.04,0.530517578125,-4.114013671875,3.293212890625
0.0405,1.131103515625,-4.474365234375,2.972900390625
0.041,2.132080078125,-4.554443359375,2.132080078125
0.0415,2.812744140625,-4.674560546875,1.571533203125
0.042,3.133056640625,-4.234130859375,0.810791015625
0.0425,3.613525390625,-4.234130859375,0.370361328125
0.043,3.773681640625,-3.553466796875,-0.590576171875
0.0435,3.973876953125,-3.032958984375,-1.271240234375
0.044,4.093994140625,-2.031982421875,-2.432373046875
0.0445,3.893798828125,-1.391357421875,-2.872802734375
0.045,3.693603515625,-0.670654296875,-3.393310546875
0.0455,3.413330078125,0.010009765625,-3.753662109375
0.046,2.932861328125,0.690673828125,-3.993896484375
0.0465,2.172119140625,1.571533203125,-4.114013671875
0.047,1.491455078125,2.412353515625,-4.314208984375
0.0475,0.570556640625,2.812744140625,-3.793701171875
0.048,0.010009765625,3.453369140625,-3.833740234375
0.0485,-0.950927734375,3.613525390625,-3.193115234375
0.049,-1.591552734375,3.853759765625,-2.752685546875
0.0495,-2.552490234375,3.973876953125,-1.951904296875
0.05,-3.072998046875,3.853759765625,-1.311279296875
0.0505,-3.433349609375,3.613525390625,-0.670654296875
0.051,-3.793701171875,3.373291015625,0.010009765625
0.0515,-3.873779296875,2.692626953125,0.770751953125
0.052,-3.993896484375,2.052001953125,1.531494140625
0.0525,-4.194091796875,1.251220703125,2.532470703125
0.053,-3.833740234375,0.530517578125,2.852783203125
0.0535,-3.833740234375,0.010009765625,3.453369140625
0.054,-3.313232421875,-0.790771484375,3.693603515625
0.0545,-2.872802734375,-1.471435546875,3.973876953125
0.055,-2.031982421875,-2.392333984375,4.013916015625
0.0555,-1.391357421875,-3.072998046875,4.053955078125
0.056,-0.510498046875,-3.473388671875,3.573486328125
0.0565,0.130126953125,-4.114013671875,3.573486328125
0.057,1.010986328125,-4.234130859375,2.892822265625
0.0575,1.651611328125,-4.434326171875,2.492431640625
0.058,2.572509765625,-4.594482421875,1.731689453125
0.0585,2.892822265625,-4.314208984375,1.091064453125
0.059,3.373291015625,-4.194091796875,0.570556640625
0.0595,3.573486328125,-3.753662109375,-0.190185546875
0.06,3.773681640625,-3.153076171875,-0.950927734375
0.0605,3.853759765625,-2.392333984375,-1.791748046875
0.061,3.973876953125,-1.751708984375,-2.592529296875
0.0615,3.533447265625,-0.990966796875,-2.912841796875
0.062,3.653564453125,-0.510498046875,-3.513427734375
0.0625,3.012939453125,0.330322265625,-3.673583984375
0.063,2.572509765625,0.970947265625,-3.913818359375
0.0635,1.771728515625,1.931884765625,-4.073974609375
0.064,1.131103515625,2.452392578125,-3.913818359375
0.0645,0.330322265625,2.932861328125,-3.713623046875
0.065,-0.350341796875,3.373291015625,-3.553466796875
0.0655,-1.151123046875,3.573486328125,-2.912841796875
0.066,-1.871826171875,3.813720703125,-2.432373046875
0.0665,-2.672607421875,3.973876953125,-1.791748046875
0.067,-2.952880859375,3.573486328125,-1.151123046875
0.0675,-3.513427734375,3.653564453125,-0.630615234375
0.068,-3.593505859375,2.932861328125,0.250244140625
0.0685,-3.873779296875,2.532470703125,0.970947265625
0.069,-3.953857421875,1.651611328125,1.931884765625
0.0695,-3.993896484375,1.091064453125,2.532470703125
0.07,-3.633544921875,0.290283203125,2.892822265625
0.0705,-3.713623046875,-0.190185546875,3.453369140625
0.071,-3.032958984375,-1.071044921875,3.653564453125
0.0715,-2.512451171875,-1.751708984375,3.853759765625
0.072,-1.751708984375,-2.632568359375,3.973876953125
0.0725,-0.990966796875,-3.153076171875,3.653564453125
0.073,-0.310302734375,-3.753662109375,3.573486328125
0.0735,0.570556640625,-3.993896484375,3.173095703125
0.074,1.291259765625,-4.194091796875,2.612548828125
0.0745,2.052001953125,-4.354248046875,2.052001953125
0.075,2.652587890625,-4.434326171875,1.491455078125
0.0755,2.892822265625,-3.993896484375,0.810791015625
0.076,3.373291015625,-4.033935546875,0.370361328125
0.0765,3.453369140625,-3.193115234375,-0.590576171875
0.077,3.693603515625,-2.792724609375,-1.271240234375
0.0775,3.773681640625,-1.951904296875,-2.192138671875
0.078,3.653564453125,-1.391357421875,-2.592529296875
0.0785,3.453369140625,-0.710693359375,-3.072998046875
0.079,3.253173828125,-0.230224609375,-3.433349609375
0.0795,2.652587890625,0.610595703125,-3.673583984375
0.08,2.092041015625,1.331298828125,-3.833740234375
0.0805,1.451416015625,2.052001953125,-3.993896484375
0.081,0.650634765625,2.492431640625,-3.553466796875
0.0815,0.130126953125,3.173095703125,-3.673583984375
0.082,-0.790771484375,3.333251953125,-3.072998046875
0.0825,-1.431396484375,3.653564453125,-2.672607421875
0.083,-2.232177734375,3.773681640625,-2.031982421875
0.0835,-2.712646484375,3.693603515625,-1.511474609375
0.084,-3.032958984375,3.453369140625,-0.910888671875
0.0845,-3.513427734375,3.333251953125,-0.350341796875
0.085,-3.593505859375,2.532470703125,0.610595703125
0.0855,-3.833740234375,2.052001953125,1.331298828125
0.086,-3.953857421875,1.291259765625,2.212158203125
0.0865,-3.713623046875,0.690673828125,2.572509765625
0.087,-3.713623046875,0.130126953125,3.173095703125
0.0875,-3.193115234375,-0.630615234375,3.413330078125
0.088,-2.712646484375,-1.351318359375,3.693603515625
0.0885,-1.991943359375,-2.192138671875,3.773681640625
0.089,-1.431396484375,-2.872802734375,3.813720703125
0.0895,-0.590576171875,-3.193115234375,3.413330078125
0.09,0.010009765625,-3.833740234375,3.493408203125
0.0905,0.930908203125,-3.913818359375,2.692626953125
0.091,1.491455078125,-4.194091796875,2.372314453125
0.0915,2.252197265625,-4.274169921875,1.771728515625
0.092,2.612548828125,-4.073974609375,1.211181640625
0.0925,3.012939453125,-3.913818359375,0.610595703125
0.093,3.253173828125,-3.553466796875,0.010009765625
0.0935,3.453369140625,-2.872802734375,-0.910888671875
0.094,3.573486328125,-2.312255859375,-1.591552734375
0.0945,3.693603515625,-1.711669921875,-2.272216796875
0.095,3.333251953125,-1.111083984375,-2.592529296875
0.0955,3.493408203125,-0.630615234375,-3.193115234375
0.096,2.692626953125,0.050048828125,-3.353271484375
0.0965,2.492431640625,0.810791015625,-3.713623046875
0.097,1.691650390625,1.571533203125,-3.753662109375
0.0975,1.171142578125,2.212158203125,-3.713623046875
0.098,0.370361328125,2.692626953125,-3.473388671875
0.0985,-0.230224609375,3.173095703125,-3.393310546875
0.099,-1.071044921875,3.333251953125,-2.712646484375
0.0995,-1.671630859375,3.573486328125,-2.432373046875
0.1,-2.352294921875,3.693603515625,-1.831787109375
0.1005,-2.632568359375,3.373291015625,-1.271240234375
0.101,-3.193115234375,3.453369140625,-0.750732421875
0.1015,-3.353271484375,2.772705078125,0.130126953125
0.102,-3.633544921875,2.372314453125,0.890869140625
0.1025,-3.713623046875,1.571533203125,1.651611328125
0.103,-3.753662109375,1.131103515625,2.252197265625
0.1035,-3.513427734375,0.450439453125,2.652587890625
0.104,-3.553466796875,0.010009765625,3.253173828125
0.1045,-2.872802734375,-0.990966796875,3.413330078125
0.105,-2.312255859375,-1.591552734375,3.613525390625
0.1055,-1.671630859375,-2.432373046875,3.693603515625
0.106,-0.990966796875,-2.872802734375,3.533447265625
0.1065,-0.310302734375,-3.473388671875,3.413330078125
0.107,0.490478515625,-3.793701171875,3.052978515625
0.1075,1.251220703125,-3.993896484375,2.532470703125
0.108,1.851806640625,-4.154052734375,2.052001953125
0.1085,2.412353515625,-4.234130859375,1.571533203125
0.109,2.652587890625,-3.873779296875,0.930908203125
0.1095,3.213134765625,-3.873779296875,0.410400390625
0.11,3.213134765625,-2.992919921875,-0.590576171875
0.1105,3.533447265625,-2.632568359375,-1.231201171875
0.111,3.533447265625,-1.911865234375,-1.991943359375
0.1115,3.493408203125,-1.391357421875,-2.432373046875
0.112,3.293212890625,-0.790771484375,-2.912841796875
0.1125,3.133056640625,-0.310302734375,-3.273193359375
0.113,2.412353515625,0.570556640625,-3.553466796875
0.1135,1.971923828125,1.331298828125,-3.673583984375
0.114,1.331298828125,2.011962890625,-3.713623046875
0.1145,0.610595703125,2.412353515625,-3.433349609375
0.115,0.050048828125,3.012939453125,-3.513427734375
0.1155,-0.790771484375,3.173095703125,-2.832763671875
0.116,-1.471435546875,3.493408203125,-2.512451171875
0.1165,-2.072021484375,3.493408203125,-1.951904296875
0.117,-2.512451171875,3.533447265625,-1.471435546875
0.1175,-2.832763671875,3.213134765625,-0.870849609375
0.118,-3.233154296875,3.093017578125,-0.310302734375
0.1185,-3.353271484375,2.292236328125,0.650634765625
0.119,-3.673583984375,1.931884765625,1.331298828125
0.1195,-3.713623046875,1.251220703125,2.052001953125
0.12,-3.553466796875,0.650634765625,2.412353515625
0.1205,-3.553466796875,0.090087890625,3.012939453125
0.121,-3.072998046875,-0.630615234375,3.253173828125
0.1215,-2.592529296875,-1.391357421875,3.533447265625
0.122,-1.911865234375,-2.112060546875,3.573486328125
0.1225,-1.311279296875,-2.752685546875,3.693603515625
0.123,-0.510498046875,-3.193115234375,3.333251953125
0.1235,0.090087890625,-3.793701171875,3.373291015625
0.124,1.010986328125,-3.873779296875,2.572509765625
0.1245,1.611572265625,-4.194091796875,2.292236328125
0.125,2.252197265625,-4.194091796875,1.651611328125
0.1255,2.652587890625,-4.073974609375,1.131103515625
0.126,3.052978515625,-3.833740234375,0.490478515625
0.1265,3.333251953125,-3.393310546875,-0.270263671875
0.127,3.533447265625,-2.672607421875,-1.151123046875
0.1275,3.653564453125,-2.152099609375,-1.831787109375
0.128,3.653564453125,-1.591552734375,-2.512451171875
0.1285,3.293212890625,-0.950927734375,-2.832763671875
0.129,3.333251953125,-0.390380859375,-3.393310546875
0.1295,2.572509765625,0.610595703125,-3.513427734375
0.13,2.132080078125,1.291259765625,-3.793701171875
0.1305,1.331298828125,1.931884765625,-3.673583984375
0.131,0.730712890625,2.532470703125,-3.633544921875
0.1315,0.010009765625,2.892822265625,-3.273193359375
0.132,-0.630615234375,3.293212890625,-3.113037109375
0.1325,-1.551513671875,3.413330078125,-2.352294921875
0.133,-2.031982421875,3.533447265625,-1.991943359375
0.1335,-2.592529296875,3.573486328125,-1.431396484375
0.134,-2.872802734375,3.253173828125,-0.870849609375
0.1345,-3.353271484375,3.133056640625,-0.310302734375
0.135,-3.393310546875,2.372314453125,0.610595703125
0.1355,-3.673583984375,1.931884765625,1.331298828125
0.136,-3.593505859375,1.211181640625,1.931884765625
0.1365,-3.673583984375,0.730712890625,2.492431640625
0.137,-3.353271484375,0.050048828125,2.852783203125
0.1375,-3.273193359375,-0.470458984375,3.333251953125
0.138,-2.552490234375,-1.351318359375,3.493408203125
0.1385,-2.072021484375,-1.991943359375,3.693603515625
0.139,-1.311279296875,-2.672607421875,3.613525390625
0.1395,-0.670654296875,-3.153076171875,3.453369140625
0.14,0.050048828125,-3.673583984375,3.293212890625
0.1405,0.770751953125,-3.873779296875,2.812744140625
0.141,1.611572265625,-4.154052734375,2.252197265625
0.1415,2.052001953125,-4.154052734375,1.811767578125
0.142,2.692626953125,-4.194091796875,1.291259765625
0.1425,2.892822265625,-3.793701171875,0.610595703125
0.143,3.373291015625,-3.713623046875,0.050048828125
0.1435,3.413330078125,-2.752685546875,-0.990966796875
0.144,3.693603515625,-2.432373046875,-1.671630859375
0.1445,3.533447265625,-1.631591796875,-2.312255859375
0.145,3.533447265625,-1.191162109375,-2.792724609375
0.1455,3.213134765625,-0.390380859375,-3.193115234375
0.146,2.932861328125,0.250244140625,-3.553466796875
0.1465,2.252197265625,1.171142578125,-3.753662109375
0.147,1.651611328125,1.771728515625,-3.793701171875
0.1475,0.930908203125,2.412353515625,-3.753662109375
0.148,0.210205078125,2.852783203125,-3.393310546875
0.1485,-0.470458984375,3.333251953125,-3.313232421875
0.149,-1.311279296875,3.453369140625,-2.592529296875
0.1495,-2.072021484375,3.733642578125,-2.152099609375
0.15,-2.512451171875,3.533447265625,-1.551513671875
0.1505,-3.032958984375,3.613525390625,-1.071044921875
0.151,-3.273193359375,3.133056640625,-0.350341796875
0.1515,-3.633544921875,2.892822265625,0.330322265625
0.152,-3.753662109375,1.891845703125,1.411376953125
0.1525,-3.873779296875,1.411376953125,2.011962890625
0.153,-3.793701171875,0.650634765625,2.612548828125
0.1535,-3.593505859375,0.170166015625,3.052978515625
0.154,-3.353271484375,-0.590576171875,3.493408203125
0.1545,-2.752685546875,-1.311279296875,3.693603515625
0.155,-2.112060546875,-2.232177734375,3.973876953125
0.1555,-1.311279296875,-2.752685546875,3.693603515625
0.156,-0.670654296875,-3.433349609375,3.773681640625
0.1565,0.170166015625,-3.753662109375,3.213134765625
0.157,0.770751953125,-4.154052734375,3.093017578125
0.1575,1.811767578125,-4.234130859375,2.172119140625
0.158,2.412353515625,-4.434326171875,1.691650390625
0.1585,2.852783203125,-4.154052734375,1.010986328125
0.159,3.253173828125,-4.033935546875,0.570556640625
0.1595,3.493408203125,-3.553466796875,-0.270263671875
0.16,3.653564453125,-3.072998046875,-0.990966796875
0.1605,3.813720703125,-2.192138671875,-1.991943359375
0.161,3.693603515625,-1.631591796875,-2.512451171875
0.1615,3.613525390625,-0.950927734375,-3.072998046875
0.162,3.253173828125,-0.310302734375,-3.313232421875
0.1625,3.012939453125,0.330322265625,-3.713623046875
0.163,2.252197265625,1.211181640625,-3.833740234375
0.1635,1.691650390625,1.931884765625,-4.033935546875
0.164,0.850830078125,2.452392578125,-3.713623046875
0.1645,0.290283203125,3.052978515625,-3.753662109375
0.165,-0.590576171875,3.333251953125,-3.233154296875
0.1655,-1.191162109375,3.693603515625,-2.952880859375
0.166,-2.232177734375,3.853759765625,-2.112060546875
0.1665,-2.712646484375,3.853759765625,-1.631591796875
0.167,-3.193115234375,3.693603515625,-0.990966796875
0.1675,-3.513427734375,3.453369140625,-0.390380859375
0.168,-3.833740234375,2.932861328125,0.370361328125
0.1685,-3.913818359375,2.252197265625,1.251220703125
0.169,-4.154052734375,1.451416015625,2.252197265625
0.1695,-3.873779296875,0.810791015625,2.692626953125
0.17,-3.913818359375,0.210205078125,3.333251953125
0.1705,-3.473388671875,-0.590576171875,3.613525390625
0.171,-3.113037109375,-1.271240234375,3.973876953125
0.1715,-2.192138671875,-2.272216796875,4.134033203125
0.172,-1.551513671875,-3.032958984375,4.134033203125
0.1725,-0.630615234375,-3.553466796875,3.773681640625
0.173,0.130126953125,-4.114013671875,3.653564453125
0.1735,0.970947265625,-4.354248046875,3.052978515625
0.174,1.691650390625,-4.514404296875,2.532470703125
0.1745,2.732666015625,-4.714599609375,1.691650390625
0.175,3.093017578125,-4.354248046875,1.010986328125
0.1755,3.573486328125,-4.314208984375,0.490478515625
0.176,3.733642578125,-3.793701171875,-0.310302734375
0.1765,3.933837890625,-3.273193359375,-1.031005859375
0.177,3.973876953125,-2.352294921875,-2.031982421875
0.1775,4.093994140625,-1.591552734375,-2.872802734375
0.178,3.573486328125,-0.790771484375,-3.193115234375
0.1785,3.613525390625,-0.310302734375,-3.713623046875
0.179,3.012939453125,0.530517578125,-3.873779296875
0.1795,2.572509765625,1.171142578125,-4.073974609375
0.18,1.651611328125,2.212158203125,-4.274169921875
0.1805,0.930908203125,2.692626953125,-3.993896484375
0.181,0.170166015625,3.213134765625,-3.793701171875
0.1815,-0.590576171875,3.653564453125,-3.513427734375
0.182,-1.311279296875,3.813720703125,-2.952880859375
0.1825,-2.072021484375,3.893798828125,-2.312255859375
0.183,-2.992919921875,4.134033203125,-1.631591796875
0.1835,-3.233154296875,3.653564453125,-0.910888671875
0.184,-3.793701171875,3.693603515625,-0.470458984375
0.1845,-3.873779296875,3.012939453125,0.450439453125
0.185,-4.114013671875,2.532470703125,1.131103515625
0.1855,-4.154052734375,1.571533203125,2.212158203125
0.186,-4.194091796875,0.970947265625,2.852783203125
0.1865,-3.793701171875,0.130126953125,3.253173828125
0.187,-3.793701171875,-0.390380859375,3.733642578125
0.1875,-3.153076171875,-1.231201171875,3.933837890625
0.188,-2.552490234375,-1.911865234375,4.093994140625
