wavelength,x,y,z
0.0,2.532470703125,-6.276123046875,1.691650390625
0.0005,1.291259765625,-6.476318359375,3.052978515625
0.001,0.090087890625,-6.316162109375,4.134033203125
0.0015,-0.790771484375,-6.476318359375,4.974853515625
0.002,-1.631591796875,-6.156005859375,5.695556640625
0.0025,-2.712646484375,-5.315185546875,6.176025390625
0.003,-3.993896484375,-4.114013671875,6.456298828125
0.0035,-4.954833984375,-2.752685546875,6.416259765625
0.004,-5.595458984375,-1.631591796875,6.135986328125
0.0045,-5.915771484375,-0.790771484375,5.975830078125
0.005,-5.955810546875,0.210205078125,5.415283203125
0.0055,-5.795654296875,1.291259765625,4.494384765625
0.006,-5.675537109375,2.492431640625,3.453369140625
0.0065,-5.275146484375,3.493408203125,2.212158203125
0.007,-4.954833984375,4.334228515625,1.251220703125
0.0075,-4.514404296875,4.934814453125,0.370361328125
0.008,-3.713623046875,5.295166015625,-0.710693359375
0.0085,-2.592529296875,5.455322265625,-2.031982421875
0.009,-1.391357421875,5.575439453125,-3.273193359375
0.0095,-0.350341796875,5.415283203125,-4.354248046875
0.01,0.410400390625,5.655517578125,-5.114990234375
0.0105,1.331298828125,5.215087890625,-5.715576171875
0.011,2.532470703125,4.334228515625,-6.115966796875
0.0115,3.653564453125,3.173095703125,-6.396240234375
0.012,4.494384765625,1.931884765625,-6.236083984375
0.0125,5.054931640625,0.930908203125,-6.115966796875
0.013,5.335205078125,0.090087890625,-5.875732421875
0.0135,5.375244140625,-0.910888671875,-5.355224609375
0.014,5.255126953125,-1.951904296875,-4.434326171875
0.0145,5.094970703125,-3.072998046875,-3.353271484375
0.015,4.694580078125,-4.033935546875,-2.232177734375
0.0155,4.534423828125,-4.874755859375,-1.391357421875
0.016,3.973876953125,-5.395263671875,-0.510498046875
0.0165,3.173095703125,-5.755615234375,0.610595703125
0.017,2.172119140625,-6.075927734375,1.851806640625
0.0175,0.930908203125,-6.115966796875,3.012939453125
0.018,0.130126953125,-6.115966796875,3.973876953125
0.0185,-0.710693359375,-6.156005859375,4.854736328125
0.019,-1.671630859375,-5.755615234375,5.455322265625
0.0195,-2.872802734375,-4.834716796875,5.895751953125
0.02,-3.913818359375,-3.713623046875,6.095947265625
0.0205,-4.754638671875,-2.472412109375,5.935791015625
0.021,-5.315185546875,-1.631591796875,5.935791015625
0.0215,-5.555419921875,-0.790771484375,5.615478515625
0.022,-5.555419921875,0.250244140625,4.974853515625
0.0225,-5.515380859375,1.291259765625,4.134033203125
0.023,-5.315185546875,2.412353515625,3.133056640625
0.0235,-4.994873046875,3.333251953125,2.052001953125
0.024,-4.834716796875,4.134033203125,1.251220703125
0.0245,-4.274169921875,4.614501953125,0.330322265625
0.025,-3.353271484375,4.974853515625,-0.910888671875
0.0255,-2.432373046875,5.255126953125,-2.112060546875
0.026,-1.271240234375,5.255126953125,-3.193115234375
0.0265,-0.510498046875,5.495361328125,-4.154052734375
0.027,0.450439453125,5.415283203125,-4.954833984375
0.0275,1.451416015625,4.814697265625,-5.515380859375
0.028,2.612548828125,3.853759765625,-5.915771484375
0.0285,3.653564453125,2.692626953125,-6.035888671875
0.029,4.334228515625,1.611572265625,-5.915771484375
0.0295,4.854736328125,0.850830078125,-5.875732421875
0.03,5.014892578125,0.010009765625,-5.475341796875
0.0305,5.054931640625,-1.071044921875,-4.834716796875
0.031,5.014892578125,-2.152099609375,-3.993896484375
0.0315,4.774658203125,-3.193115234375,-2.952880859375
0.032,4.534423828125,-4.033935546875,-2.031982421875
0.0325,4.334228515625,-4.834716796875,-1.271240234375
0.033,3.693603515625,-5.275146484375,-0.350341796875
0.0335,2.812744140625,-5.635498046875,0.930908203125
0.034,1.771728515625,-5.795654296875,2.132080078125
0.0345,0.850830078125,-5.915771484375,3.133056640625
0.035,0.130126953125,-6.115966796875,4.093994140625
0.0355,-0.910888671875,-5.915771484375,4.814697265625
0.036,-2.031982421875,-5.195068359375,5.375244140625
0.0365,-3.153076171875,-4.274169921875,5.735595703125
0.037,-4.073974609375,-3.072998046875,5.735595703125
0.0375,-4.754638671875,-2.192138671875,5.735595703125
0.038,-5.155029296875,-1.391357421875,5.695556640625
0.0385,-5.355224609375,-0.590576171875,5.295166015625
0.039,-5.395263671875,0.570556640625,4.614501953125
0.0395,-5.315185546875,1.611572265625,3.693603515625
0.04,-5.074951171875,2.612548828125,2.692626953125
0.0405,-4.954833984375,3.533447265625,1.811767578125
0.041,-4.514404296875,4.134033203125,0.930908203125
0.0415,-3.873779296875,4.614501953125,-0.190185546875
0.042,-2.952880859375,5.094970703125,-1.391357421875
0.0425,-1.871826171875,5.175048828125,-2.552490234375
0.043,-1.031005859375,5.335205078125,-3.553466796875
0.0435,-0.270263671875,5.495361328125,-4.474365234375
0.044,0.810791015625,5.135009765625,-5.155029296875
0.0445,2.011962890625,4.334228515625,-5.675537109375
0.045,3.133056640625,3.213134765625,-5.915771484375
0.0455,3.973876953125,2.052001953125,-5.835693359375
0.046,4.574462890625,1.251220703125,-5.915771484375
0.0465,4.894775390625,0.410400390625,-5.635498046875
0.047,4.974853515625,-0.630615234375,-5.114990234375
0.0475,5.014892578125,-1.671630859375,-4.354248046875
0.048,4.854736328125,-2.752685546875,-3.313232421875
0.0485,4.614501953125,-3.753662109375,-2.392333984375
0.049,4.494384765625,-4.634521484375,-1.551513671875
0.0495,3.973876953125,-5.114990234375,-0.670654296875
0.05,3.133056640625,-5.475341796875,0.610595703125
0.0505,2.092041015625,-5.835693359375,1.771728515625
0.051,1.091064453125,-5.835693359375,2.852783203125
0.0515,0.330322265625,-6.115966796875,3.853759765625
0.052,-0.630615234375,-6.035888671875,4.694580078125
0.0525,-1.711669921875,-5.435302734375,5.295166015625
0.053,-2.952880859375,-4.514404296875,5.735595703125
0.0535,-3.993896484375,-3.313232421875,5.815673828125
0.054,-4.714599609375,-2.272216796875,5.775634765625
0.0545,-5.195068359375,-1.431396484375,5.735595703125
0.055,-5.395263671875,-0.590576171875,5.415283203125
0.0555,-5.435302734375,0.530517578125,4.654541015625
0.056,-5.435302734375,1.611572265625,3.813720703125
0.0565,-5.114990234375,2.652587890625,2.692626953125
0.057,-4.954833984375,3.533447265625,1.771728515625
0.0575,-4.594482421875,4.214111328125,0.890869140625
0.058,-3.913818359375,4.734619140625,-0.150146484375
0.0585,-2.952880859375,5.094970703125,-1.391357421875
0.059,-1.871826171875,5.295166015625,-2.672607421875
0.0595,-0.910888671875,5.335205078125,-3.633544921875
0.06,-0.190185546875,5.535400390625,-4.554443359375
0.0605,0.890869140625,5.215087890625,-5.275146484375
0.061,2.052001953125,4.334228515625,-5.795654296875
0.0615,3.213134765625,3.293212890625,-6.115966796875
0.062,4.134033203125,2.052001953125,-6.035888671875
0.0625,4.774658203125,1.131103515625,-5.955810546875
0.063,5.094970703125,0.290283203125,-5.755615234375
0.0635,5.175048828125,-0.750732421875,-5.195068359375
0.064,5.135009765625,-1.871826171875,-4.354248046875
0.0645,4.974853515625,-3.072998046875,-3.313232421875
0.065,4.654541015625,-3.993896484375,-2.272216796875
0.0655,4.494384765625,-4.834716796875,-1.431396484375
0.066,3.973876953125,-5.315185546875,-0.510498046875
0.0665,3.093017578125,-5.635498046875,0.730712890625
0.067,2.052001953125,-6.035888671875,1.971923828125
0.0675,0.930908203125,-6.035888671875,3.173095703125
0.068,0.130126953125,-6.115966796875,4.093994140625
0.0685,-0.790771484375,-6.156005859375,4.934814453125
0.069,-1.831787109375,-5.635498046875,5.575439453125
0.0695,-3.153076171875,-4.554443359375,6.015869140625
0.07,-4.234130859375,-3.353271484375,6.135986328125
0.0705,-4.994873046875,-2.192138671875,5.975830078125
0.071,-5.475341796875,-1.311279296875,5.895751953125
0.0715,-5.635498046875,-0.470458984375,5.495361328125
0.072,-5.635498046875,0.690673828125,4.774658203125
0.0725,-5.595458984375,1.811767578125,3.853759765625
0.073,-5.315185546875,2.892822265625,2.692626953125
0.0735,-4.994873046875,3.773681640625,1.611572265625
0.074,-4.674560546875,4.494384765625,0.810791015625
0.0745,-3.993896484375,4.974853515625,-0.270263671875
0.075,-2.952880859375,5.255126953125,-1.511474609375
0.0755,-1.831787109375,5.495361328125,-2.832763671875
0.076,-0.750732421875,5.455322265625,-3.873779296875
0.0765,0.050048828125,5.615478515625,-4.794677734375
0.077,0.970947265625,5.375244140625,-5.475341796875
0.0775,2.132080078125,4.574462890625,-6.035888671875
0.078,3.373291015625,3.453369140625,-6.396240234375
0.0785,4.414306640625,2.132080078125,-6.356201171875
0.079,5.014892578125,1.091064453125,-6.156005859375
0.0795,5.375244140625,0.210205078125,-5.995849609375
0.08,5.455322265625,-0.830810546875,-5.435302734375
0.0805,5.375244140625,-2.031982421875,-4.474365234375
0.081,5.255126953125,-3.273193359375,-3.393310546875
0.0815,4.894775390625,-4.314208984375,-2.272216796875
0.082,4.614501953125,-5.074951171875,-1.311279296875
0.0825,4.134033203125,-5.635498046875,-0.430419921875
0.083,3.253173828125,-5.995849609375,0.770751953125
0.0835,2.092041015625,-6.276123046875,2.172119140625
0.084,0.810791015625,-6.356201171875,3.493408203125
0.0845,-0.230224609375,-6.316162109375,4.454345703125
0.085,-0.990966796875,-6.396240234375,5.295166015625
0.0855,-2.031982421875,-5.835693359375,5.935791015625
0.086,-3.393310546875,-4.714599609375,6.416259765625
0.0865,-4.634521484375,-3.473388671875,6.656494140625
0.087,-5.435302734375,-2.072021484375,6.376220703125
0.0875,-5.915771484375,-1.111083984375,6.216064453125
0.088,-6.115966796875,-0.190185546875,5.775634765625
0.0885,-6.075927734375,0.970947265625,5.014892578125
0.089,-5.955810546875,2.252197265625,3.853759765625
0.0895,-5.675537109375,3.533447265625,2.572509765625
0.09,-5.195068359375,4.414306640625,1.411376953125
0.0905,-4.834716796875,5.135009765625,0.490478515625
0.091,-4.033935546875,5.495361328125,-0.630615234375
0.0915,-2.832763671875,5.775634765625,-1.951904296875
0.092,-1.591552734375,6.015869140625,-3.473388671875
0.0925,-0.310302734375,5.815673828125,-4.554443359375
0.093,0.610595703125,5.775634765625,-5.395263671875
0.0935,1.411376953125,5.575439453125,-6.115966796875
0.094,2.572509765625,4.734619140625,-6.596435546875
0.0945,3.973876953125,3.333251953125,-6.916748046875
0.095,5.054931640625,1.971923828125,-6.916748046875
0.0955,5.615478515625,0.690673828125,-6.476318359375
0.096,5.895751953125,-0.310302734375,-6.236083984375
0.0965,5.895751953125,-1.311279296875,-5.555419921875
0.097,5.735595703125,-2.552490234375,-4.514404296875
0.0975,5.535400390625,-3.833740234375,-3.273193359375
0.098,5.094970703125,-4.834716796875,-1.951904296875
0.0985,4.614501953125,-5.635498046875,-0.950927734375
0.099,4.134033203125,-6.156005859375,0.050048828125
0.0995,3.253173828125,-6.436279296875,1.051025390625
0.1,1.931884765625,-6.596435546875,2.532470703125
0.1005,0.610595703125,-6.676513671875,3.893798828125
0.101,-0.630615234375,-6.436279296875,4.854736328125
0.1015,-1.311279296875,-6.436279296875,5.615478515625
0.102,-2.272216796875,-6.035888671875,6.256103515625
0.1025,-3.553466796875,-4.954833984375,6.656494140625
0.103,-4.794677734375,-3.593505859375,6.896728515625
0.1035,-5.675537109375,-2.192138671875,6.696533203125
0.104,-6.156005859375,-1.031005859375,6.376220703125
0.1045,-6.356201171875,-0.230224609375,6.015869140625
0.105,-6.276123046875,0.890869140625,5.255126953125
0.1055,-6.115966796875,2.172119140625,4.134033203125
0.106,-5.835693359375,3.373291015625,2.892822265625
0.1065,-5.315185546875,4.414306640625,1.571533203125
0.107,-4.914794921875,5.094970703125,0.650634765625
0.1075,-4.314208984375,5.575439453125,-0.350341796875
0.108,-3.273193359375,5.815673828125,-1.511474609375
0.1085,-1.951904296875,6.015869140625,-3.032958984375
0.109,-0.630615234375,5.935791015625,-4.274169921875
0.1095,0.450439453125,5.775634765625,-5.155029296875
0.11,1.091064453125,5.815673828125,-5.915771484375
0.1105,2.172119140625,5.135009765625,-6.436279296875
0.111,3.493408203125,3.933837890625,-6.836669921875
0.1115,4.614501953125,2.612548828125,-6.996826171875
0.112,5.415283203125,1.251220703125,-6.636474609375
0.1125,5.775634765625,0.170166015625,-6.396240234375
0.113,5.935791015625,-0.790771484375,-5.915771484375
0.1135,5.815673828125,-1.831787109375,-5.114990234375
0.114,5.655517578125,-3.153076171875,-3.913818359375
0.1145,5.375244140625,-4.314208984375,-2.672607421875
0.115,4.814697265625,-5.195068359375,-1.431396484375
0.1155,4.494384765625,-5.915771484375,-0.590576171875
0.116,3.733642578125,-6.276123046875,0.490478515625
0.1165,2.572509765625,-6.516357421875,1.771728515625
0.117,1.291259765625,-6.716552734375,3.253173828125
0.1175,-0.150146484375,-6.516357421875,4.414306640625
0.118,-0.950927734375,-6.516357421875,5.255126953125
0.1185,-1.711669921875,-6.356201171875,5.975830078125
0.119,-2.872802734375,-5.555419921875,6.536376953125
0.1195,-4.234130859375,-4.194091796875,6.856689453125
0.12,-5.355224609375,-2.832763671875,6.856689453125
0.1205,-5.955810546875,-1.551513671875,6.456298828125
0.121,-6.356201171875,-0.630615234375,6.256103515625
0.1215,-6.396240234375,0.490478515625,5.655517578125
0.122,-6.236083984375,1.731689453125,4.614501953125
0.1225,-6.075927734375,3.012939453125,3.373291015625
0.123,-5.635498046875,4.134033203125,2.052001953125
0.1235,-5.114990234375,4.934814453125,0.970947265625
0.124,-4.634521484375,5.575439453125,0.010009765625
0.1245,-3.753662109375,5.895751953125,-1.151123046875
0.125,-2.352294921875,6.095947265625,-2.632568359375
0.1255,-1.031005859375,6.135986328125,-4.073974609375
0.126,0.290283203125,5.895751953125,-5.114990234375
0.1265,0.970947265625,5.935791015625,-5.915771484375
0.127,1.931884765625,5.455322265625,-6.516357421875
0.1275,3.253173828125,4.334228515625,-6.996826171875
0.128,4.534423828125,2.972900390625,-7.156982421875
0.1285,5.455322265625,1.411376953125,-6.956787109375
0.129,5.935791015625,0.250244140625,-6.596435546875
0.1295,6.135986328125,-0.750732421875,-6.196044921875
0.13,6.055908203125,-1.791748046875,-5.395263671875
0.1305,5.855712890625,-3.072998046875,-4.154052734375
0.131,5.575439453125,-4.354248046875,-2.872802734375
0.1315,5.054931640625,-5.315185546875,-1.551513671875
0.132,4.534423828125,-5.995849609375,-0.590576171875
0.1325,3.893798828125,-6.436279296875,0.490478515625
0.133,2.812744140625,-6.636474609375,1.651611328125
0.1335,1.411376953125,-6.796630859375,3.173095703125
0.134,0.010009765625,-6.636474609375,4.454345703125
0.1345,-0.990966796875,-6.476318359375,5.255126953125
0.135,-1.671630859375,-6.396240234375,5.975830078125
0.1355,-2.752685546875,-5.715576171875,6.496337890625
0.136,-4.114013671875,-4.474365234375,6.856689453125
0.1365,-5.195068359375,-3.193115234375,6.896728515625
0.137,-5.915771484375,-1.751708984375,6.536376953125
0.1375,-6.276123046875,-0.790771484375,6.256103515625
0.138,-6.356201171875,0.250244140625,5.735595703125
0.1385,-6.196044921875,1.291259765625,4.974853515625
0.139,-6.035888671875,2.532470703125,3.813720703125
0.1395,-5.675537109375,3.693603515625,2.532470703125
0.14,-5.114990234375,4.534423828125,1.291259765625
0.1405,-4.754638671875,5.215087890625,0.450439453125
0.141,-3.993896484375,5.575439453125,-0.630615234375
0.1415,-2.872802734375,5.735595703125,-1.871826171875
0.142,-1.671630859375,5.975830078125,-3.233154296875
0.1425,-0.390380859375,5.735595703125,-4.354248046875
0.143,0.530517578125,5.735595703125,-5.195068359375
0.1435,1.251220703125,5.615478515625,-5.915771484375
0.144,2.292236328125,4.974853515625,-6.436279296875
0.1445,3.573486328125,3.693603515625,-6.756591796875
0.145,4.654541015625,2.332275390625,-6.756591796875
0.1455,5.295166015625,1.051025390625,-6.476318359375
0.146,5.695556640625,0.210205078125,-6.276123046875
0.1465,5.735595703125,-0.790771484375,-5.755615234375
0.147,5.655517578125,-1.871826171875,-4.874755859375
0.1475,5.495361328125,-3.072998046875,-3.833740234375
0.148,5.135009765625,-4.194091796875,-2.592529296875
0.1485,4.734619140625,-5.034912109375,-1.511474609375
0.149,4.454345703125,-5.755615234375,-0.670654296875
0.1495,3.693603515625,-6.115966796875,0.410400390625
0.15,2.532470703125,-6.356201171875,1.731689453125
0.1505,1.251220703125,-6.476318359375,3.093017578125
0.151,0.090087890625,-6.356201171875,4.134033203125
0.1515,-0.710693359375,-6.436279296875,5.054931640625
0.152,-1.591552734375,-6.156005859375,5.735595703125
0.1525,-2.832763671875,-5.315185546875,6.256103515625
0.153,-4.114013671875,-4.154052734375,6.536376953125
0.1535,-5.074951171875,-2.792724609375,6.416259765625
0.154,-5.675537109375,-1.591552734375,6.216064453125
0.1545,-5.955810546875,-0.750732421875,6.015869140625
0.155,-6.035888671875,0.290283203125,5.455322265625
0.1555,-5.915771484375,1.411376953125,4.494384765625
0.156,-5.755615234375,2.652587890625,3.373291015625
0.1565,-5.315185546875,3.693603515625,2.092041015625
0.157,-4.994873046875,4.494384765625,1.171142578125
0.1575,-4.514404296875,5.054931640625,0.290283203125
0.158,-3.633544921875,5.375244140625,-0.910888671875
0.1585,-2.432373046875,5.655517578125,-2.272216796875
0.159,-1.231201171875,5.655517578125,-3.553466796875
0.1595,-0.270263671875,5.615478515625,-4.474365234375
0.16,0.570556640625,5.695556640625,-5.315185546875
0.1605,1.531494140625,5.175048828125,-5.835693359375
0.161,2.772705078125,4.134033203125,-6.316162109375
0.1615,3.853759765625,2.892822265625,-6.556396484375
0.162,4.734619140625,1.651611328125,-6.276123046875
0.1625,5.255126953125,0.690673828125,-6.156005859375
0.163,5.415283203125,-0.230224609375,-5.795654296875
0.1635,5.415283203125,-1.151123046875,-5.195068359375
0.164,5.295166015625,-2.272216796875,-4.194091796875
0.1645,5.094970703125,-3.433349609375,-3.113037109375
0.165,4.694580078125,-4.314208984375,-1.991943359375
0.1655,4.494384765625,-5.114990234375,-1.151123046875
0.166,3.893798828125,-5.595458984375,-0.310302734375
0.1665,2.932861328125,-5.875732421875,0.930908203125
0.167,1.931884765625,-6.156005859375,2.212158203125
0.1675,0.690673828125,-6.075927734375,3.333251953125
0.168,-0.150146484375,-6.196044921875,4.214111328125
0.1685,-0.910888671875,-6.196044921875,5.054931640625
0.169,-1.911865234375,-5.715576171875,5.615478515625
0.1695,-3.193115234375,-4.714599609375,6.015869140625
0.17,-4.194091796875,-3.473388671875,6.135986328125
0.1705,-4.954833984375,-2.272216796875,5.975830078125
0.171,-5.435302734375,-1.431396484375,5.935791015625
0.1715,-5.635498046875,-0.630615234375,5.615478515625
0.172,-5.635498046875,0.450439453125,4.894775390625
0.1725,-5.595458984375,1.531494140625,4.093994140625
0.173,-5.315185546875,2.612548828125,2.932861328125
0.1735,-5.034912109375,3.493408203125,1.971923828125
0.174,-4.794677734375,4.294189453125,1.131103515625
0.1745,-4.234130859375,4.814697265625,0.250244140625
0.175,-3.233154296875,5.094970703125,-1.071044921875
0.1755,-2.192138671875,5.415283203125,-2.352294921875
0.176,-1.151123046875,5.375244140625,-3.393310546875
0.1765,-0.390380859375,5.575439453125,-4.354248046875
0.177,0.570556640625,5.415283203125,-5.114990234375
0.1775,1.611572265625,4.774658203125,-5.675537109375
0.178,2.852783203125,3.813720703125,-6.075927734375
0.1785,3.853759765625,2.532470703125,-6.115966796875
0.179,4.494384765625,1.531494140625,-5.995849609375
0.1795,4.974853515625,0.690673828125,-5.915771484375
0.18,5.094970703125,-0.190185546875,-5.515380859375
0.1805,5.094970703125,-1.231201171875,-4.794677734375
0.181,5.094970703125,-2.352294921875,-3.913818359375
0.1815,4.814697265625,-3.353271484375,-2.832763671875
0.182,4.614501953125,-4.234130859375,-1.951904296875
0.1825,4.294189453125,-4.954833984375,-1.151123046875
0.183,3.613525390625,-5.395263671875,0.010009765625
0.1835,2.692626953125,-5.755615234375,1.171142578125
0.184,1.571533203125,-5.915771484375,2.412353515625
0.1845,0.650634765625,-5.995849609375,3.333251953125
0.185,0.010009765625,-6.236083984375,4.294189453125
0.1855,-1.151123046875,-5.915771484375,4.974853515625
0.186,-2.272216796875,-5.114990234375,5.495361328125
0.1865,-3.393310546875,-4.154052734375,5.895751953125
0.187,-4.274169921875,-2.912841796875,5.775634765625
0.1875,-4.914794921875,-1.991943359375,5.815673828125
0.188,-5.275146484375,-1.231201171875,5.655517578125
