wavelength,x,y,z
0.0,-21.611083984375,21.390869140625,-0.310302734375
0.0005,-23.212646484375,18.548095703125,4.174072265625
0.001,-24.093505859375,14.744384765625,8.938720703125
0.0015,-23.893310546875,10.980712890625,12.502197265625
0.002,-23.212646484375,6.656494140625,16.305908203125
0.0025,-22.291748046875,3.533447265625,18.508056640625
0.003,-20.049560546875,-1.711669921875,21.390869140625
0.0035,-17.567138671875,-6.556396484375,23.753173828125
0.004,-12.762451171875,-10.960693359375,23.352783203125
0.0045,-9.559326171875,-14.764404296875,23.993408203125
0.005,-4.994873046875,-17.767333984375,22.471923828125
0.0055,-0.470458984375,-20.449951171875,20.750244140625
0.006,4.053955078125,-22.291748046875,18.187744140625
0.0065,9.459228515625,-24.133544921875,14.744384765625
0.007,12.982666015625,-23.412841796875,10.540283203125
0.0075,16.986572265625,-23.773193359375,6.896728515625
0.008,19.228759765625,-22.491943359375,3.373291015625
0.0085,22.111572265625,-20.650146484375,-1.471435546875
0.009,23.552978515625,-17.807373046875,-5.835693359375
0.0095,23.833251953125,-13.603271484375,-10.400146484375
0.01,23.953369140625,-10.159912109375,-13.843505859375
0.0105,22.912353515625,-5.755615234375,-17.286865234375
0.011,21.510986328125,-2.031982421875,-19.569091796875
0.0115,19.308837890625,2.812744140625,-22.171630859375
0.012,16.065673828125,8.017822265625,-24.213623046875
0.0125,11.301025390625,12.061767578125,-23.452880859375
0.013,8.137939453125,15.785400390625,-24.053466796875
0.0135,3.653564453125,18.387939453125,-22.171630859375
0.014,-1.271240234375,21.310791015625,-20.369873046875
0.0145,-5.635498046875,22.792236328125,-17.607177734375
0.015,-11.040771484375,24.273681640625,-13.643310546875
0.0155,-14.323974609375,23.593017578125,-9.799560546875
0.016,-18.167724609375,23.593017578125,-5.995849609375
0.0165,-20.209716796875,21.911376953125,-2.272216796875
0.017,-22.892333984375,19.829345703125,2.572509765625
0.0175,-23.893310546875,16.345947265625,7.096923828125
0.018,-23.773193359375,11.861572265625,11.541259765625
0.0185,-24.013427734375,8.858642578125,14.784423828125
0.019,-22.612060546875,4.294189453125,17.987548828125
0.0195,-21.010498046875,0.090087890625,20.590087890625
0.02,-18.568115234375,-4.514404296875,22.752197265625
0.0205,-14.804443359375,-9.999755859375,24.433837890625
0.021,-9.959716796875,-13.683349609375,23.312744140625
0.0215,-6.716552734375,-17.286865234375,23.673095703125
0.022,-1.911865234375,-19.569091796875,21.270751953125
0.0225,2.932861328125,-22.411865234375,19.388916015625
0.023,7.377197265625,-23.292724609375,15.865478515625
0.0235,12.502197265625,-24.373779296875,11.981689453125
0.024,15.745361328125,-23.773193359375,8.177978515625
0.0245,19.428955078125,-23.292724609375,3.893798828125
0.025,21.470947265625,-21.290771484375,-0.190185546875
0.0255,23.713134765625,-19.088623046875,-4.714599609375
0.026,24.353759765625,-15.124755859375,-9.239013671875
0.0265,23.873291015625,-10.560302734375,-13.403076171875
0.027,24.033447265625,-7.717529296875,-16.406005859375
0.0275,21.951416015625,-2.712646484375,-19.368896484375
0.028,20.229736328125,1.771728515625,-22.091552734375
0.0285,17.186767578125,6.256103515625,-23.452880859375
0.029,13.383056640625,11.461181640625,-24.854248046875
0.0295,8.458251953125,14.984619140625,-23.572998046875
0.03,4.854736328125,18.427978515625,-23.452880859375
0.0305,0.010009765625,20.550048828125,-20.810302734375
0.031,-4.754638671875,23.352783203125,-18.968505859375
0.0315,-9.319091796875,23.593017578125,-14.724365234375
0.032,-13.843505859375,24.233642578125,-10.880615234375
0.0325,-16.846435546875,23.913330078125,-7.637451171875
0.033,-20.249755859375,22.592041015625,-2.912841796875
0.0335,-22.211669921875,20.389892578125,1.291259765625
0.034,-23.853271484375,17.707275390625,5.735595703125
0.0345,-24.333740234375,13.623291015625,10.300048828125
0.035,-23.572998046875,8.978759765625,14.223876953125
0.0355,-23.693115234375,6.296142578125,17.106689453125
0.036,-21.290771484375,1.251220703125,19.789306640625
0.0365,-19.729248046875,-3.193115234375,22.592041015625
0.037,-15.805419921875,-7.757568359375,23.192626953125
0.0375,-12.121826171875,-12.562255859375,24.353759765625
0.038,-7.637451171875,-15.885498046875,23.152587890625
0.0385,-3.473388671875,-19.088623046875,22.271728515625
0.039,1.291259765625,-21.010498046875,19.589111328125
0.0395,6.015869140625,-23.572998046875,17.507080078125
0.04,10.540283203125,-23.572998046875,13.062744140625
0.0405,14.744384765625,-23.813232421875,9.058837890625
0.041,17.547119140625,-23.693115234375,6.256103515625
0.0415,20.630126953125,-21.931396484375,1.291259765625
0.042,22.632080078125,-19.609130859375,-2.952880859375
0.0425,23.673095703125,-16.486083984375,-7.156982421875
0.043,24.153564453125,-12.682373046875,-11.521240234375
0.0435,23.112548828125,-8.117919921875,-15.124755859375
0.044,22.912353515625,-5.074951171875,-17.967529296875
0.0445,20.349853515625,0.010009765625,-20.449951171875
0.045,18.748291015625,4.574462890625,-23.372802734375
0.0455,14.183837890625,9.018798828125,-23.332763671875
0.046,10.540283203125,13.503173828125,-24.133544921875
0.0465,6.696533203125,16.466064453125,-23.252685546875
0.047,1.931884765625,19.509033203125,-21.691162109375
0.0475,-2.592529296875,21.470947265625,-19.168701171875
0.048,-7.557373046875,23.552978515625,-16.486083984375
0.0485,-11.681396484375,23.593017578125,-12.442138671875
0.049,-15.725341796875,23.432861328125,-8.278076171875
0.0495,-18.287841796875,23.152587890625,-5.475341796875
0.05,-21.090576171875,21.110595703125,-0.590576171875
0.0505,-23.132568359375,18.788330078125,3.933837890625
0.051,-23.372802734375,14.744384765625,8.218017578125
0.0515,-24.053466796875,11.260986328125,12.462158203125
0.052,-22.932373046875,6.976806640625,15.665283203125
0.0525,-22.291748046875,3.453369140625,18.508056640625
0.053,-19.849365234375,-1.351318359375,20.830322265625
0.0535,-17.647216796875,-6.316162109375,23.633056640625
0.054,-12.962646484375,-10.560302734375,23.112548828125
0.0545,-9.158935546875,-14.764404296875,23.633056640625
0.055,-5.595458984375,-17.326904296875,22.632080078125
0.0555,-0.510498046875,-20.329833984375,20.630126953125
0.056,3.933837890625,-22.091552734375,18.147705078125
0.0565,9.098876953125,-23.653076171875,14.424072265625
0.057,12.822509765625,-23.693115234375,10.940673828125
0.0575,16.706298828125,-23.372802734375,6.656494140625
0.058,19.148681640625,-22.572021484375,3.573486328125
0.0585,21.751220703125,-20.329833984375,-1.351318359375
0.059,23.713134765625,-17.807373046875,-5.915771484375
0.0595,23.232666015625,-13.322998046875,-9.959716796875
0.06,23.993408203125,-10.159912109375,-13.923583984375
0.0605,22.712158203125,-6.035888671875,-16.726318359375
0.061,21.430908203125,-1.871826171875,-19.649169921875
0.0615,18.988525390625,2.732666015625,-21.771240234375
0.062,15.985595703125,7.937744140625,-24.013427734375
0.0625,11.541259765625,11.741455078125,-23.372802734375
0.063,7.617431640625,15.865478515625,-23.572998046875
0.0635,4.053955078125,17.987548828125,-22.291748046875
0.064,-1.231201171875,20.990478515625,-20.089599609375
0.0645,-5.635498046875,22.672119140625,-17.487060546875
0.065,-10.600341796875,23.392822265625,-13.322998046875
0.0655,-14.043701171875,23.633056640625,-10.199951171875
0.066,-17.647216796875,22.992431640625,-5.915771484375
0.0665,-19.889404296875,21.791259765625,-2.472412109375
0.067,-22.131591796875,19.468994140625,2.252197265625
0.0675,-23.773193359375,16.345947265625,7.016845703125
0.068,-22.932373046875,11.741455078125,10.860595703125
0.0685,-23.613037109375,8.658447265625,14.624267578125
0.069,-22.251708984375,4.854736328125,17.026611328125
0.0695,-20.770263671875,0.370361328125,20.069580078125
0.07,-18.247802734375,-4.033935546875,21.911376953125
0.0705,-14.564208984375,-9.359130859375,23.552978515625
0.071,-10.440185546875,-12.842529296875,22.992431640625
0.0715,-6.436279296875,-16.686279296875,22.792236328125
0.072,-2.632568359375,-18.568115234375,20.990478515625
0.0725,2.292236328125,-21.370849609375,18.948486328125
0.073,6.976806640625,-22.932373046875,15.905517578125
0.0735,11.501220703125,-23.092529296875,11.581298828125
0.074,14.944580078125,-23.532958984375,8.698486328125
0.0745,18.107666015625,-22.411865234375,4.414306640625
0.075,20.469970703125,-21.010498046875,0.650634765625
0.0755,22.271728515625,-18.608154296875,-3.673583984375
0.076,23.673095703125,-15.204833984375,-8.518310546875
0.0765,22.752197265625,-10.800537109375,-12.081787109375
0.077,23.232666015625,-7.677490234375,-15.685302734375
0.0775,21.470947265625,-3.753662109375,-17.807373046875
0.078,19.989501953125,0.970947265625,-21.050537109375
0.0785,16.946533203125,5.495361328125,-22.531982421875
0.079,13.022705078125,10.500244140625,-23.572998046875
0.0795,9.339111328125,13.823486328125,-23.332763671875
0.08,5.094970703125,17.386962890625,-22.612060546875
0.0805,0.970947265625,19.348876953125,-20.650146484375
0.081,-3.593505859375,21.871337890625,-18.648193359375
0.0815,-8.718505859375,23.232666015625,-15.004638671875
0.082,-12.842529296875,23.032470703125,-10.680419921875
0.0825,-16.165771484375,23.673095703125,-8.037841796875
0.083,-19.048583984375,21.951416015625,-3.513427734375
0.0835,-21.531005859375,20.349853515625,0.690673828125
0.084,-22.692138671875,17.467041015625,4.774658203125
0.0845,-23.853271484375,13.703369140625,9.739501953125
0.085,-22.932373046875,9.379150390625,13.182861328125
0.0855,-23.132568359375,6.135986328125,16.706298828125
0.086,-21.010498046875,1.971923828125,18.708251953125
0.0865,-19.529052734375,-2.712646484375,21.871337890625
0.087,-15.725341796875,-7.437255859375,22.832275390625
0.0875,-11.601318359375,-12.121826171875,23.392822265625
0.088,-8.278076171875,-15.284912109375,23.272705078125
0.0885,-3.473388671875,-18.568115234375,21.751220703125
0.089,0.930908203125,-20.650146484375,19.509033203125
0.0895,5.375244140625,-22.652099609375,17.226806640625
0.09,10.420166015625,-23.693115234375,13.302978515625
0.0905,14.303955078125,-23.052490234375,8.818603515625
0.091,17.587158203125,-23.653076171875,6.216064453125
0.0915,20.149658203125,-21.490966796875,1.411376953125
0.092,22.672119140625,-19.689208984375,-2.952880859375
0.0925,23.112548828125,-16.245849609375,-6.916748046875
0.093,24.033447265625,-12.522216796875,-11.601318359375
0.0935,23.112548828125,-8.478271484375,-14.764404296875
0.094,22.712158203125,-4.634521484375,-18.207763671875
0.0945,20.309814453125,-0.270263671875,-20.169677734375
0.095,18.548095703125,4.494384765625,-23.092529296875
0.0955,14.223876953125,9.218994140625,-23.572998046875
0.096,9.899658203125,13.583251953125,-23.613037109375
0.0965,6.896728515625,16.506103515625,-23.653076171875
0.097,1.571533203125,19.549072265625,-21.410888671875
0.0975,-2.872802734375,21.631103515625,-19.248779296875
0.098,-7.397216796875,23.072509765625,-16.165771484375
0.0985,-12.001708984375,24.073486328125,-12.602294921875
0.099,-15.685302734375,23.192626953125,-8.037841796875
0.0995,-18.728271484375,23.312744140625,-5.114990234375
0.1,-21.010498046875,20.870361328125,-0.390380859375
0.1005,-23.492919921875,18.828369140625,4.214111328125
0.101,-23.212646484375,14.584228515625,8.298095703125
0.1015,-24.013427734375,10.860595703125,12.782470703125
0.102,-23.212646484375,7.217041015625,15.665283203125
0.1025,-22.171630859375,2.892822265625,18.948486328125
0.103,-19.809326171875,-1.471435546875,20.950439453125
0.1035,-17.447021484375,-6.276123046875,23.352783203125
0.104,-13.162841796875,-10.840576171875,23.673095703125
0.1045,-8.598388671875,-15.004638671875,23.232666015625
0.105,-5.715576171875,-17.647216796875,22.992431640625
0.1055,-0.190185546875,-20.409912109375,20.389892578125
0.106,4.294189453125,-22.572021484375,18.227783203125
0.1065,9.018798828125,-23.212646484375,14.183837890625
0.107,13.182861328125,-24.133544921875,11.020751953125
0.1075,16.786376953125,-23.252685546875,6.576416015625
0.108,19.749267578125,-22.772216796875,3.133056640625
0.1085,21.831298828125,-20.209716796875,-1.591552734375
0.109,24.153564453125,-17.967529296875,-6.156005859375
0.1095,23.472900390625,-13.443115234375,-10.119873046875
0.11,24.073486328125,-9.679443359375,-14.484130859375
0.1105,23.272705078125,-6.356201171875,-17.006591796875
0.111,21.551025390625,-1.431396484375,-20.249755859375
0.1115,19.148681640625,3.093017578125,-22.331787109375
0.112,15.825439453125,8.137939453125,-23.973388671875
0.1125,11.861572265625,12.221923828125,-24.293701171875
0.113,7.136962890625,16.345947265625,-23.653076171875
0.1135,3.853759765625,18.668212890625,-22.812255859375
0.114,-1.631591796875,21.470947265625,-20.129638671875
0.1145,-6.396240234375,23.713134765625,-17.727294921875
0.115,-11.160888671875,23.673095703125,-13.002685546875
0.1155,-15.004638671875,24.473876953125,-9.999755859375
0.116,-18.367919921875,23.432861328125,-5.635498046875
0.1165,-21.130615234375,22.351806640625,-1.751708984375
0.117,-22.932373046875,19.509033203125,2.932861328125
0.1175,-24.734130859375,16.466064453125,7.897705078125
0.118,-23.853271484375,11.821533203125,11.661376953125
0.1185,-24.173583984375,7.977783203125,15.825439453125
0.119,-23.132568359375,4.734619140625,18.067626953125
0.1195,-21.130615234375,-0.590576171875,21.350830078125
0.12,-18.447998046875,-5.155029296875,23.312744140625
0.1205,-14.243896484375,-10.360107421875,24.233642578125
0.121,-10.560302734375,-14.123779296875,24.353759765625
0.1215,-5.755615234375,-17.927490234375,23.392822265625
0.122,-1.871826171875,-20.169677734375,21.791259765625
0.1225,3.293212890625,-22.531982421875,19.228759765625
0.123,8.458251953125,-24.573974609375,16.145751953125
0.1235,12.822509765625,-24.013427734375,11.260986328125
0.124,16.666259765625,-24.734130859375,8.177978515625
0.1245,19.709228515625,-23.332763671875,3.733642578125
0.125,22.511962890625,-21.851318359375,-0.630615234375
0.1255,23.873291015625,-18.928466796875,-4.954833984375
0.126,25.274658203125,-15.244873046875,-10.079833984375
0.1265,24.353759765625,-10.840576171875,-13.603271484375
0.127,24.313720703125,-6.836669921875,-17.567138671875
0.1275,22.632080078125,-3.072998046875,-19.609130859375
0.128,20.590087890625,2.212158203125,-22.892333984375
0.1285,17.306884765625,7.056884765625,-24.493896484375
0.129,12.662353515625,12.021728515625,-24.774169921875
0.1295,9.218994140625,15.585205078125,-24.974365234375
0.13,4.134033203125,19.188720703125,-23.532958984375
0.1305,-0.310302734375,21.470947265625,-21.490966796875
0.131,-4.954833984375,23.512939453125,-18.928466796875
0.1315,-10.440185546875,25.194580078125,-15.204833984375
0.132,-14.404052734375,24.273681640625,-10.400146484375
0.1325,-18.167724609375,24.914306640625,-7.317138671875
0.133,-20.890380859375,22.912353515625,-2.592529296875
0.1335,-23.572998046875,21.110595703125,2.052001953125
0.134,-24.373779296875,17.667236328125,6.256103515625
0.1345,-25.334716796875,13.503173828125,11.461181640625
0.135,-24.533935546875,9.339111328125,14.824462890625
0.1355,-24.173583984375,5.215087890625,18.548095703125
0.136,-22.091552734375,1.211181640625,20.550048828125
0.1365,-20.129638671875,-3.833740234375,23.512939453125
0.137,-16.165771484375,-8.998779296875,24.674072265625
0.1375,-11.281005859375,-13.603271484375,24.473876953125
0.138,-7.997802734375,-16.966552734375,24.674072265625
0.1385,-2.632568359375,-20.169677734375,22.592041015625
0.139,1.971923828125,-22.451904296875,20.389892578125
0.1395,6.456298828125,-24.013427734375,17.547119140625
0.14,11.941650390625,-25.374755859375,13.503173828125
0.1405,15.665283203125,-24.213623046875,8.658447265625
0.141,19.348876953125,-24.734130859375,5.495361328125
0.1415,21.751220703125,-22.411865234375,0.770751953125
0.142,24.393798828125,-20.449951171875,-3.993896484375
0.1425,24.674072265625,-16.566162109375,-8.157958984375
0.143,25.274658203125,-12.322021484375,-13.042724609375
0.1435,24.593994140625,-8.478271484375,-16.205810546875
0.144,23.673095703125,-3.873779296875,-19.849365234375
0.1445,21.270751953125,0.490478515625,-21.811279296875
0.145,18.988525390625,5.375244140625,-24.413818359375
0.1455,14.704345703125,10.620361328125,-25.254638671875
0.146,9.619384765625,14.864501953125,-24.573974609375
0.1465,6.576416015625,18.067626953125,-24.854248046875
0.147,0.890869140625,21.110595703125,-22.171630859375
0.1475,-3.833740234375,23.472900390625,-20.049560546875
0.148,-8.398193359375,24.393798828125,-16.406005859375
0.1485,-13.483154296875,25.594970703125,-12.602294921875
0.149,-17.046630859375,24.393798828125,-7.917724609375
0.1495,-20.570068359375,24.353759765625,-4.354248046875
0.15,-22.612060546875,21.791259765625,0.410400390625
0.1505,-25.134521484375,19.509033203125,5.175048828125
0.151,-24.814208984375,14.904541015625,9.459228515625
0.1515,-25.134521484375,10.620361328125,14.183837890625
0.152,-24.573974609375,7.217041015625,17.026611328125
0.1525,-23.052490234375,2.132080078125,20.469970703125
0.153,-20.690185546875,-2.272216796875,22.552001953125
0.1535,-17.767333984375,-7.357177734375,24.433837890625
0.154,-13.443115234375,-12.161865234375,25.274658203125
0.1545,-8.278076171875,-16.285888671875,24.193603515625
0.155,-5.155029296875,-19.168701171875,24.073486328125
0.1555,0.690673828125,-21.891357421875,21.110595703125
0.156,5.375244140625,-24.293701171875,18.948486328125
0.1565,10.139892578125,-24.413818359375,14.343994140625
0.157,14.704345703125,-25.454833984375,10.900634765625
0.1575,18.147705078125,-24.413818359375,6.416259765625
0.158,21.470947265625,-23.733154296875,2.412353515625
0.1585,23.352783203125,-21.010498046875,-2.312255859375
0.159,25.554931640625,-18.528076171875,-7.036865234375
0.1595,24.914306640625,-13.803466796875,-11.160888671875
0.16,24.994384765625,-9.439208984375,-15.685302734375
0.1605,24.353759765625,-6.356201171875,-18.247802734375
0.161,22.271728515625,-0.790771484375,-21.611083984375
0.1615,19.789306640625,3.773681640625,-23.693115234375
0.162,15.985595703125,8.858642578125,-24.894287109375
0.1625,12.141845703125,13.343017578125,-25.574951171875
0.163,6.896728515625,17.306884765625,-24.333740234375
0.1635,3.493408203125,20.029541015625,-23.693115234375
0.164,-2.192138671875,22.552001953125,-20.730224609375
0.1645,-7.076904296875,25.034423828125,-18.407958984375
0.165,-11.801513671875,24.553955078125,-13.322998046875
0.1655,-16.005615234375,25.354736328125,-9.959716796875
0.166,-19.128662109375,24.353759765625,-5.795654296875
0.1665,-22.251708984375,23.072509765625,-1.351318359375
0.167,-23.933349609375,20.149658203125,3.333251953125
0.1675,-25.614990234375,16.906494140625,8.298095703125
0.168,-24.934326171875,12.302001953125,12.302001953125
0.1685,-24.654052734375,7.857666015625,16.546142578125
0.169,-24.053466796875,4.774658203125,18.908447265625
0.1695,-21.611083984375,-0.910888671875,22.071533203125
0.17,-19.168701171875,-5.595458984375,24.393798828125
0.1705,-14.404052734375,-10.760498046875,24.794189453125
0.171,-10.880615234375,-14.764404296875,25.314697265625
0.1715,-5.755615234375,-18.447998046875,23.953369140625
0.172,-1.671630859375,-21.090576171875,22.511962890625
0.1725,3.493408203125,-23.212646484375,19.669189453125
0.173,8.858642578125,-25.494873046875,16.666259765625
0.1735,13.102783203125,-24.614013671875,11.541259765625
0.174,17.346923828125,-25.254638671875,8.017822265625
0.1745,20.189697265625,-23.973388671875,3.973876953125
0.175,23.192626953125,-22.331787109375,-0.790771484375
0.1755,24.553955078125,-19.328857421875,-5.235107421875
0.176,25.675048828125,-15.445068359375,-10.280029296875
0.1765,24.994384765625,-11.281005859375,-13.963623046875
0.177,24.513916015625,-6.716552734375,-17.967529296875
0.1775,23.072509765625,-3.353271484375,-20.089599609375
0.178,20.870361328125,2.292236328125,-23.212646484375
0.1785,17.787353515625,7.377197265625,-25.254638671875
0.179,12.662353515625,12.181884765625,-24.974365234375
0.1795,9.259033203125,16.065673828125,-25.454833984375
0.18,4.294189453125,19.388916015625,-23.853271484375
0.1805,-0.390380859375,22.071533203125,-22.011474609375
