wavelength,x,y,z
0.0,-8.7135009765625,6.1009521484375,2.3773193359375
0.0005,-9.1138916015625,4.9398193359375,3.8988037109375
0.001,-8.8336181640625,3.3782958984375,5.0999755859375
0.0015,-8.4332275390625,1.6966552734375,6.4212646484375
0.002,-7.7125244140625,0.1751708984375,7.3021240234375
0.0025,-6.7515869140625,-1.7066650390625,8.1429443359375
0.003,-5.3902587890625,-3.7486572265625,8.8236083984375
0.0035,-3.7086181640625,-5.1900634765625,8.6234130859375
0.004,-2.1070556640625,-6.5513916015625,8.4632568359375
0.0045,-0.7857666015625,-7.5523681640625,8.1429443359375
0.005,0.8157958984375,-8.3931884765625,7.5023193359375
0.0055,2.5374755859375,-9.1138916015625,6.4613037109375
0.006,4.0989990234375,-9.5543212890625,5.4202880859375
0.0065,5.1400146484375,-9.1539306640625,4.0189208984375
0.007,6.3812255859375,-8.9537353515625,2.6575927734375
0.0075,7.1019287109375,-8.2730712890625,1.2562255859375
0.008,7.9427490234375,-7.4722900390625,-0.5054931640625
0.0085,8.6234130859375,-6.4713134765625,-2.1070556640625
0.009,8.8236083984375,-5.3902587890625,-3.5084228515625
0.0095,8.7034912109375,-3.8687744140625,-4.8697509765625
0.01,8.1829833984375,-2.2672119140625,-5.9508056640625
0.0105,7.6224365234375,-0.6256103515625,-6.9918212890625
0.011,6.6614990234375,1.2562255859375,-7.8326416015625
0.0115,5.5003662109375,3.0579833984375,-8.5133056640625
0.012,3.8587646484375,4.4193115234375,-8.2730712890625
0.0125,2.4974365234375,5.8206787109375,-8.3131103515625
0.013,1.1761474609375,6.7816162109375,-7.9927978515625
0.0135,-0.5054931640625,7.7825927734375,-7.3922119140625
0.014,-2.1871337890625,8.5833740234375,-6.5513916015625
0.0145,-3.5484619140625,8.8236083984375,-5.4703369140625
0.015,-4.7496337890625,8.6234130859375,-4.1490478515625
0.0155,-5.9107666015625,8.3831787109375,-2.7076416015625
0.016,-6.8717041015625,7.7825927734375,-1.2261962890625
0.0165,-7.7125244140625,6.9417724609375,0.5755615234375
0.017,-8.5133056640625,6.0609130859375,2.2171630859375
0.0175,-8.5533447265625,4.7396240234375,3.5384521484375
0.018,-8.4732666015625,3.2181396484375,5.0599365234375
0.0185,-7.9927978515625,1.5765380859375,6.1409912109375
0.019,-7.4322509765625,-0.1451416015625,7.3021240234375
0.0195,-6.2711181640625,-2.1070556640625,8.0628662109375
0.02,-4.9097900390625,-3.8287353515625,8.4632568359375
0.0205,-3.2681884765625,-5.2301025390625,8.2630615234375
0.021,-1.9468994140625,-6.5914306640625,8.3031005859375
0.0215,-0.4654541015625,-7.5523681640625,7.8626708984375
0.022,1.2562255859375,-8.4732666015625,7.1019287109375
0.0225,3.0179443359375,-9.2740478515625,6.2210693359375
0.023,4.2991943359375,-9.1539306640625,4.8597412109375
0.0235,5.6204833984375,-9.1138916015625,3.4984130859375
0.024,6.5814208984375,-8.5933837890625,2.0570068359375
0.0245,7.5823974609375,-7.9527587890625,0.4554443359375
0.025,8.3031005859375,-6.9517822265625,-1.3863525390625
0.0255,8.9437255859375,-5.9908447265625,-2.9879150390625
0.026,8.7835693359375,-4.4293212890625,-4.3092041015625
0.0265,8.5833740234375,-2.8277587890625,-5.7506103515625
0.027,7.9027099609375,-1.1461181640625,-6.7515869140625
0.0275,7.1820068359375,0.6956787109375,-7.7525634765625
0.028,5.8206787109375,2.8577880859375,-8.6334228515625
0.0285,4.2991943359375,4.3792724609375,-8.6334228515625
0.029,2.6575927734375,5.8607177734375,-8.4732666015625
0.0295,1.2962646484375,6.9818115234375,-8.2730712890625
0.03,-0.3853759765625,7.9827880859375,-7.7125244140625
0.0305,-2.2271728515625,8.7435302734375,-6.7115478515625
0.031,-3.9488525390625,9.3441162109375,-5.6304931640625
0.0315,-5.1500244140625,8.9036865234375,-3.9888916015625
0.032,-6.4713134765625,8.8236083984375,-2.5474853515625
0.0325,-7.3121337890625,7.9827880859375,-0.9859619140625
0.033,-8.1929931640625,7.1019287109375,0.8157958984375
0.0335,-8.9537353515625,5.9007568359375,2.8177490234375
0.034,-9.1138916015625,4.4993896484375,4.3392333984375
0.0345,-8.8336181640625,2.8577880859375,5.7005615234375
0.035,-8.3131103515625,1.2161865234375,6.9017333984375
0.0355,-7.5123291015625,-0.6256103515625,7.8226318359375
0.036,-6.3511962890625,-2.5875244140625,8.6634521484375
0.0365,-4.7496337890625,-4.7896728515625,9.2239990234375
0.037,-2.8277587890625,-6.1109619140625,8.7034912109375
0.0375,-1.3062744140625,-7.5523681640625,8.6234130859375
0.038,0.2952880859375,-8.3531494140625,7.9427490234375
0.0385,1.9769287109375,-9.1939697265625,7.1019287109375
0.039,3.9788818359375,-9.9146728515625,5.9007568359375
0.0395,5.4202880859375,-9.9547119140625,4.4993896484375
0.04,6.5413818359375,-9.3541259765625,2.8177490234375
0.0405,7.6224365234375,-8.9537353515625,1.4163818359375
0.041,8.2630615234375,-7.9527587890625,-0.3453369140625
0.0415,8.9036865234375,-6.9117431640625,-2.0269775390625
0.042,9.5443115234375,-5.5504150390625,-3.9888916015625
0.0425,9.1439208984375,-3.9088134765625,-5.2301025390625
0.043,8.8636474609375,-2.2672119140625,-6.5513916015625
0.0435,7.9827880859375,-0.6256103515625,-7.3521728515625
0.044,7.1820068359375,1.1361083984375,-8.2330322265625
0.0445,5.7406005859375,3.2181396484375,-8.9136962890625
0.045,4.1390380859375,5.0599365234375,-9.1539306640625
0.0455,2.2572021484375,6.2611083984375,-8.5133056640625
0.046,0.9759521484375,7.5023193359375,-8.4732666015625
0.0465,-0.7056884765625,8.1829833984375,-7.6324462890625
0.047,-2.3072509765625,8.9437255859375,-6.7515869140625
0.0475,-4.1890869140625,9.5443115234375,-5.5904541015625
0.048,-5.3902587890625,9.1839599609375,-4.0689697265625
0.0485,-6.5513916015625,8.8236083984375,-2.5474853515625
0.049,-7.3922119140625,8.1029052734375,-1.1060791015625
0.0495,-8.1129150390625,7.2220458984375,0.6156005859375
0.05,-8.6734619140625,6.1409912109375,2.3372802734375
0.0505,-9.1939697265625,4.8597412109375,4.0989990234375
0.051,-8.7135009765625,3.2581787109375,5.2200927734375
0.0515,-8.4732666015625,1.6566162109375,6.5413818359375
0.052,-7.6324462890625,0.0550537109375,7.3021240234375
0.0525,-6.7916259765625,-1.7467041015625,8.2230224609375
0.053,-5.2701416015625,-3.7486572265625,8.7835693359375
0.0535,-3.7086181640625,-5.2701416015625,8.6634521484375
0.054,-2.0670166015625,-6.5113525390625,8.3031005859375
0.0545,-0.7457275390625,-7.6324462890625,8.1829833984375
0.055,0.8958740234375,-8.3531494140625,7.3822021484375
0.0555,2.4573974609375,-9.0738525390625,6.5413818359375
0.056,4.1390380859375,-9.5943603515625,5.4202880859375
0.0565,5.1400146484375,-9.0738525390625,3.9788818359375
0.057,6.4212646484375,-8.9937744140625,2.5775146484375
0.0575,7.0618896484375,-8.2730712890625,1.1761474609375
0.058,7.9827880859375,-7.4722900390625,-0.4654541015625
0.0585,8.5833740234375,-6.4713134765625,-2.1070556640625
0.059,8.8636474609375,-5.2701416015625,-3.5484619140625
0.0595,8.5833740234375,-3.7886962890625,-4.7896728515625
0.06,8.2630615234375,-2.2672119140625,-6.0308837890625
0.0605,7.5423583984375,-0.6256103515625,-6.8717041015625
0.061,6.7816162109375,1.1361083984375,-7.8326416015625
0.0615,5.4603271484375,3.0179443359375,-8.4732666015625
0.062,3.8988037109375,4.3392333984375,-8.2330322265625
0.0625,2.4974365234375,5.7406005859375,-8.2730712890625
0.063,1.2161865234375,6.7015380859375,-7.9927978515625
0.0635,-0.4254150390625,7.7025146484375,-7.3922119140625
0.064,-1.9468994140625,8.4632568359375,-6.6314697265625
0.0645,-3.4683837890625,8.7435302734375,-5.5103759765625
0.065,-4.5494384765625,8.3831787109375,-4.1490478515625
0.0655,-5.8306884765625,8.3031005859375,-2.8277587890625
0.066,-6.6715087890625,7.6224365234375,-1.2662353515625
0.0665,-7.6324462890625,7.0618896484375,0.3753662109375
0.067,-8.3931884765625,6.1009521484375,2.0570068359375
0.0675,-8.4332275390625,4.8197021484375,3.3782958984375
0.068,-8.3131103515625,3.2982177734375,4.8197021484375
0.0685,-7.9927978515625,1.7767333984375,5.9407958984375
0.069,-7.3121337890625,0.0550537109375,7.0618896484375
0.0695,-6.4312744140625,-1.7467041015625,7.9027099609375
0.07,-4.9898681640625,-3.5885009765625,8.3031005859375
0.0705,-3.4683837890625,-4.9097900390625,8.0628662109375
0.071,-2.0670166015625,-6.3912353515625,8.2230224609375
0.0715,-0.6656494140625,-7.2720947265625,7.7425537109375
0.072,0.9359130859375,-8.2730712890625,7.1820068359375
0.0725,2.5775146484375,-8.9537353515625,6.3011474609375
0.073,3.8988037109375,-8.9937744140625,5.0599365234375
0.0735,5.1400146484375,-8.8736572265625,3.6986083984375
0.074,6.2210693359375,-8.5933837890625,2.2972412109375
0.0745,7.1019287109375,-7.8326416015625,0.7757568359375
0.075,7.9827880859375,-7.1119384765625,-0.8258056640625
0.0755,8.6234130859375,-6.1109619140625,-2.5474853515625
0.076,8.5032958984375,-4.7496337890625,-3.7486572265625
0.0765,8.3431396484375,-3.1881103515625,-5.2301025390625
0.077,7.7825927734375,-1.5865478515625,-6.1910400390625
0.0775,7.1820068359375,0.1751708984375,-7.3121337890625
0.078,6.1009521484375,2.0570068359375,-8.1129150390625
0.0785,4.6195068359375,3.6986083984375,-8.2730712890625
0.079,3.1380615234375,5.0599365234375,-8.1529541015625
0.0795,1.8167724609375,6.3812255859375,-8.1929931640625
0.08,0.2952880859375,7.2220458984375,-7.6324462890625
0.0805,-1.3062744140625,8.1429443359375,-6.9517822265625
0.081,-3.0279541015625,8.7435302734375,-5.9508056640625
0.0815,-4.1890869140625,8.5032958984375,-4.5494384765625
0.082,-5.5904541015625,8.4232177734375,-3.1881103515625
0.0825,-6.4713134765625,7.9427490234375,-1.7467041015625
0.083,-7.4322509765625,7.1820068359375,0.0150146484375
0.0835,-8.2730712890625,6.3812255859375,1.6566162109375
0.084,-8.5933837890625,5.0599365234375,3.3382568359375
0.0845,-8.3931884765625,3.6185302734375,4.5794677734375
0.085,-8.1929931640625,1.9769287109375,6.0208740234375
0.0855,-7.5123291015625,0.3353271484375,6.9017333984375
0.086,-6.6715087890625,-1.5465087890625,7.9027099609375
0.0865,-5.2701416015625,-3.5484619140625,8.5032958984375
0.087,-3.5885009765625,-4.9898681640625,8.3031005859375
0.0875,-2.1070556640625,-6.3912353515625,8.3031005859375
0.088,-0.7457275390625,-7.3922119140625,7.9827880859375
0.0885,0.9359130859375,-8.3131103515625,7.2620849609375
0.089,2.6175537109375,-9.1539306640625,6.4212646484375
0.0895,4.1790771484375,-9.4342041015625,5.0999755859375
0.09,5.3001708984375,-9.0338134765625,3.6986083984375
0.0905,6.5814208984375,-8.8336181640625,2.2572021484375
0.091,7.3021240234375,-7.9927978515625,0.7357177734375
0.0915,8.1829833984375,-7.1920166015625,-1.0260009765625
0.092,8.9036865234375,-6.1510009765625,-2.7476806640625
0.0925,8.8236083984375,-4.6295166015625,-4.1890869140625
0.093,8.5833740234375,-3.1080322265625,-5.4703369140625
0.0935,7.9827880859375,-1.4664306640625,-6.5513916015625
0.094,7.2620849609375,0.2952880859375,-7.5123291015625
0.0945,6.2210693359375,2.2171630859375,-8.3531494140625
0.095,4.7396240234375,4.0989990234375,-8.7535400390625
0.0955,2.9779052734375,5.4202880859375,-8.3531494140625
0.096,1.5765380859375,6.7415771484375,-8.3531494140625
0.0965,0.0550537109375,7.6624755859375,-7.7125244140625
0.097,-1.6666259765625,8.3831787109375,-6.9117431640625
0.0975,-3.4283447265625,9.1038818359375,-5.9508056640625
0.098,-4.8297119140625,8.9837646484375,-4.5093994140625
0.0985,-5.9508056640625,8.6634521484375,-3.0279541015625
0.099,-7.0718994140625,8.2230224609375,-1.4263916015625
0.0995,-7.7525634765625,7.3421630859375,0.2552490234375
0.1,-8.5133056640625,6.3411865234375,1.9769287109375
0.1005,-9.0738525390625,5.0999755859375,3.7786865234375
0.101,-8.7135009765625,3.4183349609375,5.0999755859375
0.1015,-8.4732666015625,1.8167724609375,6.4212646484375
0.102,-7.7125244140625,0.1351318359375,7.3021240234375
0.1025,-6.7115478515625,-1.7467041015625,8.2230224609375
0.103,-5.3502197265625,-3.7886962890625,8.8236083984375
0.1035,-3.5885009765625,-5.4302978515625,8.7835693359375
0.104,-1.9468994140625,-6.6715087890625,8.3831787109375
0.1045,-0.5054931640625,-7.8726806640625,8.2230224609375
0.105,1.2161865234375,-8.6734619140625,7.3421630859375
0.1055,2.8577880859375,-9.3541259765625,6.4212646484375
0.106,4.5794677734375,-9.8746337890625,5.2200927734375
0.1065,5.7406005859375,-9.3140869140625,3.5784912109375
0.107,6.9017333984375,-9.0738525390625,2.2171630859375
0.1075,7.6624755859375,-8.1929931640625,0.6156005859375
0.108,8.3831787109375,-7.2720947265625,-1.0660400390625
0.1085,8.9837646484375,-6.2310791015625,-2.7476806640625
0.109,9.2239990234375,-4.7896728515625,-4.4693603515625
0.1095,8.7435302734375,-3.1480712890625,-5.5904541015625
0.11,8.3431396484375,-1.4664306640625,-6.8717041015625
0.1105,7.3822021484375,0.2552490234375,-7.5523681640625
0.111,6.4212646484375,2.0570068359375,-8.3931884765625
0.1115,5.0198974609375,3.9788818359375,-8.9537353515625
0.112,3.1781005859375,5.4202880859375,-8.5933837890625
0.1125,1.7366943359375,6.7015380859375,-8.3931884765625
0.113,0.2552490234375,7.6624755859375,-7.9527587890625
0.1135,-1.4664306640625,8.3431396484375,-7.0718994140625
0.114,-3.1080322265625,8.9837646484375,-6.1510009765625
0.1145,-4.6695556640625,9.3040771484375,-4.8697509765625
0.115,-5.7506103515625,8.7435302734375,-3.2681884765625
0.1155,-6.9517822265625,8.5032958984375,-1.8267822265625
0.116,-7.6324462890625,7.5423583984375,-0.1851806640625
0.1165,-8.3931884765625,6.6214599609375,1.5364990234375
0.117,-8.9937744140625,5.5404052734375,3.2181396484375
0.1175,-8.8736572265625,3.8988037109375,4.7396240234375
0.118,-8.5133056640625,2.3773193359375,5.9007568359375
0.1185,-7.9927978515625,0.6556396484375,7.0618896484375
0.119,-7.0318603515625,-1.1060791015625,7.8226318359375
0.1195,-5.9107666015625,-2.9478759765625,8.6234130859375
0.12,-4.3092041015625,-4.8297119140625,8.8636474609375
0.1205,-2.5474853515625,-6.1109619140625,8.3831787109375
0.121,-1.1461181640625,-7.3922119140625,8.3431396484375
0.1215,0.4954833984375,-8.2330322265625,7.6224365234375
0.122,2.0970458984375,-9.0338134765625,6.7816162109375
0.1225,3.7386474609375,-9.5543212890625,5.7806396484375
0.123,5.0999755859375,-9.4742431640625,4.3392333984375
0.1235,6.1810302734375,-9.0338134765625,2.8577880859375
0.124,7.2220458984375,-8.5933837890625,1.3763427734375
0.1245,7.9027099609375,-7.6324462890625,-0.3052978515625
0.125,8.6634521484375,-6.7515869140625,-1.8668212890625
0.1255,9.1439208984375,-5.5504150390625,-3.5484619140625
0.126,8.7835693359375,-3.8687744140625,-4.8697509765625
0.1265,8.5032958984375,-2.3873291015625,-6.1109619140625
0.127,7.7025146484375,-0.6256103515625,-7.0318603515625
0.1275,6.9017333984375,1.1361083984375,-7.9527587890625
0.128,5.7005615234375,2.9779052734375,-8.6334228515625
0.1285,4.0989990234375,4.6195068359375,-8.6734619140625
0.129,2.4573974609375,5.8607177734375,-8.3131103515625
0.1295,1.0960693359375,7.1019287109375,-8.2730712890625
0.13,-0.6256103515625,7.8626708984375,-7.4322509765625
0.1305,-2.1871337890625,8.6634521484375,-6.5914306640625
0.131,-3.8287353515625,9.2239990234375,-5.5504150390625
0.1315,-5.0699462890625,8.8236083984375,-4.0289306640625
0.132,-6.2711181640625,8.6234130859375,-2.6275634765625
0.1325,-7.1519775390625,7.8626708984375,-0.9859619140625
0.133,-7.9527587890625,7.0618896484375,0.6556396484375
0.1335,-8.6734619140625,6.1009521484375,2.3372802734375
0.134,-8.9537353515625,4.7396240234375,4.0189208984375
0.1345,-8.5133056640625,3.0579833984375,5.2601318359375
0.135,-8.3131103515625,1.4564208984375,6.5814208984375
0.1355,-7.3121337890625,-0.3453369140625,7.3822021484375
0.136,-6.4312744140625,-2.1070556640625,8.3031005859375
0.1365,-4.9898681640625,-4.0289306640625,8.7034912109375
0.137,-3.2681884765625,-5.5904541015625,8.5433349609375
0.1375,-1.7867431640625,-6.8316650390625,8.3431396484375
0.138,-0.3052978515625,-7.9527587890625,7.9827880859375
0.1385,1.4564208984375,-8.6334228515625,7.0618896484375
0.139,3.0579833984375,-9.3140869140625,6.2210693359375
0.1395,4.6195068359375,-9.5943603515625,4.9798583984375
0.14,5.7406005859375,-9.0338134765625,3.3782958984375
0.1405,6.9017333984375,-8.8736572265625,1.9769287109375
0.141,7.6224365234375,-7.9127197265625,0.3353271484375
0.1415,8.3831787109375,-7.0718994140625,-1.3062744140625
0.142,8.9837646484375,-6.0709228515625,-2.9478759765625
0.1425,8.9837646484375,-4.5093994140625,-4.5093994140625
0.143,8.5433349609375,-2.8677978515625,-5.6304931640625
0.1435,8.0628662109375,-1.2662353515625,-6.8316650390625
0.144,7.1019287109375,0.6156005859375,-7.6324462890625
0.1445,6.1409912109375,2.4173583984375,-8.4732666015625
0.145,4.6595458984375,4.1390380859375,-8.8336181640625
0.1455,2.8978271484375,5.5003662109375,-8.3931884765625
0.146,1.5765380859375,6.7415771484375,-8.3531494140625
0.1465,-0.1451416015625,7.7025146484375,-7.7125244140625
0.147,-1.7867431640625,8.5032958984375,-6.8717041015625
0.1475,-3.3482666015625,9.1038818359375,-5.9107666015625
0.148,-4.8297119140625,9.1038818359375,-4.5093994140625
0.1485,-5.9107666015625,8.6234130859375,-2.9478759765625
0.149,-7.0718994140625,8.2630615234375,-1.4664306640625
0.1495,-7.7125244140625,7.1820068359375,0.2952880859375
0.15,-8.5133056640625,6.4212646484375,1.8968505859375
0.1505,-8.9937744140625,5.1800537109375,3.5784912109375
0.151,-8.7135009765625,3.4984130859375,4.9798583984375
0.1515,-8.3931884765625,1.9368896484375,6.2611083984375
0.152,-7.7125244140625,0.2152099609375,7.2620849609375
0.1525,-6.6715087890625,-1.7066650390625,8.0628662109375
0.153,-5.4302978515625,-3.5484619140625,8.6634521484375
0.1535,-3.7886962890625,-5.2701416015625,8.7034912109375
0.154,-2.1070556640625,-6.5113525390625,8.3031005859375
0.1545,-0.7056884765625,-7.7125244140625,8.1829833984375
0.155,1.0960693359375,-8.4732666015625,7.3021240234375
0.1555,2.6575927734375,-9.1939697265625,6.4613037109375
0.156,4.2191162109375,-9.5943603515625,5.3402099609375
0.1565,5.4202880859375,-9.2740478515625,3.8587646484375
0.157,6.5413818359375,-8.9136962890625,2.4173583984375
0.1575,7.5023193359375,-8.3131103515625,0.8558349609375
0.158,8.1829833984375,-7.2320556640625,-0.9459228515625
0.1585,8.8236083984375,-6.4312744140625,-2.4273681640625
0.159,9.1038818359375,-5.0299072265625,-4.0689697265625
0.1595,8.6634521484375,-3.3482666015625,-5.3101806640625
0.16,8.3031005859375,-1.7867431640625,-6.5513916015625
0.1605,7.3822021484375,0.0550537109375,-7.3922119140625
0.161,6.4212646484375,1.8568115234375,-8.2730712890625
0.1615,5.1400146484375,3.6185302734375,-8.7135009765625
0.162,3.4183349609375,5.1400146484375,-8.5933837890625
0.1625,1.9368896484375,6.3812255859375,-8.3131103515625
0.163,0.4954833984375,7.5423583984375,-8.0328369140625
0.1635,-1.3863525390625,8.3031005859375,-7.0718994140625
0.164,-2.9078369140625,8.9837646484375,-6.2310791015625
0.1645,-4.4293212890625,9.2239990234375,-4.9898681640625
0.165,-5.5904541015625,8.7835693359375,-3.4283447265625
0.1655,-6.7515869140625,8.4632568359375,-1.9869384765625
0.166,-7.5523681640625,7.5823974609375,-0.3052978515625
0.1665,-8.3131103515625,6.6214599609375,1.4564208984375
0.167,-8.9537353515625,5.6204833984375,3.0579833984375
0.1675,-8.9537353515625,4.0589599609375,4.6595458984375
0.168,-8.4732666015625,2.4173583984375,5.8206787109375
0.1685,-8.0728759765625,0.7357177734375,7.1019287109375
0.169,-6.9117431640625,-1.2662353515625,7.8626708984375
0.1695,-5.8306884765625,-3.1480712890625,8.6634521484375
0.17,-4.2291259765625,-4.9498291015625,8.8236083984375
0.1705,-2.5474853515625,-6.2310791015625,8.5433349609375
0.171,-1.0660400390625,-7.4322509765625,8.3031005859375
0.1715,0.6156005859375,-8.3931884765625,7.7025146484375
0.172,2.4974365234375,-9.1939697265625,6.6614990234375
0.1725,3.8988037109375,-9.6343994140625,5.6605224609375
0.173,5.3802490234375,-9.6343994140625,4.2191162109375
0.1735,6.4212646484375,-9.0738525390625,2.6976318359375
0.174,7.5423583984375,-8.6734619140625,1.1761474609375
0.1745,8.1829833984375,-7.5123291015625,-0.6656494140625
0.175,8.9437255859375,-6.5914306640625,-2.2672119140625
0.1755,9.2640380859375,-5.3902587890625,-3.8687744140625
0.176,9.0238037109375,-3.6685791015625,-5.3502197265625
0.1765,8.5032958984375,-2.0269775390625,-6.4713134765625
0.177,7.8226318359375,-0.3052978515625,-7.5523681640625
0.1775,6.5413818359375,1.7767333984375,-8.3131103515625
0.178,5.4202880859375,3.5384521484375,-8.9537353515625
