wavelength,x,y,z
0.0,-20.775268554688,7.9727783203125,11.816528320312
0.0005,-20.014526367188,3.5284423828125,15.580200195312
0.001,-18.332885742188,-0.9158935546875,18.342895507812
0.0015,-16.531127929688,-4.3992919921875,19.984497070312
0.002,-14.328979492188,-7.3221435546875,20.825317382812
0.0025,-10.885620117188,-10.325073242188,20.505004882812
0.003,-6.4012451171875,-14.008666992188,19.864379882812
0.0035,-1.6365966796875,-17.371948242188,18.583129882812
0.004,3.1680908203125,-19.614135742188,16.340942382812
0.0045,6.0909423828125,-20.454956054688,14.539184570312
0.005,9.0938720703125,-20.855346679688,12.176879882812
0.0055,12.296997070312,-20.494995117188,8.7335205078125
0.006,15.940551757812,-19.534057617188,4.2891845703125
0.0065,18.823364257812,-17.892456054688,-0.1951904296875
0.007,20.665161132812,-15.890502929688,-3.9188232421875
0.0075,21.065551757812,-13.488159179688,-6.7215576171875
0.008,21.025512695312,-10.405151367188,-9.7645263671875
0.0085,20.545043945312,-6.4412841796875,-13.287963867188
0.009,19.824340820312,-2.2772216796875,-16.731323242188
0.0095,17.782348632812,2.2071533203125,-19.173706054688
0.01,15.660278320312,5.3702392578125,-20.254760742188
0.0105,13.257934570312,8.2930908203125,-20.855346679688
0.011,9.3341064453125,11.656372070312,-20.454956054688
0.0115,4.6094970703125,15.219848632812,-19.413940429688
0.012,-0.1951904296875,18.222778320312,-17.852416992188
0.0125,-4.3992919921875,20.184692382812,-15.890502929688
0.013,-7.1619873046875,20.625122070312,-13.808471679688
0.0135,-10.204956054688,20.745239257812,-11.125854492188
0.014,-13.808471679688,20.184692382812,-7.1219482421875
0.0145,-17.131713867188,19.023559570312,-2.7576904296875
0.015,-19.614135742188,17.101684570312,1.6466064453125
0.0155,-20.935424804688,15.019653320312,4.9698486328125
0.016,-21.255737304688,12.497192382812,7.8126220703125
0.0165,-21.015502929688,9.0938720703125,11.095825195312
0.017,-20.334838867188,4.8497314453125,14.579223632812
0.0175,-19.253784179688,0.6456298828125,17.742309570312
0.018,-17.251831054688,-3.5985107421875,19.904418945312
0.0185,-14.929565429688,-6.4412841796875,20.464965820312
0.019,-12.327026367188,-9.3240966796875,20.865356445312
0.0195,-7.9627685546875,-13.007690429688,20.264770507812
0.02,-3.0780029296875,-16.370971679688,18.943481445312
0.0205,1.6065673828125,-18.773315429688,16.941528320312
0.021,5.2501220703125,-20.454956054688,15.219848632812
0.0215,8.0128173828125,-20.655151367188,12.937622070312
0.022,11.055786132812,-20.535034179688,9.9747314453125
0.0225,14.699340820312,-19.854370117188,5.7706298828125
0.023,17.862426757812,-18.453002929688,1.4063720703125
0.0235,19.984497070312,-16.370971679688,-2.8377685546875
0.024,20.705200195312,-14.248901367188,-5.6405029296875
0.0245,21.025512695312,-11.606323242188,-8.5233154296875
0.025,20.625122070312,-7.8026123046875,-12.046752929688
0.0255,19.864379882812,-3.7186279296875,-15.329956054688
0.026,18.422973632812,0.5255126953125,-18.092651367188
0.0265,16.461059570312,4.3292236328125,-20.054565429688
0.027,13.898559570312,7.0919189453125,-20.294799804688
0.0275,11.015747070312,10.054809570312,-20.494995117188
0.028,6.4112548828125,13.938598632812,-19.814331054688
0.0285,1.5665283203125,17.141723632812,-18.453002929688
0.029,-2.8778076171875,19.183715820312,-16.290893554688
0.0295,-5.9608154296875,20.344848632812,-14.609252929688
0.03,-8.8436279296875,20.585083007812,-12.206909179688
0.0305,-12.206909179688,20.184692382812,-8.6434326171875
0.031,-15.650268554688,19.383911132812,-4.5194091796875
0.0315,-18.573120117188,17.742309570312,0.0050048828125
0.032,-20.494995117188,15.700317382812,3.8487548828125
0.0325,-20.855346679688,13.378051757812,6.5313720703125
0.033,-21.135620117188,10.535278320312,9.5343017578125
0.0335,-20.575073242188,6.2510986328125,13.378051757812
0.034,-19.694213867188,2.1671142578125,16.661254882812
0.0345,-17.892456054688,-1.9969482421875,18.903442382812
0.035,-15.970581054688,-5.4403076171875,20.545043945312
0.0355,-13.287963867188,-8.2030029296875,20.665161132812
0.036,-9.6444091796875,-11.526245117188,20.424926757812
0.0365,-5.0799560546875,-15.049682617188,19.544067382812
0.037,0.0450439453125,-18.132690429688,17.862426757812
0.0375,4.1290283203125,-19.934448242188,15.780395507812
0.038,6.9317626953125,-20.494995117188,13.818481445312
0.0385,9.8946533203125,-20.815307617188,11.376098632812
0.039,13.618286132812,-20.014526367188,7.0518798828125
0.0395,16.781372070312,-19.053588867188,3.0079345703125
0.04,19.263793945312,-17.251831054688,-1.2762451171875
0.0405,20.865356445312,-15.249877929688,-4.8397216796875
0.041,20.865356445312,-12.567260742188,-7.5223388671875
0.0415,20.985473632812,-9.4442138671875,-10.685424804688
0.042,20.344848632812,-5.1199951171875,-14.369018554688
0.0425,19.223754882812,-0.8358154296875,-17.612182617188
0.043,17.141723632812,3.1680908203125,-19.453979492188
0.0435,15.059692382812,6.2110595703125,-20.494995117188
0.044,12.337036132812,9.1339111328125,-20.815307617188
0.0445,7.6925048828125,12.937622070312,-20.094604492188
0.045,3.4483642578125,16.060668945312,-19.173706054688
0.0455,-1.5565185546875,18.743286132812,-17.171752929688
0.046,-5.2801513671875,20.384887695312,-15.249877929688
0.0465,-8.0028076171875,20.505004882812,-12.887573242188
0.047,-10.885620117188,20.745239257812,-10.405151367188
0.0475,-14.929565429688,19.824340820312,-5.6405029296875
0.048,-17.972534179688,18.382934570312,-1.2762451171875
0.0485,-20.014526367188,16.461059570312,2.6876220703125
0.049,-21.255737304688,14.379028320312,5.8907470703125
0.0495,-21.135620117188,11.536254882812,8.6534423828125
0.05,-20.975463867188,7.6925048828125,12.296997070312
0.0505,-20.214721679688,3.6885986328125,15.620239257812
0.051,-18.853393554688,-0.7957763671875,18.703247070312
0.0515,-16.611206054688,-4.6395263671875,20.344848632812
0.052,-14.168823242188,-7.3621826171875,20.745239257812
0.0525,-11.526245117188,-10.285034179688,21.065551757812
0.053,-6.1209716796875,-14.449096679688,19.944458007812
0.0535,-1.5965576171875,-17.371948242188,18.543090820312
0.054,2.8878173828125,-19.494018554688,16.581176757812
0.0545,6.3311767578125,-20.855346679688,14.699340820312
0.055,9.0938720703125,-20.735229492188,11.936645507812
0.0555,12.176879882812,-20.535034179688,8.8936767578125
0.056,15.940551757812,-19.694213867188,4.4893798828125
0.0565,18.903442382812,-17.892456054688,-0.2752685546875
0.057,20.384887695312,-15.890502929688,-3.7987060546875
0.0575,21.025512695312,-13.568237304688,-6.6815185546875
0.058,21.065551757812,-10.845581054688,-9.3641357421875
0.0585,20.464965820312,-6.2811279296875,-13.448120117188
0.059,19.584106445312,-2.4774169921875,-16.330932617188
0.0595,17.982543945312,1.7667236328125,-18.893432617188
0.06,15.860473632812,5.3702392578125,-20.454956054688
0.0605,12.977661132812,8.0528564453125,-20.334838867188
0.061,10.014770507812,11.175903320312,-20.494995117188
0.0615,4.8096923828125,15.139770507812,-19.534057617188
0.062,-0.1951904296875,18.062622070312,-17.692260742188
0.0625,-3.8787841796875,19.704223632812,-15.890502929688
0.063,-7.0418701171875,20.745239257812,-14.008666992188
0.0635,-9.9246826171875,20.625122070312,-11.286010742188
0.064,-13.528198242188,19.984497070312,-7.1219482421875
0.0645,-16.811401367188,19.143676757812,-3.1981201171875
0.065,-19.534057617188,17.221801757812,1.4063720703125
0.0655,-20.815307617188,15.179809570312,4.7296142578125
0.066,-21.095581054688,12.537231445312,7.5323486328125
0.0665,-21.175659179688,9.7745361328125,10.495239257812
0.067,-20.494995117188,4.9298095703125,14.659301757812
0.0675,-19.213745117188,0.6856689453125,17.622192382812
0.068,-17.331909179688,-3.1981201171875,19.584106445312
0.0685,-15.410034179688,-6.4412841796875,20.945434570312
0.069,-12.126831054688,-9.3641357421875,20.665161132812
0.0695,-8.2030029296875,-12.807495117188,20.304809570312
0.07,-3.4783935546875,-16.370971679688,19.343872070312
0.0705,1.8468017578125,-19.093627929688,17.141723632812
0.071,5.2100830078125,-20.374877929688,15.219848632812
0.0715,8.1729736328125,-20.975463867188,13.057739257812
0.072,11.055786132812,-20.975463867188,10.375122070312
0.0725,15.059692382812,-19.934448242188,5.4903564453125
0.073,18.102661132812,-18.653198242188,1.2462158203125
0.0735,20.264770507812,-16.691284179688,-2.7576904296875
0.074,21.225708007812,-14.569213867188,-5.8406982421875
0.0745,21.105590820312,-11.526245117188,-8.6834716796875
0.075,20.985473632812,-8.2030029296875,-11.926635742188
0.0755,20.304809570312,-3.8387451171875,-15.650268554688
0.076,18.703247070312,0.7657470703125,-18.573120117188
0.0765,16.501098632812,4.2891845703125,-20.014526367188
0.077,14.338989257812,7.3321533203125,-20.895385742188
0.0775,11.175903320312,10.255004882812,-20.775268554688
0.078,6.0509033203125,14.258911132812,-19.854370117188
0.0785,1.6866455078125,17.421997070312,-18.773315429688
0.079,-3.1180419921875,19.704223632812,-16.651245117188
0.0795,-6.2811279296875,20.705200195312,-14.689331054688
0.08,-9.2440185546875,20.785278320312,-12.006713867188
0.0805,-12.286987304688,20.705200195312,-9.1239013671875
0.081,-16.210815429688,19.664184570312,-4.3192138671875
0.0815,-19.173706054688,17.862426757812,0.4454345703125
0.082,-20.735229492188,15.900512695312,3.8887939453125
0.0825,-21.495971679688,13.658325195312,6.8516845703125
0.083,-21.295776367188,10.535278320312,9.7344970703125
0.0835,-20.775268554688,6.3311767578125,13.498168945312
0.084,-19.974487304688,2.2872314453125,16.781372070312
0.0845,-18.212768554688,-2.2772216796875,19.504028320312
0.085,-15.890502929688,-5.6004638671875,20.545043945312
0.0855,-13.328002929688,-8.4432373046875,20.945434570312
0.086,-10.084838867188,-11.526245117188,20.825317382812
0.0865,-4.5594482421875,-15.490112304688,19.504028320312
0.087,0.2452392578125,-18.332885742188,17.862426757812
0.0875,4.1690673828125,-20.174682617188,15.980590820312
0.088,7.2921142578125,-20.975463867188,13.898559570312
0.0885,10.255004882812,-20.775268554688,10.855590820312
0.089,13.538208007812,-20.334838867188,7.3321533203125
0.0895,17.021606445312,-19.213745117188,2.9678955078125
0.09,19.664184570312,-17.131713867188,-1.7967529296875
0.0905,20.665161132812,-15.089721679688,-4.7596435546875
0.091,21.105590820312,-12.607299804688,-7.6424560546875
0.0915,20.865356445312,-9.6043701171875,-10.485229492188
0.092,20.144653320312,-4.9598388671875,-14.369018554688
0.0925,19.023559570312,-0.9959716796875,-17.291870117188
0.093,17.261840820312,3.1280517578125,-19.494018554688
0.0935,14.899536132812,6.2110595703125,-20.374877929688
0.094,11.896606445312,9.0938720703125,-20.334838867188
0.0945,8.2930908203125,12.457153320312,-20.214721679688
0.095,3.2481689453125,16.140747070312,-19.013549804688
0.0955,-1.7967529296875,18.663208007812,-16.811401367188
0.096,-4.8797607421875,19.944458007812,-15.129760742188
0.0965,-7.8426513671875,20.585083007812,-13.127807617188
0.097,-10.885620117188,20.344848632812,-10.124877929688
0.0975,-14.529174804688,19.584106445312,-5.7606201171875
0.098,-17.652221679688,18.382934570312,-1.6766357421875
0.0985,-19.934448242188,16.380981445312,2.6876220703125
0.099,-20.655151367188,14.218872070312,5.4503173828125
0.0995,-20.895385742188,11.496215820312,8.4532470703125
0.1,-20.695190429688,8.2130126953125,11.536254882812
0.1005,-19.974487304688,3.7286376953125,15.339965820312
0.101,-18.412963867188,-0.6356201171875,18.102661132812
0.1015,-16.531127929688,-4.1590576171875,19.824340820312
0.102,-14.409057617188,-7.0819091796875,20.585083007812
0.1025,-11.045776367188,-9.9647216796875,20.304809570312
0.103,-6.6815185546875,-13.608276367188,19.704223632812
0.1035,-1.9168701171875,-17.011596679688,18.503051757812
0.104,2.9278564453125,-19.293823242188,16.260864257812
0.1045,5.8106689453125,-20.214721679688,14.459106445312
0.105,8.6934814453125,-20.655151367188,12.176879882812
0.1055,11.856567382812,-20.294799804688,8.9737548828125
0.106,15.500122070312,-19.293823242188,4.4893798828125
0.1065,18.382934570312,-17.732299804688,0.1651611328125
0.107,20.224731445312,-15.850463867188,-3.5985107421875
0.1075,20.705200195312,-13.528198242188,-6.3612060546875
0.108,20.665161132812,-10.525268554688,-9.3240966796875
0.1085,20.304809570312,-6.7215576171875,-12.767456054688
0.109,19.584106445312,-2.5975341796875,-16.210815429688
0.1095,17.702270507812,1.8868408203125,-18.733276367188
0.11,15.660278320312,5.0098876953125,-19.894409179688
0.1105,13.378051757812,7.9327392578125,-20.575073242188
0.111,9.6143798828125,11.215942382812,-20.214721679688
0.1115,4.8897705078125,14.819458007812,-19.293823242188
0.112,0.2452392578125,17.862426757812,-17.852416992188
0.1125,-4.1190185546875,19.864379882812,-15.850463867188
0.113,-6.8817138671875,20.344848632812,-13.848510742188
0.1135,-9.8846435546875,20.585083007812,-11.245971679688
0.114,-13.408081054688,20.104614257812,-7.4022216796875
0.1145,-16.811401367188,19.023559570312,-3.0379638671875
0.115,-19.413940429688,17.141723632812,1.4864501953125
0.1155,-20.815307617188,15.059692382812,4.8096923828125
0.116,-21.175659179688,12.657348632812,7.5723876953125
0.1165,-21.015502929688,9.2540283203125,10.855590820312
0.117,-20.374877929688,5.0098876953125,14.379028320312
0.1175,-19.373901367188,0.8458251953125,17.622192382812
0.118,-17.291870117188,-3.5184326171875,19.864379882812
0.1185,-15.009643554688,-6.4012451171875,20.505004882812
0.119,-12.447143554688,-9.2840576171875,20.945434570312
0.1195,-8.1229248046875,-12.927612304688,20.424926757812
0.12,-3.1981201171875,-16.370971679688,19.063598632812
0.1205,1.5665283203125,-18.933471679688,17.141723632812
0.121,5.2501220703125,-20.655151367188,15.299926757812
0.1215,8.0528564453125,-20.815307617188,13.057739257812
0.122,11.095825195312,-20.775268554688,10.134887695312
0.1225,14.779418945312,-20.014526367188,5.9307861328125
0.123,18.022583007812,-18.653198242188,1.4464111328125
0.1235,20.184692382812,-16.611206054688,-2.7576904296875
0.124,20.985473632812,-14.409057617188,-5.7205810546875
0.1245,21.265747070312,-11.806518554688,-8.6434326171875
0.125,20.865356445312,-7.9627685546875,-12.126831054688
0.1255,20.064575195312,-3.8387451171875,-15.410034179688
0.126,18.623168945312,0.4854736328125,-18.252807617188
0.1265,16.621215820312,4.4093017578125,-20.214721679688
0.127,14.018676757812,7.1719970703125,-20.494995117188
0.1275,11.215942382812,10.134887695312,-20.655151367188
0.128,6.4913330078125,14.018676757812,-19.974487304688
0.1285,1.6466064453125,17.301879882812,-18.573120117188
0.129,-2.8778076171875,19.343872070312,-16.491088867188
0.1295,-6.1209716796875,20.585083007812,-14.729370117188
0.13,-8.9637451171875,20.785278320312,-12.286987304688
0.1305,-12.206909179688,20.464965820312,-8.8436279296875
0.131,-15.730346679688,19.584106445312,-4.6795654296875
0.1315,-18.773315429688,17.982543945312,0.0050048828125
0.132,-20.695190429688,15.900512695312,3.8887939453125
0.1325,-21.095581054688,13.538208007812,6.6514892578125
0.133,-21.295776367188,10.735473632812,9.6544189453125
0.1335,-20.815307617188,6.4112548828125,13.498168945312
0.134,-19.894409179688,2.2471923828125,16.701293945312
0.1345,-18.012573242188,-1.9569091796875,19.063598632812
0.135,-16.090698242188,-5.5203857421875,20.745239257812
0.1355,-13.328002929688,-8.3631591796875,20.865356445312
0.136,-9.8846435546875,-11.566284179688,20.705200195312
0.1365,-5.1199951171875,-15.209838867188,19.824340820312
0.137,0.0050048828125,-18.412963867188,18.022583007812
0.1375,4.2091064453125,-20.214721679688,15.940551757812
0.138,7.1719970703125,-20.855346679688,13.938598632812
0.1385,10.174926757812,-21.135620117188,11.416137695312
0.139,13.818481445312,-20.374877929688,7.1719970703125
0.1395,17.021606445312,-19.373901367188,3.1280517578125
0.14,19.704223632812,-17.572143554688,-1.4364013671875
0.1405,21.305786132812,-15.410034179688,-5.0399169921875
0.141,21.345825195312,-12.687377929688,-7.7625732421875
0.1415,21.425903320312,-9.6444091796875,-10.885620117188
0.142,20.705200195312,-5.1600341796875,-14.729370117188
0.1425,19.584106445312,-0.7957763671875,-17.972534179688
0.143,17.421997070312,3.3282470703125,-19.894409179688
0.1435,15.299926757812,6.4913330078125,-21.055541992188
0.144,12.417114257812,9.4542236328125,-21.215698242188
0.1445,7.8526611328125,13.257934570312,-20.575073242188
0.145,3.4483642578125,16.461059570312,-19.654174804688
0.1455,-1.7166748046875,19.343872070312,-17.572143554688
0.146,-5.5203857421875,20.985473632812,-15.570190429688
0.1465,-8.3231201171875,21.145629882812,-13.167846679688
0.147,-11.366088867188,21.385864257812,-10.645385742188
0.1475,-15.490112304688,20.344848632812,-5.6805419921875
0.148,-18.573120117188,18.903442382812,-1.2362060546875
0.1485,-20.695190429688,16.901489257812,2.8878173828125
0.149,-21.936401367188,14.739379882812,6.2510986328125
0.1495,-21.856323242188,11.696411132812,9.1339111328125
0.15,-21.656127929688,7.9327392578125,12.777465820312
0.1505,-20.815307617188,3.6885986328125,16.220825195312
0.151,-19.333862304688,-0.9959716796875,19.383911132812
0.1515,-16.971557617188,-4.9998779296875,20.985473632812
0.152,-14.529174804688,-7.8426513671875,21.505981445312
0.1525,-11.726440429688,-10.845581054688,21.786254882812
0.153,-6.2410888671875,-15.089721679688,20.585083007812
0.1535,-1.6365966796875,-18.012573242188,19.223754882812
0.154,3.1280517578125,-20.254760742188,17.061645507812
0.1545,6.7315673828125,-21.656127929688,15.059692382812
0.155,9.6544189453125,-21.455932617188,12.176879882812
0.1555,12.777465820312,-21.335815429688,9.1739501953125
0.156,16.661254882812,-20.374877929688,4.4493408203125
0.1565,19.744262695312,-18.453002929688,-0.5155029296875
0.157,21.385864257812,-16.330932617188,-4.1590576171875
0.1575,22.026489257812,-13.968627929688,-7.2020263671875
0.158,21.946411132812,-10.965698242188,-10.084838867188
0.1585,21.385864257812,-6.3612060546875,-14.128784179688
0.159,20.424926757812,-2.3973388671875,-17.171752929688
0.1595,18.663208007812,2.0870361328125,-19.894409179688
0.16,16.300903320312,5.8106689453125,-21.335815429688
0.1605,13.297973632812,8.6534423828125,-21.255737304688
0.161,10.214965820312,11.816528320312,-21.495971679688
0.1615,4.6895751953125,15.980590820312,-20.254760742188
0.162,-0.3553466796875,18.903442382812,-18.372924804688
0.1625,-4.2791748046875,20.585083007812,-16.370971679688
0.163,-7.5623779296875,21.626098632812,-14.369018554688
0.1635,-10.605346679688,21.385864257812,-11.245971679688
0.164,-14.128784179688,20.745239257812,-7.3621826171875
0.1645,-17.572143554688,19.784301757812,-3.0780029296875
0.165,-20.374877929688,17.622192382812,1.8468017578125
0.1655,-21.616088867188,15.420043945312,5.2100830078125
0.166,-21.856323242188,12.737426757812,8.1329345703125
0.1665,-21.896362304688,9.8946533203125,11.015747070312
0.167,-21.095581054688,4.8497314453125,15.299926757812
0.1675,-19.774291992188,0.6456298828125,18.222778320312
0.168,-17.812377929688,-3.4783935546875,20.344848632812
0.1685,-15.690307617188,-6.9217529296875,21.666137695312
0.169,-12.327026367188,-9.8446044921875,21.265747070312
0.1695,-8.6033935546875,-13.207885742188,21.065551757812
0.17,-3.5184326171875,-16.891479492188,19.904418945312
0.1705,1.9268798828125,-19.694213867188,17.582153320312
0.171,5.4102783203125,-20.935424804688,15.620239257812
0.1715,8.4532470703125,-21.536010742188,13.378051757812
0.172,11.376098632812,-21.495971679688,10.575317382812
0.1725,15.380004882812,-20.374877929688,5.6905517578125
0.173,18.422973632812,-19.093627929688,1.4864501953125
0.1735,20.665161132812,-17.011596679688,-2.8377685546875
0.174,21.626098632812,-14.769409179688,-6.0008544921875
0.1745,21.505981445312,-11.686401367188,-8.8436279296875
0.175,21.465942382812,-8.5633544921875,-12.046752929688
0.1755,20.705200195312,-3.9188232421875,-15.970581054688
0.176,19.023559570312,0.7257080078125,-18.893432617188
0.1765,16.821411132812,4.3292236328125,-20.374877929688
0.177,14.699340820312,7.4923095703125,-21.495971679688
0.1775,11.336059570312,10.495239257812,-21.175659179688
0.178,6.4112548828125,14.459106445312,-20.374877929688
