wavelength,x,y,z
0.0,21.465942382812,-6.4813232421875,-14.048706054688
0.0005,20.665161132812,-2.4373779296875,-17.371948242188
0.001,18.583129882812,2.4874267578125,-20.134643554688
0.0015,16.300903320312,5.7706298828125,-21.335815429688
0.002,13.738403320312,8.9737548828125,-21.896362304688
0.0025,10.054809570312,12.337036132812,-21.736206054688
0.003,4.6094970703125,16.300903320312,-20.454956054688
0.0035,-0.3553466796875,19.183715820312,-18.653198242188
0.004,-4.5594482421875,21.105590820312,-16.651245117188
0.0045,-7.7225341796875,21.946411132812,-14.569213867188
0.005,-10.885620117188,21.866333007812,-11.326049804688
0.0055,-14.489135742188,21.345825195312,-7.6424560546875
0.006,-18.092651367188,20.104614257812,-2.9178466796875
0.0065,-20.855346679688,17.622192382812,2.2471923828125
0.007,-22.096557617188,15.540161132812,5.5303955078125
0.0075,-22.737182617188,12.897583007812,8.6934814453125
0.008,-22.536987304688,9.2940673828125,12.096801757812
0.0085,-21.616088867188,4.6495361328125,15.900512695312
0.009,-20.374877929688,0.4053955078125,18.903442382812
0.0095,-18.292846679688,-4.1590576171875,21.385864257812
0.01,-15.890502929688,-7.3221435546875,22.226684570312
0.0105,-12.687377929688,-10.525268554688,22.346801757812
0.011,-8.4832763671875,-14.168823242188,21.946411132812
0.0115,-3.0379638671875,-17.892456054688,20.464965820312
0.012,2.2471923828125,-20.414916992188,18.062622070312
0.0125,5.8907470703125,-21.976440429688,16.180786132812
0.013,9.0538330078125,-22.577026367188,13.818481445312
0.0135,12.497192382812,-22.216674804688,10.335083007812
0.014,16.260864257812,-21.375854492188,5.9307861328125
0.0145,19.504028320312,-19.854370117188,1.2462158203125
0.015,21.986450195312,-17.371948242188,-3.6785888671875
0.0155,22.787231445312,-15.009643554688,-6.7615966796875
0.016,23.067504882812,-12.206909179688,-10.325073242188
0.0165,22.747192382812,-8.0028076171875,-13.768432617188
0.017,21.746215820312,-3.3582763671875,-17.452026367188
0.0175,19.824340820312,1.2862548828125,-20.214721679688
0.018,17.782348632812,5.4102783203125,-22.296752929688
0.0185,15.019653320312,8.6134033203125,-22.777221679688
0.019,11.336059570312,11.976684570312,-22.577026367188
0.0195,6.5714111328125,15.780395507812,-21.816284179688
0.02,1.2462158203125,19.263793945312,-20.214721679688
0.0205,-3.9989013671875,21.505981445312,-17.572143554688
0.021,-7.3221435546875,22.546997070312,-15.530151367188
0.0215,-10.605346679688,22.907348632812,-12.847534179688
0.022,-14.128784179688,22.266723632812,-8.9237060546875
0.0225,-17.772338867188,21.105590820312,-4.2791748046875
0.023,-20.815307617188,19.063598632812,0.7257080078125
0.0235,-22.897338867188,16.661254882812,5.1300048828125
0.024,-23.297729492188,13.938598632812,8.1729736328125
0.0245,-23.377807617188,10.575317382812,11.656372070312
0.025,-22.777221679688,6.1309814453125,15.460083007812
0.0255,-21.656127929688,1.5665283203125,18.943481445312
0.026,-19.253784179688,-3.1580810546875,21.305786132812
0.0265,-17.171752929688,-6.7615966796875,22.907348632812
0.027,-14.248901367188,-9.8846435546875,23.187622070312
0.0275,-9.9246826171875,-13.448120117188,22.587036132812
0.028,-4.9998779296875,-17.051635742188,21.465942382812
0.0285,0.4854736328125,-20.214721679688,19.504028320312
0.029,5.1700439453125,-22.176635742188,17.021606445312
0.0295,8.2130126953125,-22.697143554688,14.739379882812
0.03,11.576293945312,-22.937377929688,11.896606445312
0.0305,15.420043945312,-22.096557617188,7.3721923828125
0.031,18.783325195312,-20.695190429688,2.8477783203125
0.0315,21.425903320312,-18.453002929688,-2.0369873046875
0.032,23.107543945312,-16.210815429688,-5.9207763671875
0.0325,23.227661132812,-13.328002929688,-8.9237060546875
0.033,23.107543945312,-9.6444091796875,-12.487182617188
0.0335,22.266723632812,-5.2401123046875,-16.090698242188
0.034,20.945434570312,-0.5555419921875,-19.453979492188
0.0345,18.503051757812,4.0889892578125,-21.616088867188
0.035,16.180786132812,7.2921142578125,-22.536987304688
0.0355,13.177856445312,10.535278320312,-22.937377929688
0.036,8.1729736328125,14.539184570312,-22.096557617188
0.0365,3.4884033203125,17.742309570312,-20.775268554688
0.037,-1.7967529296875,20.464965820312,-18.573120117188
0.0375,-5.9608154296875,22.266723632812,-16.491088867188
0.038,-8.9237060546875,22.426879882812,-13.928588867188
0.0385,-12.166870117188,22.506958007812,-11.005737304688
0.039,-16.210815429688,21.546020507812,-6.2010498046875
0.0395,-19.413940429688,19.864379882812,-1.3963623046875
0.04,-21.656127929688,17.462036132812,3.1680908203125
0.0405,-22.937377929688,15.219848632812,6.6114501953125
0.041,-23.057495117188,12.176879882812,9.7344970703125
0.0415,-22.777221679688,7.9727783203125,13.578247070312
0.042,-21.816284179688,3.8487548828125,16.901489257812
0.0425,-20.174682617188,-0.9559326171875,19.984497070312
0.043,-17.892456054688,-5.2000732421875,22.066528320312
0.0435,-15.249877929688,-8.1229248046875,22.426879882812
0.044,-12.246948242188,-11.326049804688,22.747192382812
0.0445,-6.8016357421875,-15.570190429688,21.746215820312
0.045,-1.7967529296875,-18.733276367188,20.064575195312
0.0455,2.9678955078125,-20.935424804688,17.862426757812
0.046,6.7315673828125,-22.536987304688,15.980590820312
0.0465,9.8546142578125,-22.496948242188,13.057739257812
0.047,13.338012695312,-22.256713867188,9.5343017578125
0.0475,17.141723632812,-21.335815429688,5.0499267578125
0.048,20.344848632812,-19.293823242188,-0.1551513671875
0.0485,22.186645507812,-17.331909179688,-4.3592529296875
0.049,22.907348632812,-14.569213867188,-7.4022216796875
0.0495,23.107543945312,-11.566284179688,-10.645385742188
0.05,22.466918945312,-6.6815185546875,-14.889526367188
0.0505,21.425903320312,-2.5174560546875,-17.972534179688
0.051,19.463989257812,2.0870361328125,-20.575073242188
0.0515,17.221801757812,6.0909423828125,-22.456909179688
0.052,14.098754882812,9.1339111328125,-22.416870117188
0.0525,10.655395507812,12.497192382812,-22.456909179688
0.053,5.3302001953125,16.621215820312,-21.455932617188
0.0535,-0.2752685546875,19.744262695312,-19.333862304688
0.054,-4.5194091796875,21.505981445312,-17.171752929688
0.0545,-7.8826904296875,22.667114257812,-15.129760742188
0.055,-11.165893554688,22.667114257812,-12.126831054688
0.0555,-15.009643554688,21.786254882812,-7.6424560546875
0.056,-18.292846679688,20.785278320312,-3.4383544921875
0.0565,-21.175659179688,18.503051757812,1.7266845703125
0.057,-22.777221679688,16.140747070312,5.5704345703125
0.0575,-22.937377929688,13.257934570312,8.5733642578125
0.058,-23.097534179688,10.174926757812,11.816528320312
0.0585,-22.256713867188,5.0899658203125,16.020629882812
0.059,-20.815307617188,0.6456298828125,19.103637695312
0.0595,-18.573120117188,-3.5985107421875,21.105590820312
0.06,-16.611206054688,-7.1219482421875,22.747192382812
0.0605,-13.127807617188,-10.244995117188,22.466918945312
0.061,-8.8035888671875,-13.928588867188,21.946411132812
0.0615,-3.9989013671875,-17.452026367188,20.865356445312
0.062,1.6466064453125,-20.334838867188,18.503051757812
0.0625,5.5303955078125,-21.816284179688,16.380981445312
0.063,8.6134033203125,-22.376831054688,14.018676757812
0.0635,11.696411132812,-22.496948242188,11.336059570312
0.064,15.980590820312,-21.335815429688,6.1309814453125
0.0645,19.023559570312,-19.894409179688,1.7667236328125
0.065,21.305786132812,-17.732299804688,-2.6375732421875
0.0655,22.627075195312,-15.570190429688,-6.1610107421875
0.066,22.426879882812,-12.327026367188,-9.1639404296875
0.0665,22.426879882812,-8.8436279296875,-12.647338867188
0.067,21.626098632812,-4.3592529296875,-16.370971679688
0.0675,19.864379882812,0.5655517578125,-19.413940429688
0.068,17.582153320312,4.4893798828125,-20.855346679688
0.0685,15.380004882812,7.5723876953125,-22.056518554688
0.069,12.216918945312,10.655395507812,-22.096557617188
0.0695,6.7716064453125,14.859497070312,-21.095581054688
0.07,2.3673095703125,17.862426757812,-19.894409179688
0.0705,-2.6776123046875,20.344848632812,-17.652221679688
0.071,-6.1610107421875,21.746215820312,-15.770385742188
0.0715,-9.2840576171875,21.746215820312,-12.887573242188
0.072,-12.407104492188,21.786254882812,-10.084838867188
0.0725,-16.491088867188,20.665161132812,-5.1199951171875
0.073,-19.494018554688,18.623168945312,-0.1551513671875
0.0735,-21.215698242188,16.581176757812,3.5684814453125
0.074,-22.296752929688,14.419067382812,6.7315673828125
0.0745,-22.136596679688,11.255981445312,9.7344970703125
0.075,-21.656127929688,6.9317626953125,13.618286132812
0.0755,-20.855346679688,3.0079345703125,16.821411132812
0.076,-19.133666992188,-1.7967529296875,19.664184570312
0.0765,-16.891479492188,-5.3201904296875,21.225708007812
0.077,-14.248901367188,-8.2030029296875,21.505981445312
0.0775,-11.245971679688,-11.366088867188,21.786254882812
0.078,-5.5203857421875,-15.530151367188,20.464965820312
0.0785,-0.7156982421875,-18.412963867188,18.703247070312
0.079,3.4483642578125,-20.334838867188,16.781372070312
0.0795,6.7716064453125,-21.576049804688,14.979614257812
0.08,9.9346923828125,-21.375854492188,11.896606445312
0.0805,13.338012695312,-21.055541992188,8.2930908203125
0.081,16.821411132812,-20.134643554688,4.0889892578125
0.0815,19.624145507812,-17.932495117188,-0.9559326171875
0.082,20.985473632812,-15.890502929688,-4.1990966796875
0.0825,21.586059570312,-13.448120117188,-7.2020263671875
0.083,21.626098632812,-10.565307617188,-10.084838867188
0.0835,20.905395507812,-5.7606201171875,-14.208862304688
0.084,19.824340820312,-1.7967529296875,-17.131713867188
0.0845,18.022583007812,2.4073486328125,-19.494018554688
0.085,15.980590820312,5.8106689453125,-20.975463867188
0.0855,12.857543945312,8.7335205078125,-20.815307617188
0.086,9.3741455078125,12.176879882812,-20.855346679688
0.0865,4.3292236328125,15.980590820312,-19.854370117188
0.087,-0.9559326171875,18.703247070312,-17.612182617188
0.0875,-4.3192138671875,20.144653320312,-15.890502929688
0.088,-7.3621826171875,21.105590820312,-14.048706054688
0.0885,-10.325073242188,20.945434570312,-11.205932617188
0.089,-14.168823242188,20.104614257812,-6.6414794921875
0.0895,-17.291870117188,18.943481445312,-2.6375732421875
0.09,-19.654174804688,16.821411132812,1.9268798828125
0.0905,-20.815307617188,14.819458007812,4.9698486328125
0.091,-20.975463867188,12.136840820312,7.8126220703125
0.0915,-21.015502929688,9.0938720703125,10.855590820312
0.092,-20.374877929688,4.5694580078125,14.739379882812
0.0925,-18.733276367188,0.2052001953125,17.582153320312
0.093,-17.011596679688,-3.3582763671875,19.343872070312
0.0935,-15.249877929688,-6.4012451171875,20.705200195312
0.094,-12.006713867188,-9.2840576171875,20.424926757812
0.0945,-7.6024169921875,-12.967651367188,19.864379882812
0.095,-3.1580810546875,-16.290893554688,18.903442382812
0.0955,1.7667236328125,-18.733276367188,16.701293945312
0.096,4.8096923828125,-19.894409179688,15.099731445312
0.0965,7.6925048828125,-20.414916992188,12.937622070312
0.097,10.695434570312,-20.454956054688,10.214965820312
0.0975,14.499145507812,-19.534057617188,5.5704345703125
0.098,17.341918945312,-17.892456054688,1.3262939453125
0.0985,19.223754882812,-16.050659179688,-2.2772216796875
0.099,20.184692382812,-14.168823242188,-5.1199951171875
0.0995,20.144653320312,-11.366088867188,-7.8826904296875
0.1,19.984497070312,-7.8026123046875,-11.286010742188
0.1005,19.504028320312,-3.9188232421875,-14.689331054688
0.101,17.782348632812,0.5255126953125,-17.371948242188
0.1015,16.020629882812,3.6485595703125,-18.773315429688
0.102,14.058715820312,6.4512939453125,-19.734252929688
0.1025,11.015747070312,9.4141845703125,-19.734252929688
0.103,6.0909423828125,13.297973632812,-18.853393554688
0.1035,1.8468017578125,16.220825195312,-17.652221679688
0.104,-2.3172607421875,18.342895507812,-15.970581054688
0.1045,-5.2000732421875,19.463989257812,-14.409057617188
0.105,-8.0428466796875,19.544067382812,-11.846557617188
0.1055,-11.245971679688,19.463989257812,-8.8836669921875
0.106,-14.729370117188,18.663208007812,-4.7196044921875
0.1065,-17.452026367188,16.781372070312,-0.1951904296875
0.107,-18.853393554688,15.099731445312,2.8077392578125
0.1075,-19.614135742188,13.137817382812,5.5303955078125
0.108,-19.654174804688,10.415161132812,8.2530517578125
0.1085,-19.213745117188,6.3311767578125,11.976684570312
0.109,-18.573120117188,2.6075439453125,14.979614257812
0.1095,-17.011596679688,-1.3963623046875,17.462036132812
0.11,-15.249877929688,-4.3592529296875,18.703247070312
0.1105,-12.887573242188,-7.0819091796875,19.103637695312
0.111,-9.7645263671875,-10.244995117188,19.223754882812
0.1115,-4.8397216796875,-13.928588867188,18.222778320312
0.112,-0.3153076171875,-16.531127929688,16.501098632812
0.1125,3.0079345703125,-18.292846679688,15.179809570312
0.113,5.8106689453125,-19.253784179688,13.578247070312
0.1135,8.6134033203125,-19.333862304688,11.015747070312
0.114,12.136840820312,-18.933471679688,7.3721923828125
0.1145,15.219848632812,-18.012573242188,3.6485595703125
0.115,17.662231445312,-16.170776367188,-0.7957763671875
0.1155,18.703247070312,-14.489135742188,-3.4383544921875
0.116,19.263793945312,-12.246948242188,-6.1610107421875
0.1165,19.343872070312,-9.4041748046875,-9.1239013671875
0.117,18.863403320312,-5.2401123046875,-12.807495117188
0.1175,17.742309570312,-1.3563232421875,-15.570190429688
0.118,16.300903320312,2.2071533203125,-17.692260742188
0.1185,14.459106445312,5.0899658203125,-18.773315429688
0.119,11.736450195312,7.8126220703125,-18.853393554688
0.1195,8.0128173828125,11.536254882812,-18.613159179688
0.12,3.4483642578125,14.739379882812,-17.812377929688
0.1205,-1.1961669921875,17.101684570312,-15.850463867188
0.121,-3.9989013671875,18.382934570312,-14.529174804688
0.1215,-6.7615966796875,19.103637695312,-12.767456054688
0.122,-9.6844482421875,19.063598632812,-9.9246826171875
0.1225,-13.287963867188,18.422973632812,-5.8406982421875
0.123,-16.090698242188,17.141723632812,-1.8768310546875
0.1235,-18.252807617188,15.380004882812,1.9669189453125
0.124,-19.053588867188,13.578247070312,4.5294189453125
0.1245,-19.293823242188,11.015747070312,7.3321533203125
0.125,-19.213745117188,7.6925048828125,10.575317382812
0.1255,-18.693237304688,3.7686767578125,14.018676757812
0.126,-17.211791992188,-0.4354248046875,16.581176757812
0.1265,-15.730346679688,-3.3983154296875,18.222778320312
0.127,-13.808471679688,-6.1209716796875,19.143676757812
0.1275,-10.645385742188,-9.1239013671875,18.943481445312
0.128,-6.4012451171875,-12.607299804688,18.382934570312
0.1285,-1.9168701171875,-15.690307617188,17.221801757812
0.129,2.2872314453125,-17.812377929688,15.380004882812
0.1295,4.8096923828125,-18.733276367188,13.938598632812
0.13,7.6524658203125,-19.173706054688,11.816528320312
0.1305,10.855590820312,-18.973510742188,8.6134033203125
0.131,14.138793945312,-18.212768554688,4.7296142578125
0.1315,16.741333007812,-16.531127929688,0.6055908203125
0.132,18.503051757812,-14.929565429688,-2.7176513671875
0.1325,19.103637695312,-12.927612304688,-5.3201904296875
0.133,19.183715820312,-10.164916992188,-8.2030029296875
0.1335,18.903442382812,-6.4813232421875,-11.566284179688
0.134,18.262817382812,-2.6776123046875,-15.009643554688
0.1345,16.621215820312,1.4063720703125,-17.171752929688
0.135,14.979614257812,4.1290283203125,-18.332885742188
0.1355,12.857543945312,6.9718017578125,-19.093627929688
0.136,9.1739501953125,10.295043945312,-18.893432617188
0.1365,4.8497314453125,13.618286132812,-18.052612304688
0.137,0.4053955078125,16.340942382812,-16.531127929688
0.1375,-3.2781982421875,18.262817382812,-15.049682617188
0.138,-5.8406982421875,18.903442382812,-13.328002929688
0.1385,-8.6834716796875,19.183715820312,-11.005737304688
0.139,-12.206909179688,18.703247070312,-7.2821044921875
0.1395,-15.329956054688,17.702270507812,-3.1981201171875
0.14,-17.652221679688,15.860473632812,0.9259033203125
0.1405,-18.933471679688,14.258911132812,3.7686767578125
0.141,-19.453979492188,12.016723632812,6.4512939453125
0.1415,-19.373901367188,8.8135986328125,9.6544189453125
0.142,-18.893432617188,5.0098876953125,12.937622070312
0.1425,-17.852416992188,1.0059814453125,15.900512695312
0.143,-16.210815429688,-2.8377685546875,18.102661132812
0.1435,-14.328979492188,-5.4002685546875,18.823364257812
0.144,-11.846557617188,-8.0828857421875,19.263793945312
0.1445,-7.7225341796875,-11.886596679688,18.863403320312
0.145,-3.1981201171875,-15.009643554688,17.782348632812
0.1455,1.0860595703125,-17.251831054688,15.980590820312
0.146,4.2491455078125,-18.853393554688,14.619262695312
0.1465,6.8917236328125,-19.253784179688,12.617309570312
0.147,9.9747314453125,-19.213745117188,9.7344970703125
0.1475,13.297973632812,-18.733276367188,6.0108642578125
0.148,16.260864257812,-17.331909179688,1.8468017578125
0.1485,18.342895507812,-15.530151367188,-2.0369873046875
0.149,19.143676757812,-13.688354492188,-4.5994873046875
0.1495,19.504028320312,-11.286010742188,-7.4022216796875
0.15,19.263793945312,-7.5223388671875,-10.925659179688
0.1505,18.623168945312,-3.8387451171875,-13.968627929688
0.151,17.221801757812,0.1651611328125,-16.491088867188
0.1515,15.740356445312,3.6085205078125,-18.533081054688
0.152,13.578247070312,6.1710205078125,-18.933471679688
0.1525,10.615356445312,9.0538330078125,-19.053588867188
0.153,6.3712158203125,12.737426757812,-18.533081054688
0.1535,1.6866455078125,15.820434570312,-17.171752929688
0.154,-2.2772216796875,17.702270507812,-15.369995117188
0.1545,-4.9998779296875,18.863403320312,-13.968627929688
0.155,-7.8426513671875,19.263793945312,-11.846557617188
0.1555,-11.085815429688,18.863403320312,-8.3231201171875
0.156,-14.168823242188,18.182739257812,-4.7596435546875
0.1565,-16.851440429688,16.501098632812,-0.5155029296875
0.157,-18.773315429688,14.779418945312,3.0880126953125
0.1575,-19.173706054688,12.697387695312,5.5303955078125
0.158,-19.534057617188,10.214965820312,8.3331298828125
0.1585,-19.133666992188,6.1710205078125,12.016723632812
0.159,-18.292846679688,2.3272705078125,15.059692382812
0.1595,-16.651245117188,-1.5164794921875,17.221801757812
0.16,-15.249877929688,-4.5594482421875,18.743286132812
0.1605,-12.807495117188,-7.2020263671875,19.183715820312
0.161,-9.2039794921875,-10.445190429688,18.943481445312
0.1615,-5.2000732421875,-13.688354492188,18.302856445312
0.162,-0.3953857421875,-16.531127929688,16.621215820312
0.1625,3.2882080078125,-18.332885742188,15.019653320312
0.163,5.8106689453125,-18.973510742188,13.378051757812
0.1635,8.6134033203125,-19.494018554688,11.255981445312
0.164,12.457153320312,-18.933471679688,7.0518798828125
0.1645,15.339965820312,-17.932495117188,3.2481689453125
0.165,17.662231445312,-16.210815429688,-0.7156982421875
0.1655,19.303833007812,-14.609252929688,-3.9188232421875
0.166,19.504028320312,-12.166870117188,-6.4813232421875
0.1665,19.664184570312,-9.0838623046875,-9.7244873046875
0.167,19.223754882812,-5.2801513671875,-13.127807617188
0.1675,18.062622070312,-1.0760498046875,-16.210815429688
0.168,16.260864257812,2.5675048828125,-18.132690429688
0.1685,14.579223632812,5.3302001953125,-19.133666992188
0.169,12.136840820312,8.2130126953125,-19.654174804688
0.1695,7.3321533203125,12.056762695312,-19.013549804688
0.17,3.3682861328125,15.099731445312,-18.092651367188
0.1705,-1.2362060546875,17.622192382812,-16.330932617188
0.171,-4.6795654296875,19.343872070312,-14.809448242188
0.1715,-7.3221435546875,19.504028320312,-12.567260742188
0.172,-10.204956054688,19.824340820312,-10.204956054688
0.1725,-14.088745117188,19.063598632812,-5.7606201171875
0.173,-17.011596679688,17.502075195312,-1.3563232421875
0.1735,-18.933471679688,15.700317382812,2.3673095703125
0.174,-20.174682617188,13.898559570312,5.2901611328125
0.1745,-20.254760742188,11.215942382812,8.0928955078125
0.175,-20.054565429688,7.2520751953125,11.816528320312
0.1755,-19.413940429688,3.6485595703125,14.819458007812
0.176,-17.972534179688,-0.7557373046875,17.742309570312
0.1765,-16.090698242188,-4.3592529296875,19.504028320312
0.177,-13.768432617188,-6.9217529296875,19.824340820312
0.1775,-11.205932617188,-9.8045654296875,20.184692382812
0.178,-5.9207763671875,-13.888549804688,19.223754882812
