wavelength,x,y,z
0.0,-1.4814453125,18.7783203125,-17.3369140625
0.0005,-4.6845703125,19.9794921875,-15.53515625
0.001,-7.7275390625,20.1796875,-12.9326171875
0.0015,-10.890625,20.3798828125,-10.2099609375
0.002,-14.8544921875,19.4990234375,-5.4052734375
0.0025,-17.8173828125,18.0576171875,-1.1611328125
0.003,-19.5791015625,16.2958984375,2.3623046875
0.0035,-20.7001953125,14.09375,5.5654296875
0.004,-20.66015625,10.8505859375,8.6884765625
0.0045,-20.5400390625,7.046875,12.4921875
0.005,-19.9794921875,3.283203125,15.7353515625
0.0055,-18.578125,-0.9208984375,18.498046875
0.006,-16.6962890625,-4.3642578125,19.859375
0.0065,-14.0537109375,-7.3271484375,20.4599609375
0.007,-11.0107421875,-10.4501953125,20.66015625
0.0075,-5.7255859375,-14.57421875,19.69921875
0.008,-1.4814453125,-17.296875,18.4580078125
0.0085,2.4423828125,-19.21875,16.736328125
0.009,5.685546875,-20.33984375,14.8544921875
0.0095,8.80859375,-20.259765625,11.69140625
0.01,12.171875,-20.0595703125,8.5283203125
0.0105,15.775390625,-19.298828125,4.2841796875
0.011,18.498046875,-17.45703125,-0.240234375
0.0115,19.859375,-15.6552734375,-3.36328125
0.012,20.580078125,-13.1328125,-6.5263671875
0.0125,20.5,-10.1298828125,-9.5693359375
0.013,20.1396484375,-5.6455078125,-13.5732421875
0.0135,19.37890625,-2.001953125,-16.65625
0.014,17.8974609375,1.841796875,-18.8583984375
0.0145,15.775390625,5.1650390625,-20.1396484375
0.015,12.6123046875,8.2880859375,-20.2197265625
0.0155,9.3291015625,11.6513671875,-20.3798828125
0.016,4.32421875,15.4951171875,-19.4990234375
0.0165,-0.3203125,18.09765625,-17.6572265625
0.017,-3.5234375,19.4990234375,-16.095703125
0.0175,-6.7265625,20.3798828125,-14.09375
0.018,-9.9296875,20.2197265625,-10.9306640625
0.0185,-13.6533203125,19.6591796875,-6.7666015625
0.019,-16.8564453125,18.73828125,-2.8427734375
0.0195,-19.21875,16.81640625,1.4814453125
0.02,-20.259765625,14.7744140625,4.5244140625
0.0205,-20.7001953125,11.8515625,7.767578125
0.021,-20.740234375,8.728515625,11.0107421875
0.0215,-20.33984375,4.2041015625,14.974609375
0.022,-18.9384765625,0.2802734375,17.6572265625
0.0225,-17.296875,-3.203125,19.4990234375
0.023,-15.1748046875,-6.40625,20.66015625
0.0235,-11.611328125,-9.6494140625,20.4599609375
0.024,-7.7275390625,-13.3330078125,20.2197265625
0.0245,-3.123046875,-16.6962890625,19.21875
0.025,1.6416015625,-18.978515625,17.13671875
0.0255,4.8046875,-19.8994140625,15.375
0.026,7.8076171875,-20.5400390625,13.0927734375
0.0265,11.05078125,-20.419921875,9.8896484375
0.027,14.89453125,-19.5390625,5.365234375
0.0275,17.77734375,-18.2978515625,1.28125
0.028,19.8193359375,-16.416015625,-2.6025390625
0.0285,20.5,-14.1337890625,-5.525390625
0.029,20.6201171875,-10.890625,-8.8486328125
0.0295,20.5,-7.3271484375,-12.33203125
0.03,19.9794921875,-3.2431640625,-15.8955078125
0.0305,18.3779296875,0.9609375,-18.41796875
0.031,16.49609375,4.1240234375,-19.779296875
0.0315,14.09375,7.3671875,-20.66015625
0.032,10.4501953125,10.73046875,-20.5
0.0325,5.765625,14.494140625,-19.7392578125
0.033,1.4814453125,17.45703125,-18.73828125
0.0335,-2.8427734375,19.4990234375,-16.7763671875
0.034,-5.765625,20.259765625,-14.7744140625
0.0345,-9.0888671875,20.4599609375,-11.8916015625
0.035,-12.4921875,20.1796875,-8.48828125
0.0355,-16.0556640625,19.2587890625,-4.00390625
0.036,-18.7783203125,17.45703125,0.3603515625
0.0365,-20.33984375,15.5751953125,3.68359375
0.037,-20.9404296875,13.052734375,6.8466796875
0.0375,-20.8603515625,9.609375,10.2099609375
0.038,-20.4599609375,5.5654296875,13.8935546875
0.0385,-19.779296875,1.6015625,17.13671875
0.039,-18.017578125,-2.5224609375,19.4990234375
0.0395,-15.85546875,-5.6455078125,20.4599609375
0.04,-13.052734375,-8.80859375,21.1005859375
0.0405,-9.12890625,-12.5322265625,20.8203125
0.041,-4.244140625,-16.095703125,19.779296875
0.0415,0.240234375,-18.73828125,18.1376953125
0.042,3.9638671875,-20.3798828125,16.416015625
0.0425,7.046875,-20.8603515625,14.09375
0.043,10.41015625,-20.8203125,10.890625
0.0435,14.09375,-20.3798828125,6.88671875
0.044,17.45703125,-19.0986328125,2.5224609375
0.0445,19.8193359375,-17.1767578125,-1.8017578125
0.045,20.8203125,-15.0947265625,-4.884765625
0.0455,21.30078125,-12.2119140625,-8.2080078125
0.046,21.1005859375,-8.4482421875,-11.7314453125
0.0465,20.4599609375,-4.32421875,-15.2548828125
0.047,19.3388671875,-0.3603515625,-18.1376953125
0.0475,17.5771484375,3.68359375,-20.259765625
0.048,14.974609375,6.7666015625,-20.8203125
0.0485,11.8115234375,10.0498046875,-21.140625
0.049,7.4072265625,13.8935546875,-20.8203125
0.0495,2.6025390625,17.2568359375,-19.619140625
0.05,-1.8818359375,19.458984375,-17.537109375
0.0505,-5.1650390625,20.7802734375,-15.85546875
0.051,-8.328125,21.1005859375,-13.2529296875
0.0515,-11.7314453125,20.8203125,-9.76953125
0.052,-15.4150390625,20.1396484375,-5.525390625
0.0525,-18.5380859375,18.6181640625,-1.041015625
0.053,-20.66015625,16.49609375,3.1630859375
0.0535,-21.2607421875,14.09375,6.0859375
0.054,-21.62109375,11.0107421875,9.5693359375
0.0545,-21.220703125,6.88671875,13.3330078125
0.055,-20.5,2.8427734375,16.65625
0.0555,-18.9384765625,-1.28125,19.0986328125
0.056,-17.056640625,-4.9248046875,20.9404296875
0.0565,-14.2138671875,-8.0078125,21.30078125
0.057,-10.6103515625,-11.451171875,21.1806640625
0.0575,-6.1259765625,-15.0947265625,20.6201171875
0.058,-1.2412109375,-18.337890625,19.1787109375
0.0585,3.123046875,-20.2197265625,17.0166015625
0.059,6.1259765625,-21.0205078125,15.0546875
0.0595,9.609375,-21.30078125,12.2119140625
0.06,13.2529296875,-20.7001953125,8.1279296875
0.0605,16.576171875,-19.8994140625,4.1240234375
0.061,19.2587890625,-18.2578125,-0.3603515625
0.0615,21.140625,-16.0556640625,-4.2041015625
0.062,21.4208984375,-13.29296875,-7.20703125
0.0625,21.62109375,-10.009765625,-10.650390625
0.063,21.060546875,-5.7255859375,-14.4541015625
0.0635,20.2197265625,-1.6015625,-17.77734375
0.064,18.2978515625,2.2822265625,-19.859375
0.0645,16.255859375,5.7255859375,-21.140625
0.065,13.373046875,9.12890625,-21.541015625
0.0655,8.8486328125,12.8125,-21.140625
0.066,4.6044921875,16.17578125,-20.33984375
0.0665,-0.3603515625,19.05859375,-18.578125
0.067,-4.32421875,20.740234375,-16.6162109375
0.0675,-7.2470703125,21.1005859375,-14.25390625
0.068,-10.5703125,21.3408203125,-11.4111328125
0.0685,-14.6142578125,20.4599609375,-6.7265625
0.069,-17.77734375,19.2587890625,-2.5224609375
0.0695,-20.099609375,17.4169921875,1.681640625
0.07,-21.5810546875,15.2548828125,5.2451171875
0.0705,-21.6611328125,12.171875,8.408203125
0.071,-21.701171875,8.48828125,12.171875
0.0715,-21.140625,4.404296875,15.6953125
0.072,-19.939453125,0.080078125,19.0185546875
0.0725,-17.857421875,-3.8837890625,20.66015625
0.073,-15.53515625,-6.9267578125,21.4208984375
0.0735,-12.4521484375,-10.2099609375,21.8212890625
0.074,-7.4072265625,-14.2939453125,21.0205078125
0.0745,-3.0830078125,-17.3369140625,19.8994140625
0.075,1.521484375,-19.619140625,17.9775390625
0.0755,5.205078125,-21.220703125,16.0556640625
0.076,8.248046875,-21.140625,13.2529296875
0.0765,11.53125,-21.1806640625,10.2099609375
0.077,15.53515625,-20.3798828125,5.60546875
0.0775,18.578125,-18.7783203125,1.12109375
0.078,20.4599609375,-16.81640625,-2.72265625
0.0785,21.4609375,-14.57421875,-5.9658203125
0.079,21.5810546875,-11.37109375,-9.2890625
0.0795,21.2607421875,-7.0869140625,-13.3330078125
0.08,20.740234375,-3.4033203125,-16.416015625
0.0805,19.3388671875,0.7607421875,-19.138671875
0.081,17.13671875,4.564453125,-20.8203125
0.0815,14.2138671875,7.607421875,-21.0205078125
0.082,11.2109375,10.890625,-21.4609375
0.0825,5.9658203125,15.0947265625,-20.5
0.083,1.4013671875,18.017578125,-19.0986328125
0.0835,-2.6025390625,19.8193359375,-17.2568359375
0.084,-6.0458984375,21.1005859375,-15.3349609375
0.0845,-9.2490234375,20.9404296875,-12.251953125
0.085,-12.732421875,20.6201171875,-8.6083984375
0.0855,-16.255859375,19.859375,-4.5244140625
0.086,-19.1787109375,18.017578125,0.16015625
0.0865,-20.8203125,15.9755859375,3.763671875
0.087,-21.30078125,13.373046875,6.88671875
0.0875,-21.5810546875,10.330078125,10.1298828125
0.088,-21.1005859375,5.4853515625,14.494140625
0.0885,-20.1796875,1.76171875,17.296875
0.089,-18.578125,-2.1220703125,19.5791015625
0.0895,-16.5361328125,-5.7255859375,21.2607421875
0.09,-13.212890625,-8.80859375,21.140625
0.0905,-9.7294921875,-12.251953125,21.1806640625
0.091,-4.884765625,-16.015625,20.3798828125
0.0915,0.1201171875,-18.8583984375,18.498046875
0.092,3.6435546875,-20.33984375,16.65625
0.0925,7.0068359375,-21.1806640625,14.4541015625
0.093,10.169921875,-21.1806640625,11.53125
0.0935,14.173828125,-20.4599609375,6.88671875
0.094,17.296875,-19.4990234375,3.04296875
0.0945,19.7392578125,-17.6572265625,-1.2412109375
0.095,21.1005859375,-15.53515625,-4.64453125
0.0955,21.1806640625,-12.4521484375,-7.84765625
0.096,21.541015625,-9.2890625,-11.3310546875
0.0965,20.8603515625,-4.6845703125,-15.2548828125
0.097,19.6591796875,-0.5205078125,-18.2578125
0.0975,17.7373046875,3.123046875,-19.939453125
0.098,15.615234375,6.56640625,-21.3408203125
0.0985,12.171875,9.849609375,-21.30078125
0.099,7.607421875,13.7734375,-20.8203125
0.0995,3.4033203125,16.9765625,-20.01953125
0.1,-1.521484375,19.4990234375,-17.9775390625
0.1005,-4.884765625,20.740234375,-16.015625
0.101,-8.0478515625,21.060546875,-13.453125
0.1015,-11.2509765625,21.1806640625,-10.5703125
0.102,-15.4951171875,20.1796875,-5.525390625
0.1025,-18.4580078125,18.73828125,-1.28125
0.103,-20.4599609375,16.9365234375,2.5625
0.1035,-21.541015625,14.57421875,5.92578125
0.104,-21.4609375,11.2109375,9.2890625
0.1045,-21.4208984375,7.3671875,12.9326171875
0.105,-20.8203125,3.2431640625,16.49609375
0.1055,-19.2587890625,-1.1611328125,19.3388671875
0.106,-17.0966796875,-4.6044921875,20.740234375
0.1065,-14.6943359375,-7.84765625,21.541015625
0.107,-11.2509765625,-11.0908203125,21.62109375
0.1075,-5.92578125,-15.3349609375,20.5400390625
0.108,-1.6015625,-18.177734375,19.37890625
0.1085,2.72265625,-20.259765625,17.4169921875
0.109,6.1259765625,-21.2607421875,15.3349609375
0.1095,9.44921875,-21.140625,12.1318359375
0.11,12.7724609375,-21.060546875,8.888671875
0.1105,16.6162109375,-20.0595703125,4.2041015625
0.111,19.458984375,-18.1376953125,-0.5205078125
0.1115,20.8203125,-16.17578125,-3.7236328125
0.112,21.5009765625,-13.7734375,-7.0068359375
0.1125,21.4208984375,-10.2900390625,-10.2099609375
0.113,20.9404296875,-5.845703125,-14.173828125
0.1135,20.1796875,-2.08203125,-17.2568359375
0.114,18.5380859375,2.0419921875,-19.69921875
0.1145,16.255859375,5.4453125,-20.8603515625
0.115,13.1328125,8.6484375,-21.0205078125
0.1155,9.7294921875,12.091796875,-21.1806640625
0.116,4.404296875,15.9755859375,-20.0595703125
0.1165,-0.2001953125,18.6181640625,-18.2978515625
0.117,-3.603515625,20.1796875,-16.6162109375
0.1175,-6.9267578125,21.060546875,-14.4541015625
0.118,-10.169921875,20.7802734375,-11.2109375
0.1185,-13.8134765625,20.259765625,-7.2470703125
0.119,-17.13671875,19.2587890625,-3.203125
0.1195,-19.5791015625,17.296875,1.3212890625
0.12,-20.580078125,15.21484375,4.404296875
0.1205,-21.140625,12.412109375,7.6875
0.121,-21.140625,9.208984375,10.8505859375
0.1215,-20.5,4.6044921875,14.8544921875
0.122,-19.37890625,0.7607421875,17.6572265625
0.1225,-17.77734375,-2.9228515625,19.6591796875
0.123,-15.5751953125,-6.166015625,20.7802734375
0.1235,-12.091796875,-9.369140625,20.66015625
0.124,-8.328125,-12.892578125,20.66015625
0.1245,-3.5634765625,-16.5361328125,19.5390625
0.125,1.2412109375,-18.8984375,17.45703125
0.1255,4.2041015625,-20.01953125,15.85546875
0.126,7.4873046875,-20.7001953125,13.533203125
0.1265,10.73046875,-20.5400390625,10.2900390625
0.127,14.57421875,-19.779296875,5.8857421875
0.1275,17.537109375,-18.6181640625,1.921875
0.128,19.69921875,-16.736328125,-2.1220703125
0.1285,20.5,-14.5341796875,-5.125
0.129,20.7001953125,-11.4111328125,-8.408203125
0.1295,20.6201171875,-7.8876953125,-11.8515625
0.13,20.099609375,-3.7236328125,-15.53515625
0.1305,18.578125,0.400390625,-18.2177734375
0.131,16.7763671875,3.68359375,-19.619140625
0.1315,14.4140625,6.966796875,-20.66015625
0.132,10.8505859375,10.2099609375,-20.4599609375
0.1325,6.40625,14.013671875,-19.8994140625
0.133,2.0419921875,17.13671875,-18.9384765625
0.1335,-2.40234375,19.21875,-16.896484375
0.134,-5.28515625,20.0595703125,-15.0546875
0.1345,-8.6083984375,20.4599609375,-12.3720703125
0.135,-11.931640625,20.259765625,-8.96875
0.1355,-15.615234375,19.3388671875,-4.6044921875
0.136,-18.578125,17.697265625,-0.3203125
0.1365,-20.1796875,15.85546875,3.2431640625
0.137,-20.8203125,13.4130859375,6.3662109375
0.1375,-20.8603515625,10.08984375,9.7294921875
0.138,-20.5400390625,6.1259765625,13.373046875
0.1385,-19.939453125,2.2021484375,16.736328125
0.139,-18.2177734375,-1.9619140625,19.1787109375
0.1395,-16.1357421875,-5.044921875,20.2197265625
0.14,-13.533203125,-8.328125,20.98046875
0.1405,-9.689453125,-11.771484375,20.740234375
0.141,-4.8447265625,-15.4150390625,19.69921875
0.1415,-0.48046875,-18.1376953125,18.2978515625
0.142,3.4833984375,-20.01953125,16.49609375
0.1425,6.4462890625,-20.5400390625,14.2939453125
0.143,9.8095703125,-20.6201171875,11.2509765625
0.1435,13.373046875,-20.419921875,7.3271484375
0.144,16.7763671875,-19.21875,3.1630859375
0.1445,19.2587890625,-17.296875,-1.1611328125
0.145,20.4599609375,-15.294921875,-4.244140625
0.1455,20.9404296875,-12.5322265625,-7.52734375
0.146,20.7802734375,-8.96875,-10.970703125
0.1465,20.2197265625,-4.8447265625,-14.5341796875
0.147,19.298828125,-0.9609375,-17.4970703125
0.1475,17.5771484375,2.962890625,-19.6591796875
0.148,15.0947265625,6.005859375,-20.33984375
0.1485,12.171875,9.2490234375,-20.7001953125
0.149,7.9677734375,13.052734375,-20.419921875
0.1495,3.3232421875,16.3759765625,-19.3388671875
0.15,-1.1611328125,18.6181640625,-17.45703125
0.1505,-4.484375,20.1396484375,-15.8154296875
0.151,-7.52734375,20.5,-13.4130859375
0.1515,-10.810546875,20.33984375,-10.169921875
0.152,-14.4140625,19.779296875,-6.1259765625
0.1525,-17.6171875,18.41796875,-1.8017578125
0.153,-19.7392578125,16.4560546875,2.322265625
0.1535,-20.5,14.25390625,5.2451171875
0.154,-20.900390625,11.3310546875,8.6083984375
0.1545,-20.7001953125,7.447265625,12.2119140625
0.155,-20.0595703125,3.4833984375,15.615234375
0.1555,-18.578125,-0.3203125,18.1376953125
0.156,-16.9765625,-4.1240234375,20.099609375
0.1565,-14.4140625,-7.0869140625,20.5400390625
0.157,-11.0908203125,-10.330078125,20.6201171875
0.1575,-6.6865234375,-14.09375,20.1396484375
0.158,-2.001953125,-17.296875,18.8583984375
0.1585,2.2021484375,-19.21875,16.896484375
0.159,5.125,-20.2197265625,15.134765625
0.1595,8.408203125,-20.580078125,12.4921875
0.16,11.8515625,-20.2197265625,8.80859375
0.1605,15.294921875,-19.4990234375,4.884765625
0.161,18.09765625,-17.9775390625,0.640625
0.1615,20.01953125,-16.015625,-3.203125
0.162,20.4599609375,-13.453125,-6.0859375
0.1625,20.7001953125,-10.4501953125,-9.369140625
0.163,20.33984375,-6.326171875,-13.1728515625
0.1635,19.6591796875,-2.4423828125,-16.3759765625
0.164,18.017578125,1.4013671875,-18.578125
0.1645,16.17578125,4.7646484375,-20.099609375
0.165,13.373046875,7.927734375,-20.5400390625
0.1655,9.529296875,11.4111328125,-20.33984375
0.166,5.2451171875,14.8544921875,-19.69921875
0.1665,0.640625,17.857421875,-18.2578125
0.167,-3.283203125,19.5791015625,-16.3759765625
0.1675,-6.1259765625,20.1396484375,-14.333984375
0.168,-9.369140625,20.4599609375,-11.611328125
0.1685,-13.212890625,19.859375,-7.4072265625
0.169,-16.3759765625,18.9384765625,-3.4833984375
0.1695,-18.818359375,17.216796875,0.6806640625
0.17,-20.5,15.21484375,4.244140625
0.1705,-20.66015625,12.412109375,7.287109375
0.171,-20.8203125,9.0888671875,10.7705078125
0.1715,-20.33984375,4.96484375,14.3740234375
0.172,-19.37890625,0.9208984375,17.537109375
0.1725,-17.537109375,-2.9228515625,19.458984375
0.173,-15.455078125,-5.8857421875,20.4599609375
0.1735,-12.5322265625,-9.1689453125,20.8603515625
0.174,-7.927734375,-13.0927734375,20.33984375
0.1745,-3.8037109375,-16.17578125,19.4189453125
0.175,0.7607421875,-18.6181640625,17.6572265625
0.1755,4.4443359375,-20.259765625,15.8955078125
0.176,7.3671875,-20.4599609375,13.373046875
0.1765,10.5302734375,-20.66015625,10.5703125
0.177,14.5341796875,-19.8994140625,6.0458984375
0.1775,17.537109375,-18.578125,1.841796875
0.178,19.5390625,-16.6962890625,-2.001953125
0.1785,20.740234375,-14.6142578125,-5.2451171875
0.179,20.7001953125,-11.611328125,-8.3681640625
0.1795,20.7001953125,-7.5673828125,-12.251953125
0.18,20.1396484375,-3.8837890625,-15.4150390625
0.1805,18.8984375,0.2802734375,-18.2578125
0.181,16.896484375,3.9638671875,-20.01953125
0.1815,14.25390625,6.88671875,-20.3798828125
0.182,11.4111328125,10.08984375,-20.8203125
0.1825,6.326171875,14.25390625,-20.0595703125
0.183,2.001953125,17.13671875,-18.8583984375
0.1835,-2.0419921875,19.05859375,-17.0166015625
0.184,-5.4453125,20.4599609375,-15.2548828125
0.1845,-8.48828125,20.3798828125,-12.3720703125
0.185,-11.8515625,20.1796875,-9.048828125
0.1855,-15.4951171875,19.5390625,-4.9248046875
0.186,-18.337890625,17.857421875,-0.5205078125
0.1865,-20.0595703125,15.935546875,3.1630859375
0.187,-20.7001953125,13.4931640625,6.1259765625
0.1875,-20.9404296875,10.5302734375,9.3291015625
0.188,-20.5,6.005859375,13.4931640625
0.1885,-19.8193359375,2.40234375,16.416015625
0.189,-18.2978515625,-1.4814453125,18.73828125
0.1895,-16.3759765625,-5.044921875,20.4599609375
0.19,-13.3330078125,-8.0078125,20.4599609375
0.1905,-10.169921875,-11.291015625,20.6201171875
0.191,-5.28515625,-15.134765625,19.859375
0.1915,-0.640625,-17.9775390625,18.2177734375
0.192,3.04296875,-19.5390625,16.49609375
0.1925,6.166015625,-20.5,14.5341796875
0.193,9.3291015625,-20.5400390625,11.6513671875
0.1935,13.0927734375,-19.8994140625,7.447265625
0.194,16.255859375,-19.1787109375,3.7236328125
0.1945,18.818359375,-17.4169921875,-0.560546875
0.195,20.259765625,-15.4150390625,-4.00390625
0.1955,20.4599609375,-12.572265625,-7.0068359375
0.196,20.740234375,-9.609375,-10.25
0.1965,20.259765625,-5.0849609375,-14.2939453125
0.197,19.2587890625,-1.1611328125,-17.216796875
0.1975,17.537109375,2.40234375,-19.0185546875
0.198,15.615234375,5.8056640625,-20.5400390625
0.1985,12.4521484375,9.0087890625,-20.5
0.199,8.16796875,12.6123046875,-20.33984375
0.1995,4.00390625,15.9755859375,-19.5791015625
0.2,-0.8408203125,18.5380859375,-17.6572265625
0.2005,-4.1640625,19.8994140625,-15.8955078125
0.201,-7.2470703125,20.419921875,-13.533203125
0.2015,-10.3701171875,20.6201171875,-10.8505859375
0.202,-14.5341796875,19.69921875,-5.9658203125
0.2025,-17.4970703125,18.498046875,-1.9619140625
0.203,-19.5791015625,16.65625,1.921875
0.2035,-20.8203125,14.57421875,5.2451171875
0.204,-20.8203125,11.3310546875,8.4482421875
0.2045,-20.8603515625,7.84765625,11.9716796875
0.205,-20.3798828125,3.763671875,15.615234375
0.2055,-18.978515625,-0.5205078125,18.498046875
0.206,-16.9765625,-3.923828125,19.9794921875
0.2065,-14.7744140625,-7.126953125,20.9404296875
0.207,-11.37109375,-10.2900390625,21.0205078125
0.2075,-6.3662109375,-14.4541015625,20.1796875
0.208,-2.2421875,-17.4169921875,19.1787109375
0.2085,2.162109375,-19.5390625,17.296875
0.209,5.4052734375,-20.7001953125,15.375
0.2095,8.6083984375,-20.66015625,12.412109375
0.21,11.8115234375,-20.66015625,9.4091796875
0.2105,15.7353515625,-19.7392578125,4.724609375
0.211,18.578125,-17.9775390625,0.2802734375
0.2115,20.099609375,-16.17578125,-3.0830078125
0.212,20.98046875,-13.8134765625,-6.326171875
0.2125,20.8603515625,-10.5703125,-9.44921875
0.213,20.5400390625,-6.2861328125,-13.3330078125
0.2135,19.8994140625,-2.6025390625,-16.49609375
0.214,18.41796875,1.5615234375,-19.0185546875
0.2145,16.2158203125,4.9248046875,-20.2998046875
0.215,13.29296875,8.1279296875,-20.66015625
0.2155,10.2099609375,11.37109375,-20.9404296875
0.216,4.9248046875,15.375,-19.8994140625
0.2165,0.560546875,18.017578125,-18.2978515625
0.217,-3.0830078125,19.6591796875,-16.65625
0.2175,-6.3662109375,20.6201171875,-14.654296875
0.218,-9.609375,20.419921875,-11.4111328125
0.2185,-13.052734375,20.01953125,-7.7275390625
