wavelength,x,y,z
0.0,7.20703125,-10.650390625,3.4833984375
0.0005,5.205078125,-10.5302734375,5.4853515625
0.001,2.2421875,-10.0498046875,8.0478515625
0.0015,0.1201171875,-9.12890625,9.2490234375
0.002,-1.6015625,-9.208984375,11.130859375
0.0025,-3.5634765625,-7.4072265625,11.2109375
0.003,-4.8447265625,-5.7255859375,10.810546875
0.0035,-7.7275390625,-3.04296875,11.0107421875
0.004,-9.7294921875,-0.3203125,10.25
0.0045,-10.970703125,1.4013671875,9.849609375
0.005,-12.251953125,2.802734375,9.76953125
0.0055,-11.69140625,4.564453125,7.3671875
0.006,-11.4111328125,6.0859375,5.5654296875
0.0065,-11.4912109375,8.80859375,2.8828125
0.007,-10.2900390625,9.8095703125,0.640625
0.0075,-10.41015625,11.0107421875,-0.640625
0.008,-8.9287109375,11.2509765625,-2.5224609375
0.0085,-6.56640625,10.2099609375,-3.923828125
0.009,-4.32421875,10.1298828125,-6.2060546875
0.0095,-1.521484375,9.6494140625,-8.6884765625
0.01,0.3603515625,8.7685546875,-9.609375
0.0105,1.8017578125,8.888671875,-11.130859375
0.011,3.8037109375,6.88671875,-11.05078125
0.0115,5.4052734375,4.8046875,-10.650390625
0.012,8.4482421875,2.0419921875,-10.890625
0.0125,10.2099609375,-0.640625,-9.9697265625
0.013,11.2109375,-1.9619140625,-9.689453125
0.0135,12.171875,-3.36328125,-9.2490234375
0.014,11.4912109375,-5.205078125,-6.6865234375
0.0145,11.1708984375,-6.966796875,-4.6044921875
0.015,11.3310546875,-9.6494140625,-2.001953125
0.0155,9.9697265625,-10.2900390625,0.1201171875
0.016,10.1298828125,-11.291015625,1.12109375
0.0165,8.16796875,-11.2109375,3.0830078125
0.017,5.6455078125,-10.2099609375,4.64453125
0.0175,3.3232421875,-10.1298828125,7.0068359375
0.018,0.6005859375,-9.529296875,9.208984375
0.0185,-1.041015625,-8.6884765625,9.9697265625
0.019,-2.3623046875,-8.5283203125,11.2109375
0.0195,-4.4443359375,-6.24609375,10.9306640625
0.02,-6.40625,-3.923828125,10.5302734375
0.0205,-9.369140625,-1.28125,10.8505859375
0.021,-10.73046875,1.2412109375,9.7294921875
0.0215,-11.53125,2.08203125,9.6494140625
0.022,-12.0517578125,3.6435546875,8.6884765625
0.0225,-11.37109375,5.60546875,6.0458984375
0.023,-11.0908203125,7.6474609375,3.7236328125
0.0235,-11.1708984375,10.1298828125,1.201171875
0.024,-9.76953125,10.4501953125,-0.640625
0.0245,-9.849609375,11.1708984375,-1.44140625
0.025,-7.52734375,10.810546875,-3.5634765625
0.0255,-4.8447265625,9.8896484375,-5.3251953125
0.026,-2.4423828125,9.8896484375,-7.84765625
0.0265,0.240234375,9.1689453125,-9.76953125
0.027,1.521484375,8.3681640625,-10.330078125
0.0275,2.72265625,8.0078125,-11.2109375
0.028,4.96484375,5.4853515625,-10.890625
0.0285,7.0869140625,2.9228515625,-10.4501953125
0.029,10.08984375,0.2001953125,-10.650390625
0.0295,11.0107421875,-1.9619140625,-9.529296875
0.03,11.5712890625,-2.6025390625,-9.4091796875
0.0305,11.8515625,-4.32421875,-7.9677734375
0.031,11.130859375,-6.3662109375,-5.1650390625
0.0315,10.890625,-8.48828125,-2.8427734375
0.032,10.7705078125,-10.6904296875,-0.400390625
0.0325,9.44921875,-10.73046875,1.12109375
0.033,9.208984375,-11.1708984375,1.921875
0.0335,6.6064453125,-10.5703125,4.083984375
0.034,3.923828125,-9.7294921875,5.9658203125
0.0345,1.5615234375,-9.76953125,8.5283203125
0.035,-0.9208984375,-8.888671875,10.0498046875
0.0355,-1.8818359375,-8.2880859375,10.3701171875
0.036,-3.203125,-7.447265625,10.9306640625
0.0365,-5.4853515625,-4.8046875,10.5302734375
0.037,-7.7275390625,-2.2822265625,10.2099609375
0.0375,-10.4501953125,0.2802734375,10.41015625
0.038,-11.0107421875,1.9619140625,9.2490234375
0.0385,-11.4111328125,2.6025390625,9.0888671875
0.039,-11.53125,4.6044921875,7.1669921875
0.0395,-10.8505859375,6.5263671875,4.564453125
0.04,-10.810546875,8.7685546875,2.2421875
0.0405,-10.490234375,10.5302734375,0.0400390625
0.041,-9.2890625,10.330078125,-1.1611328125
0.0415,-8.728515625,10.6103515625,-2.0419921875
0.042,-5.92578125,10.0498046875,-4.3642578125
0.0425,-3.36328125,9.3291015625,-6.326171875
0.043,-1.0009765625,9.44921875,-8.9287109375
0.0435,1.12109375,8.48828125,-10.0498046875
0.044,1.841796875,7.9677734375,-10.2900390625
0.0445,3.5634765625,6.6865234375,-10.650390625
0.045,5.92578125,4.00390625,-10.330078125
0.0455,8.16796875,1.521484375,-10.08984375
0.046,10.6904296875,-0.80078125,-10.25
0.0465,11.0107421875,-2.40234375,-9.048828125
0.047,11.291015625,-3.0830078125,-8.6884765625
0.0475,11.291015625,-5.4052734375,-6.2861328125
0.048,10.6904296875,-7.20703125,-3.8837890625
0.0485,10.73046875,-9.4892578125,-1.6015625
0.049,10.25,-10.970703125,0.5205078125
0.0495,8.96875,-10.5302734375,1.521484375
0.05,8.0078125,-10.6103515625,2.642578125
0.0505,4.96484375,-10.08984375,5.2451171875
0.051,2.5224609375,-9.4892578125,7.126953125
0.0515,0.16015625,-9.529296875,9.609375
0.052,-1.76171875,-8.5283203125,10.5302734375
0.0525,-2.5224609375,-7.767578125,10.5302734375
0.053,-4.6845703125,-5.92578125,10.890625
0.0535,-7.1669921875,-3.1630859375,10.5302734375
0.054,-9.208984375,-0.80078125,10.2099609375
0.0545,-11.4912109375,1.3212890625,10.41015625
0.055,-11.611328125,2.962890625,8.9287109375
0.0555,-11.69140625,3.923828125,8.0078125
0.056,-11.8115234375,6.40625,5.4052734375
0.0565,-10.9306640625,8.248046875,2.8828125
0.057,-10.890625,10.08984375,0.8408203125
0.0575,-10.330078125,11.4912109375,-1.1611328125
0.058,-8.48828125,10.7705078125,-2.4423828125
0.0585,-7.0869140625,10.73046875,-3.923828125
0.059,-3.923828125,10.2900390625,-6.7666015625
0.0595,-1.521484375,9.4892578125,-8.3681640625
0.06,0.6806640625,9.5693359375,-10.650390625
0.0605,2.6025390625,8.2880859375,-11.37109375
0.061,3.68359375,7.0068359375,-11.1708984375
0.0615,6.2861328125,4.64453125,-11.4111328125
0.062,8.8486328125,1.7216796875,-10.890625
0.0625,10.4501953125,-0.7607421875,-10.169921875
0.063,12.412109375,-2.40234375,-10.4501953125
0.0635,12.2919921875,-4.32421875,-8.408203125
0.064,11.8916015625,-5.4853515625,-7.0869140625
0.0645,12.01171875,-8.16796875,-4.2041015625
0.065,11.05078125,-9.7294921875,-1.6015625
0.0655,10.73046875,-11.130859375,0.240234375
0.066,10.0498046875,-12.2119140625,2.162109375
0.0665,7.6474609375,-11.2509765625,3.68359375
0.067,5.845703125,-10.970703125,5.28515625
0.0675,2.6826171875,-10.5302734375,8.1279296875
0.068,0.2802734375,-9.44921875,9.44921875
0.0685,-1.521484375,-9.5693359375,11.37109375
0.069,-3.603515625,-8.0078125,11.8515625
0.0695,-4.96484375,-6.166015625,11.37109375
0.07,-7.6474609375,-3.5634765625,11.4912109375
0.0705,-10.08984375,-0.640625,10.9306640625
0.071,-11.2509765625,1.521484375,10.0498046875
0.0715,-12.8525390625,2.8427734375,10.330078125
0.072,-12.5322265625,4.8046875,7.927734375
0.0725,-11.9716796875,6.1259765625,6.1259765625
0.073,-12.171875,8.9287109375,3.4833984375
0.0735,-10.9306640625,10.3701171875,0.720703125
0.074,-10.6103515625,11.4111328125,-0.80078125
0.0745,-9.7294921875,12.171875,-2.6025390625
0.075,-7.046875,11.05078125,-4.2841796875
0.0755,-5.0048828125,10.73046875,-6.1259765625
0.076,-1.921875,10.41015625,-8.96875
0.0765,0.48046875,9.0888671875,-10.0498046875
0.077,1.921875,9.2890625,-11.69140625
0.0775,4.00390625,7.4873046875,-11.9716796875
0.078,5.60546875,5.3251953125,-11.4111328125
0.0785,8.48828125,2.5625,-11.4912109375
0.079,10.810546875,-0.4404296875,-10.8505859375
0.0795,11.6513671875,-2.2421875,-9.8896484375
0.08,13.0126953125,-3.443359375,-10.0498046875
0.0805,12.4521484375,-5.5654296875,-7.3271484375
0.081,11.771484375,-7.20703125,-5.1650390625
0.0815,12.01171875,-9.8896484375,-2.4423828125
0.082,10.650390625,-11.0107421875,0.1201171875
0.0825,10.3701171875,-11.8115234375,1.3212890625
0.083,9.0888671875,-12.171875,3.123046875
0.0835,6.166015625,-11.0107421875,4.96484375
0.084,3.8837890625,-10.650390625,7.0068359375
0.0845,0.9609375,-10.41015625,9.7294921875
0.085,-1.3212890625,-9.0087890625,10.5302734375
0.0855,-2.4423828125,-9.12890625,11.8916015625
0.086,-4.6845703125,-7.0068359375,11.9716796875
0.0865,-6.5263671875,-4.5244140625,11.291015625
0.087,-9.4892578125,-1.76171875,11.451171875
0.0875,-11.53125,1.1611328125,10.6103515625
0.088,-12.01171875,2.4423828125,9.849609375
0.0885,-12.97265625,3.6435546875,9.609375
0.089,-12.3720703125,5.8857421875,6.6865234375
0.0895,-11.7314453125,7.7275390625,4.244140625
0.09,-12.01171875,10.5302734375,1.5615234375
0.0905,-10.41015625,11.3310546875,-0.8408203125
0.091,-10.2099609375,11.771484375,-1.681640625
0.0915,-8.48828125,11.8515625,-3.603515625
0.092,-5.4453125,10.73046875,-5.685546875
0.0925,-2.9228515625,10.41015625,-7.8876953125
0.093,0.0,10.08984375,-10.4501953125
0.0935,1.8818359375,8.6484375,-10.970703125
0.094,2.7626953125,8.6884765625,-11.931640625
0.0945,5.1650390625,6.24609375,-11.8515625
0.095,7.20703125,3.5634765625,-11.2109375
0.0955,10.2900390625,0.6005859375,-11.291015625
0.096,11.9716796875,-2.0419921875,-10.3701171875
0.0965,12.171875,-3.0830078125,-9.609375
0.097,12.7724609375,-4.404296875,-8.96875
0.0975,12.171875,-6.7265625,-5.845703125
0.098,11.53125,-8.6484375,-3.283203125
0.0985,11.7314453125,-11.37109375,-0.6806640625
0.099,10.08984375,-11.69140625,1.44140625
0.0995,9.7294921875,-11.8515625,2.1220703125
0.1,7.6474609375,-11.69140625,4.1240234375
0.1005,4.484375,-10.6103515625,6.326171875
0.101,1.9619140625,-10.330078125,8.6484375
0.1015,-0.80078125,-9.8896484375,10.890625
0.102,-2.322265625,-8.5283203125,11.1708984375
0.1025,-3.2431640625,-8.248046875,11.8115234375
0.103,-5.8056640625,-5.5654296875,11.6513671875
0.1035,-7.9677734375,-2.8427734375,10.970703125
0.104,-10.890625,0.0400390625,11.1708984375
0.1045,-12.2119140625,2.2421875,10.2099609375
0.105,-12.251953125,3.123046875,9.3291015625
0.1055,-12.65234375,4.6845703125,8.2080078125
0.106,-12.0517578125,7.0869140625,5.125
0.1065,-11.451171875,9.0087890625,2.6025390625
0.107,-11.5712890625,11.53125,0.16015625
0.1075,-9.9296875,11.5712890625,-1.76171875
0.108,-9.369140625,11.53125,-2.3623046875
0.1085,-6.9267578125,11.3310546875,-4.6845703125
0.109,-3.84375,10.3701171875,-6.88671875
0.1095,-1.201171875,10.08984375,-9.369140625
0.11,1.3212890625,9.5693359375,-11.3310546875
0.1105,2.5625,8.2880859375,-11.291015625
0.111,3.68359375,7.6474609375,-11.771484375
0.1115,6.646484375,4.6044921875,-11.69140625
0.112,8.6484375,1.921875,-10.890625
0.1125,11.451171875,-0.80078125,-11.0908203125
0.113,12.4921875,-2.962890625,-10.08984375
0.1135,12.33203125,-3.84375,-8.96875
0.114,12.572265625,-5.7255859375,-7.287109375
0.1145,12.01171875,-8.16796875,-4.2041015625
0.115,11.37109375,-9.849609375,-1.841796875
0.1155,11.451171875,-12.1318359375,0.560546875
0.116,9.609375,-11.8916015625,2.2822265625
0.1165,8.6083984375,-11.611328125,3.04296875
0.117,5.8056640625,-11.4111328125,5.7255859375
0.1175,2.8427734375,-10.41015625,7.8076171875
0.118,0.2802734375,-10.08984375,10.1298828125
0.1185,-2.0419921875,-9.5693359375,11.8916015625
0.119,-3.36328125,-7.9677734375,11.6513671875
0.1195,-4.8046875,-6.7666015625,11.8515625
0.12,-7.9677734375,-3.6435546875,11.8115234375
0.1205,-9.7294921875,-1.0009765625,10.9306640625
0.121,-12.1318359375,1.2412109375,11.05078125
0.1215,-12.97265625,3.3232421875,9.8896484375
0.122,-12.5322265625,4.484375,8.328125
0.1225,-12.65234375,6.56640625,6.2861328125
0.123,-12.1318359375,9.0888671875,3.2431640625
0.1235,-11.2509765625,10.41015625,0.9609375
0.124,-11.4111328125,12.412109375,-1.041015625
0.1245,-9.1689453125,12.01171875,-2.9228515625
0.125,-7.767578125,11.451171875,-3.9638671875
0.1255,-4.8046875,11.2509765625,-6.9267578125
0.126,-1.8818359375,10.25,-8.8486328125
0.1265,0.4404296875,9.849609375,-10.6904296875
0.127,2.5625,9.2490234375,-12.33203125
0.1275,4.1240234375,7.3271484375,-11.8916015625
0.128,5.8857421875,5.5654296875,-11.8916015625
0.1285,9.0888671875,2.322265625,-11.8916015625
0.129,10.650390625,-0.5205078125,-10.73046875
0.1295,12.65234375,-2.2021484375,-10.890625
0.13,13.2529296875,-4.2041015625,-9.4892578125
0.1305,12.5322265625,-5.525390625,-7.447265625
0.131,12.4521484375,-7.6875,-5.205078125
0.1315,11.9716796875,-10.08984375,-2.2421875
0.132,10.8505859375,-11.0107421875,0.0
0.1325,11.0107421875,-12.6923828125,1.6015625
0.133,8.328125,-12.01171875,3.68359375
0.1335,6.6064453125,-11.291015625,4.8046875
0.134,3.6435546875,-11.1708984375,7.767578125
0.1345,0.80078125,-10.08984375,9.609375
0.135,-1.12109375,-9.6494140625,11.0107421875
0.1355,-3.0830078125,-8.96875,12.3720703125
0.136,-4.8447265625,-6.6865234375,11.8115234375
0.1365,-6.7265625,-4.6044921875,11.611328125
0.137,-9.8896484375,-1.6015625,11.6513671875
0.1375,-11.1708984375,1.12109375,10.2900390625
0.138,-12.732421875,2.40234375,10.650390625
0.1385,-13.0126953125,4.404296875,8.9287109375
0.139,-12.251953125,5.8056640625,6.6865234375
0.1395,-12.2119140625,8.1279296875,4.32421875
0.14,-11.69140625,10.3701171875,1.521484375
0.1405,-10.5703125,11.0107421875,-0.400390625
0.141,-10.5703125,12.2919921875,-1.841796875
0.1415,-7.7275390625,11.53125,-3.9638671875
0.142,-5.8056640625,10.7705078125,-5.3251953125
0.1425,-2.8828125,10.73046875,-8.248046875
0.143,-0.2001953125,9.5693359375,-9.8095703125
0.1435,1.3212890625,9.2490234375,-11.05078125
0.144,3.2431640625,8.328125,-12.0517578125
0.1445,5.0849609375,5.9658203125,-11.53125
0.145,7.287109375,3.5234375,-11.3310546875
0.1455,10.25,0.640625,-11.291015625
0.146,11.2109375,-1.8017578125,-9.9296875
0.1465,12.6123046875,-2.72265625,-10.330078125
0.147,12.5322265625,-4.8046875,-8.16796875
0.1475,11.8115234375,-6.3662109375,-5.845703125
0.148,11.8115234375,-8.80859375,-3.4033203125
0.1485,11.2109375,-10.7705078125,-0.7607421875
0.149,10.169921875,-11.1708984375,0.880859375
0.1495,9.9296875,-12.0517578125,2.2021484375
0.15,6.9267578125,-11.1708984375,4.32421875
0.1505,4.8046875,-10.490234375,5.8857421875
0.151,2.0419921875,-10.5302734375,8.7685546875
0.1515,-0.6005859375,-9.2490234375,10.0498046875
0.152,-1.76171875,-9.12890625,11.130859375
0.1525,-3.68359375,-7.8076171875,11.69140625
0.153,-5.60546875,-5.4052734375,11.130859375
0.1535,-8.0478515625,-2.72265625,11.0107421875
0.154,-10.7705078125,0.080078125,10.9306640625
0.1545,-11.4111328125,1.9619140625,9.6494140625
0.155,-12.4921875,2.72265625,9.9697265625
0.1555,-12.251953125,4.96484375,7.52734375
0.156,-11.5712890625,6.7265625,5.0849609375
0.1565,-11.7314453125,9.2890625,2.5625
0.157,-10.890625,10.9306640625,0.080078125
0.1575,-9.9697265625,11.130859375,-1.2412109375
0.158,-9.369140625,11.6513671875,-2.5224609375
0.1585,-6.2861328125,10.73046875,-4.7646484375
0.159,-3.8837890625,10.169921875,-6.646484375
0.1595,-1.201171875,10.2099609375,-9.4892578125
0.16,1.201171875,8.80859375,-10.4501953125
0.1605,2.0419921875,8.6884765625,-11.2509765625
0.161,4.0439453125,7.046875,-11.611328125
0.1615,6.1259765625,4.4443359375,-11.0107421875
0.162,8.8486328125,1.6015625,-10.890625
0.1625,11.291015625,-1.041015625,-10.6904296875
0.163,11.611328125,-2.6025390625,-9.44921875
0.1635,12.3720703125,-3.36328125,-9.44921875
0.164,12.01171875,-5.765625,-6.7265625
0.1645,11.3310546875,-7.5673828125,-4.1640625
0.165,11.4912109375,-10.2099609375,-1.6015625
0.1655,10.490234375,-11.37109375,0.720703125
0.166,9.5693359375,-11.2509765625,1.6416015625
0.1665,8.48828125,-11.53125,3.0830078125
0.167,5.28515625,-10.5703125,5.4052734375
0.1675,2.802734375,-10.009765625,7.447265625
0.168,0.2001953125,-10.0498046875,10.08984375
0.1685,-1.841796875,-8.6884765625,10.7705078125
0.169,-2.5625,-8.4482421875,11.2109375
0.1695,-4.6845703125,-6.40625,11.37109375
0.17,-6.8466796875,-3.68359375,10.7705078125
0.1705,-9.5693359375,-0.9208984375,10.6904296875
0.171,-11.5712890625,1.4013671875,10.41015625
0.1715,-11.6513671875,2.6826171875,9.208984375
0.172,-12.1318359375,3.5634765625,8.7685546875
0.1725,-11.7314453125,6.166015625,5.845703125
0.173,-11.0908203125,7.84765625,3.443359375
0.1735,-11.291015625,10.4501953125,1.0009765625
0.174,-10.2099609375,11.2109375,-1.041015625
0.1745,-9.2890625,10.9306640625,-1.8017578125
0.175,-7.767578125,10.9306640625,-3.4833984375
0.1755,-4.64453125,10.1298828125,-5.8056640625
0.176,-2.08203125,9.6494140625,-8.0078125
0.1765,0.3603515625,9.529296875,-10.2900390625
0.177,1.9619140625,8.248046875,-10.7705078125
0.1775,2.6826171875,7.8876953125,-11.05078125
0.178,5.2451171875,5.4453125,-11.0908203125
0.1785,7.287109375,2.8427734375,-10.5703125
0.179,9.9296875,0.2001953125,-10.5302734375
0.1795,11.611328125,-1.921875,-10.1298828125
0.18,11.53125,-3.0830078125,-8.8486328125
0.1805,11.8115234375,-4.244140625,-8.0078125
0.181,11.451171875,-6.88671875,-4.96484375
0.1815,10.8505859375,-8.4482421875,-2.7626953125
0.182,11.0107421875,-10.8505859375,-0.48046875
0.1825,9.7294921875,-11.2509765625,1.4013671875
0.183,8.6884765625,-10.7705078125,2.08203125
0.1835,6.7265625,-10.6904296875,4.083984375
0.184,3.8037109375,-9.9697265625,6.3662109375
0.1845,1.3212890625,-9.6494140625,8.48828125
0.185,-0.9609375,-9.4892578125,10.5302734375
0.1855,-2.3623046875,-8.0478515625,10.6904296875
0.186,-3.2431640625,-7.3671875,10.8505859375
0.1865,-6.166015625,-4.5244140625,10.970703125
0.187,-8.0478515625,-2.08203125,10.3701171875
0.1875,-10.41015625,0.2802734375,10.4501953125
0.188,-11.8115234375,2.1220703125,9.9296875
0.1885,-11.53125,3.3232421875,8.4482421875
0.189,-11.69140625,4.8046875,7.0869140625
0.1895,-11.37109375,7.4072265625,4.1640625
0.19,-10.73046875,8.8486328125,2.08203125
0.1905,-10.890625,10.9306640625,0.080078125
0.191,-9.4091796875,11.0908203125,-1.76171875
0.1915,-8.16796875,10.5302734375,-2.6025390625
0.192,-5.765625,10.41015625,-5.0048828125
0.1925,-2.9228515625,9.6494140625,-7.1669921875
0.193,-0.720703125,9.2490234375,-9.048828125
0.1935,1.361328125,9.12890625,-10.890625
0.194,2.8427734375,7.52734375,-10.8505859375
0.1945,4.1240234375,6.3662109375,-10.890625
0.195,7.1669921875,3.4033203125,-10.970703125
0.1955,8.96875,0.880859375,-10.2099609375
0.196,10.9306640625,-1.0810546875,-10.2900390625
0.1965,12.01171875,-2.8427734375,-9.609375
0.197,11.53125,-4.2041015625,-7.767578125
0.1975,11.53125,-5.8857421875,-6.0859375
0.198,11.2509765625,-8.408203125,-3.203125
0.1985,10.41015625,-9.5693359375,-1.1611328125
0.199,10.650390625,-11.3310546875,0.6005859375
0.1995,8.7685546875,-11.2109375,2.4423828125
0.2,7.1669921875,-10.5703125,3.443359375
0.2005,4.6044921875,-10.41015625,6.005859375
0.201,1.8818359375,-9.7294921875,8.0078125
0.2015,-0.1201171875,-9.208984375,9.5693359375
0.202,-1.9619140625,-8.96875,11.1708984375
0.2025,-3.603515625,-7.0068359375,10.890625
0.203,-5.125,-5.4453125,10.7705078125
0.2035,-8.2080078125,-2.5224609375,10.9306640625
0.204,-9.689453125,0.0400390625,9.9296875
0.2045,-11.37109375,1.521484375,10.169921875
0.205,-12.1318359375,3.1630859375,9.208984375
0.2055,-11.53125,4.6044921875,7.1669921875
0.206,-11.4111328125,6.5263671875,5.0849609375
0.2065,-11.2109375,8.96875,2.40234375
0.207,-10.169921875,9.849609375,0.48046875
0.2075,-10.41015625,11.3310546875,-0.9609375
0.208,-8.16796875,10.8505859375,-2.8828125
0.2085,-6.40625,10.169921875,-4.083984375
0.209,-3.7236328125,10.08984375,-6.806640625
0.2095,-1.12109375,9.3291015625,-8.6884765625
0.21,0.6005859375,8.9287109375,-9.9296875
0.2105,2.2421875,8.48828125,-11.2109375
0.211,4.00390625,6.40625,-10.8505859375
0.2115,5.8857421875,4.404296875,-10.650390625
0.212,8.9287109375,1.4814453125,-10.810546875
0.2125,10.169921875,-0.9609375,-9.6494140625
0.213,11.611328125,-2.0419921875,-9.9697265625
0.2135,11.9716796875,-3.84375,-8.5283203125
0.214,11.2509765625,-5.365234375,-6.3662109375
0.2145,11.2109375,-7.447265625,-4.1640625
0.215,10.9306640625,-9.689453125,-1.5615234375
0.2155,9.8896484375,-10.25,0.2001953125
0.216,9.9697265625,-11.451171875,1.4013671875
0.2165,7.3671875,-10.7705078125,3.4033203125
0.217,5.4052734375,-10.1298828125,4.7646484375
0.2175,2.7626953125,-10.08984375,7.52734375
0.218,0.2802734375,-9.12890625,9.0888671875
0.2185,-1.1611328125,-8.8486328125,10.2099609375
0.219,-2.802734375,-8.0478515625,11.130859375
0.2195,-4.64453125,-5.8056640625,10.6904296875
0.22,-6.7666015625,-3.5234375,10.5302734375
0.2205,-9.6494140625,-0.80078125,10.650390625
0.221,-10.5302734375,1.3212890625,9.44921875
0.2215,-11.7314453125,2.162109375,9.8896484375
0.222,-11.8115234375,4.0439453125,7.9677734375
