wavelength,x,y,z
0.0,-6.5513916015625,-17.642211914062,23.477905273438
0.0005,-1.3062744140625,-20.484985351562,21.115600585938
0.001,3.4183349609375,-22.286743164062,18.352905273438
0.0015,9.1038818359375,-24.048461914062,14.469116210938
0.002,13.107788085938,-24.689086914062,11.225952148438
0.0025,17.351928710938,-24.288696289062,6.6614990234375
0.003,19.473999023438,-23.127563476562,3.4183349609375
0.0035,22.356811523438,-20.805297851562,-1.7867431640625
0.004,24.358764648438,-17.642211914062,-6.8717041015625
0.0045,24.839233398438,-13.157836914062,-11.796508789062
0.005,25.920288085938,-10.395141601562,-15.560180664062
0.0055,24.518920898438,-6.0308837890625,-18.523071289062
0.006,22.877319335938,-1.7867431640625,-21.005493164062
0.0065,20.114624023438,3.2581787109375,-23.207641601562
0.007,16.631225585938,9.1439208984375,-25.609985351562
0.0075,12.186889648438,13.428100585938,-25.529907226562
0.008,8.2630615234375,17.552124023438,-25.770141601562
0.0085,3.9788818359375,19.554077148438,-23.648071289062
0.009,-1.7867431640625,22.597045898438,-21.005493164062
0.0095,-6.9117431640625,24.078491210938,-17.562133789062
0.01,-12.917602539062,25.760131835938,-13.197875976562
0.0105,-16.401000976562,25.599975585938,-9.6744384765625
0.011,-20.444946289062,24.919311523438,-4.9898681640625
0.0115,-22.727172851562,22.717163085938,-0.5054931640625
0.012,-25.369750976562,20.114624023438,4.7796630859375
0.0125,-26.891235351562,16.030639648438,10.305053710938
0.013,-27.131469726562,11.426147460938,15.069702148438
0.0135,-27.531860351562,8.1429443359375,18.633178710938
0.014,-25.329711914062,2.8978271484375,21.676147460938
0.0145,-22.967407226562,-2.0670166015625,24.118530273438
0.015,-19.684204101562,-7.2320556640625,25.960327148438
0.0155,-15.359985351562,-13.558227539062,27.962280273438
0.016,-10.555297851562,-17.361938476562,27.081420898438
0.0165,-6.3111572265625,-21.245727539062,26.761108398438
0.017,-0.6656494140625,-23.447875976562,23.437866210938
0.0175,5.0999755859375,-26.290649414062,20.635131835938
0.018,10.585327148438,-26.971313476562,15.990600585938
0.0185,16.591186523438,-28.492797851562,11.546264648438
0.019,20.154663085938,-27.291625976562,6.9818115234375
0.0195,23.918334960938,-26.130493164062,1.9769287109375
0.02,25.960327148438,-22.967407226562,-3.2281494140625
0.0205,28.402709960938,-19.884399414062,-8.6734619140625
0.021,28.883178710938,-14.879516601562,-14.078735351562
0.0215,28.803100585938,-10.234985351562,-18.563110351562
0.022,28.202514648438,-6.3912353515625,-21.766235351562
0.0225,25.359741210938,-0.3853759765625,-24.849243164062
0.023,22.356811523438,4.6995849609375,-26.851196289062
0.0235,18.232788085938,10.064819335938,-28.092407226562
0.024,13.748413085938,16.070678710938,-29.653930664062
0.0245,8.1829833984375,19.834350585938,-27.972290039062
0.025,3.9388427734375,22.917358398438,-26.891235351562
0.0255,-2.5474853515625,25.119506835938,-22.887329101562
0.026,-7.7525634765625,27.561889648438,-20.084594726562
0.0265,-13.398071289062,27.561889648438,-14.519165039062
0.027,-18.322875976562,28.562866210938,-10.715454101562
0.0275,-21.926391601562,27.041381835938,-5.7105712890625
0.028,-25.169555664062,25.079467773438,-0.4254150390625
0.0285,-26.971313476562,21.475952148438,4.9398193359375
0.029,-28.893188476562,18.232788085938,10.104858398438
0.0295,-29.013305664062,13.147827148438,15.229858398438
0.03,-28.572875976562,8.3431396484375,19.473999023438
0.0305,-27.571899414062,4.9398193359375,21.916381835938
0.031,-24.328735351562,-1.3863525390625,24.839233398438
0.0315,-21.445922851562,-6.2711181640625,26.761108398438
0.032,-16.721313476562,-11.676391601562,27.481811523438
0.0325,-12.997680664062,-16.681274414062,28.803100585938
0.033,-7.2320556640625,-20.404907226562,26.801147460938
0.0335,-3.1480712890625,-22.887329101562,25.279663085938
0.034,3.0980224609375,-24.969360351562,21.315795898438
0.0345,8.2630615234375,-27.131469726562,18.432983398438
0.035,13.948608398438,-27.091430664062,12.827514648438
0.0355,18.232788085938,-27.611938476562,9.1038818359375
0.036,21.195678710938,-26.410766601562,4.9798583984375
0.0365,24.318725585938,-24.048461914062,-0.5054931640625
0.037,26.120483398438,-20.685180664062,-5.6304931640625
0.0375,27.561889648438,-17.001586914062,-10.675415039062
0.038,27.922241210938,-12.717407226562,-15.319946289062
0.0385,27.121459960938,-7.7125244140625,-19.403930664062
0.039,26.040405273438,-4.6295166015625,-21.365844726562
0.0395,22.877319335938,1.4564208984375,-24.088500976562
0.04,20.114624023438,6.4212646484375,-26.330688476562
0.0405,15.069702148438,11.826538085938,-26.691040039062
0.041,11.826538085938,16.070678710938,-27.812133789062
0.0415,6.4212646484375,19.473999023438,-25.890258789062
0.042,1.7767333984375,21.996459960938,-23.768188476562
0.0425,-3.7886962890625,23.918334960938,-20.364868164062
0.043,-9.3140869140625,26.000366210938,-17.001586914062
0.0435,-14.238891601562,26.000366210938,-12.156860351562
0.044,-18.442993164062,25.960327148438,-7.9527587890625
0.0445,-20.725219726562,24.839233398438,-4.5894775390625
0.045,-23.848266601562,22.316772460938,1.0960693359375
0.0455,-25.770141601562,19.033569335938,6.2210693359375
0.046,-26.811157226562,14.909545898438,11.306030273438
0.0465,-27.371704101562,11.506225585938,15.229858398438
0.047,-26.210571289062,6.4212646484375,19.033569335938
0.0475,-24.769165039062,2.8978271484375,21.115600585938
0.048,-21.806274414062,-2.8677978515625,23.758178710938
0.0485,-18.563110351562,-8.3131103515625,26.040405273438
0.049,-13.678344726562,-13.398071289062,26.120483398438
0.0495,-10.355102539062,-17.321899414062,26.761108398438
0.05,-5.6304931640625,-19.884399414062,24.799194335938
0.0505,-0.2652587890625,-22.567016601562,22.276733398438
0.051,4.9398193359375,-24.408813476562,19.033569335938
0.0515,11.065795898438,-26.370727539062,14.949584960938
0.052,15.109741210938,-26.250610351562,10.865600585938
0.0525,19.353881835938,-25.970336914062,6.3812255859375
0.053,21.475952148438,-24.288696289062,2.5374755859375
0.0535,24.478881835938,-21.766235351562,-2.9478759765625
0.054,26.160522460938,-18.082641601562,-8.2330322265625
0.0545,26.921264648438,-13.558227539062,-13.478149414062
0.055,27.361694335938,-10.275024414062,-17.081665039062
0.0555,25.800170898438,-5.4703369140625,-20.244750976562
0.056,23.758178710938,-1.2261962890625,-22.446899414062
0.0565,20.915405273438,4.0989990234375,-24.889282226562
0.057,16.951538085938,10.184936523438,-27.051391601562
0.0575,12.226928710938,14.629272460938,-26.771118164062
0.058,8.4632568359375,18.553100585938,-26.931274414062
0.0585,3.4984130859375,20.835327148438,-24.368774414062
0.059,-2.2672119140625,23.718139648438,-21.646118164062
0.0595,-7.3521728515625,25.119506835938,-18.082641601562
0.06,-13.678344726562,26.921264648438,-13.638305664062
0.0605,-17.161743164062,26.280639648438,-9.5943603515625
0.061,-21.005493164062,25.680053710938,-5.1500244140625
0.0615,-23.207641601562,23.117553710938,-0.5054931640625
0.062,-25.930297851562,20.515014648438,4.9398193359375
0.0625,-27.091430664062,16.310913085938,10.224975585938
0.063,-27.611938476562,11.826538085938,15.109741210938
0.0635,-27.571899414062,8.2230224609375,18.553100585938
0.064,-25.409790039062,3.1380615234375,21.475952148438
0.0645,-22.887329101562,-1.6666259765625,23.678100585938
0.065,-19.884399414062,-6.7916259765625,25.720092773438
0.0655,-15.440063476562,-13.037719726562,27.481811523438
0.066,-10.835571289062,-16.681274414062,26.721069335938
0.0665,-6.8316650390625,-20.204711914062,26.280639648438
0.067,-1.4263916015625,-22.366821289062,23.077514648438
0.0675,4.1390380859375,-25.009399414062,20.354858398438
0.068,9.2640380859375,-25.850219726562,16.150756835938
0.0685,15.189819335938,-27.451782226562,11.906616210938
0.069,18.633178710938,-26.330688476562,7.4222412109375
0.0695,21.916381835938,-25.249633789062,3.1380615234375
0.07,23.998413085938,-22.446899414062,-1.7066650390625
0.0705,26.400756835938,-19.724243164062,-6.9117431640625
0.071,27.081420898438,-15.119750976562,-12.116821289062
0.0715,27.241577148438,-10.915649414062,-16.360961914062
0.072,26.801147460938,-7.3521728515625,-19.524047851562
0.0725,24.278686523438,-1.9869384765625,-22.206665039062
0.073,21.756225585938,2.6976318359375,-24.328735351562
0.0735,18.192749023438,7.7025146484375,-25.810180664062
0.074,14.028686523438,13.668334960938,-27.531860351562
0.0745,9.1038818359375,17.231811523438,-26.250610351562
0.075,5.2601318359375,20.114624023438,-25.329711914062
0.0755,-0.4654541015625,22.156616210938,-21.886352539062
0.076,-5.3902587890625,24.639038085938,-19.524047851562
0.0765,-10.635375976562,25.039428710938,-14.759399414062
0.077,-15.400024414062,26.240600585938,-11.276000976562
0.0775,-18.843383789062,25.239624023438,-6.8717041015625
0.078,-21.766235351562,23.437866210938,-2.1871337890625
0.0785,-23.688110351562,20.675170898438,2.5374755859375
0.079,-25.609985351562,17.792358398438,7.3021240234375
0.0795,-26.330688476562,13.428100585938,12.307006835938
0.08,-26.130493164062,9.2640380859375,16.230834960938
0.0805,-25.609985351562,6.1009521484375,18.713256835938
0.081,-22.687133789062,0.5355224609375,21.315795898438
0.0815,-20.565063476562,-3.9888916015625,23.557983398438
0.082,-16.601196289062,-8.8336181640625,24.478881835938
0.0825,-13.157836914062,-13.798461914062,26.120483398438
0.083,-8.2730712890625,-17.321899414062,24.719116210938
0.0835,-4.4293212890625,-19.724243164062,23.437866210938
0.084,0.9759521484375,-21.766235351562,20.194702148438
0.0845,5.7406005859375,-24.048461914062,17.832397460938
0.085,11.065795898438,-24.609008789062,13.147827148438
0.0855,15.309936523438,-25.249633789062,9.6243896484375
0.086,18.232788085938,-24.649047851562,6.1810302734375
0.0865,21.115600585938,-22.486938476562,1.1361083984375
0.087,23.117553710938,-19.884399414062,-3.4683837890625
0.0875,24.558959960938,-16.601196289062,-8.1129150390625
0.088,25.559936523438,-12.917602539062,-12.757446289062
0.0885,24.959350585938,-8.4332275390625,-16.561157226562
0.089,24.278686523438,-5.6304931640625,-18.723266601562
0.0895,21.475952148438,-0.1851806640625,-21.285766601562
0.09,19.353881835938,4.5394287109375,-23.728149414062
0.0905,14.949584960938,9.5443115234375,-24.328735351562
0.091,11.986694335938,13.868530273438,-25.690063476562
0.0915,7.1820068359375,17.111694335938,-24.288696289062
0.092,2.6976318359375,19.634155273438,-22.406860351562
0.0925,-2.2672119140625,21.636108398438,-19.524047851562
0.093,-7.5123291015625,23.758178710938,-16.481079101562
0.0935,-12.276977539062,24.278686523438,-12.357055664062
0.094,-16.401000976562,24.318725585938,-8.3131103515625
0.0945,-18.683227539062,23.517944335938,-5.3101806640625
0.095,-21.726196289062,21.195678710938,0.0150146484375
0.0955,-23.768188476562,18.473022460938,4.8597412109375
0.096,-24.809204101562,14.589233398438,9.6243896484375
0.0965,-25.770141601562,11.546264648438,13.588256835938
0.097,-24.729125976562,6.7415771484375,17.271850585938
0.0975,-23.567993164062,3.3382568359375,19.353881835938
0.098,-20.805297851562,-2.0269775390625,21.996459960938
0.0985,-18.042602539062,-7.2320556640625,24.398803710938
0.099,-13.478149414062,-11.996704101562,24.639038085938
0.0995,-10.275024414062,-15.960571289062,25.479858398438
0.1,-5.9508056640625,-18.483032226562,23.758178710938
0.1005,-0.7857666015625,-21.205688476562,21.355834960938
0.101,4.1790771484375,-23.127563476562,18.432983398438
0.1015,10.184936523438,-25.049438476562,14.549194335938
0.102,14.068725585938,-25.329711914062,10.945678710938
0.1025,18.272827148438,-25.009399414062,6.4613037109375
0.103,20.354858398438,-23.527954101562,2.9378662109375
0.1035,23.357788085938,-21.085571289062,-2.5074462890625
0.104,25.279663085938,-17.762329101562,-7.7125244140625
0.1045,25.920288085938,-13.317993164062,-12.757446289062
0.105,26.600952148438,-10.234985351562,-16.401000976562
0.1055,25.039428710938,-5.6304931640625,-19.443969726562
0.106,23.157592773438,-1.3463134765625,-21.726196289062
0.1065,20.314819335938,3.9788818359375,-24.128540039062
0.107,16.631225585938,10.024780273438,-26.530883789062
0.1075,12.026733398438,14.308959960938,-26.210571289062
0.108,8.2630615234375,18.232788085938,-26.410766601562
0.1085,3.4583740234375,20.354858398438,-23.888305664062
0.109,-2.2672119140625,23.317749023438,-21.205688476562
0.1095,-7.3521728515625,24.839233398438,-17.762329101562
0.11,-13.598266601562,26.560913085938,-13.398071289062
0.1105,-16.961547851562,26.000366210938,-9.5142822265625
0.111,-20.845336914062,25.439819335938,-5.0699462890625
0.1115,-23.047485351562,22.877319335938,-0.3052978515625
0.112,-25.770141601562,20.194702148438,5.0999755859375
0.1125,-27.171508789062,16.150756835938,10.425170898438
0.113,-27.571899414062,11.586303710938,15.309936523438
0.1135,-27.611938476562,8.0628662109375,18.713256835938
0.114,-25.489868164062,2.9779052734375,21.716186523438
0.1145,-22.847290039062,-1.9468994140625,23.918334960938
0.115,-19.724243164062,-7.1920166015625,25.960327148438
0.1155,-15.400024414062,-13.478149414062,27.882202148438
0.116,-10.595336914062,-17.281860351562,26.961303710938
0.1165,-6.6715087890625,-20.725219726562,26.600952148438
0.117,-0.9859619140625,-22.887329101562,23.237670898438
0.1175,4.6195068359375,-25.569946289062,20.434936523438
0.118,9.9847412109375,-26.410766601562,16.030639648438
0.1185,15.910522460938,-28.012329101562,11.786499023438
0.119,19.353881835938,-26.851196289062,7.1820068359375
0.1195,22.797241210938,-25.730102539062,2.7376708984375
0.12,24.839233398438,-22.687133789062,-2.3873291015625
0.1205,27.361694335938,-19.804321289062,-7.7525634765625
0.121,28.002319335938,-15.119750976562,-13.037719726562
0.1215,28.042358398438,-10.755493164062,-17.442016601562
0.122,27.521850585938,-6.9918212890625,-20.444946289062
0.1225,24.839233398438,-1.3863525390625,-23.367797851562
0.123,22.036499023438,3.5784912109375,-25.409790039062
0.1235,18.272827148438,8.8236083984375,-26.891235351562
0.124,13.948608398438,14.789428710938,-28.572875976562
0.1245,8.7835693359375,18.432983398438,-27.091430664062
0.125,4.8597412109375,21.355834960938,-26.210571289062
0.1255,-1.2662353515625,23.557983398438,-22.366821289062
0.126,-6.3912353515625,25.920288085938,-19.804321289062
0.1265,-11.876586914062,26.320678710938,-14.799438476562
0.127,-16.801391601562,27.521850585938,-11.115844726562
0.1275,-20.284790039062,26.200561523438,-6.4312744140625
0.128,-23.327758789062,24.398803710938,-1.5865478515625
0.1285,-25.169555664062,21.115600585938,3.5384521484375
0.129,-27.251586914062,18.072631835938,8.6234130859375
0.1295,-27.812133789062,13.428100585938,13.708374023438
0.13,-27.531860351562,8.9437255859375,17.912475585938
0.1305,-26.731079101562,5.6204833984375,20.314819335938
0.131,-23.648071289062,-0.3052978515625,23.077514648438
0.1315,-21.005493164062,-5.0699462890625,25.159545898438
0.132,-16.721313476562,-10.315063476562,26.160522460938
0.1325,-13.157836914062,-15.400024414062,27.641967773438
0.133,-7.7525634765625,-18.923461914062,25.920288085938
0.1335,-3.8687744140625,-21.325805664062,24.478881835938
0.134,2.0570068359375,-23.367797851562,20.795288085938
0.1345,7.0618896484375,-25.690063476562,18.112670898438
0.135,12.667358398438,-26.010375976562,13.107788085938
0.1355,16.991577148438,-26.610961914062,9.2640380859375
0.136,19.874389648438,-25.609985351562,5.5003662109375
0.1365,22.797241210938,-23.447875976562,0.4154052734375
0.137,24.719116210938,-20.364868164062,-4.6295166015625
0.1375,26.240600585938,-16.881469726562,-9.6343994140625
0.138,26.961303710938,-12.837524414062,-14.278930664062
0.1385,26.240600585938,-8.0328369140625,-18.242797851562
0.139,25.319702148438,-5.0699462890625,-20.204711914062
0.1395,22.276733398438,0.6956787109375,-22.807250976562
0.14,19.794311523438,5.5804443359375,-25.129516601562
0.1405,15.029663085938,10.905639648438,-25.730102539062
0.141,11.866577148438,15.269897460938,-26.971313476562
0.1415,6.7415771484375,18.513061523438,-25.169555664062
0.142,2.2572021484375,20.875366210938,-23.207641601562
0.1425,-3.1480712890625,22.797241210938,-19.884399414062
0.143,-8.5133056640625,24.919311523438,-16.681274414062
0.1435,-13.398071289062,25.239624023438,-12.236938476562
0.144,-17.442016601562,25.199584960938,-8.1529541015625
0.1445,-19.604125976562,24.038452148438,-4.9898681640625
0.145,-22.567016601562,21.636108398438,0.3753662109375
0.1455,-24.568969726562,18.553100585938,5.3802490234375
0.146,-25.609985351562,14.709350585938,10.345092773438
0.1465,-26.410766601562,11.506225585938,14.228881835938
0.147,-25.249633789062,6.7015380859375,17.792358398438
0.1475,-23.888305664062,3.3382568359375,19.794311523438
0.148,-21.005493164062,-2.0670166015625,22.276733398438
0.1485,-18.202758789062,-7.2720947265625,24.598999023438
0.149,-13.598266601562,-12.156860351562,24.919311523438
0.1495,-10.315063476562,-16.080688476562,25.599975585938
0.15,-6.1109619140625,-18.442993164062,23.838256835938
0.1505,-1.1060791015625,-21.005493164062,21.475952148438
0.151,3.8187255859375,-22.807250976562,18.513061523438
0.1515,9.6644287109375,-24.689086914062,14.669311523438
0.152,13.588256835938,-25.009399414062,11.145874023438
0.1525,17.632202148438,-24.729125976562,6.7816162109375
0.153,19.514038085938,-23.327758789062,3.5384521484375
0.1535,22.356811523438,-21.005493164062,-1.6666259765625
0.154,24.318725585938,-17.802368164062,-6.6314697265625
0.1545,24.999389648438,-13.478149414062,-11.596313476562
0.155,25.800170898438,-10.515258789062,-15.400024414062
0.1555,24.398803710938,-6.2711181640625,-18.082641601562
0.156,22.717163085938,-2.4273681640625,-20.244750976562
0.1565,20.074584960938,2.6976318359375,-22.607055664062
0.157,16.711303710938,8.3831787109375,-25.009399414062
0.1575,12.547241210938,12.667358398438,-25.089477539062
0.158,8.7835693359375,16.631225585938,-25.289672851562
0.1585,4.7796630859375,18.432983398438,-23.207641601562
0.159,-0.6256103515625,21.235717773438,-20.805297851562
0.1595,-5.4703369140625,22.997436523438,-17.722290039062
0.16,-11.476196289062,24.639038085938,-13.558227539062
0.1605,-15.039672851562,24.719116210938,-10.194946289062
0.161,-18.563110351562,24.118530273438,-6.0709228515625
0.1615,-20.685180664062,22.116577148438,-2.0269775390625
0.162,-23.407836914062,19.794311523438,3.0980224609375
0.1625,-25.209594726562,16.150756835938,8.4632568359375
0.163,-25.609985351562,11.946655273438,13.067749023438
0.1635,-26.130493164062,8.8236083984375,16.671264648438
0.164,-24.288696289062,4.4193115234375,19.113647460938
0.1645,-22.206665039062,-0.2652587890625,21.596069335938
0.165,-19.363891601562,-5.3101806640625,23.758178710938
0.1655,-15.400024414062,-11.396118164062,25.920288085938
0.166,-11.356079101562,-15.119750976562,25.599975585938
0.1665,-7.3521728515625,-18.723266601562,25.319702148438
0.167,-2.6275634765625,-20.565063476562,22.557006835938
0.1675,2.8577880859375,-23.367797851562,20.034545898438
0.168,8.3031005859375,-24.729125976562,16.070678710938
0.1685,14.068725585938,-26.370727539062,11.906616210938
0.169,17.552124023438,-25.890258789062,7.9827880859375
0.1695,20.835327148438,-24.849243164062,3.6986083984375
0.17,23.037475585938,-22.166625976562,-1.1060791015625
0.1705,25.599975585938,-19.524047851562,-6.2711181640625
0.171,26.801147460938,-15.079711914062,-11.876586914062
0.1715,26.961303710938,-10.875610351562,-16.200805664062
0.172,26.801147460938,-7.4322509765625,-19.363891601562
0.1725,24.278686523438,-2.1470947265625,-22.046508789062
0.173,21.756225585938,2.8577880859375,-24.448852539062
0.1735,18.192749023438,8.1429443359375,-26.090454101562
0.174,13.948608398438,14.268920898438,-28.052368164062
0.1745,9.0238037109375,17.952514648438,-26.931274414062
0.175,5.0198974609375,20.995483398438,-25.970336914062
0.1755,-1.0260009765625,23.157592773438,-22.286743164062
0.176,-6.2711181640625,25.720092773438,-19.804321289062
0.1765,-11.916625976562,26.240600585938,-14.759399414062
0.177,-16.961547851562,27.561889648438,-11.035766601562
0.1775,-20.525024414062,26.400756835938,-6.4312744140625
0.178,-23.688110351562,24.639038085938,-1.4263916015625
