wavelength,x,y,z
0.0,-22.256713867188,12.857543945312,8.3731689453125
0.0005,-21.856323242188,9.4141845703125,11.416137695312
0.001,-20.735229492188,3.8887939453125,15.860473632812
0.0015,-19.373901367188,-0.9158935546875,19.223754882812
0.002,-17.972534179688,-4.3592529296875,21.465942382812
0.0025,-16.170776367188,-7.0819091796875,22.426879882812
0.003,-12.647338867188,-9.7244873046875,21.586059570312
0.0035,-7.6824951171875,-13.608276367188,20.545043945312
0.004,-2.4373779296875,-17.291870117188,19.223754882812
0.0045,2.6876220703125,-20.494995117188,17.622192382812
0.005,5.7305908203125,-21.776245117188,16.140747070312
0.0055,8.3331298828125,-21.455932617188,13.658325195312
0.006,11.055786132812,-21.135620117188,10.615356445312
0.0065,15.460083007812,-19.734252929688,4.9698486328125
0.007,18.863403320312,-18.252807617188,0.2452392578125
0.0075,21.345825195312,-17.011596679688,-3.3983154296875
0.008,22.066528320312,-15.049682617188,-6.1209716796875
0.0085,21.305786132812,-11.846557617188,-8.6434326171875
0.009,20.745239257812,-7.7225341796875,-12.206909179688
0.0095,19.744262695312,-3.0780029296875,-15.970581054688
0.01,18.543090820312,1.6065673828125,-19.373901367188
0.0105,17.021606445312,4.6094970703125,-20.855346679688
0.011,14.779418945312,7.1319580078125,-21.175659179688
0.0115,11.536254882812,9.8946533203125,-20.815307617188
0.012,5.7305908203125,14.379028320312,-19.333862304688
0.0125,0.8858642578125,17.622192382812,-18.132690429688
0.013,-3.2381591796875,20.304809570312,-17.011596679688
0.0135,-6.0008544921875,21.185668945312,-15.410034179688
0.014,-8.4832763671875,20.545043945312,-12.527221679688
0.0145,-11.726440429688,20.144653320312,-9.0438232421875
0.015,-15.810424804688,18.903442382812,-3.9188232421875
0.0155,-19.293823242188,17.421997070312,1.0059814453125
0.016,-21.015502929688,16.140747070312,3.8887939453125
0.0165,-21.415893554688,14.018676757812,6.4112548828125
0.017,-20.815307617188,10.855590820312,8.9337158203125
0.0175,-19.934448242188,5.8106689453125,13.097778320312
0.018,-19.013549804688,1.5665283203125,16.621215820312
0.0185,-18.052612304688,-2.5174560546875,19.704223632812
0.019,-16.451049804688,-5.2801513671875,20.865356445312
0.0195,-13.768432617188,-7.6424560546875,20.585083007812
0.02,-10.244995117188,-10.765502929688,20.344848632812
0.0205,-4.3592529296875,-15.049682617188,18.783325195312
0.021,0.6856689453125,-18.292846679688,17.301879882812
0.0215,3.8487548828125,-20.254760742188,16.340942382812
0.022,6.4512939453125,-20.855346679688,14.579223632812
0.0225,9.0938720703125,-20.174682617188,11.496215820312
0.023,12.857543945312,-19.333862304688,7.0518798828125
0.0235,16.501098632812,-18.292846679688,2.5675048828125
0.024,19.704223632812,-16.971557617188,-1.9569091796875
0.0245,20.745239257812,-15.490112304688,-4.4393310546875
0.025,20.625122070312,-12.967651367188,-6.7215576171875
0.0255,20.184692382812,-9.8045654296875,-9.6844482421875
0.026,19.303833007812,-4.5594482421875,-13.968627929688
0.0265,18.262817382812,-0.3153076171875,-17.251831054688
0.027,17.421997070312,3.0880126953125,-19.694213867188
0.0275,15.580200195312,5.6905517578125,-20.535034179688
0.028,12.417114257812,8.1729736328125,-19.934448242188
0.0285,8.1329345703125,11.856567382812,-19.413940429688
0.029,2.8477783203125,15.740356445312,-18.212768554688
0.0295,-1.9969482421875,18.903442382812,-16.811401367188
0.03,-4.5594482421875,20.104614257812,-15.650268554688
0.0305,-7.0819091796875,20.344848632812,-13.608276367188
0.031,-9.8045654296875,19.744262695312,-10.485229492188
0.0315,-13.968627929688,18.583129882812,-5.4403076171875
0.032,-17.371948242188,17.502075195312,-0.9959716796875
0.0325,-20.094604492188,16.340942382812,2.8477783203125
0.033,-20.615112304688,14.539184570312,5.2501220703125
0.0335,-20.374877929688,11.536254882812,7.7725830078125
0.034,-19.894409179688,7.8927001953125,11.055786132812
0.0345,-19.053588867188,3.0479736328125,15.059692382812
0.035,-17.892456054688,-1.3963623046875,18.382934570312
0.0355,-16.691284179688,-4.1990966796875,20.064575195312
0.036,-14.769409179688,-6.6014404296875,20.625122070312
0.0365,-11.326049804688,-9.2840576171875,19.864379882812
0.037,-6.1209716796875,-13.328002929688,18.823364257812
0.0375,-1.2362060546875,-16.811401367188,17.662231445312
0.038,3.1680908203125,-19.614135742188,16.380981445312
0.0385,5.4903564453125,-20.294799804688,14.899536132812
0.039,8.0928955078125,-20.134643554688,12.337036132812
0.0395,11.255981445312,-19.534057617188,8.8135986328125
0.04,15.179809570312,-18.332885742188,3.8487548828125
0.0405,18.503051757812,-17.131713867188,-0.6756591796875
0.041,20.424926757812,-15.970581054688,-3.6785888671875
0.0415,20.625122070312,-13.808471679688,-6.0809326171875
0.042,20.064575195312,-10.565307617188,-8.6834716796875
0.0425,19.343872070312,-6.1209716796875,-12.487182617188
0.043,18.543090820312,-1.7567138671875,-16.010620117188
0.0435,17.502075195312,2.4073486328125,-19.133666992188
0.044,15.900512695312,4.8497314453125,-20.014526367188
0.0445,13.578247070312,7.3721923828125,-20.214721679688
0.045,9.6544189453125,10.535278320312,-19.614135742188
0.0455,4.1690673828125,14.539184570312,-18.292846679688
0.046,-0.5155029296875,17.782348632812,-17.131713867188
0.0465,-3.9588623046875,19.984497070312,-16.050659179688
0.047,-6.2811279296875,20.224731445312,-14.248901367188
0.0475,-8.8436279296875,19.704223632812,-11.366088867188
0.048,-12.567260742188,19.023559570312,-7.1619873046875
0.0485,-16.210815429688,17.862426757812,-2.4373779296875
0.049,-19.373901367188,16.581176757812,1.9268798828125
0.0495,-20.535034179688,15.139770507812,4.4493408203125
0.05,-20.615112304688,12.777465820312,6.8917236328125
0.0505,-20.014526367188,9.2139892578125,9.8946533203125
0.051,-19.173706054688,4.4093017578125,13.818481445312
0.0515,-18.212768554688,0.1651611328125,17.141723632812
0.052,-17.251831054688,-3.4783935546875,19.864379882812
0.0525,-15.329956054688,-5.7606201171875,20.224731445312
0.053,-12.527221679688,-8.2830810546875,20.024536132812
0.0535,-8.1229248046875,-11.886596679688,19.343872070312
0.054,-2.6776123046875,-15.690307617188,17.862426757812
0.0545,1.8868408203125,-18.613159179688,16.581176757812
0.055,4.6094970703125,-20.094604492188,15.500122070312
0.0555,7.0518798828125,-20.214721679688,13.257934570312
0.056,9.8946533203125,-19.494018554688,10.054809570312
0.0565,13.618286132812,-18.573120117188,5.5704345703125
0.057,17.141723632812,-17.452026367188,1.0860595703125
0.0575,19.824340820312,-16.290893554688,-2.8778076171875
0.058,20.224731445312,-14.369018554688,-5.0399169921875
0.0585,20.104614257812,-11.686401367188,-7.6024169921875
0.059,19.383911132812,-7.6424560546875,-10.965698242188
0.0595,18.543090820312,-3.1580810546875,-14.649291992188
0.06,17.542114257812,0.9659423828125,-17.732299804688
0.0605,16.501098632812,3.9288330078125,-19.734252929688
0.061,14.298950195312,6.2510986328125,-19.894409179688
0.0615,10.975708007812,8.9737548828125,-19.293823242188
0.062,6.2110595703125,12.777465820312,-18.453002929688
0.0625,1.2061767578125,16.340942382812,-17.211791992188
0.063,-2.8778076171875,18.943481445312,-16.010620117188
0.0635,-5.1199951171875,19.664184570312,-14.729370117188
0.064,-7.6424560546875,19.584106445312,-12.407104492188
0.0645,-10.845581054688,18.783325195312,-8.5633544921875
0.065,-14.449096679688,17.782348632812,-4.0789794921875
0.0655,-17.772338867188,16.661254882812,0.2452392578125
0.066,-19.894409179688,15.540161132812,3.4884033203125
0.0665,-19.934448242188,13.418090820312,5.6104736328125
0.067,-19.534057617188,10.535278320312,8.2930908203125
0.0675,-18.933471679688,6.0909423828125,11.976684570312
0.068,-18.092651367188,1.7266845703125,15.540161132812
0.0685,-17.091674804688,-1.9569091796875,18.463012695312
0.069,-15.850463867188,-4.5594482421875,19.584106445312
0.0695,-13.568237304688,-6.9217529296875,19.704223632812
0.07,-9.5643310546875,-10.084838867188,18.903442382812
0.0705,-4.7596435546875,-13.648315429688,17.822387695312
0.071,0.0450439453125,-17.011596679688,16.661254882812
0.0715,3.5284423828125,-19.253784179688,15.620239257812
0.072,5.6505126953125,-19.413940429688,13.938598632812
0.0725,8.1729736328125,-19.253784179688,11.456176757812
0.073,11.856567382812,-18.453002929688,7.0919189453125
0.0735,15.219848632812,-17.371948242188,2.7276611328125
0.074,18.222778320312,-16.290893554688,-1.1961669921875
0.0745,19.664184570312,-15.009643554688,-3.8387451171875
0.075,19.544067382812,-12.607299804688,-5.9207763671875
0.0755,19.103637695312,-9.2440185546875,-9.1239013671875
0.076,18.302856445312,-4.8797607421875,-12.687377929688
0.0765,17.462036132812,-0.7156982421875,-16.130737304688
0.077,16.661254882812,2.7677001953125,-18.653198242188
0.0775,14.859497070312,4.9298095703125,-19.093627929688
0.078,12.497192382812,7.4122314453125,-19.253784179688
0.0785,7.7725830078125,11.175903320312,-18.412963867188
0.079,3.0479736328125,14.579223632812,-17.171752929688
0.0795,-1.2362060546875,17.542114257812,-16.210815429688
0.08,-4.1590576171875,19.263793945312,-15.209838867188
0.0805,-6.3211669921875,19.103637695312,-13.127807617188
0.081,-9.0037841796875,18.783325195312,-10.285034179688
0.0815,-12.967651367188,17.942504882812,-5.7606201171875
0.082,-16.370971679688,16.821411132812,-1.3162841796875
0.0825,-18.933471679688,15.820434570312,2.2872314453125
0.083,-19.734252929688,14.218872070312,4.6094970703125
0.0835,-19.614135742188,11.616333007812,7.0919189453125
0.084,-19.053588867188,7.5323486328125,10.655395507812
0.0845,-18.212768554688,3.3282470703125,14.098754882812
0.085,-17.371948242188,-0.7156982421875,17.301879882812
0.0855,-16.370971679688,-3.8787841796875,19.504028320312
0.086,-14.168823242188,-6.0408935546875,19.383911132812
0.0865,-11.406127929688,-8.6033935546875,19.263793945312
0.087,-6.2811279296875,-12.647338867188,18.262817382812
0.0875,-1.2762451171875,-16.050659179688,16.941528320312
0.088,2.4874267578125,-18.573120117188,15.980590820312
0.0885,5.0899658203125,-19.734252929688,14.739379882812
0.089,7.4923095703125,-19.494018554688,12.296997070312
0.0895,10.735473632812,-18.853393554688,8.4532470703125
0.09,14.218872070312,-17.932495117188,4.2891845703125
0.0905,17.662231445312,-16.731323242188,-0.1951904296875
0.091,19.784301757812,-15.650268554688,-3.3582763671875
0.0915,19.864379882812,-13.488159179688,-5.5604248046875
0.092,19.704223632812,-10.765502929688,-8.1629638671875
0.0925,18.903442382812,-5.9608154296875,-12.206909179688
0.093,18.022583007812,-1.7967529296875,-15.530151367188
0.0935,17.141723632812,1.8868408203125,-18.252807617188
0.094,15.940551757812,4.6495361328125,-19.894409179688
0.0945,13.257934570312,6.9718017578125,-19.654174804688
0.095,9.4942626953125,10.174926757812,-19.053588867188
0.0955,4.6094970703125,13.978637695312,-18.132690429688
0.096,-0.3153076171875,17.421997070312,-16.931518554688
0.0965,-3.7186279296875,19.383911132812,-15.770385742188
0.097,-5.9608154296875,19.824340820312,-14.128784179688
0.0975,-8.5633544921875,19.584106445312,-11.606323242188
0.098,-12.487182617188,18.583129882812,-6.7615966796875
0.0985,-15.810424804688,17.542114257812,-2.5574951171875
0.099,-18.933471679688,16.501098632812,1.5665283203125
0.0995,-20.454956054688,15.059692382812,4.4493408203125
0.1,-20.134643554688,12.497192382812,6.6915283203125
0.1005,-19.854370117188,9.2540283203125,9.6944580078125
0.101,-18.933471679688,4.4893798828125,13.618286132812
0.1015,-17.972534179688,0.0450439453125,17.061645507812
0.102,-16.811401367188,-3.2781982421875,19.263793945312
0.1025,-15.289916992188,-5.7606201171875,20.184692382812
0.103,-12.487182617188,-8.1629638671875,19.864379882812
0.1035,-7.6424560546875,-11.886596679688,18.863403320312
0.104,-2.8778076171875,-15.249877929688,17.702270507812
0.1045,1.7266845703125,-18.453002929688,16.581176757812
0.105,4.7296142578125,-20.054565429688,15.380004882812
0.1055,6.9317626953125,-19.894409179688,13.097778320312
0.106,9.6544189453125,-19.614135742188,10.415161132812
0.1065,13.778442382812,-18.533081054688,5.3702392578125
0.107,17.141723632812,-17.251831054688,0.8458251953125
0.1075,19.664184570312,-16.210815429688,-2.5975341796875
0.108,20.505004882812,-14.529174804688,-5.1600341796875
0.1085,20.064575195312,-11.646362304688,-7.5623779296875
0.109,19.423950195312,-7.5623779296875,-11.165893554688
0.1095,18.623168945312,-3.2381591796875,-14.609252929688
0.11,17.742309570312,1.0860595703125,-18.012573242188
0.1105,16.581176757812,4.3292236328125,-19.694213867188
0.111,14.218872070312,6.4512939453125,-19.934448242188
0.1115,11.376098632812,9.0538330078125,-19.854370117188
0.112,5.6905517578125,13.338012695312,-18.533081054688
0.1125,0.9659423828125,16.541137695312,-17.291870117188
0.113,-2.8778076171875,19.183715820312,-16.290893554688
0.1135,-5.6405029296875,20.304809570312,-14.929565429688
0.114,-8.0428466796875,19.704223632812,-12.126831054688
0.1145,-11.165893554688,19.223754882812,-8.7235107421875
0.115,-15.089721679688,18.222778320312,-3.9188232421875
0.1155,-18.573120117188,16.821411132812,0.8858642578125
0.116,-20.374877929688,15.620239257812,3.8487548828125
0.1165,-20.695190429688,13.458129882812,6.2510986328125
0.117,-20.254760742188,10.575317382812,8.6934814453125
0.1175,-19.373901367188,5.5704345703125,12.857543945312
0.118,-18.412963867188,1.3262939453125,16.140747070312
0.1185,-17.532104492188,-2.5574951171875,19.183715820312
0.119,-16.010620117188,-5.4002685546875,20.505004882812
0.1195,-13.167846679688,-7.6424560546875,20.024536132812
0.12,-9.9647216796875,-10.565307617188,19.784301757812
0.1205,-4.1990966796875,-14.769409179688,18.382934570312
0.121,0.8858642578125,-18.012573242188,16.861450195312
0.1215,3.9688720703125,-19.934448242188,15.820434570312
0.122,6.6514892578125,-20.494995117188,14.098754882812
0.1225,9.0938720703125,-19.894409179688,11.215942382812
0.123,12.817504882812,-18.933471679688,6.6915283203125
0.1235,16.300903320312,-17.932495117188,2.4073486328125
0.124,19.504028320312,-16.651245117188,-1.9969482421875
0.1245,20.625122070312,-15.169799804688,-4.5994873046875
0.125,20.384887695312,-12.567260742188,-6.9617919921875
0.1255,19.984497070312,-9.4842529296875,-9.6844482421875
0.126,19.063598632812,-4.3592529296875,-13.968627929688
0.1265,17.942504882812,0.0050048828125,-17.171752929688
0.127,16.941528320312,3.2081298828125,-19.413940429688
0.1275,15.299926757812,5.8507080078125,-20.454956054688
0.128,12.136840820312,8.2930908203125,-19.734252929688
0.1285,7.7725830078125,11.816528320312,-19.053588867188
0.129,2.7677001953125,15.540161132812,-17.932495117188
0.1295,-2.1170654296875,18.703247070312,-16.531127929688
0.13,-4.7596435546875,20.024536132812,-15.249877929688
0.1305,-7.1219482421875,20.104614257812,-13.287963867188
0.131,-9.8045654296875,19.584106445312,-10.405151367188
0.1315,-13.968627929688,18.422973632812,-5.2000732421875
0.132,-17.331909179688,17.301879882812,-0.7557373046875
0.1325,-19.934448242188,16.140747070312,2.8878173828125
0.133,-20.695190429688,14.419067382812,5.3302001953125
0.1335,-20.174682617188,11.456176757812,7.7725830078125
0.134,-19.694213867188,7.6925048828125,11.055786132812
0.1345,-18.893432617188,3.0479736328125,14.979614257812
0.135,-17.732299804688,-1.4364013671875,18.302856445312
0.1355,-16.531127929688,-4.2391357421875,19.904418945312
0.136,-14.609252929688,-6.6414794921875,20.464965820312
0.1365,-11.286010742188,-9.2840576171875,19.864379882812
0.137,-5.9207763671875,-13.408081054688,18.663208007812
0.1375,-1.1961669921875,-16.811401367188,17.542114257812
0.138,3.0479736328125,-19.614135742188,16.380981445312
0.1385,5.6104736328125,-20.374877929688,14.899536132812
0.139,8.1329345703125,-20.054565429688,12.216918945312
0.1395,11.215942382812,-19.494018554688,8.9737548828125
0.14,15.219848632812,-18.332885742188,3.8487548828125
0.1405,18.623168945312,-17.011596679688,-0.8358154296875
0.141,20.464965820312,-15.890502929688,-3.7586669921875
0.1415,20.785278320312,-13.768432617188,-6.2010498046875
0.142,20.184692382812,-10.565307617188,-8.8035888671875
0.1425,19.343872070312,-5.9207763671875,-12.687377929688
0.143,18.543090820312,-1.6365966796875,-16.170776367188
0.1435,17.582153320312,2.5274658203125,-19.293823242188
0.144,15.860473632812,5.0899658203125,-20.254760742188
0.1445,13.418090820312,7.5323486328125,-20.334838867188
0.145,9.7344970703125,10.695434570312,-19.814331054688
0.1455,3.9688720703125,14.819458007812,-18.453002929688
0.146,-0.9158935546875,18.142700195312,-17.051635742188
0.1465,-4.2391357421875,20.264770507812,-16.050659179688
0.147,-6.7215576171875,20.665161132812,-14.248901367188
0.1475,-9.3641357421875,20.064575195312,-11.085815429688
0.148,-13.007690429688,19.263793945312,-7.0018310546875
0.1485,-16.731323242188,18.062622070312,-2.1971435546875
0.149,-19.974487304688,16.661254882812,2.4073486328125
0.1495,-21.055541992188,15.099731445312,4.9698486328125
0.15,-21.135620117188,12.617309570312,7.5723876953125
0.1505,-20.494995117188,9.0938720703125,10.495239257812
0.151,-19.494018554688,4.0089111328125,14.579223632812
0.1515,-18.453002929688,-0.3953857421875,17.942504882812
0.152,-17.411987304688,-4.0389404296875,20.585083007812
0.1525,-15.369995117188,-6.5213623046875,21.105590820312
0.153,-12.206909179688,-9.2440185546875,20.625122070312
0.1535,-7.9627685546875,-12.767456054688,19.944458007812
0.154,-2.2772216796875,-16.571166992188,18.422973632812
0.1545,2.5675048828125,-19.614135742188,16.901489257812
0.155,5.4102783203125,-20.975463867188,15.660278320312
0.1555,8.0528564453125,-21.095581054688,13.418090820312
0.156,10.975708007812,-20.254760742188,9.8546142578125
0.1565,14.779418945312,-19.173706054688,5.0899658203125
0.157,18.302856445312,-17.932495117188,0.4053955078125
0.1575,21.105590820312,-16.531127929688,-3.7186279296875
0.158,21.465942382812,-14.489135742188,-6.1209716796875
0.1585,21.185668945312,-11.486206054688,-8.8436279296875
0.159,20.464965820312,-7.4022216796875,-12.206909179688
0.1595,19.383911132812,-2.5574951171875,-16.010620117188
0.16,18.102661132812,1.8468017578125,-19.173706054688
0.1605,16.901489257812,4.9298095703125,-21.015502929688
0.161,14.539184570312,7.4122314453125,-21.215698242188
0.1615,10.775512695312,10.295043945312,-20.535034179688
0.162,5.7706298828125,14.218872070312,-19.534057617188
0.1625,0.5255126953125,17.902465820312,-18.092651367188
0.163,-3.8787841796875,20.545043945312,-16.691284179688
0.1635,-6.3211669921875,21.145629882812,-15.089721679688
0.164,-9.0037841796875,21.025512695312,-12.527221679688
0.1645,-12.327026367188,20.144653320312,-8.4832763671875
0.165,-16.170776367188,18.823364257812,-3.5584716796875
0.1655,-19.333862304688,17.421997070312,1.0860595703125
0.166,-21.736206054688,16.060668945312,4.6495361328125
0.1665,-21.736206054688,13.698364257812,7.0518798828125
0.167,-21.135620117188,10.455200195312,9.9747314453125
0.1675,-20.374877929688,5.7305908203125,13.738403320312
0.168,-19.373901367188,1.0460205078125,17.421997070312
0.1685,-18.052612304688,-3.2381591796875,20.424926757812
0.169,-16.411010742188,-5.9207763671875,21.465942382812
0.1695,-13.968627929688,-8.4832763671875,21.586059570312
0.17,-9.4842529296875,-11.846557617188,20.585083007812
0.1705,-4.1590576171875,-15.570190429688,19.223754882812
0.171,0.9659423828125,-19.013549804688,17.822387695312
0.1715,4.8497314453125,-21.295776367188,16.501098632812
0.172,7.2520751953125,-21.295776367188,14.379028320312
0.1725,10.014770507812,-21.015502929688,11.496215820312
0.173,13.858520507812,-20.014526367188,6.8516845703125
0.1735,17.462036132812,-18.653198242188,1.8868408203125
0.174,20.545043945312,-17.251831054688,-2.5174560546875
0.1745,21.946411132812,-15.690307617188,-5.4002685546875
0.175,21.706176757812,-12.967651367188,-7.9227294921875
0.1755,21.105590820312,-9.0037841796875,-11.286010742188
0.176,20.104614257812,-4.3192138671875,-15.009643554688
0.1765,19.063598632812,0.3253173828125,-18.573120117188
0.177,17.782348632812,4.1290283203125,-21.175659179688
0.1775,15.500122070312,6.6114501953125,-21.495971679688
0.178,12.737426757812,9.4542236328125,-21.495971679688
