wavelength,x,y,z
0.0,4.8046875,-4.3642578125,-2.08203125
0.0005,4.5244140625,-4.96484375,-1.44140625
0.001,3.7236328125,-5.1650390625,-0.6005859375
0.0015,2.5625,-5.4052734375,0.7607421875
0.002,1.4013671875,-5.6455078125,2.2822265625
0.0025,0.6005859375,-6.1259765625,3.5634765625
0.003,0.0400390625,-6.486328125,4.484375
0.0035,-0.9208984375,-6.166015625,5.044921875
0.004,-1.9619140625,-5.1650390625,5.28515625
0.0045,-3.283203125,-4.00390625,5.60546875
0.005,-4.5244140625,-2.8427734375,5.92578125
0.0055,-5.28515625,-2.0419921875,6.2060546875
0.006,-5.4853515625,-1.4013671875,6.0859375
0.0065,-5.28515625,-0.6806640625,5.4052734375
0.007,-5.0849609375,0.5205078125,4.404296875
0.0075,-5.044921875,1.921875,3.1630859375
0.008,-5.125,3.1630859375,2.2421875
0.0085,-5.125,4.0439453125,1.5615234375
0.009,-4.64453125,4.4443359375,0.9208984375
0.0095,-3.68359375,4.484375,-0.240234375
0.01,-2.5224609375,4.8447265625,-1.6015625
0.0105,-1.3212890625,5.1650390625,-3.0830078125
0.011,-0.640625,5.7255859375,-4.2041015625
0.0115,0.0400390625,5.845703125,-5.0048828125
0.012,0.9609375,5.2451171875,-5.4052734375
0.0125,2.2021484375,4.1240234375,-5.6455078125
0.013,3.5234375,2.802734375,-5.9658203125
0.0135,4.6044921875,1.76171875,-6.2861328125
0.014,5.2451171875,1.0810546875,-6.486328125
0.0145,5.2451171875,0.3603515625,-6.1259765625
0.015,4.96484375,-0.640625,-5.2451171875
0.0155,4.8046875,-1.841796875,-4.1640625
0.016,4.8046875,-3.36328125,-2.8828125
0.0165,4.884765625,-4.564453125,-2.001953125
0.017,4.724609375,-5.28515625,-1.3212890625
0.0175,3.9638671875,-5.525390625,-0.560546875
0.018,2.7626953125,-5.5654296875,0.7607421875
0.0185,1.44140625,-5.845703125,2.3623046875
0.019,0.400390625,-6.2060546875,3.763671875
0.0195,-0.3203125,-6.646484375,4.8447265625
0.02,-1.041015625,-6.4462890625,5.4453125
0.0205,-2.08203125,-5.4453125,5.685546875
0.021,-3.4833984375,-4.2041015625,5.9658203125
0.0215,-4.8046875,-2.7626953125,6.166015625
0.022,-5.685546875,-1.8017578125,6.40625
0.0225,-5.9658203125,-1.1611328125,6.3662109375
0.023,-5.765625,-0.400390625,5.7255859375
0.0235,-5.4052734375,0.8408203125,4.484375
0.024,-5.28515625,2.2421875,3.203125
0.0245,-5.2451171875,3.603515625,2.0419921875
0.025,-5.2451171875,4.6044921875,1.2412109375
0.0255,-4.8046875,4.96484375,0.5205078125
0.026,-3.7236328125,5.0849609375,-0.5205078125
0.0265,-2.3623046875,5.1650390625,-1.921875
0.027,-1.0009765625,5.4052734375,-3.5634765625
0.0275,-0.2001953125,5.8056640625,-4.7646484375
0.028,0.5205078125,6.0458984375,-5.6455078125
0.0285,1.3212890625,5.4853515625,-6.0458984375
0.029,2.5625,4.2041015625,-6.1259765625
0.0295,3.9638671875,2.8427734375,-6.40625
0.03,5.125,1.4013671875,-6.56640625
0.0305,5.8056640625,0.6005859375,-6.7265625
0.031,5.8056640625,0.0,-6.4462890625
0.0315,5.4453125,-1.0009765625,-5.525390625
0.032,5.125,-2.2822265625,-4.1640625
0.0325,4.96484375,-3.8837890625,-2.6826171875
0.033,4.96484375,-5.125,-1.6416015625
0.0335,4.7646484375,-5.92578125,-0.9609375
0.034,4.083984375,-6.1259765625,0.0
0.0345,2.7626953125,-6.0859375,1.12109375
0.035,1.28125,-6.166015625,2.72265625
0.0355,0.0,-6.40625,4.2841796875
0.036,-0.8408203125,-6.806640625,5.4052734375
0.0365,-1.44140625,-6.7265625,6.0859375
0.037,-2.4423828125,-5.8056640625,6.326171875
0.0375,-3.84375,-4.32421875,6.4462890625
0.038,-5.205078125,-2.7626953125,6.56640625
0.0385,-6.166015625,-1.5615234375,6.6865234375
0.039,-6.56640625,-0.80078125,6.6865234375
0.0395,-6.3662109375,0.0400390625,6.0859375
0.04,-5.8857421875,1.12109375,4.8046875
0.0405,-5.5654296875,2.482421875,3.3232421875
0.041,-5.4052734375,3.9638671875,1.921875
0.0415,-5.3251953125,5.044921875,0.9609375
0.042,-4.96484375,5.60546875,0.2802734375
0.0425,-3.923828125,5.6455078125,-0.6806640625
0.043,-2.4423828125,5.5654296875,-2.08203125
0.0435,-0.9208984375,5.7255859375,-3.8037109375
0.044,0.2802734375,5.92578125,-5.1650390625
0.0445,0.9208984375,6.2060546875,-6.1259765625
0.045,1.6015625,5.765625,-6.5263671875
0.0455,2.7626953125,4.6044921875,-6.646484375
0.046,4.1240234375,3.04296875,-6.806640625
0.0465,5.4453125,1.44140625,-6.806640625
0.047,6.2060546875,0.4404296875,-6.9267578125
0.0475,6.326171875,-0.3203125,-6.7666015625
0.048,5.92578125,-1.1611328125,-5.8857421875
0.0485,5.4453125,-2.4423828125,-4.484375
0.049,5.1650390625,-3.923828125,-2.962890625
0.0495,4.96484375,-5.3251953125,-1.6015625
0.05,4.8447265625,-6.166015625,-0.7607421875
0.0505,4.2841796875,-6.486328125,0.0400390625
0.051,3.0830078125,-6.40625,1.041015625
0.0515,1.4814453125,-6.3662109375,2.6025390625
0.052,-0.16015625,-6.4462890625,4.2841796875
0.0525,-1.0009765625,-6.7666015625,5.4453125
0.053,-1.6015625,-6.88671875,6.24609375
0.0535,-2.4423828125,-6.166015625,6.5263671875
0.054,-3.7236328125,-4.724609375,6.56640625
0.0545,-5.044921875,-3.203125,6.6865234375
0.055,-6.1259765625,-1.76171875,6.7265625
0.0555,-6.7265625,-0.8408203125,6.7666015625
0.056,-6.6064453125,-0.2001953125,6.3662109375
0.0565,-6.1259765625,0.7607421875,5.3251953125
0.057,-5.6455078125,2.08203125,3.8037109375
0.0575,-5.4853515625,3.5634765625,2.2822265625
0.058,-5.3251953125,4.8447265625,1.201171875
0.0585,-5.125,5.5654296875,0.48046875
0.059,-4.32421875,5.7255859375,-0.400390625
0.0595,-3.0029296875,5.60546875,-1.4814453125
0.06,-1.4814453125,5.685546875,-3.123046875
0.0605,0.0,5.765625,-4.6845703125
0.061,0.6806640625,6.1259765625,-5.765625
0.0615,1.28125,6.0859375,-6.40625
0.062,2.2021484375,5.1650390625,-6.56640625
0.0625,3.5634765625,3.68359375,-6.6865234375
0.063,4.884765625,2.162109375,-6.806640625
0.0635,5.8857421875,0.880859375,-6.88671875
0.064,6.2861328125,0.16015625,-6.9267578125
0.0645,6.0859375,-0.6806640625,-6.3662109375
0.065,5.6455078125,-1.681640625,-5.205078125
0.0655,5.2451171875,-3.123046875,-3.7236328125
0.066,5.0849609375,-4.6044921875,-2.2021484375
0.0665,5.0048828125,-5.765625,-1.2412109375
0.067,4.724609375,-6.3662109375,-0.5205078125
0.0675,3.763671875,-6.40625,0.48046875
0.068,2.2421875,-6.3662109375,1.8017578125
0.0685,0.6806640625,-6.4462890625,3.5234375
0.069,-0.640625,-6.6865234375,4.96484375
0.0695,-1.201171875,-7.0068359375,5.9658203125
0.07,-1.921875,-6.646484375,6.4462890625
0.0705,-3.04296875,-5.4453125,6.56640625
0.071,-4.5244140625,-3.923828125,6.6865234375
0.0715,-5.8056640625,-2.322265625,6.8466796875
0.072,-6.6064453125,-1.2412109375,6.88671875
0.0725,-6.7666015625,-0.6005859375,6.6865234375
0.073,-6.40625,0.400390625,5.8857421875
0.0735,-5.9658203125,1.5615234375,4.4443359375
0.074,-5.6455078125,3.1630859375,2.8828125
0.0745,-5.4453125,4.6044921875,1.521484375
0.075,-5.3251953125,5.5654296875,0.6806640625
0.0755,-4.724609375,5.8857421875,-0.2001953125
0.076,-3.5634765625,5.8056640625,-1.1611328125
0.0765,-1.921875,5.7255859375,-2.72265625
0.077,-0.3603515625,5.8857421875,-4.4443359375
0.0775,0.640625,6.0859375,-5.6455078125
0.078,1.2412109375,6.24609375,-6.4462890625
0.0785,2.0419921875,5.5654296875,-6.7265625
0.079,3.283203125,4.1240234375,-6.7666015625
0.0795,4.64453125,2.5625,-6.9267578125
0.08,5.8056640625,1.0810546875,-6.9267578125
0.0805,6.40625,0.1201171875,-7.0068359375
0.081,6.326171875,-0.640625,-6.6064453125
0.0815,5.765625,-1.521484375,-5.5654296875
0.082,5.4052734375,-2.802734375,-4.083984375
0.0825,5.0849609375,-4.3642578125,-2.4423828125
0.083,4.96484375,-5.60546875,-1.3212890625
0.0835,4.724609375,-6.2861328125,-0.560546875
0.084,3.9638671875,-6.4462890625,0.2802734375
0.0845,2.6826171875,-6.3662109375,1.4013671875
0.085,1.041015625,-6.40625,3.0029296875
0.0855,-0.48046875,-6.4462890625,4.564453125
0.086,-1.12109375,-6.7666015625,5.60546875
0.0865,-1.681640625,-6.7265625,6.24609375
0.087,-2.6025390625,-5.845703125,6.40625
0.0875,-3.8837890625,-4.404296875,6.5263671875
0.088,-5.205078125,-2.8828125,6.6064453125
0.0885,-6.166015625,-1.6416015625,6.6865234375
0.089,-6.56640625,-0.9208984375,6.6865234375
0.0895,-6.40625,-0.240234375,6.0859375
0.09,-5.845703125,0.80078125,5.044921875
0.0905,-5.525390625,2.162109375,3.6435546875
0.091,-5.3251953125,3.6435546875,2.2021484375
0.0915,-5.28515625,4.7646484375,1.2412109375
0.092,-5.0048828125,5.365234375,0.560546875
0.0925,-4.1640625,5.4453125,-0.3203125
0.093,-2.8427734375,5.365234375,-1.5615234375
0.0935,-1.361328125,5.525390625,-3.1630859375
0.094,-0.2001953125,5.7255859375,-4.564453125
0.0945,0.5205078125,6.0859375,-5.5654296875
0.095,1.12109375,5.8857421875,-6.1259765625
0.0955,2.1220703125,4.884765625,-6.24609375
0.096,3.443359375,3.5234375,-6.40625
0.0965,4.7646484375,2.001953125,-6.56640625
0.097,5.60546875,0.9609375,-6.7265625
0.0975,5.845703125,0.3203125,-6.7265625
0.098,5.685546875,-0.48046875,-6.1259765625
0.0985,5.2451171875,-1.4814453125,-4.9248046875
0.099,5.044921875,-2.8828125,-3.5634765625
0.0995,4.9248046875,-4.2841796875,-2.2822265625
0.1,4.884765625,-5.3251953125,-1.44140625
0.1005,4.5244140625,-5.8056640625,-0.80078125
0.101,3.5634765625,-5.8857421875,0.2001953125
0.1015,2.2021484375,-5.92578125,1.521484375
0.102,0.7607421875,-6.0859375,3.1630859375
0.1025,-0.2802734375,-6.4462890625,4.4443359375
0.103,-0.80078125,-6.7265625,5.365234375
0.1035,-1.521484375,-6.326171875,5.7255859375
0.104,-2.642578125,-5.1650390625,5.8857421875
0.1045,-3.9638671875,-3.8837890625,6.166015625
0.105,-5.1650390625,-2.5625,6.326171875
0.1055,-5.92578125,-1.6416015625,6.4462890625
0.106,-6.005859375,-1.0009765625,6.2861328125
0.1065,-5.7255859375,-0.2802734375,5.5654296875
0.107,-5.4052734375,0.9609375,4.3642578125
0.1075,-5.205078125,2.40234375,3.04296875
0.108,-5.205078125,3.6435546875,2.001953125
0.1085,-5.1650390625,4.484375,1.28125
0.109,-4.64453125,4.8447265625,0.6005859375
0.1095,-3.603515625,4.884765625,-0.4404296875
0.11,-2.322265625,5.044921875,-1.8017578125
0.1105,-1.041015625,5.28515625,-3.3232421875
0.111,-0.3603515625,5.7255859375,-4.5244140625
0.1115,0.2802734375,5.92578125,-5.28515625
0.112,1.12109375,5.365234375,-5.6455078125
0.1125,2.2421875,4.1240234375,-5.8056640625
0.113,3.603515625,2.8427734375,-6.0859375
0.1135,4.64453125,1.7216796875,-6.326171875
0.114,5.28515625,1.0810546875,-6.56640625
0.1145,5.3251953125,0.4404296875,-6.2861328125
0.115,5.0849609375,-0.48046875,-5.4453125
0.1155,4.8447265625,-1.6015625,-4.3642578125
0.116,4.7646484375,-3.0830078125,-3.0830078125
0.1165,4.8046875,-4.2841796875,-2.162109375
0.117,4.7646484375,-5.044921875,-1.5615234375
0.1175,4.1240234375,-5.3251953125,-0.80078125
0.118,3.04296875,-5.4453125,0.3603515625
0.1185,1.8017578125,-5.7255859375,1.841796875
0.119,0.6806640625,-6.005859375,3.2431640625
0.1195,0.080078125,-6.486328125,4.404296875
0.12,-0.640625,-6.486328125,5.044921875
0.1205,-1.6015625,-5.8056640625,5.3251953125
0.121,-2.802734375,-4.6845703125,5.60546875
0.1215,-4.1640625,-3.36328125,5.8857421875
0.122,-5.125,-2.322265625,6.1259765625
0.1225,-5.5654296875,-1.7216796875,6.326171875
0.123,-5.4853515625,-1.041015625,5.8056640625
0.1235,-5.205078125,0.0,4.9248046875
0.124,-5.125,1.2412109375,3.84375
0.1245,-5.125,2.6025390625,2.6826171875
0.125,-5.1650390625,3.68359375,1.921875
0.1255,-4.96484375,4.2841796875,1.28125
0.126,-4.2041015625,4.484375,0.5205078125
0.1265,-3.0830078125,4.6044921875,-0.7607421875
0.127,-1.8818359375,4.96484375,-2.2822265625
0.1275,-1.041015625,5.365234375,-3.5634765625
0.128,-0.4404296875,5.765625,-4.5244140625
0.1285,0.3603515625,5.525390625,-5.0849609375
0.129,1.3212890625,4.64453125,-5.28515625
0.1295,2.5625,3.5634765625,-5.685546875
0.13,3.84375,2.40234375,-5.92578125
0.1305,4.724609375,1.5615234375,-6.2861328125
0.131,4.96484375,1.041015625,-6.2861328125
0.1315,4.8447265625,0.3203125,-5.765625
0.132,4.64453125,-0.720703125,-4.8447265625
0.1325,4.6044921875,-2.0419921875,-3.7236328125
0.133,4.6845703125,-3.3232421875,-2.7626953125
0.1335,4.7646484375,-4.32421875,-2.08203125
0.134,4.4443359375,-4.8046875,-1.4814453125
0.1345,3.603515625,-5.0048828125,-0.6005859375
0.135,2.5224609375,-5.28515625,0.80078125
0.1355,1.4013671875,-5.6455078125,2.2421875
0.136,0.720703125,-6.166015625,3.443359375
0.1365,0.1201171875,-6.486328125,4.32421875
0.137,-0.7607421875,-6.1259765625,4.8046875
0.1375,-1.921875,-5.205078125,5.0849609375
0.138,-3.1630859375,-4.0439453125,5.4853515625
0.1385,-4.2841796875,-3.0029296875,5.8056640625
0.139,-5.044921875,-2.2822265625,6.1259765625
0.1395,-5.205078125,-1.681640625,6.005859375
0.14,-5.125,-0.9208984375,5.365234375
0.1405,-5.0048828125,0.2802734375,4.4443359375
0.141,-5.0048828125,1.6015625,3.36328125
0.1415,-5.1650390625,2.8427734375,2.5625
0.142,-5.1650390625,3.68359375,1.921875
0.1425,-4.6845703125,4.083984375,1.2412109375
0.143,-3.7236328125,4.32421875,0.16015625
0.1435,-2.6826171875,4.724609375,-1.28125
0.144,-1.6416015625,5.0849609375,-2.72265625
0.1445,-1.0009765625,5.60546875,-3.8837890625
0.145,-0.400390625,5.7255859375,-4.6044921875
0.1455,0.6005859375,5.0849609375,-5.044921875
0.146,1.921875,4.1240234375,-5.4453125
0.1465,3.2431640625,2.9228515625,-5.765625
0.147,4.2841796875,1.9619140625,-6.1259765625
0.1475,4.8447265625,1.4013671875,-6.40625
0.148,4.8447265625,0.6806640625,-6.005859375
0.1485,4.724609375,-0.3203125,-5.205078125
0.149,4.6845703125,-1.5615234375,-4.2041015625
0.1495,4.724609375,-2.9228515625,-3.0830078125
0.15,4.8447265625,-4.1240234375,-2.2822265625
0.1505,4.64453125,-4.7646484375,-1.6416015625
0.151,3.9638671875,-5.0048828125,-0.8408203125
0.1515,2.8427734375,-5.2451171875,0.48046875
0.152,1.6416015625,-5.60546875,1.9619140625
0.1525,0.7607421875,-6.1259765625,3.283203125
0.153,0.16015625,-6.5263671875,4.32421875
0.1535,-0.720703125,-6.326171875,4.9248046875
0.154,-1.7216796875,-5.4052734375,5.205078125
0.1545,-3.04296875,-4.244140625,5.5654296875
0.155,-4.3642578125,-2.962890625,5.8857421875
0.1555,-5.205078125,-2.1220703125,6.166015625
0.156,-5.4453125,-1.5615234375,6.1259765625
0.1565,-5.28515625,-0.80078125,5.4853515625
0.157,-5.0849609375,0.3603515625,4.484375
0.1575,-5.044921875,1.7216796875,3.3232421875
0.158,-5.125,3.04296875,2.3623046875
0.1585,-5.125,3.9638671875,1.6416015625
0.159,-4.724609375,4.404296875,0.9609375
0.1595,-3.8037109375,4.484375,0.0400390625
0.16,-2.6025390625,4.7646484375,-1.3212890625
0.1605,-1.4013671875,5.0849609375,-2.8828125
0.161,-0.720703125,5.525390625,-4.0439453125
0.1615,-0.16015625,5.765625,-4.9248046875
0.162,0.7607421875,5.3251953125,-5.28515625
0.1625,1.9619140625,4.244140625,-5.5654296875
0.163,3.3232421875,3.0029296875,-5.92578125
0.1635,4.4443359375,1.841796875,-6.166015625
0.164,5.0849609375,1.1611328125,-6.4462890625
0.1645,5.205078125,0.5205078125,-6.2060546875
0.165,4.96484375,-0.400390625,-5.4052734375
0.1655,4.7646484375,-1.5615234375,-4.32421875
0.166,4.724609375,-3.0029296875,-3.0830078125
0.1665,4.8046875,-4.244140625,-2.162109375
0.167,4.724609375,-5.044921875,-1.521484375
0.1675,4.1240234375,-5.3251953125,-0.7607421875
0.168,3.04296875,-5.4453125,0.4404296875
0.1685,1.76171875,-5.7255859375,1.921875
0.169,0.640625,-6.0859375,3.36328125
0.1695,0.0,-6.6064453125,4.484375
0.17,-0.7607421875,-6.486328125,5.1650390625
0.1705,-1.7216796875,-5.7255859375,5.4853515625
0.171,-3.0830078125,-4.5244140625,5.8056640625
0.1715,-4.404296875,-3.1630859375,6.0458984375
0.172,-5.365234375,-2.1220703125,6.2861328125
0.1725,-5.765625,-1.44140625,6.3662109375
0.173,-5.6455078125,-0.7607421875,5.8857421875
0.1735,-5.365234375,0.3603515625,4.8046875
0.174,-5.205078125,1.681640625,3.5634765625
0.1745,-5.1650390625,3.123046875,2.40234375
0.175,-5.2451171875,4.2041015625,1.5615234375
0.1755,-4.96484375,4.7646484375,0.9208984375
0.176,-4.0439453125,4.9248046875,0.0400390625
0.1765,-2.7626953125,4.96484375,-1.361328125
0.177,-1.44140625,5.2451171875,-2.962890625
0.1775,-0.6005859375,5.60546875,-4.32421875
0.178,0.2001953125,6.005859375,-5.28515625
0.1785,0.9609375,5.6455078125,-5.765625
0.179,2.08203125,4.5244140625,-5.92578125
0.1795,3.5234375,3.1630859375,-6.2861328125
0.18,4.8046875,1.76171875,-6.4462890625
0.1805,5.60546875,0.880859375,-6.6865234375
0.181,5.7255859375,0.2802734375,-6.5263671875
0.1815,5.4052734375,-0.640625,-5.7255859375
0.182,5.125,-1.8818359375,-4.484375
0.1825,4.96484375,-3.443359375,-3.04296875
0.183,4.96484375,-4.7646484375,-1.921875
0.1835,4.8447265625,-5.685546875,-1.1611328125
0.184,4.2841796875,-6.0458984375,-0.400390625
0.1845,3.0830078125,-6.0458984375,0.7607421875
0.185,1.5615234375,-6.166015625,2.3623046875
0.1855,0.16015625,-6.3662109375,3.9638671875
0.186,-0.640625,-6.7265625,5.1650390625
0.1865,-1.28125,-6.7666015625,5.92578125
0.187,-2.2421875,-5.9658203125,6.24609375
0.1875,-3.603515625,-4.5244140625,6.3662109375
0.188,-5.0048828125,-3.0029296875,6.5263671875
0.1885,-6.0458984375,-1.681640625,6.646484375
0.189,-6.5263671875,-0.9208984375,6.6865234375
0.1895,-6.40625,0.0,6.1259765625
0.19,-5.92578125,0.9208984375,5.0048828125
0.1905,-5.525390625,2.322265625,3.5234375
0.191,-5.4052734375,3.8837890625,2.0419921875
0.1915,-5.28515625,5.044921875,1.0009765625
0.192,-5.0048828125,5.60546875,0.3203125
0.1925,-4.0439453125,5.6455078125,-0.640625
0.193,-2.5625,5.525390625,-1.921875
0.1935,-1.0810546875,5.6455078125,-3.603515625
0.194,0.240234375,5.8857421875,-5.044921875
0.1945,0.880859375,6.1259765625,-6.0458984375
0.195,1.5615234375,5.8857421875,-6.5263671875
0.1955,2.6025390625,4.724609375,-6.6064453125
0.196,4.00390625,3.203125,-6.7265625
0.1965,5.28515625,1.6015625,-6.8466796875
0.197,6.1259765625,0.5205078125,-6.9267578125
0.1975,6.326171875,-0.2802734375,-6.806640625
0.198,6.005859375,-1.041015625,-6.0458984375
0.1985,5.4453125,-2.162109375,-4.6845703125
0.199,5.1650390625,-3.68359375,-3.1630859375
0.1995,5.0048828125,-5.125,-1.7216796875
0.2,4.884765625,-6.1259765625,-0.8408203125
0.2005,4.404296875,-6.56640625,0.0
0.201,3.283203125,-6.486328125,0.880859375
0.2015,1.6416015625,-6.40625,2.3623046875
0.202,0.1201171875,-6.486328125,4.083984375
0.2025,-0.9208984375,-6.7265625,5.3251953125
0.203,-1.4814453125,-6.9267578125,6.2060546875
0.2035,-2.2822265625,-6.3662109375,6.5263671875
0.204,-3.4833984375,-4.96484375,6.6064453125
0.2045,-4.8447265625,-3.4833984375,6.7265625
0.205,-6.0859375,-1.9619140625,6.806640625
0.2055,-6.7265625,-1.0009765625,6.8466796875
0.206,-6.6865234375,-0.3203125,6.486328125
0.2065,-6.2861328125,0.640625,5.5654296875
0.207,-5.765625,1.921875,4.0439453125
0.2075,-5.4853515625,3.443359375,2.5224609375
0.208,-5.4052734375,4.7646484375,1.3212890625
0.2085,-5.205078125,5.525390625,0.560546875
0.209,-4.5244140625,5.7255859375,-0.3203125
0.2095,-3.2431640625,5.60546875,-1.361328125
0.21,-1.6416015625,5.685546875,-2.9228515625
0.2105,-0.2001953125,5.765625,-4.564453125
0.211,0.640625,6.0859375,-5.7255859375
0.2115,1.2412109375,6.166015625,-6.40625
0.212,2.162109375,5.365234375,-6.646484375
0.2125,3.443359375,3.84375,-6.6865234375
0.213,4.7646484375,2.3623046875,-6.806640625
0.2135,5.8056640625,1.0009765625,-6.9267578125
0.214,6.326171875,0.240234375,-7.0068359375
0.2145,6.1259765625,-0.640625,-6.40625
0.215,5.685546875,-1.521484375,-5.4052734375
0.2155,5.28515625,-2.8828125,-3.8837890625
0.216,5.0849609375,-4.484375,-2.322265625
0.2165,5.0048828125,-5.685546875,-1.3212890625
0.217,4.7646484375,-6.3662109375,-0.6005859375
0.2175,3.84375,-6.4462890625,0.3203125
0.218,2.482421875,-6.326171875,1.5615234375
0.2185,0.9208984375,-6.40625,3.2431640625
0.219,-0.5205078125,-6.56640625,4.7646484375
0.2195,-1.1611328125,-6.9267578125,5.8056640625
0.22,-1.8017578125,-6.7265625,6.3662109375
0.2205,-2.8427734375,-5.685546875,6.5263671875
0.221,-4.244140625,-4.1240234375,6.6865234375
0.2215,-5.60546875,-2.5625,6.7666015625
0.222,-6.4462890625,-1.361328125,6.8466796875
0.2225,-6.7265625,-0.6806640625,6.7666015625
0.223,-6.4462890625,0.240234375,6.005859375
0.2235,-5.92578125,1.361328125,4.6845703125
0.224,-5.6455078125,2.8427734375,3.203125
0.2245,-5.4453125,4.32421875,1.76171875
0.225,-5.4052734375,5.3251953125,0.8408203125
0.2255,-4.884765625,5.7255859375,0.1201171875
0.226,-3.8037109375,5.765625,-0.9208984375
0.2265,-2.2421875,5.685546875,-2.3623046875
0.227,-0.6806640625,5.8056640625,-4.083984375
0.2275,0.4404296875,6.0458984375,-5.4052734375
0.228,1.041015625,6.24609375,-6.2861328125
