wavelength,x,y,z
0.0,2.412353515625,-4.154052734375,1.411376953125
0.0005,2.692626953125,-3.793701171875,0.770751953125
0.001,3.173095703125,-3.753662109375,0.210205078125
0.0015,3.213134765625,-2.872802734375,-0.790771484375
0.002,3.533447265625,-2.512451171875,-1.391357421875
0.0025,3.493408203125,-1.751708984375,-2.072021484375
0.003,3.373291015625,-1.311279296875,-2.472412109375
0.0035,3.253173828125,-0.630615234375,-3.032958984375
0.004,2.892822265625,0.050048828125,-3.273193359375
0.0045,2.372314453125,0.890869140625,-3.593505859375
0.005,1.771728515625,1.451416015625,-3.593505859375
0.0055,1.171142578125,2.132080078125,-3.713623046875
0.006,0.410400390625,2.532470703125,-3.353271484375
0.0065,-0.150146484375,3.093017578125,-3.393310546875
0.007,-0.990966796875,3.173095703125,-2.632568359375
0.0075,-1.631591796875,3.533447265625,-2.392333984375
0.008,-2.152099609375,3.453369140625,-1.791748046875
0.0085,-2.592529296875,3.373291015625,-1.351318359375
0.009,-2.952880859375,3.133056640625,-0.670654296875
0.0095,-3.233154296875,2.772705078125,0.010009765625
0.01,-3.473388671875,2.092041015625,0.970947265625
0.0105,-3.633544921875,1.651611328125,1.531494140625
0.011,-3.633544921875,1.091064453125,2.172119140625
0.0115,-3.473388671875,0.490478515625,2.532470703125
0.012,-3.433349609375,-0.150146484375,3.133056640625
0.0125,-2.832763671875,-0.950927734375,3.333251953125
0.013,-2.352294921875,-1.671630859375,3.653564453125
0.0135,-1.591552734375,-2.272216796875,3.533447265625
0.014,-1.031005859375,-2.912841796875,3.573486328125
0.0145,-0.270263671875,-3.353271484375,3.213134765625
0.015,0.370361328125,-3.833740234375,3.133056640625
0.0155,1.291259765625,-3.953857421875,2.372314453125
0.016,1.811767578125,-4.154052734375,2.052001953125
0.0165,2.372314453125,-4.154052734375,1.451416015625
0.017,2.692626953125,-3.913818359375,0.930908203125
0.0175,3.133056640625,-3.753662109375,0.250244140625
0.018,3.253173828125,-3.032958984375,-0.590576171875
0.0185,3.533447265625,-2.472412109375,-1.431396484375
0.019,3.453369140625,-1.871826171875,-1.951904296875
0.0195,3.533447265625,-1.351318359375,-2.552490234375
0.02,3.173095703125,-0.630615234375,-2.872802734375
0.0205,3.133056640625,-0.150146484375,-3.353271484375
0.021,2.372314453125,0.810791015625,-3.553466796875
0.0215,1.931884765625,1.491455078125,-3.793701171875
0.022,1.131103515625,2.092041015625,-3.593505859375
0.0225,0.530517578125,2.612548828125,-3.553466796875
0.023,-0.270263671875,3.052978515625,-3.273193359375
0.0235,-0.910888671875,3.333251953125,-2.872802734375
0.024,-1.751708984375,3.573486328125,-2.272216796875
0.0245,-2.192138671875,3.533447265625,-1.911865234375
0.025,-2.752685546875,3.573486328125,-1.311279296875
0.0255,-2.992919921875,3.173095703125,-0.710693359375
0.026,-3.473388671875,3.052978515625,0.010009765625
0.0265,-3.553466796875,2.172119140625,0.970947265625
0.027,-3.833740234375,1.731689453125,1.691650390625
0.0275,-3.633544921875,1.010986328125,2.252197265625
0.028,-3.713623046875,0.570556640625,2.772705078125
0.0285,-3.353271484375,-0.270263671875,3.173095703125
0.029,-3.072998046875,-0.870849609375,3.533447265625
0.0295,-2.312255859375,-1.871826171875,3.773681640625
0.03,-1.711669921875,-2.432373046875,3.773681640625
0.0305,-0.990966796875,-3.072998046875,3.653564453125
0.031,-0.270263671875,-3.553466796875,3.413330078125
0.0315,0.490478515625,-3.913818359375,3.173095703125
0.032,1.291259765625,-4.114013671875,2.492431640625
0.0325,2.092041015625,-4.434326171875,1.931884765625
0.033,2.452392578125,-4.114013671875,1.331298828125
0.0335,3.012939453125,-4.194091796875,0.850830078125
0.034,3.173095703125,-3.593505859375,0.130126953125
0.0345,3.533447265625,-3.313232421875,-0.550537109375
0.035,3.573486328125,-2.352294921875,-1.591552734375
0.0355,3.693603515625,-1.871826171875,-2.152099609375
0.036,3.453369140625,-1.151123046875,-2.712646484375
0.0365,3.373291015625,-0.630615234375,-3.072998046875
0.037,3.012939453125,0.090087890625,-3.473388671875
0.0375,2.572509765625,0.770751953125,-3.673583984375
0.038,1.931884765625,1.651611328125,-3.913818359375
0.0385,1.131103515625,2.132080078125,-3.673583984375
0.039,0.570556640625,2.812744140625,-3.713623046875
0.0395,-0.270263671875,3.093017578125,-3.273193359375
0.04,-0.830810546875,3.493408203125,-3.113037109375
0.0405,-1.751708984375,3.533447265625,-2.352294921875
0.041,-2.392333984375,3.773681640625,-1.911865234375
0.0415,-2.752685546875,3.493408203125,-1.271240234375
0.042,-3.193115234375,3.533447265625,-0.790771484375
0.0425,-3.473388671875,3.012939453125,0.050048828125
0.043,-3.713623046875,2.532470703125,0.770751953125
0.0435,-3.873779296875,1.651611328125,1.811767578125
0.044,-3.873779296875,1.131103515625,2.292236328125
0.0445,-3.753662109375,0.490478515625,2.892822265625
0.045,-3.553466796875,-0.190185546875,3.253173828125
0.0455,-3.193115234375,-0.910888671875,3.693603515625
0.046,-2.512451171875,-1.711669921875,3.813720703125
0.0465,-1.871826171875,-2.552490234375,4.013916015625
0.047,-0.990966796875,-2.992919921875,3.653564453125
0.0475,-0.390380859375,-3.673583984375,3.693603515625
0.048,0.490478515625,-3.953857421875,3.173095703125
0.0485,1.131103515625,-4.274169921875,2.812744140625
0.049,2.092041015625,-4.434326171875,1.971923828125
0.0495,2.572509765625,-4.394287109375,1.451416015625
0.05,3.012939453125,-4.114013671875,0.810791015625
0.0505,3.333251953125,-3.913818359375,0.290283203125
0.051,3.533447265625,-3.353271484375,-0.550537109375
0.0515,3.693603515625,-2.712646484375,-1.311279296875
0.052,3.893798828125,-1.951904296875,-2.312255859375
0.0525,3.533447265625,-1.271240234375,-2.632568359375
0.053,3.573486328125,-0.750732421875,-3.193115234375
0.0535,3.173095703125,0.010009765625,-3.513427734375
0.054,2.852783203125,0.610595703125,-3.833740234375
0.0545,2.052001953125,1.571533203125,-3.953857421875
0.055,1.411376953125,2.252197265625,-4.033935546875
0.0555,0.570556640625,2.692626953125,-3.673583984375
0.056,0.010009765625,3.253173828125,-3.673583984375
0.0565,-0.830810546875,3.493408203125,-3.153076171875
0.057,-1.551513671875,3.693603515625,-2.712646484375
0.0575,-2.512451171875,3.893798828125,-1.951904296875
0.058,-2.872802734375,3.693603515625,-1.311279296875
0.0585,-3.353271484375,3.653564453125,-0.790771484375
0.059,-3.633544921875,3.213134765625,0.010009765625
0.0595,-3.873779296875,2.732666015625,0.690673828125
0.06,-3.953857421875,1.891845703125,1.651611328125
0.0605,-4.154052734375,1.251220703125,2.492431640625
0.061,-3.713623046875,0.490478515625,2.852783203125
0.0615,-3.793701171875,0.010009765625,3.453369140625
0.062,-3.193115234375,-0.870849609375,3.693603515625
0.0625,-2.752685546875,-1.551513671875,3.973876953125
0.063,-1.951904296875,-2.552490234375,4.093994140625
0.0635,-1.231201171875,-3.113037109375,3.933837890625
0.064,-0.390380859375,-3.593505859375,3.653564453125
0.0645,0.330322265625,-4.114013671875,3.453369140625
0.065,1.131103515625,-4.314208984375,2.852783203125
0.0655,1.931884765625,-4.514404296875,2.252197265625
0.066,2.772705078125,-4.634521484375,1.571533203125
0.0665,3.052978515625,-4.194091796875,0.890869140625
0.067,3.573486328125,-4.234130859375,0.370361328125
0.0675,3.693603515625,-3.553466796875,-0.510498046875
0.068,3.893798828125,-3.032958984375,-1.231201171875
0.0685,3.973876953125,-2.072021484375,-2.232177734375
0.069,3.973876953125,-1.431396484375,-2.872802734375
0.0695,3.533447265625,-0.630615234375,-3.233154296875
0.07,3.533447265625,-0.190185546875,-3.753662109375
0.0705,2.852783203125,0.690673828125,-3.913818359375
0.071,2.332275390625,1.411376953125,-4.114013671875
0.0715,1.531494140625,2.412353515625,-4.274169921875
0.072,0.690673828125,2.812744140625,-3.873779296875
0.0725,0.010009765625,3.333251953125,-3.793701171875
0.073,-0.830810546875,3.653564453125,-3.353271484375
0.0735,-1.591552734375,3.813720703125,-2.752685546875
0.074,-2.352294921875,3.893798828125,-2.072021484375
0.0745,-3.072998046875,3.973876953125,-1.431396484375
0.075,-3.273193359375,3.493408203125,-0.710693359375
0.0755,-3.793701171875,3.533447265625,-0.270263671875
0.076,-3.833740234375,2.652587890625,0.730712890625
0.0765,-3.993896484375,2.212158203125,1.411376953125
0.077,-4.114013671875,1.291259765625,2.412353515625
0.0775,-3.873779296875,0.650634765625,2.852783203125
0.078,-3.673583984375,0.010009765625,3.293212890625
0.0785,-3.513427734375,-0.630615234375,3.693603515625
0.079,-2.832763671875,-1.431396484375,3.853759765625
0.0795,-2.192138671875,-2.192138671875,3.973876953125
0.08,-1.471435546875,-3.032958984375,4.134033203125
0.0805,-0.630615234375,-3.433349609375,3.613525390625
0.081,0.010009765625,-4.073974609375,3.693603515625
0.0815,0.930908203125,-4.274169921875,3.012939453125
0.082,1.571533203125,-4.474365234375,2.572509765625
0.0825,2.412353515625,-4.514404296875,1.851806640625
0.083,2.932861328125,-4.474365234375,1.291259765625
0.0835,3.213134765625,-4.073974609375,0.570556640625
0.084,3.693603515625,-3.993896484375,0.010009765625
0.0845,3.733642578125,-3.113037109375,-0.990966796875
0.085,3.973876953125,-2.592529296875,-1.671630859375
0.0855,4.013916015625,-1.751708984375,-2.672607421875
0.086,3.693603515625,-1.031005859375,-3.032958984375
0.0865,3.573486328125,-0.430419921875,-3.553466796875
0.087,3.173095703125,0.330322265625,-3.833740234375
0.0875,2.572509765625,1.131103515625,-4.073974609375
0.088,1.851806640625,1.931884765625,-4.114013671875
0.0885,1.131103515625,2.612548828125,-4.154052734375
0.089,0.250244140625,2.932861328125,-3.673583984375
0.0895,-0.350341796875,3.573486328125,-3.713623046875
0.09,-1.311279296875,3.693603515625,-2.832763671875
0.0905,-1.951904296875,3.893798828125,-2.432373046875
0.091,-2.752685546875,3.893798828125,-1.671630859375
0.0915,-3.153076171875,3.693603515625,-1.031005859375
0.092,-3.473388671875,3.453369140625,-0.470458984375
0.0925,-3.793701171875,3.093017578125,0.290283203125
0.093,-3.873779296875,2.252197265625,1.211181640625
0.0935,-3.993896484375,1.651611328125,1.931884765625
0.094,-4.033935546875,0.970947265625,2.692626953125
0.0945,-3.593505859375,0.250244140625,2.972900390625
0.095,-3.673583984375,-0.310302734375,3.533447265625
0.0955,-2.992919921875,-1.151123046875,3.693603515625
0.096,-2.512451171875,-1.871826171875,3.933837890625
0.0965,-1.671630859375,-2.712646484375,3.933837890625
0.097,-1.031005859375,-3.273193359375,3.853759765625
0.0975,-0.230224609375,-3.713623046875,3.453369140625
0.098,0.450439453125,-4.154052734375,3.453369140625
0.0985,1.371337890625,-4.234130859375,2.572509765625
0.099,1.971923828125,-4.474365234375,2.212158203125
0.0995,2.692626953125,-4.514404296875,1.531494140625
0.1,3.012939453125,-4.154052734375,0.850830078125
0.1005,3.493408203125,-4.073974609375,0.290283203125
0.101,3.653564453125,-3.393310546875,-0.630615234375
0.1015,3.853759765625,-2.752685546875,-1.431396484375
0.102,3.853759765625,-2.031982421875,-2.192138671875
0.1025,3.853759765625,-1.431396484375,-2.872802734375
0.103,3.453369140625,-0.630615234375,-3.193115234375
0.1035,3.533447265625,-0.150146484375,-3.753662109375
0.104,2.652587890625,0.850830078125,-3.873779296875
0.1045,2.212158203125,1.531494140625,-4.114013671875
0.105,1.371337890625,2.292236328125,-4.073974609375
0.1055,0.610595703125,2.812744140625,-3.833740234375
0.106,-0.190185546875,3.293212890625,-3.553466796875
0.1065,-0.870849609375,3.653564453125,-3.233154296875
0.107,-1.751708984375,3.773681640625,-2.512451171875
0.1075,-2.312255859375,3.853759765625,-1.991943359375
0.108,-2.992919921875,3.853759765625,-1.391357421875
0.1085,-3.193115234375,3.453369140625,-0.710693359375
0.109,-3.793701171875,3.453369140625,-0.150146484375
0.1095,-3.793701171875,2.452392578125,0.890869140625
0.11,-4.033935546875,1.971923828125,1.611572265625
0.1105,-3.953857421875,1.171142578125,2.412353515625
0.111,-3.873779296875,0.610595703125,2.892822265625
0.1115,-3.553466796875,-0.190185546875,3.253173828125
0.112,-3.393310546875,-0.750732421875,3.733642578125
0.1125,-2.552490234375,-1.791748046875,3.893798828125
0.113,-1.991943359375,-2.432373046875,3.973876953125
0.1135,-1.231201171875,-3.153076171875,3.973876953125
0.114,-0.430419921875,-3.553466796875,3.573486328125
0.1145,0.290283203125,-4.033935546875,3.493408203125
0.115,1.131103515625,-4.194091796875,2.812744140625
0.1155,1.931884765625,-4.434326171875,2.252197265625
0.116,2.412353515625,-4.354248046875,1.611572265625
0.1165,3.012939453125,-4.354248046875,1.091064453125
0.117,3.173095703125,-3.833740234375,0.370361328125
0.1175,3.653564453125,-3.793701171875,-0.230224609375
0.118,3.653564453125,-2.712646484375,-1.271240234375
0.1185,3.853759765625,-2.312255859375,-1.871826171875
0.119,3.773681640625,-1.471435546875,-2.632568359375
0.1195,3.533447265625,-0.950927734375,-2.952880859375
0.12,3.333251953125,-0.270263671875,-3.473388671875
0.1205,2.932861328125,0.370361328125,-3.713623046875
0.121,2.252197265625,1.251220703125,-3.913818359375
0.1215,1.651611328125,1.891845703125,-3.873779296875
0.122,0.970947265625,2.572509765625,-3.913818359375
0.1225,0.170166015625,2.932861328125,-3.513427734375
0.123,-0.470458984375,3.533447265625,-3.553466796875
0.1235,-1.351318359375,3.533447265625,-2.672607421875
0.124,-1.991943359375,3.853759765625,-2.312255859375
0.1245,-2.552490234375,3.693603515625,-1.631591796875
0.125,-3.032958984375,3.693603515625,-1.151123046875
0.1255,-3.313232421875,3.253173828125,-0.470458984375
0.126,-3.713623046875,3.012939453125,0.250244140625
0.1265,-3.793701171875,2.092041015625,1.251220703125
0.127,-3.913818359375,1.651611328125,1.851806640625
0.1275,-3.873779296875,0.930908203125,2.572509765625
0.128,-3.593505859375,0.330322265625,2.892822265625
0.1285,-3.553466796875,-0.390380859375,3.493408203125
0.129,-2.872802734375,-1.231201171875,3.653564453125
0.1295,-2.312255859375,-1.991943359375,3.933837890625
0.13,-1.591552734375,-2.592529296875,3.773681640625
0.1305,-0.950927734375,-3.233154296875,3.813720703125
0.131,0.010009765625,-3.633544921875,3.333251953125
0.1315,0.530517578125,-4.114013671875,3.253173828125
0.132,1.531494140625,-4.154052734375,2.372314453125
0.1325,2.052001953125,-4.354248046875,2.052001953125
0.133,2.612548828125,-4.274169921875,1.331298828125
0.1335,2.972900390625,-4.033935546875,0.810791015625
0.134,3.333251953125,-3.793701171875,0.130126953125
0.1345,3.533447265625,-3.153076171875,-0.710693359375
0.135,3.693603515625,-2.432373046875,-1.591552734375
0.1355,3.693603515625,-1.911865234375,-2.152099609375
0.136,3.773681640625,-1.231201171875,-2.792724609375
0.1365,3.293212890625,-0.630615234375,-3.072998046875
0.137,3.213134765625,0.010009765625,-3.593505859375
0.1375,2.452392578125,0.930908203125,-3.713623046875
0.138,1.971923828125,1.571533203125,-3.953857421875
0.1385,1.131103515625,2.252197265625,-3.753662109375
0.139,0.570556640625,2.732666015625,-3.713623046875
0.1395,-0.270263671875,3.173095703125,-3.353271484375
0.14,-0.870849609375,3.493408203125,-3.072998046875
0.1405,-1.791748046875,3.653564453125,-2.312255859375
0.141,-2.232177734375,3.693603515625,-1.951904296875
0.1415,-2.832763671875,3.653564453125,-1.311279296875
0.142,-3.072998046875,3.333251953125,-0.710693359375
0.1425,-3.553466796875,3.173095703125,0.010009765625
0.143,-3.593505859375,2.292236328125,0.890869140625
0.1435,-3.873779296875,1.811767578125,1.651611328125
0.144,-3.753662109375,1.010986328125,2.132080078125
0.1445,-3.713623046875,0.610595703125,2.692626953125
0.145,-3.353271484375,-0.190185546875,3.093017578125
0.1455,-3.193115234375,-0.710693359375,3.533447265625
0.146,-2.432373046875,-1.711669921875,3.693603515625
0.1465,-1.911865234375,-2.272216796875,3.773681640625
0.147,-1.151123046875,-2.912841796875,3.693603515625
0.1475,-0.470458984375,-3.393310546875,3.493408203125
0.148,0.290283203125,-3.873779296875,3.253173828125
0.1485,1.010986328125,-4.033935546875,2.692626953125
0.149,1.851806640625,-4.314208984375,2.172119140625
0.1495,2.212158203125,-4.154052734375,1.651611328125
0.15,2.812744140625,-4.234130859375,1.171142578125
0.1505,3.012939453125,-3.713623046875,0.450439453125
0.151,3.493408203125,-3.593505859375,-0.190185546875
0.1515,3.533447265625,-2.632568359375,-1.231201171875
0.152,3.693603515625,-2.312255859375,-1.831787109375
0.1525,3.533447265625,-1.511474609375,-2.432373046875
0.153,3.573486328125,-0.990966796875,-2.872802734375
0.1535,3.173095703125,-0.270263671875,-3.353271484375
0.154,2.852783203125,0.450439453125,-3.633544921875
0.1545,2.172119140625,1.371337890625,-3.913818359375
0.155,1.531494140625,1.891845703125,-3.793701171875
0.1555,0.850830078125,2.572509765625,-3.793701171875
0.156,0.090087890625,2.932861328125,-3.473388671875
0.1565,-0.590576171875,3.413330078125,-3.313232421875
0.157,-1.471435546875,3.533447265625,-2.552490234375
0.1575,-2.152099609375,3.773681640625,-2.112060546875
0.158,-2.552490234375,3.533447265625,-1.471435546875
0.1585,-3.032958984375,3.573486328125,-1.031005859375
0.159,-3.273193359375,3.052978515625,-0.270263671875
0.1595,-3.593505859375,2.732666015625,0.450439453125
0.16,-3.713623046875,1.771728515625,1.411376953125
0.1605,-3.793701171875,1.331298828125,1.931884765625
0.161,-3.713623046875,0.610595703125,2.532470703125
0.1615,-3.513427734375,0.170166015625,2.932861328125
0.162,-3.233154296875,-0.590576171875,3.373291015625
0.1625,-2.632568359375,-1.311279296875,3.533447265625
0.163,-2.072021484375,-2.112060546875,3.813720703125
0.1635,-1.351318359375,-2.592529296875,3.533447265625
0.164,-0.790771484375,-3.193115234375,3.573486328125
0.1645,0.050048828125,-3.553466796875,3.173095703125
0.165,0.610595703125,-3.913818359375,3.012939453125
0.1655,1.571533203125,-4.073974609375,2.252197265625
0.166,2.011962890625,-4.194091796875,1.931884765625
0.1665,2.492431640625,-4.033935546875,1.291259765625
0.167,2.852783203125,-3.913818359375,0.770751953125
0.1675,3.213134765625,-3.553466796875,0.050048828125
0.168,3.373291015625,-3.072998046875,-0.710693359375
0.1685,3.573486328125,-2.432373046875,-1.631591796875
0.169,3.533447265625,-1.911865234375,-2.072021484375
0.1695,3.533447265625,-1.271240234375,-2.632568359375
0.17,3.253173828125,-0.630615234375,-3.072998046875
0.1705,3.052978515625,0.050048828125,-3.473388671875
0.171,2.372314453125,0.930908203125,-3.633544921875
0.1715,1.931884765625,1.571533203125,-3.833740234375
0.172,1.091064453125,2.092041015625,-3.553466796875
0.1725,0.570556640625,2.692626953125,-3.633544921875
0.173,-0.270263671875,3.052978515625,-3.193115234375
0.1735,-0.870849609375,3.333251953125,-2.952880859375
0.174,-1.791748046875,3.573486328125,-2.272216796875
0.1745,-2.112060546875,3.533447265625,-1.871826171875
0.175,-2.712646484375,3.533447265625,-1.311279296875
0.1755,-2.992919921875,3.213134765625,-0.710693359375
0.176,-3.353271484375,2.892822265625,0.010009765625
0.1765,-3.513427734375,2.172119140625,0.890869140625
0.177,-3.793701171875,1.651611328125,1.611572265625
0.1775,-3.553466796875,1.051025390625,2.092041015625
0.178,-3.713623046875,0.610595703125,2.652587890625
0.1785,-3.273193359375,-0.190185546875,3.052978515625
0.179,-3.032958984375,-0.790771484375,3.413330078125
0.1795,-2.312255859375,-1.711669921875,3.653564453125
0.18,-1.751708984375,-2.272216796875,3.653564453125
0.1805,-0.990966796875,-2.872802734375,3.533447265625
0.181,-0.350341796875,-3.393310546875,3.413330078125
0.1815,0.370361328125,-3.793701171875,3.093017578125
0.182,1.131103515625,-3.993896484375,2.572509765625
0.1825,1.931884765625,-4.274169921875,2.052001953125
0.183,2.252197265625,-4.033935546875,1.531494140625
0.1835,2.812744140625,-4.154052734375,1.091064453125
0.184,3.052978515625,-3.713623046875,0.290283203125
0.1845,3.413330078125,-3.353271484375,-0.430419921875
0.185,3.533447265625,-2.512451171875,-1.431396484375
0.1855,3.693603515625,-1.991943359375,-1.991943359375
0.186,3.373291015625,-1.271240234375,-2.512451171875
0.1865,3.493408203125,-0.830810546875,-2.992919921875
0.187,3.012939453125,0.010009765625,-3.353271484375
0.1875,2.572509765625,0.610595703125,-3.593505859375
0.188,1.931884765625,1.571533203125,-3.873779296875
