wavelength,x,y,z
0.0,-4.5244140625,5.4453125,0.0
0.0005,-3.4833984375,5.5654296875,-1.201171875
0.001,-2.08203125,5.7255859375,-2.72265625
0.0015,-0.9208984375,5.92578125,-4.083984375
0.002,0.3203125,5.7255859375,-5.0849609375
0.0025,1.0009765625,5.7255859375,-5.765625
0.003,1.841796875,5.2451171875,-6.2861328125
0.0035,3.0830078125,4.1640625,-6.646484375
0.004,4.4443359375,2.802734375,-6.9267578125
0.0045,5.3251953125,1.44140625,-6.7666015625
0.005,5.7255859375,0.48046875,-6.486328125
0.0055,5.8857421875,-0.4404296875,-6.24609375
0.006,5.7255859375,-1.4814453125,-5.28515625
0.0065,5.525390625,-2.8427734375,-4.0439453125
0.007,5.365234375,-4.1240234375,-2.8828125
0.0075,4.9248046875,-5.0849609375,-1.6416015625
0.008,4.484375,-5.765625,-0.6806640625
0.0085,3.8837890625,-6.2861328125,0.2802734375
0.009,2.802734375,-6.40625,1.4013671875
0.0095,1.361328125,-6.5263671875,2.962890625
0.01,0.080078125,-6.5263671875,4.32421875
0.0105,-0.9208984375,-6.4462890625,5.0849609375
0.011,-1.5615234375,-6.40625,5.8857421875
0.0115,-2.6025390625,-5.6455078125,6.2861328125
0.012,-3.923828125,-4.3642578125,6.646484375
0.0125,-5.125,-3.1630859375,6.88671875
0.013,-5.845703125,-1.8017578125,6.6064453125
0.0135,-6.2861328125,-0.8408203125,6.3662109375
0.014,-6.2861328125,0.1201171875,5.8857421875
0.0145,-6.1259765625,1.201171875,4.9248046875
0.015,-5.92578125,2.6025390625,3.5634765625
0.0155,-5.6455078125,3.84375,2.2822265625
0.016,-5.205078125,4.6845703125,1.2412109375
0.0165,-4.8046875,5.365234375,0.2802734375
0.017,-3.923828125,5.5654296875,-0.80078125
0.0175,-2.6826171875,5.7255859375,-2.1220703125
0.018,-1.3212890625,6.005859375,-3.68359375
0.0185,0.080078125,5.8056640625,-4.8447265625
0.019,0.80078125,5.765625,-5.60546875
0.0195,1.521484375,5.5654296875,-6.24609375
0.02,2.72265625,4.6044921875,-6.6064453125
0.0205,4.1240234375,3.1630859375,-6.88671875
0.021,5.0849609375,1.921875,-6.9267578125
0.0215,5.60546875,0.7607421875,-6.6064453125
0.022,5.8857421875,-0.2001953125,-6.3662109375
0.0225,5.8056640625,-1.1611328125,-5.6455078125
0.023,5.60546875,-2.2822265625,-4.564453125
0.0235,5.4052734375,-3.68359375,-3.283203125
0.024,5.044921875,-4.8046875,-2.001953125
0.0245,4.6044921875,-5.60546875,-1.0009765625
0.025,4.1640625,-6.1259765625,-0.16015625
0.0255,3.123046875,-6.24609375,0.9609375
0.026,1.8017578125,-6.40625,2.40234375
0.0265,0.5205078125,-6.5263671875,3.84375
0.027,-0.640625,-6.40625,4.7646484375
0.0275,-1.3212890625,-6.3662109375,5.525390625
0.028,-2.08203125,-5.92578125,6.005859375
0.0285,-3.2431640625,-4.9248046875,6.3662109375
0.029,-4.564453125,-3.6435546875,6.646484375
0.0295,-5.4453125,-2.3623046875,6.56640625
0.03,-5.92578125,-1.3212890625,6.326171875
0.0305,-6.1259765625,-0.560546875,6.0859375
0.031,-5.9658203125,0.5205078125,5.28515625
0.0315,-5.765625,1.76171875,4.1240234375
0.032,-5.6455078125,3.0029296875,3.0029296875
0.0325,-5.2451171875,3.9638671875,1.841796875
0.033,-4.884765625,4.724609375,0.8408203125
0.0335,-4.3642578125,5.2451171875,0.0
0.034,-3.36328125,5.4052734375,-1.1611328125
0.0345,-2.08203125,5.60546875,-2.6025390625
0.035,-0.8408203125,5.685546875,-3.923828125
0.0355,0.16015625,5.60546875,-4.8046875
0.036,0.8408203125,5.685546875,-5.60546875
0.0365,1.76171875,5.0849609375,-6.0458984375
0.037,3.0029296875,3.9638671875,-6.40625
0.0375,4.1240234375,2.8427734375,-6.6865234375
0.038,4.9248046875,1.6015625,-6.5263671875
0.0385,5.4052734375,0.6005859375,-6.3662109375
0.039,5.60546875,-0.2802734375,-6.0458984375
0.0395,5.4052734375,-1.28125,-5.205078125
0.04,5.28515625,-2.5625,-4.00390625
0.0405,5.0849609375,-3.8037109375,-2.8828125
0.041,4.8046875,-4.6845703125,-1.8017578125
0.0415,4.484375,-5.4453125,-0.9208984375
0.042,3.763671875,-5.765625,0.1201171875
0.0425,2.72265625,-5.9658203125,1.201171875
0.043,1.5615234375,-6.24609375,2.6025390625
0.0435,0.2802734375,-6.166015625,3.84375
0.044,-0.6005859375,-6.24609375,4.6845703125
0.0445,-1.28125,-6.166015625,5.365234375
0.045,-2.2822265625,-5.4453125,5.845703125
0.0455,-3.603515625,-4.244140625,6.2060546875
0.046,-4.64453125,-3.1630859375,6.3662109375
0.0465,-5.28515625,-2.0419921875,6.2060546875
0.047,-5.7255859375,-1.2412109375,6.0859375
0.0475,-5.7255859375,-0.3203125,5.525390625
0.048,-5.6455078125,0.7607421875,4.724609375
0.0485,-5.525390625,1.921875,3.68359375
0.049,-5.28515625,3.123046875,2.482421875
0.0495,-4.96484375,3.9638671875,1.5615234375
0.05,-4.6845703125,4.64453125,0.720703125
0.0505,-3.84375,4.9248046875,-0.3603515625
0.051,-2.72265625,5.125,-1.6015625
0.0515,-1.7216796875,5.4453125,-2.8828125
0.052,-0.6005859375,5.365234375,-3.923828125
0.0525,0.2001953125,5.4453125,-4.8046875
0.053,0.9609375,5.2451171875,-5.4052734375
0.0535,2.0419921875,4.484375,-5.845703125
0.054,3.2431640625,3.4033203125,-6.2060546875
0.0545,4.1640625,2.2421875,-6.24609375
0.055,4.7646484375,1.28125,-6.1259765625
0.0555,5.125,0.5205078125,-6.0859375
0.056,5.125,-0.48046875,-5.4453125
0.0565,5.0048828125,-1.6015625,-4.5244140625
0.057,5.0048828125,-2.6826171875,-3.68359375
0.0575,4.7646484375,-3.68359375,-2.5625
0.058,4.484375,-4.5244140625,-1.6015625
0.0585,4.1240234375,-5.1650390625,-0.80078125
0.059,3.3232421875,-5.4453125,0.240234375
0.0595,2.2822265625,-5.765625,1.521484375
0.06,1.1611328125,-5.92578125,2.7626953125
0.0605,0.3203125,-5.9658203125,3.68359375
0.061,-0.5205078125,-6.1259765625,4.564453125
0.0615,-1.361328125,-5.765625,5.125
0.062,-2.5224609375,-4.884765625,5.60546875
0.0625,-3.603515625,-3.9638671875,6.005859375
0.063,-4.5244140625,-2.8427734375,5.9658203125
0.0635,-5.0849609375,-1.921875,5.92578125
0.064,-5.4052734375,-1.1611328125,5.7255859375
0.0645,-5.4052734375,-0.3203125,5.125
0.065,-5.3251953125,0.9609375,4.2041015625
0.0655,-5.28515625,2.1220703125,3.2431640625
0.066,-5.0048828125,3.04296875,2.322265625
0.0665,-4.8447265625,3.84375,1.44140625
0.067,-4.2841796875,4.3642578125,0.560546875
0.0675,-3.443359375,4.6845703125,-0.6005859375
0.068,-2.5224609375,5.0849609375,-1.8017578125
0.0685,-1.361328125,5.0849609375,-2.962890625
0.069,-0.640625,5.2451171875,-3.8837890625
0.0695,0.16015625,5.365234375,-4.724609375
0.07,1.12109375,4.8447265625,-5.28515625
0.0705,2.322265625,3.8837890625,-5.6455078125
0.071,3.3232421875,2.962890625,-5.92578125
0.0715,4.0439453125,1.921875,-5.92578125
0.072,4.6044921875,1.12109375,-5.92578125
0.0725,4.8046875,0.2802734375,-5.5654296875
0.073,4.8046875,-0.720703125,-5.0048828125
0.0735,4.8046875,-1.76171875,-4.1640625
0.074,4.64453125,-2.8427734375,-3.1630859375
0.0745,4.484375,-3.7236328125,-2.2822265625
0.075,4.32421875,-4.5244140625,-1.521484375
0.0755,3.68359375,-4.9248046875,-0.6005859375
0.076,2.8427734375,-5.28515625,0.6005859375
0.0765,1.9619140625,-5.6455078125,1.76171875
0.077,1.0009765625,-5.7255859375,2.802734375
0.0775,0.2802734375,-5.92578125,3.763671875
0.078,-0.6005859375,-5.845703125,4.484375
0.0785,-1.6015625,-5.3251953125,5.044921875
0.079,-2.7626953125,-4.4443359375,5.4853515625
0.0795,-3.7236328125,-3.443359375,5.6455078125
0.08,-4.4443359375,-2.5224609375,5.685546875
0.0805,-4.96484375,-1.841796875,5.765625
0.081,-5.0849609375,-1.0009765625,5.28515625
0.0815,-5.125,0.1201171875,4.64453125
0.082,-5.205078125,1.1611328125,3.9638671875
0.0825,-5.0048828125,2.2021484375,2.9228515625
0.083,-4.8447265625,3.123046875,2.08203125
0.0835,-4.6044921875,3.84375,1.28125
0.084,-3.9638671875,4.2841796875,0.3203125
0.0845,-3.0830078125,4.64453125,-1.0009765625
0.085,-2.1220703125,4.96484375,-2.1220703125
0.0855,-1.28125,5.0849609375,-3.0830078125
0.086,-0.560546875,5.3251953125,-4.0439453125
0.0865,0.4404296875,5.0849609375,-4.724609375
0.087,1.521484375,4.4443359375,-5.28515625
0.0875,2.6025390625,3.5634765625,-5.7255859375
0.088,3.5234375,2.482421875,-5.765625
0.0885,4.2041015625,1.5615234375,-5.8056640625
0.089,4.6044921875,0.80078125,-5.765625
0.0895,4.724609375,0.0,-5.28515625
0.09,4.724609375,-1.2412109375,-4.4443359375
0.0905,4.8046875,-2.2822265625,-3.68359375
0.091,4.6044921875,-3.2431640625,-2.7626953125
0.0915,4.484375,-4.1640625,-1.921875
0.092,4.00390625,-4.724609375,-1.0009765625
0.0925,3.283203125,-5.125,0.1201171875
0.093,2.3623046875,-5.525390625,1.3212890625
0.0935,1.28125,-5.6455078125,2.5224609375
0.094,0.560546875,-5.8857421875,3.443359375
0.0945,-0.2802734375,-6.0458984375,4.32421875
0.095,-1.28125,-5.525390625,4.9248046875
0.0955,-2.5224609375,-4.64453125,5.4052734375
0.096,-3.5634765625,-3.7236328125,5.7255859375
0.0965,-4.3642578125,-2.72265625,5.7255859375
0.097,-4.9248046875,-1.921875,5.765625
0.0975,-5.1650390625,-1.041015625,5.4453125
0.098,-5.205078125,0.0,4.8447265625
0.0985,-5.205078125,1.12109375,3.9638671875
0.099,-5.125,2.2421875,2.9228515625
0.0995,-4.9248046875,3.1630859375,2.0419921875
0.1,-4.7646484375,3.9638671875,1.2412109375
0.1005,-4.0439453125,4.32421875,0.3203125
0.101,-3.0830078125,4.6845703125,-1.0009765625
0.1015,-2.2021484375,5.0849609375,-2.2021484375
0.102,-1.1611328125,5.125,-3.283203125
0.1025,-0.4404296875,5.3251953125,-4.1640625
0.103,0.4404296875,5.1650390625,-4.884765625
0.1035,1.521484375,4.5244140625,-5.4453125
0.104,2.802734375,3.5234375,-5.845703125
0.1045,3.7236328125,2.40234375,-5.9658203125
0.105,4.404296875,1.44140625,-5.92578125
0.1055,4.8447265625,0.720703125,-5.92578125
0.106,4.9248046875,-0.2802734375,-5.3251953125
0.1065,4.8447265625,-1.361328125,-4.5244140625
0.107,4.884765625,-2.5224609375,-3.603515625
0.1075,4.6845703125,-3.5634765625,-2.6025390625
0.108,4.484375,-4.4443359375,-1.681640625
0.1085,4.1240234375,-5.0849609375,-0.880859375
0.109,3.3232421875,-5.3251953125,0.2001953125
0.1095,2.2421875,-5.6455078125,1.521484375
0.11,1.201171875,-5.845703125,2.72265625
0.1105,0.3203125,-5.92578125,3.68359375
0.111,-0.48046875,-6.1259765625,4.564453125
0.1115,-1.361328125,-5.685546875,5.125
0.112,-2.5625,-4.8046875,5.60546875
0.1125,-3.763671875,-3.84375,6.005859375
0.113,-4.64453125,-2.642578125,5.92578125
0.1135,-5.1650390625,-1.7216796875,5.92578125
0.114,-5.4453125,-1.0009765625,5.7255859375
0.1145,-5.4453125,0.080078125,5.0048828125
0.115,-5.4052734375,1.3212890625,4.00390625
0.1155,-5.28515625,2.482421875,3.0029296875
0.116,-5.044921875,3.36328125,2.0419921875
0.1165,-4.7646484375,4.1640625,1.1611328125
0.117,-4.2041015625,4.6044921875,0.2802734375
0.1175,-3.2431640625,4.884765625,-0.9208984375
0.118,-2.2021484375,5.2451171875,-2.322265625
0.1185,-1.041015625,5.2451171875,-3.4833984375
0.119,-0.2802734375,5.4052734375,-4.3642578125
0.1195,0.560546875,5.4052734375,-5.1650390625
0.12,1.6015625,4.7646484375,-5.685546875
0.1205,2.9228515625,3.5634765625,-6.1259765625
0.121,4.00390625,2.5224609375,-6.3662109375
0.1215,4.64453125,1.44140625,-6.24609375
0.122,5.1650390625,0.6005859375,-6.1259765625
0.1225,5.2451171875,-0.3603515625,-5.685546875
0.123,5.205078125,-1.4013671875,-4.8447265625
0.1235,5.125,-2.72265625,-3.7236328125
0.124,4.9248046875,-3.8837890625,-2.5625
0.1245,4.6044921875,-4.7646484375,-1.6015625
0.125,4.3642578125,-5.4453125,-0.80078125
0.1255,3.4833984375,-5.765625,0.3603515625
0.126,2.2822265625,-5.9658203125,1.681640625
0.1265,1.12109375,-6.2861328125,3.123046875
0.127,0.0400390625,-6.166015625,4.1240234375
0.1275,-0.80078125,-6.2861328125,5.044921875
0.128,-1.6015625,-6.005859375,5.6455078125
0.1285,-2.8828125,-5.0849609375,6.1259765625
0.129,-4.244140625,-3.8037109375,6.4462890625
0.1295,-5.2451171875,-2.482421875,6.486328125
0.13,-5.765625,-1.44140625,6.2861328125
0.1305,-6.0458984375,-0.640625,6.0859375
0.131,-5.92578125,0.48046875,5.2451171875
0.1315,-5.765625,1.841796875,4.0439453125
0.132,-5.685546875,3.123046875,2.9228515625
0.1325,-5.28515625,4.1240234375,1.7216796875
0.133,-4.884765625,4.8447265625,0.7607421875
0.1335,-4.32421875,5.365234375,-0.240234375
0.134,-3.203125,5.4853515625,-1.4013671875
0.1345,-1.76171875,5.7255859375,-3.04296875
0.135,-0.6005859375,5.8056640625,-4.3642578125
0.1355,0.400390625,5.685546875,-5.1650390625
0.136,1.12109375,5.60546875,-5.92578125
0.1365,2.162109375,4.884765625,-6.3662109375
0.137,3.5234375,3.6435546875,-6.7265625
0.1375,4.64453125,2.4423828125,-6.9267578125
0.138,5.4052734375,1.12109375,-6.6865234375
0.1385,5.765625,0.16015625,-6.3662109375
0.139,5.8056640625,-0.80078125,-5.9658203125
0.1395,5.6455078125,-1.8818359375,-5.0048828125
0.14,5.4052734375,-3.283203125,-3.5634765625
0.1405,5.1650390625,-4.5244140625,-2.40234375
0.141,4.7646484375,-5.28515625,-1.28125
0.1415,4.32421875,-5.9658203125,-0.400390625
0.142,3.5234375,-6.2861328125,0.640625
0.1425,2.3623046875,-6.40625,1.8818359375
0.143,0.9609375,-6.56640625,3.4033203125
0.1435,-0.400390625,-6.4462890625,4.6044921875
0.144,-1.1611328125,-6.3662109375,5.365234375
0.1445,-1.841796875,-6.2861328125,6.005859375
0.145,-2.962890625,-5.4052734375,6.40625
0.1455,-4.3642578125,-3.923828125,6.6865234375
0.146,-5.365234375,-2.72265625,6.7666015625
0.1465,-5.92578125,-1.5615234375,6.4462890625
0.147,-6.2861328125,-0.640625,6.24609375
0.1475,-6.2060546875,0.3603515625,5.60546875
0.148,-6.0458984375,1.44140625,4.6044921875
0.1485,-5.8056640625,2.8427734375,3.3232421875
0.149,-5.4453125,3.9638671875,2.001953125
0.1495,-5.044921875,4.7646484375,1.0009765625
0.15,-4.64453125,5.4052734375,0.16015625
0.1505,-3.68359375,5.5654296875,-1.0009765625
0.151,-2.322265625,5.7255859375,-2.4423828125
0.1515,-1.1611328125,5.8857421875,-3.8037109375
0.152,0.16015625,5.685546875,-4.8447265625
0.1525,0.880859375,5.685546875,-5.6455078125
0.153,1.6015625,5.3251953125,-6.166015625
0.1535,2.8427734375,4.404296875,-6.6064453125
0.154,4.2041015625,3.0029296875,-6.806640625
0.1545,5.0849609375,1.76171875,-6.7666015625
0.155,5.5654296875,0.6806640625,-6.486328125
0.1555,5.845703125,-0.240234375,-6.3662109375
0.156,5.7255859375,-1.28125,-5.4453125
0.1565,5.525390625,-2.5224609375,-4.32421875
0.157,5.4052734375,-3.763671875,-3.203125
0.1575,4.96484375,-4.8046875,-1.921875
0.158,4.564453125,-5.60546875,-0.9208984375
0.1585,4.1240234375,-6.1259765625,0.0400390625
0.159,3.04296875,-6.2861328125,1.1611328125
0.1595,1.6015625,-6.4462890625,2.6826171875
0.16,0.3603515625,-6.486328125,4.00390625
0.1605,-0.6806640625,-6.40625,4.8447265625
0.161,-1.4013671875,-6.4462890625,5.685546875
0.1615,-2.3623046875,-5.765625,6.166015625
0.162,-3.68359375,-4.64453125,6.5263671875
0.1625,-4.884765625,-3.36328125,6.8466796875
0.163,-5.7255859375,-2.001953125,6.6064453125
0.1635,-6.1259765625,-1.0009765625,6.3662109375
0.164,-6.2861328125,-0.2001953125,6.005859375
0.1645,-6.1259765625,0.9609375,5.0849609375
0.165,-5.92578125,2.40234375,3.7236328125
0.1655,-5.7255859375,3.6435546875,2.5224609375
0.166,-5.28515625,4.484375,1.4013671875
0.1665,-4.8447265625,5.2451171875,0.4404296875
0.167,-4.083984375,5.5654296875,-0.640625
0.1675,-2.8828125,5.765625,-1.8818359375
0.168,-1.5615234375,5.9658203125,-3.4833984375
0.1685,-0.2001953125,5.8056640625,-4.7646484375
0.169,0.6806640625,5.7255859375,-5.4853515625
0.1695,1.4013671875,5.685546875,-6.2060546875
0.17,2.5625,4.7646484375,-6.646484375
0.1705,4.00390625,3.3232421875,-6.9267578125
0.171,5.044921875,2.1220703125,-7.046875
0.1715,5.60546875,0.9208984375,-6.7265625
0.172,5.9658203125,-0.16015625,-6.4462890625
0.1725,5.92578125,-1.12109375,-5.765625
0.173,5.7255859375,-2.2822265625,-4.7646484375
0.1735,5.525390625,-3.68359375,-3.36328125
0.174,5.125,-4.8447265625,-2.08203125
0.1745,4.724609375,-5.5654296875,-1.041015625
0.175,4.2841796875,-6.2060546875,0.0
0.1755,3.203125,-6.3662109375,1.0009765625
0.176,1.921875,-6.5263671875,2.40234375
0.1765,0.6005859375,-6.6865234375,3.84375
0.177,-0.6806640625,-6.4462890625,4.8447265625
0.1775,-1.4013671875,-6.40625,5.60546875
0.178,-2.1220703125,-6.0859375,6.1259765625
0.1785,-3.36328125,-5.0048828125,6.5263671875
0.179,-4.7646484375,-3.603515625,6.7666015625
0.1795,-5.60546875,-2.322265625,6.6865234375
0.18,-6.0458984375,-1.28125,6.40625
0.1805,-6.2861328125,-0.48046875,6.166015625
0.181,-6.1259765625,0.640625,5.3251953125
0.1815,-5.92578125,1.8818359375,4.2041015625
0.182,-5.765625,3.0830078125,3.04296875
0.1825,-5.28515625,4.1240234375,1.76171875
0.183,-4.884765625,4.8447265625,0.80078125
0.1835,-4.404296875,5.4052734375,0.0
0.184,-3.4033203125,5.4853515625,-1.2412109375
0.1845,-2.0419921875,5.685546875,-2.6826171875
0.185,-0.8408203125,5.7255859375,-3.9638671875
0.1855,0.240234375,5.6455078125,-4.8447265625
0.186,0.9609375,5.6455078125,-5.6455078125
0.1865,1.8017578125,5.125,-6.1259765625
0.187,3.0029296875,4.1240234375,-6.486328125
0.1875,4.2041015625,2.8828125,-6.7666015625
0.188,5.0048828125,1.6015625,-6.56640625
0.1885,5.4853515625,0.6005859375,-6.40625
0.189,5.7255859375,-0.240234375,-6.1259765625
0.1895,5.5654296875,-1.28125,-5.3251953125
0.19,5.4052734375,-2.5224609375,-4.1640625
0.1905,5.2451171875,-3.7236328125,-3.04296875
0.191,4.8447265625,-4.64453125,-1.9619140625
0.1915,4.5244140625,-5.4453125,-1.0009765625
0.192,3.8837890625,-5.845703125,0.0400390625
0.1925,2.9228515625,-6.1259765625,1.12109375
0.193,1.6416015625,-6.3662109375,2.5625
0.1935,0.3603515625,-6.2861328125,3.84375
0.194,-0.5205078125,-6.2861328125,4.6845703125
0.1945,-1.2412109375,-6.326171875,5.4453125
0.195,-2.2822265625,-5.6455078125,5.92578125
0.1955,-3.603515625,-4.4443359375,6.326171875
0.196,-4.64453125,-3.3232421875,6.5263671875
0.1965,-5.365234375,-2.1220703125,6.326171875
0.197,-5.765625,-1.2412109375,6.166015625
0.1975,-5.92578125,-0.3603515625,5.7255859375
0.198,-5.8056640625,0.7607421875,4.8447265625
0.1985,-5.6455078125,2.0419921875,3.68359375
0.199,-5.4052734375,3.203125,2.5224609375
0.1995,-5.0048828125,4.00390625,1.5615234375
0.2,-4.7646484375,4.7646484375,0.6806640625
0.2005,-3.8837890625,5.044921875,-0.400390625
0.201,-2.802734375,5.2451171875,-1.681640625
0.2015,-1.7216796875,5.525390625,-2.962890625
0.202,-0.560546875,5.4052734375,-4.0439453125
0.2025,0.2802734375,5.4853515625,-4.8447265625
0.203,1.0009765625,5.365234375,-5.4853515625
0.2035,2.08203125,4.564453125,-5.9658203125
0.204,3.3232421875,3.36328125,-6.2861328125
0.2045,4.244140625,2.2421875,-6.326171875
0.205,4.8046875,1.2412109375,-6.1259765625
0.2055,5.1650390625,0.5205078125,-6.0859375
0.206,5.205078125,-0.5205078125,-5.4853515625
0.2065,5.0849609375,-1.5615234375,-4.6044921875
0.207,5.044921875,-2.6826171875,-3.7236328125
0.2075,4.7646484375,-3.7236328125,-2.5625
0.208,4.484375,-4.564453125,-1.6015625
0.2085,4.2041015625,-5.28515625,-0.8408203125
0.209,3.36328125,-5.5654296875,0.240234375
0.2095,2.2822265625,-5.765625,1.4814453125
0.21,1.28125,-5.9658203125,2.6826171875
0.2105,0.3203125,-5.92578125,3.6435546875
0.211,-0.48046875,-6.1259765625,4.484375
0.2115,-1.28125,-5.8056640625,5.0849609375
0.212,-2.40234375,-5.044921875,5.60546875
0.2125,-3.5634765625,-4.083984375,5.9658203125
0.213,-4.404296875,-2.9228515625,5.92578125
0.2135,-5.0048828125,-2.001953125,5.8857421875
0.214,-5.4052734375,-1.28125,5.8056640625
0.2145,-5.4453125,-0.400390625,5.2451171875
0.215,-5.4052734375,0.8408203125,4.32421875
0.2155,-5.3251953125,1.921875,3.4833984375
0.216,-5.0849609375,2.8427734375,2.5224609375
0.2165,-4.884765625,3.68359375,1.6015625
0.217,-4.4443359375,4.2841796875,0.7607421875
0.2175,-3.68359375,4.64453125,-0.3603515625
0.218,-2.72265625,5.044921875,-1.6015625
0.2185,-1.6015625,5.125,-2.802734375
0.219,-0.8408203125,5.2451171875,-3.7236328125
0.2195,0.0,5.4052734375,-4.564453125
0.22,0.9609375,4.96484375,-5.1650390625
0.2205,2.162109375,4.083984375,-5.6455078125
0.221,3.1630859375,3.203125,-5.9658203125
0.2215,3.9638671875,2.1220703125,-5.92578125
0.222,4.5244140625,1.28125,-5.9658203125
0.2225,4.8046875,0.48046875,-5.7255859375
0.223,4.884765625,-0.5205078125,-5.1650390625
0.2235,4.884765625,-1.6015625,-4.32421875
0.224,4.7646484375,-2.72265625,-3.283203125
0.2245,4.564453125,-3.603515625,-2.4423828125
0.225,4.4443359375,-4.484375,-1.6416015625
0.2255,3.84375,-4.9248046875,-0.6806640625
0.226,3.0029296875,-5.28515625,0.48046875
0.2265,2.1220703125,-5.685546875,1.6416015625
0.227,1.0810546875,-5.7255859375,2.72265625
0.2275,0.3603515625,-5.92578125,3.68359375
0.228,-0.5205078125,-5.92578125,4.484375
0.2285,-1.521484375,-5.4453125,5.0849609375
