wavelength,x,y,z
0.0,-3.513427734375,2.732666015625,0.370361328125
0.0005,-3.873779296875,2.572509765625,0.850830078125
0.001,-3.993896484375,1.811767578125,1.651611328125
0.0015,-3.913818359375,1.291259765625,2.052001953125
0.002,-3.713623046875,0.490478515625,2.732666015625
0.0025,-3.513427734375,-0.110107421875,3.093017578125
0.003,-3.032958984375,-0.990966796875,3.453369140625
0.0035,-2.672607421875,-1.591552734375,3.693603515625
0.004,-2.072021484375,-2.352294921875,3.813720703125
0.0045,-1.391357421875,-2.712646484375,3.493408203125
0.005,-0.870849609375,-3.353271484375,3.613525390625
0.0055,0.010009765625,-3.553466796875,2.932861328125
0.006,0.690673828125,-4.033935546875,2.732666015625
0.0065,1.571533203125,-4.154052734375,1.971923828125
0.007,2.052001953125,-4.154052734375,1.571533203125
0.0075,2.452392578125,-3.873779296875,0.850830078125
0.008,2.852783203125,-3.833740234375,0.450439453125
0.0085,3.133056640625,-3.313232421875,-0.390380859375
0.009,3.373291015625,-3.072998046875,-0.990966796875
0.0095,3.533447265625,-2.392333984375,-1.791748046875
0.01,3.253173828125,-1.591552734375,-2.192138671875
0.0105,3.213134765625,-0.910888671875,-2.832763671875
0.011,2.732666015625,-0.150146484375,-3.072998046875
0.0115,2.532470703125,0.570556640625,-3.513427734375
0.012,1.971923828125,1.251220703125,-3.593505859375
0.0125,1.451416015625,1.851806640625,-3.673583984375
0.013,0.770751953125,2.252197265625,-3.353271484375
0.0135,0.290283203125,2.772705078125,-3.433349609375
0.014,-0.670654296875,2.972900390625,-2.672607421875
0.0145,-1.271240234375,3.373291015625,-2.512451171875
0.015,-2.072021484375,3.453369140625,-1.791748046875
0.0155,-2.432373046875,3.333251953125,-1.271240234375
0.016,-2.872802734375,3.213134765625,-0.750732421875
0.0165,-3.153076171875,2.892822265625,-0.270263671875
0.017,-3.513427734375,2.572509765625,0.490478515625
0.0175,-3.673583984375,2.052001953125,1.051025390625
0.018,-3.873779296875,1.611572265625,1.771728515625
0.0185,-3.513427734375,0.850830078125,2.212158203125
0.019,-3.673583984375,0.330322265625,2.812744140625
0.0195,-2.992919921875,-0.630615234375,3.052978515625
0.02,-2.912841796875,-1.151123046875,3.533447265625
0.0205,-2.192138671875,-1.951904296875,3.533447265625
0.021,-1.711669921875,-2.432373046875,3.533447265625
0.0215,-1.031005859375,-2.912841796875,3.373291015625
0.022,-0.390380859375,-3.393310546875,3.173095703125
0.0225,0.490478515625,-3.713623046875,2.612548828125
0.023,1.131103515625,-3.993896484375,2.292236328125
0.0235,1.891845703125,-4.114013671875,1.651611328125
0.024,2.252197265625,-3.833740234375,1.051025390625
0.0245,2.772705078125,-3.913818359375,0.610595703125
0.025,2.972900390625,-3.353271484375,-0.190185546875
0.0255,3.333251953125,-3.153076171875,-0.830810546875
0.026,3.413330078125,-2.392333984375,-1.551513671875
0.0265,3.493408203125,-1.871826171875,-2.152099609375
0.027,3.052978515625,-0.990966796875,-2.592529296875
0.0275,3.052978515625,-0.350341796875,-3.153076171875
0.028,2.332275390625,0.610595703125,-3.353271484375
0.0285,2.132080078125,1.211181640625,-3.713623046875
0.029,1.411376953125,1.931884765625,-3.713623046875
0.0295,0.770751953125,2.332275390625,-3.473388671875
0.03,0.210205078125,2.812744140625,-3.353271484375
0.0305,-0.630615234375,3.173095703125,-2.872802734375
0.031,-1.471435546875,3.493408203125,-2.392333984375
0.0315,-2.112060546875,3.533447265625,-1.791748046875
0.032,-2.752685546875,3.573486328125,-1.231201171875
0.0325,-3.032958984375,3.133056640625,-0.590576171875
0.033,-3.513427734375,3.133056640625,-0.150146484375
0.0335,-3.633544921875,2.372314453125,0.770751953125
0.034,-3.953857421875,2.172119140625,1.331298828125
0.0345,-3.913818359375,1.371337890625,2.052001953125
0.035,-3.833740234375,0.730712890625,2.572509765625
0.0355,-3.473388671875,-0.110107421875,3.052978515625
0.036,-3.193115234375,-0.750732421875,3.413330078125
0.0365,-2.552490234375,-1.711669921875,3.693603515625
0.037,-2.112060546875,-2.272216796875,3.773681640625
0.0375,-1.391357421875,-2.992919921875,3.813720703125
0.038,-0.670654296875,-3.313232421875,3.373291015625
0.0385,-0.110107421875,-3.833740234375,3.293212890625
0.039,0.970947265625,-4.033935546875,2.452392578125
0.0395,1.691650390625,-4.354248046875,2.052001953125
0.04,2.372314453125,-4.194091796875,1.291259765625
0.0405,2.892822265625,-4.234130859375,0.690673828125
0.041,3.133056640625,-3.753662109375,0.010009765625
0.0415,3.493408203125,-3.593505859375,-0.550537109375
0.042,3.693603515625,-2.712646484375,-1.471435546875
0.0425,3.773681640625,-2.272216796875,-1.991943359375
0.043,3.693603515625,-1.431396484375,-2.752685546875
0.0435,3.293212890625,-0.590576171875,-3.193115234375
0.044,2.932861328125,0.210205078125,-3.553466796875
0.0445,2.412353515625,1.091064453125,-3.873779296875
0.045,1.771728515625,1.971923828125,-4.154052734375
0.0455,1.131103515625,2.452392578125,-3.913818359375
0.046,0.450439453125,3.173095703125,-3.913818359375
0.0465,-0.350341796875,3.333251953125,-3.353271484375
0.047,-0.990966796875,3.813720703125,-3.153076171875
0.0475,-2.232177734375,3.973876953125,-2.112060546875
0.048,-2.872802734375,4.093994140625,-1.591552734375
0.0485,-3.513427734375,3.813720703125,-0.710693359375
0.049,-3.953857421875,3.573486328125,-0.150146484375
0.0495,-4.073974609375,3.012939453125,0.570556640625
0.05,-4.354248046875,2.652587890625,1.251220703125
0.0505,-4.514404296875,1.811767578125,2.252197265625
0.051,-4.354248046875,1.131103515625,2.692626953125
0.0515,-4.274169921875,0.290283203125,3.453369140625
0.052,-3.673583984375,-0.630615234375,3.733642578125
0.0525,-3.313232421875,-1.311279296875,4.053955078125
0.053,-2.472412109375,-2.352294921875,4.254150390625
0.0535,-1.791748046875,-3.233154296875,4.414306640625
0.054,-0.950927734375,-3.673583984375,3.973876953125
0.0545,-0.270263671875,-4.354248046875,3.933837890625
0.055,0.610595703125,-4.434326171875,3.173095703125
0.0555,1.331298828125,-4.834716796875,2.852783203125
0.056,2.652587890625,-4.994873046875,1.731689453125
0.0565,3.213134765625,-4.914794921875,1.010986328125
0.057,3.773681640625,-4.514404296875,0.130126953125
0.0575,4.134033203125,-4.234130859375,-0.550537109375
0.058,4.174072265625,-3.553466796875,-1.231201171875
0.0585,4.374267578125,-2.872802734375,-2.031982421875
0.059,4.574462890625,-2.031982421875,-3.072998046875
0.0595,4.013916015625,-1.031005859375,-3.473388671875
0.06,3.973876953125,-0.230224609375,-4.154052734375
0.0605,3.093017578125,0.810791015625,-4.274169921875
0.061,2.692626953125,1.531494140625,-4.554443359375
0.0615,1.651611328125,2.692626953125,-4.674560546875
0.062,0.930908203125,3.453369140625,-4.674560546875
0.0625,-0.110107421875,3.813720703125,-4.033935546875
0.063,-0.710693359375,4.374267578125,-3.993896484375
0.0635,-1.711669921875,4.414306640625,-3.072998046875
0.064,-2.472412109375,4.654541015625,-2.552490234375
0.0645,-3.833740234375,4.814697265625,-1.391357421875
0.065,-4.274169921875,4.374267578125,-0.550537109375
0.0655,-4.794677734375,3.973876953125,0.290283203125
0.066,-4.994873046875,3.573486328125,1.010986328125
0.0665,-5.034912109375,2.812744140625,1.771728515625
0.067,-5.114990234375,1.971923828125,2.652587890625
0.0675,-5.275146484375,1.091064453125,3.733642578125
0.068,-4.514404296875,0.010009765625,3.973876953125
0.0685,-4.474365234375,-0.790771484375,4.694580078125
0.069,-3.473388671875,-1.871826171875,4.694580078125
0.0695,-2.952880859375,-2.592529296875,4.934814453125
0.07,-1.831787109375,-3.833740234375,4.974853515625
0.0705,-0.910888671875,-4.554443359375,4.774658203125
0.071,0.130126953125,-4.874755859375,4.093994140625
0.0715,0.810791015625,-5.395263671875,3.933837890625
0.072,1.971923828125,-5.395263671875,2.812744140625
0.0725,2.692626953125,-5.595458984375,2.212158203125
0.073,4.053955078125,-5.715576171875,0.970947265625
0.0735,4.374267578125,-5.034912109375,0.010009765625
0.074,4.814697265625,-4.674560546875,-0.710693359375
0.0745,4.974853515625,-3.953857421875,-1.551513671875
0.075,4.974853515625,-3.153076171875,-2.392333984375
0.0755,4.974853515625,-2.232177734375,-3.233154296875
0.076,4.974853515625,-1.271240234375,-4.234130859375
0.0765,4.013916015625,0.010009765625,-4.474365234375
0.077,3.893798828125,0.730712890625,-5.034912109375
0.0775,2.652587890625,1.971923828125,-4.994873046875
0.078,2.132080078125,2.652587890625,-5.114990234375
0.0785,1.051025390625,3.813720703125,-5.155029296875
0.079,0.050048828125,4.414306640625,-4.714599609375
0.0795,-0.910888671875,4.654541015625,-4.114013671875
0.08,-1.671630859375,5.094970703125,-3.713623046875
0.0805,-2.872802734375,5.054931640625,-2.512451171875
0.081,-3.553466796875,5.054931640625,-1.951904296875
0.0815,-4.794677734375,5.094970703125,-0.790771484375
0.082,-4.954833984375,4.294189453125,0.290283203125
0.0825,-5.395263671875,4.013916015625,0.930908203125
0.083,-5.435302734375,3.133056640625,1.931884765625
0.0835,-5.435302734375,2.372314453125,2.612548828125
0.084,-5.355224609375,1.371337890625,3.493408203125
0.0845,-5.275146484375,0.450439453125,4.374267578125
0.085,-4.354248046875,-0.790771484375,4.534423828125
0.0855,-4.234130859375,-1.471435546875,5.094970703125
0.086,-2.912841796875,-2.712646484375,5.054931640625
0.0865,-2.432373046875,-3.353271484375,5.135009765625
0.087,-1.231201171875,-4.514404296875,5.054931640625
0.0875,-0.230224609375,-4.954833984375,4.494384765625
0.088,0.610595703125,-5.275146484375,3.973876953125
0.0885,1.571533203125,-5.715576171875,3.413330078125
0.089,2.692626953125,-5.715576171875,2.252197265625
0.0895,3.333251953125,-5.635498046875,1.611572265625
0.09,4.494384765625,-5.555419921875,0.530517578125
0.0905,4.574462890625,-4.674560546875,-0.470458984375
0.091,4.974853515625,-4.514404296875,-1.071044921875
0.0915,5.054931640625,-3.393310546875,-2.192138671875
0.092,5.014892578125,-2.712646484375,-2.872802734375
0.0925,4.854736328125,-1.671630859375,-3.713623046875
0.093,4.694580078125,-0.710693359375,-4.434326171875
0.0935,3.733642578125,0.490478515625,-4.634521484375
0.094,3.493408203125,1.211181640625,-5.074951171875
0.0945,2.212158203125,2.532470703125,-5.074951171875
0.095,1.731689453125,3.052978515625,-5.074951171875
0.0955,0.570556640625,4.093994140625,-4.954833984375
0.096,-0.470458984375,4.454345703125,-4.274169921875
0.0965,-1.231201171875,4.694580078125,-3.873779296875
0.097,-2.272216796875,4.974853515625,-3.072998046875
0.0975,-3.273193359375,4.974853515625,-2.112060546875
0.098,-3.873779296875,4.814697265625,-1.311279296875
0.0985,-4.794677734375,4.734619140625,-0.350341796875
0.099,-4.834716796875,3.853759765625,0.610595703125
0.0995,-5.195068359375,3.693603515625,1.131103515625
0.1,-5.235107421875,2.492431640625,2.292236328125
0.1005,-5.235107421875,1.931884765625,2.812744140625
0.101,-5.034912109375,0.890869140625,3.693603515625
0.1015,-4.754638671875,0.010009765625,4.174072265625
0.102,-3.993896484375,-1.031005859375,4.494384765625
0.1025,-3.633544921875,-1.791748046875,4.814697265625
0.103,-2.472412109375,-3.032958984375,4.854736328125
0.1035,-1.951904296875,-3.473388671875,4.774658203125
0.104,-0.910888671875,-4.434326171875,4.614501953125
0.1045,0.050048828125,-4.714599609375,3.973876953125
0.105,0.730712890625,-5.114990234375,3.693603515625
0.1055,1.931884765625,-5.315185546875,2.692626953125
0.106,2.732666015625,-5.395263671875,2.011962890625
0.1065,3.373291015625,-5.155029296875,1.171142578125
0.107,4.093994140625,-5.034912109375,0.370361328125
0.1075,4.214111328125,-4.234130859375,-0.590576171875
0.108,4.534423828125,-4.033935546875,-1.031005859375
0.1085,4.614501953125,-2.872802734375,-2.272216796875
0.109,4.614501953125,-2.432373046875,-2.712646484375
0.1095,4.454345703125,-1.311279296875,-3.593505859375
0.11,3.973876953125,-0.390380859375,-3.993896484375
0.1105,3.373291015625,0.570556640625,-4.354248046875
0.111,2.812744140625,1.371337890625,-4.554443359375
0.1115,1.931884765625,2.452392578125,-4.714599609375
0.112,1.291259765625,2.892822265625,-4.514404296875
0.1125,0.410400390625,3.653564453125,-4.474365234375
0.113,-0.550537109375,3.853759765625,-3.713623046875
0.1135,-1.111083984375,4.254150390625,-3.553466796875
0.114,-2.312255859375,4.414306640625,-2.432373046875
0.1145,-2.912841796875,4.494384765625,-1.951904296875
0.115,-3.593505859375,4.214111328125,-0.990966796875
0.1155,-4.114013671875,4.013916015625,-0.310302734375
0.116,-4.234130859375,3.333251953125,0.490478515625
0.1165,-4.514404296875,3.093017578125,0.970947265625
0.117,-4.634521484375,2.172119140625,1.971923828125
0.1175,-4.514404296875,1.651611328125,2.412353515625
0.118,-4.514404296875,0.770751953125,3.213134765625
0.1185,-3.913818359375,-0.110107421875,3.493408203125
0.119,-3.713623046875,-0.790771484375,3.973876953125
0.1195,-2.952880859375,-1.711669921875,4.093994140625
0.12,-2.472412109375,-2.512451171875,4.334228515625
0.1205,-1.671630859375,-3.072998046875,4.093994140625
0.121,-0.990966796875,-3.753662109375,4.053955078125
0.1215,-0.150146484375,-3.993896484375,3.453369140625
0.122,0.450439453125,-4.434326171875,3.373291015625
0.1225,1.571533203125,-4.554443359375,2.372314453125
0.123,2.092041015625,-4.754638671875,2.052001953125
0.1235,2.852783203125,-4.554443359375,1.131103515625
0.124,3.213134765625,-4.314208984375,0.530517578125
0.1245,3.573486328125,-3.953857421875,-0.190185546875
0.125,3.773681640625,-3.473388671875,-0.830810546875
0.1255,4.053955078125,-2.872802734375,-1.711669921875
0.126,3.893798828125,-2.192138671875,-2.232177734375
0.1265,3.973876953125,-1.431396484375,-3.032958984375
0.127,3.253173828125,-0.470458984375,-3.273193359375
0.1275,3.173095703125,0.210205078125,-3.833740234375
0.128,2.292236328125,1.251220703125,-3.913818359375
0.1285,2.011962890625,1.771728515625,-4.234130859375
0.129,1.171142578125,2.412353515625,-3.953857421875
0.1295,0.530517578125,2.932861328125,-3.873779296875
0.13,-0.270263671875,3.253173828125,-3.353271484375
0.1305,-0.990966796875,3.653564453125,-3.072998046875
0.131,-1.951904296875,3.853759765625,-2.272216796875
0.1315,-2.392333984375,3.853759765625,-1.791748046875
0.132,-3.072998046875,3.773681640625,-1.031005859375
0.1325,-3.313232421875,3.333251953125,-0.470458984375
0.133,-3.713623046875,3.173095703125,0.130126953125
0.1335,-3.833740234375,2.532470703125,0.890869140625
0.134,-4.114013671875,2.212158203125,1.451416015625
0.1345,-3.913818359375,1.411376953125,2.052001953125
0.135,-3.993896484375,0.890869140625,2.612548828125
0.1355,-3.473388671875,0.010009765625,2.972900390625
0.136,-3.473388671875,-0.550537109375,3.453369140625
0.1365,-2.632568359375,-1.551513671875,3.573486328125
0.137,-2.432373046875,-2.031982421875,3.813720703125
0.1375,-1.631591796875,-2.712646484375,3.693603515625
0.138,-1.071044921875,-3.072998046875,3.533447265625
0.1385,-0.350341796875,-3.553466796875,3.293212890625
0.139,0.450439453125,-3.833740234375,2.812744140625
0.1395,1.251220703125,-4.194091796875,2.412353515625
0.14,1.771728515625,-4.154052734375,1.771728515625
0.1405,2.372314453125,-4.194091796875,1.291259765625
0.141,2.652587890625,-3.793701171875,0.570556640625
0.1415,3.173095703125,-3.793701171875,0.130126953125
0.142,3.253173828125,-3.072998046875,-0.750732421875
0.1425,3.573486328125,-2.832763671875,-1.311279296875
0.143,3.493408203125,-1.991943359375,-1.991943359375
0.1435,3.413330078125,-1.431396484375,-2.512451171875
0.144,2.972900390625,-0.510498046875,-2.952880859375
0.1445,2.812744140625,0.090087890625,-3.393310546875
0.145,2.252197265625,0.970947265625,-3.713623046875
0.1455,1.931884765625,1.411376953125,-3.793701171875
0.146,1.211181640625,2.172119140625,-3.753662109375
0.1465,0.490478515625,2.532470703125,-3.393310546875
0.147,-0.150146484375,3.052978515625,-3.273193359375
0.1475,-1.071044921875,3.253173828125,-2.592529296875
0.148,-1.711669921875,3.573486328125,-2.272216796875
0.1485,-2.272216796875,3.453369140625,-1.551513671875
0.149,-2.712646484375,3.493408203125,-1.151123046875
0.1495,-3.072998046875,3.052978515625,-0.430419921875
0.15,-3.393310546875,2.892822265625,0.050048828125
0.1505,-3.673583984375,2.332275390625,0.890869140625
0.151,-3.793701171875,1.971923828125,1.331298828125
0.1515,-3.793701171875,1.251220703125,2.052001953125
0.152,-3.553466796875,0.610595703125,2.452392578125
0.1525,-3.353271484375,-0.190185546875,2.932861328125
0.153,-2.912841796875,-0.950927734375,3.173095703125
0.1535,-2.592529296875,-1.631591796875,3.533447265625
0.154,-1.991943359375,-2.072021484375,3.453369140625
0.1545,-1.511474609375,-2.672607421875,3.573486328125
0.155,-0.750732421875,-3.032958984375,3.173095703125
0.1555,-0.150146484375,-3.553466796875,3.093017578125
0.156,0.810791015625,-3.793701171875,2.412353515625
0.1565,1.331298828125,-4.033935546875,2.092041015625
0.157,1.931884765625,-3.913818359375,1.411376953125
0.1575,2.292236328125,-3.873779296875,1.010986328125
0.158,2.732666015625,-3.633544921875,0.330322265625
0.1585,3.012939453125,-3.273193359375,-0.270263671875
0.159,3.413330078125,-2.872802734375,-1.071044921875
0.1595,3.333251953125,-2.272216796875,-1.551513671875
0.16,3.453369140625,-1.631591796875,-2.312255859375
0.1605,2.932861328125,-0.790771484375,-2.712646484375
0.161,2.932861328125,-0.230224609375,-3.233154296875
0.1615,2.252197265625,0.730712890625,-3.513427734375
0.162,1.971923828125,1.331298828125,-3.793701171875
0.1625,1.291259765625,1.931884765625,-3.553466796875
0.163,0.770751953125,2.492431640625,-3.593505859375
0.1635,0.010009765625,2.812744140625,-3.193115234375
0.164,-0.710693359375,3.253173828125,-2.872802734375
0.1645,-1.711669921875,3.533447265625,-2.192138671875
0.165,-2.192138671875,3.533447265625,-1.671630859375
0.1655,-2.832763671875,3.493408203125,-1.071044921875
0.166,-3.072998046875,3.173095703125,-0.510498046875
0.1665,-3.473388671875,2.932861328125,0.130126953125
0.167,-3.673583984375,2.372314453125,0.890869140625
0.1675,-3.953857421875,1.931884765625,1.571533203125
0.168,-3.713623046875,1.211181640625,2.052001953125
0.1685,-3.833740234375,0.610595703125,2.692626953125
0.169,-3.193115234375,-0.310302734375,2.932861328125
0.1695,-3.113037109375,-0.910888671875,3.413330078125
0.17,-2.392333984375,-1.831787109375,3.653564453125
0.1705,-1.951904296875,-2.312255859375,3.693603515625
0.171,-1.231201171875,-2.912841796875,3.533447265625
0.1715,-0.630615234375,-3.353271484375,3.373291015625
0.172,0.130126953125,-3.713623046875,2.972900390625
0.1725,0.970947265625,-4.033935546875,2.492431640625
0.173,1.891845703125,-4.314208984375,1.851806640625
0.1735,2.292236328125,-4.033935546875,1.211181640625
0.174,2.892822265625,-4.114013671875,0.650634765625
0.1745,3.052978515625,-3.553466796875,0.010009765625
0.175,3.413330078125,-3.353271484375,-0.590576171875
0.1755,3.573486328125,-2.592529296875,-1.511474609375
0.176,3.733642578125,-2.072021484375,-2.112060546875
0.1765,3.373291015625,-1.271240234375,-2.712646484375
0.177,3.253173828125,-0.630615234375,-3.193115234375
0.1775,2.612548828125,0.290283203125,-3.473388671875
0.178,2.372314453125,1.051025390625,-3.833740234375
0.1785,1.611572265625,2.011962890625,-4.033935546875
0.179,0.970947265625,2.452392578125,-3.793701171875
0.1795,0.370361328125,3.052978515625,-3.753662109375
0.18,-0.430419921875,3.333251953125,-3.273193359375
0.1805,-1.151123046875,3.693603515625,-2.872802734375
0.181,-2.152099609375,3.853759765625,-2.112060546875
0.1815,-3.032958984375,4.053955078125,-1.391357421875
0.182,-3.353271484375,3.533447265625,-0.630615234375
0.1825,-3.873779296875,3.573486328125,-0.150146484375
0.183,-3.913818359375,2.852783203125,0.690673828125
0.1835,-4.194091796875,2.532470703125,1.291259765625
0.184,-4.394287109375,1.651611328125,2.252197265625
0.1845,-4.194091796875,0.970947265625,2.772705078125
0.185,-3.913818359375,0.050048828125,3.293212890625
0.1855,-3.593505859375,-0.710693359375,3.693603515625
0.186,-2.952880859375,-1.471435546875,3.853759765625
0.1865,-2.472412109375,-2.272216796875,4.134033203125
0.187,-1.631591796875,-3.273193359375,4.294189453125
0.1875,-0.790771484375,-3.593505859375,3.773681640625
0.188,-0.270263671875,-4.194091796875,3.813720703125
