wavelength,x,y,z
0.0,5.415283203125,-0.750732421875,-5.635498046875
0.0005,5.175048828125,-1.991943359375,-4.474365234375
0.001,5.014892578125,-3.353271484375,-3.193115234375
0.0015,4.734619140625,-4.474365234375,-2.031982421875
0.002,4.534423828125,-5.195068359375,-1.151123046875
0.0025,3.973876953125,-5.675537109375,-0.310302734375
0.003,2.932861328125,-5.915771484375,0.970947265625
0.0035,1.691650390625,-6.236083984375,2.492431640625
0.004,0.450439453125,-6.276123046875,3.813720703125
0.0045,-0.470458984375,-6.476318359375,4.854736328125
0.005,-1.271240234375,-6.516357421875,5.735595703125
0.0055,-2.392333984375,-5.835693359375,6.336181640625
0.006,-3.793701171875,-4.594482421875,6.696533203125
0.0065,-4.994873046875,-3.193115234375,6.856689453125
0.007,-5.755615234375,-1.911865234375,6.656494140625
0.0075,-6.156005859375,-1.071044921875,6.536376953125
0.008,-6.156005859375,-0.190185546875,5.975830078125
0.0085,-5.915771484375,0.970947265625,4.934814453125
0.009,-5.755615234375,2.372314453125,3.613525390625
0.0095,-5.435302734375,3.653564453125,2.212158203125
0.01,-5.034912109375,4.614501953125,1.131103515625
0.0105,-4.594482421875,5.175048828125,0.290283203125
0.011,-3.793701171875,5.495361328125,-0.750732421875
0.0115,-2.432373046875,5.615478515625,-2.232177734375
0.012,-1.111083984375,5.855712890625,-3.793701171875
0.0125,0.130126953125,5.815673828125,-4.874755859375
0.013,0.810791015625,5.935791015625,-5.755615234375
0.0135,1.731689453125,5.615478515625,-6.436279296875
0.014,2.932861328125,4.614501953125,-6.916748046875
0.0145,4.294189453125,3.213134765625,-7.116943359375
0.015,5.295166015625,1.731689453125,-6.996826171875
0.0155,5.815673828125,0.610595703125,-6.756591796875
0.016,6.015869140625,-0.310302734375,-6.516357421875
0.0165,5.815673828125,-1.231201171875,-5.755615234375
0.017,5.535400390625,-2.432373046875,-4.514404296875
0.0175,5.255126953125,-3.873779296875,-3.072998046875
0.018,4.854736328125,-4.954833984375,-1.751708984375
0.0185,4.494384765625,-5.755615234375,-0.790771484375
0.019,3.933837890625,-6.156005859375,0.130126953125
0.0195,2.892822265625,-6.356201171875,1.251220703125
0.02,1.571533203125,-6.516357421875,2.732666015625
0.0205,0.130126953125,-6.556396484375,4.214111328125
0.021,-0.870849609375,-6.596435546875,5.215087890625
0.0215,-1.551513671875,-6.676513671875,6.095947265625
0.022,-2.592529296875,-6.075927734375,6.656494140625
0.0225,-3.913818359375,-4.834716796875,7.016845703125
0.023,-5.195068359375,-3.393310546875,7.177001953125
0.0235,-6.035888671875,-1.951904296875,6.896728515625
0.024,-6.436279296875,-0.990966796875,6.696533203125
0.0245,-6.476318359375,-0.190185546875,6.256103515625
0.025,-6.276123046875,0.850830078125,5.415283203125
0.0255,-5.955810546875,2.172119140625,4.013916015625
0.026,-5.595458984375,3.613525390625,2.532470703125
0.0265,-5.155029296875,4.614501953125,1.291259765625
0.027,-4.794677734375,5.375244140625,0.370361328125
0.0275,-4.073974609375,5.655517578125,-0.630615234375
0.028,-2.872802734375,5.815673828125,-1.871826171875
0.0285,-1.431396484375,5.975830078125,-3.473388671875
0.029,0.010009765625,5.895751953125,-4.754638671875
0.0295,0.770751953125,6.015869140625,-5.675537109375
0.03,1.531494140625,5.895751953125,-6.436279296875
0.0305,2.612548828125,5.094970703125,-6.956787109375
0.031,3.973876953125,3.733642578125,-7.197021484375
0.0315,5.135009765625,2.252197265625,-7.237060546875
0.032,5.815673828125,0.970947265625,-6.956787109375
0.0325,6.135986328125,0.050048828125,-6.756591796875
0.033,6.055908203125,-0.910888671875,-6.196044921875
0.0335,5.735595703125,-1.991943359375,-5.155029296875
0.034,5.455322265625,-3.273193359375,-3.713623046875
0.0345,5.094970703125,-4.634521484375,-2.232177734375
0.035,4.694580078125,-5.515380859375,-1.071044921875
0.0355,4.294189453125,-6.156005859375,-0.270263671875
0.036,3.453369140625,-6.436279296875,0.810791015625
0.0365,2.052001953125,-6.556396484375,2.252197265625
0.037,0.610595703125,-6.676513671875,3.853759765625
0.0375,-0.630615234375,-6.636474609375,4.974853515625
0.038,-1.311279296875,-6.756591796875,5.895751953125
0.0385,-2.232177734375,-6.396240234375,6.576416015625
0.039,-3.473388671875,-5.435302734375,7.056884765625
0.0395,-4.834716796875,-3.953857421875,7.217041015625
0.04,-5.835693359375,-2.432373046875,7.096923828125
0.0405,-6.436279296875,-1.271240234375,6.816650390625
0.041,-6.596435546875,-0.470458984375,6.536376953125
0.0415,-6.436279296875,0.570556640625,5.735595703125
0.042,-6.115966796875,1.851806640625,4.494384765625
0.0425,-5.795654296875,3.253173828125,3.052978515625
0.043,-5.355224609375,4.454345703125,1.571533203125
0.0435,-4.954833984375,5.255126953125,0.610595703125
0.044,-4.354248046875,5.655517578125,-0.350341796875
0.0445,-3.313232421875,5.855712890625,-1.471435546875
0.045,-1.791748046875,6.015869140625,-3.072998046875
0.0455,-0.390380859375,6.055908203125,-4.554443359375
0.046,0.610595703125,6.015869140625,-5.555419921875
0.0465,1.291259765625,6.095947265625,-6.396240234375
0.047,2.332275390625,5.455322265625,-6.916748046875
0.0475,3.653564453125,4.174072265625,-7.237060546875
0.048,4.894775390625,2.732666015625,-7.397216796875
0.0485,5.735595703125,1.251220703125,-7.116943359375
0.049,6.176025390625,0.250244140625,-6.876708984375
0.0495,6.176025390625,-0.710693359375,-6.476318359375
0.05,6.015869140625,-1.631591796875,-5.555419921875
0.0505,5.615478515625,-2.992919921875,-4.154052734375
0.051,5.255126953125,-4.394287109375,-2.632568359375
0.0515,4.814697265625,-5.435302734375,-1.311279296875
0.052,4.494384765625,-6.156005859375,-0.390380859375
0.0525,3.693603515625,-6.436279296875,0.610595703125
0.053,2.532470703125,-6.596435546875,1.851806640625
0.0535,1.010986328125,-6.716552734375,3.453369140625
0.054,-0.390380859375,-6.676513671875,4.774658203125
0.0545,-1.231201171875,-6.716552734375,5.655517578125
0.055,-1.951904296875,-6.596435546875,6.416259765625
0.0555,-3.072998046875,-5.795654296875,6.936767578125
0.056,-4.474365234375,-4.394287109375,7.177001953125
0.0565,-5.595458984375,-2.952880859375,7.177001953125
0.057,-6.276123046875,-1.591552734375,6.856689453125
0.0575,-6.556396484375,-0.750732421875,6.656494140625
0.058,-6.436279296875,0.210205078125,6.055908203125
0.0585,-6.115966796875,1.291259765625,4.974853515625
0.059,-5.795654296875,2.572509765625,3.613525390625
0.0595,-5.435302734375,3.893798828125,2.132080078125
0.06,-4.994873046875,4.774658203125,1.010986328125
0.0605,-4.554443359375,5.375244140625,0.170166015625
0.061,-3.793701171875,5.615478515625,-0.790771484375
0.0615,-2.512451171875,5.735595703125,-2.112060546875
0.062,-1.151123046875,5.855712890625,-3.673583984375
0.0625,0.170166015625,5.775634765625,-4.834716796875
0.063,0.810791015625,5.975830078125,-5.715576171875
0.0635,1.571533203125,5.775634765625,-6.396240234375
0.064,2.692626953125,4.854736328125,-6.796630859375
0.0645,3.973876953125,3.493408203125,-7.076904296875
0.065,5.054931640625,2.011962890625,-6.956787109375
0.0655,5.615478515625,0.850830078125,-6.756591796875
0.066,5.935791015625,0.130126953125,-6.596435546875
0.0665,5.815673828125,-0.790771484375,-5.955810546875
0.067,5.575439453125,-1.871826171875,-4.914794921875
0.0675,5.295166015625,-3.193115234375,-3.553466796875
0.068,4.934814453125,-4.434326171875,-2.232177734375
0.0685,4.614501953125,-5.275146484375,-1.231201171875
0.069,4.214111328125,-5.835693359375,-0.430419921875
0.0695,3.373291015625,-6.115966796875,0.650634765625
0.07,2.092041015625,-6.356201171875,2.052001953125
0.0705,0.690673828125,-6.396240234375,3.533447265625
0.071,-0.390380859375,-6.476318359375,4.614501953125
0.0715,-1.031005859375,-6.716552734375,5.575439453125
0.072,-1.991943359375,-6.276123046875,6.216064453125
0.0725,-3.273193359375,-5.235107421875,6.616455078125
0.073,-4.554443359375,-3.913818359375,6.896728515625
0.0735,-5.515380859375,-2.552490234375,6.696533203125
0.074,-6.035888671875,-1.471435546875,6.576416015625
0.0745,-6.196044921875,-0.710693359375,6.296142578125
0.075,-6.035888671875,0.290283203125,5.615478515625
0.0755,-5.755615234375,1.451416015625,4.454345703125
0.076,-5.515380859375,2.852783203125,3.052978515625
0.0765,-5.155029296875,3.893798828125,1.851806640625
0.077,-4.874755859375,4.694580078125,0.930908203125
0.0775,-4.274169921875,5.094970703125,0.090087890625
0.078,-3.233154296875,5.295166015625,-1.151123046875
0.0785,-1.991943359375,5.575439453125,-2.552490234375
0.079,-0.710693359375,5.575439453125,-3.873779296875
0.0795,0.130126953125,5.735595703125,-4.834716796875
0.08,0.850830078125,5.815673828125,-5.715576171875
0.0805,1.811767578125,5.215087890625,-6.276123046875
0.081,3.052978515625,4.093994140625,-6.596435546875
0.0815,4.214111328125,2.732666015625,-6.756591796875
0.082,5.014892578125,1.571533203125,-6.556396484375
0.0825,5.455322265625,0.730712890625,-6.516357421875
0.083,5.495361328125,0.010009765625,-6.156005859375
0.0835,5.335205078125,-0.990966796875,-5.315185546875
0.084,5.135009765625,-2.232177734375,-4.194091796875
0.0845,4.854736328125,-3.473388671875,-2.912841796875
0.085,4.574462890625,-4.474365234375,-1.831787109375
0.0855,4.374267578125,-5.195068359375,-1.031005859375
0.086,3.773681640625,-5.595458984375,-0.190185546875
0.0865,2.732666015625,-5.835693359375,1.051025390625
0.087,1.571533203125,-6.115966796875,2.492431640625
0.0875,0.450439453125,-6.156005859375,3.653564453125
0.088,-0.350341796875,-6.436279296875,4.614501953125
0.0885,-1.111083984375,-6.476318359375,5.415283203125
0.089,-2.192138671875,-5.795654296875,5.975830078125
0.0895,-3.473388671875,-4.714599609375,6.336181640625
0.09,-4.554443359375,-3.313232421875,6.416259765625
0.0905,-5.275146484375,-2.192138671875,6.336181640625
0.091,-5.675537109375,-1.471435546875,6.296142578125
0.0915,-5.715576171875,-0.670654296875,5.855712890625
0.092,-5.595458984375,0.410400390625,5.054931640625
0.0925,-5.435302734375,1.611572265625,3.933837890625
0.093,-5.155029296875,2.812744140625,2.692626953125
0.0935,-4.994873046875,3.773681640625,1.771728515625
0.094,-4.674560546875,4.414306640625,0.970947265625
0.0945,-3.993896484375,4.814697265625,0.090087890625
0.095,-2.952880859375,5.094970703125,-1.311279296875
0.0955,-1.751708984375,5.295166015625,-2.672607421875
0.096,-0.790771484375,5.455322265625,-3.793701171875
0.0965,0.010009765625,5.735595703125,-4.794677734375
0.097,0.810791015625,5.535400390625,-5.515380859375
0.0975,1.931884765625,4.734619140625,-6.035888671875
0.098,3.173095703125,3.693603515625,-6.356201171875
0.0985,4.134033203125,2.412353515625,-6.356201171875
0.099,4.814697265625,1.451416015625,-6.356201171875
0.0995,5.135009765625,0.770751953125,-6.276123046875
0.1,5.175048828125,0.010009765625,-5.755615234375
0.1005,5.054931640625,-1.151123046875,-4.874755859375
0.101,4.854736328125,-2.432373046875,-3.713623046875
0.1015,4.614501953125,-3.553466796875,-2.552490234375
0.102,4.494384765625,-4.474365234375,-1.751708984375
0.1025,4.134033203125,-4.994873046875,-0.990966796875
0.103,3.373291015625,-5.395263671875,0.130126953125
0.1035,2.372314453125,-5.755615234375,1.411376953125
0.104,1.211181640625,-5.915771484375,2.692626953125
0.1045,0.410400390625,-6.236083984375,3.813720703125
0.105,-0.390380859375,-6.436279296875,4.734619140625
0.1055,-1.351318359375,-6.115966796875,5.375244140625
0.106,-2.552490234375,-5.114990234375,5.895751953125
0.1065,-3.753662109375,-3.993896484375,6.135986328125
0.107,-4.674560546875,-2.792724609375,6.095947265625
0.1075,-5.195068359375,-2.031982421875,6.216064453125
0.108,-5.395263671875,-1.311279296875,5.975830078125
0.1085,-5.395263671875,-0.430419921875,5.335205078125
0.109,-5.275146484375,0.770751953125,4.454345703125
0.1095,-5.114990234375,1.971923828125,3.253173828125
0.11,-4.954833984375,3.012939453125,2.292236328125
0.1105,-4.794677734375,3.813720703125,1.531494140625
0.111,-4.354248046875,4.334228515625,0.690673828125
0.1115,-3.433349609375,4.694580078125,-0.550537109375
0.112,-2.432373046875,5.094970703125,-1.831787109375
0.1125,-1.391357421875,5.215087890625,-3.032958984375
0.113,-0.710693359375,5.575439453125,-4.033935546875
0.1135,0.130126953125,5.615478515625,-4.954833984375
0.114,1.171142578125,5.175048828125,-5.515380859375
0.1145,2.372314453125,4.214111328125,-5.955810546875
0.115,3.533447265625,2.972900390625,-6.115966796875
0.1155,4.334228515625,1.931884765625,-6.196044921875
0.116,4.814697265625,1.251220703125,-6.276123046875
0.1165,4.974853515625,0.530517578125,-5.955810546875
0.117,4.934814453125,-0.510498046875,-5.275146484375
0.1175,4.854736328125,-1.671630859375,-4.314208984375
0.118,4.734619140625,-2.872802734375,-3.193115234375
0.1185,4.574462890625,-3.873779296875,-2.272216796875
0.119,4.414306640625,-4.594482421875,-1.551513671875
0.1195,3.813720703125,-5.074951171875,-0.630615234375
0.12,2.892822265625,-5.475341796875,0.690673828125
0.1205,1.771728515625,-5.795654296875,2.052001953125
0.121,0.930908203125,-6.115966796875,3.173095703125
0.1215,0.170166015625,-6.436279296875,4.214111328125
0.122,-0.790771484375,-6.276123046875,5.054931640625
0.1225,-1.951904296875,-5.515380859375,5.615478515625
0.123,-3.193115234375,-4.474365234375,6.015869140625
0.1235,-4.274169921875,-3.233154296875,6.055908203125
0.124,-4.994873046875,-2.312255859375,6.135986328125
0.1245,-5.315185546875,-1.591552734375,6.055908203125
0.125,-5.395263671875,-0.830810546875,5.615478515625
0.1255,-5.315185546875,0.330322265625,4.814697265625
0.126,-5.235107421875,1.571533203125,3.693603515625
0.1265,-5.034912109375,2.692626953125,2.612548828125
0.127,-4.914794921875,3.613525390625,1.811767578125
0.1275,-4.514404296875,4.174072265625,1.010986328125
0.128,-3.793701171875,4.574462890625,0.010009765625
0.1285,-2.752685546875,4.974853515625,-1.471435546875
0.129,-1.631591796875,5.135009765625,-2.752685546875
0.1295,-0.870849609375,5.415283203125,-3.833740234375
0.13,0.010009765625,5.695556640625,-4.794677734375
0.1305,0.930908203125,5.335205078125,-5.435302734375
0.131,2.212158203125,4.414306640625,-5.955810546875
0.1315,3.413330078125,3.213134765625,-6.236083984375
0.132,4.294189453125,2.052001953125,-6.236083984375
0.1325,4.854736328125,1.291259765625,-6.316162109375
0.133,5.054931640625,0.570556640625,-6.115966796875
0.1335,4.974853515625,-0.390380859375,-5.435302734375
0.134,4.934814453125,-1.591552734375,-4.474365234375
0.1345,4.774658203125,-2.832763671875,-3.273193359375
0.135,4.574462890625,-3.873779296875,-2.272216796875
0.1355,4.454345703125,-4.674560546875,-1.471435546875
0.136,3.893798828125,-5.155029296875,-0.630615234375
0.1365,2.932861328125,-5.555419921875,0.650634765625
0.137,1.851806640625,-5.915771484375,2.052001953125
0.1375,0.770751953125,-6.115966796875,3.253173828125
0.138,0.090087890625,-6.396240234375,4.334228515625
0.1385,-0.830810546875,-6.356201171875,5.175048828125
0.139,-1.951904296875,-5.755615234375,5.775634765625
0.1395,-3.273193359375,-4.594482421875,6.216064453125
0.14,-4.434326171875,-3.273193359375,6.336181640625
0.1405,-5.155029296875,-2.232177734375,6.256103515625
0.141,-5.555419921875,-1.471435546875,6.216064453125
0.1415,-5.635498046875,-0.670654296875,5.735595703125
0.142,-5.475341796875,0.490478515625,4.854736328125
0.1425,-5.395263671875,1.771728515625,3.773681640625
0.143,-5.114990234375,2.972900390625,2.452392578125
0.1435,-4.914794921875,3.893798828125,1.571533203125
0.144,-4.554443359375,4.494384765625,0.770751953125
0.1445,-3.833740234375,4.854736328125,-0.310302734375
0.145,-2.672607421875,5.094970703125,-1.631591796875
0.1455,-1.551513671875,5.375244140625,-3.072998046875
0.146,-0.630615234375,5.575439453125,-4.154052734375
0.1465,0.210205078125,5.815673828125,-5.074951171875
0.147,1.131103515625,5.455322265625,-5.755615234375
0.1475,2.372314453125,4.494384765625,-6.236083984375
0.148,3.653564453125,3.333251953125,-6.556396484375
0.1485,4.614501953125,1.971923828125,-6.476318359375
0.149,5.175048828125,1.051025390625,-6.436279296875
0.1495,5.415283203125,0.330322265625,-6.236083984375
0.15,5.335205078125,-0.630615234375,-5.635498046875
0.1505,5.094970703125,-1.791748046875,-4.514404296875
0.151,4.974853515625,-3.153076171875,-3.233154296875
0.1515,4.654541015625,-4.234130859375,-2.072021484375
0.152,4.494384765625,-5.074951171875,-1.271240234375
0.1525,3.933837890625,-5.515380859375,-0.430419921875
0.153,2.972900390625,-5.835693359375,0.770751953125
0.1535,1.771728515625,-6.156005859375,2.252197265625
0.154,0.610595703125,-6.236083984375,3.573486328125
0.1545,-0.310302734375,-6.436279296875,4.574462890625
0.155,-1.031005859375,-6.516357421875,5.495361328125
0.1555,-2.112060546875,-5.915771484375,6.135986328125
0.156,-3.553466796875,-4.754638671875,6.536376953125
0.1565,-4.754638671875,-3.353271484375,6.696533203125
0.157,-5.515380859375,-2.072021484375,6.536376953125
0.1575,-5.955810546875,-1.271240234375,6.456298828125
0.158,-6.035888671875,-0.470458984375,6.055908203125
0.1585,-5.835693359375,0.690673828125,5.094970703125
0.159,-5.675537109375,1.971923828125,3.853759765625
0.1595,-5.395263671875,3.373291015625,2.492431640625
0.16,-5.074951171875,4.334228515625,1.371337890625
0.1605,-4.714599609375,4.934814453125,0.530517578125
0.161,-3.913818359375,5.255126953125,-0.510498046875
0.1615,-2.712646484375,5.455322265625,-1.951904296875
0.162,-1.351318359375,5.775634765625,-3.473388671875
0.1625,-0.230224609375,5.775634765625,-4.634521484375
0.163,0.570556640625,5.975830078125,-5.555419921875
0.1635,1.451416015625,5.735595703125,-6.276123046875
0.164,2.692626953125,4.774658203125,-6.796630859375
0.1645,4.093994140625,3.373291015625,-7.036865234375
0.165,5.135009765625,1.931884765625,-6.996826171875
0.1655,5.735595703125,0.730712890625,-6.756591796875
0.166,5.975830078125,-0.150146484375,-6.556396484375
0.1665,5.855712890625,-1.071044921875,-5.835693359375
0.167,5.575439453125,-2.272216796875,-4.634521484375
0.1675,5.335205078125,-3.713623046875,-3.193115234375
0.168,4.934814453125,-4.874755859375,-1.791748046875
0.1685,4.534423828125,-5.755615234375,-0.830810546875
0.169,3.973876953125,-6.196044921875,0.130126953125
0.1695,2.932861328125,-6.436279296875,1.211181640625
0.17,1.531494140625,-6.556396484375,2.812744140625
0.1705,0.130126953125,-6.596435546875,4.334228515625
0.171,-0.870849609375,-6.636474609375,5.295166015625
0.1715,-1.551513671875,-6.716552734375,6.135986328125
0.172,-2.632568359375,-6.075927734375,6.736572265625
0.1725,-3.993896484375,-4.794677734375,7.056884765625
0.173,-5.235107421875,-3.353271484375,7.177001953125
0.1735,-6.115966796875,-1.911865234375,6.936767578125
0.174,-6.476318359375,-0.910888671875,6.696533203125
0.1745,-6.476318359375,0.050048828125,6.216064453125
0.175,-6.276123046875,1.010986328125,5.295166015625
0.1755,-5.915771484375,2.372314453125,3.933837890625
0.176,-5.595458984375,3.773681640625,2.412353515625
0.1765,-5.114990234375,4.734619140625,1.131103515625
0.177,-4.714599609375,5.415283203125,0.250244140625
0.1775,-3.953857421875,5.655517578125,-0.750732421875
0.178,-2.712646484375,5.815673828125,-1.991943359375
0.1785,-1.271240234375,6.015869140625,-3.593505859375
0.179,0.130126953125,5.935791015625,-4.914794921875
0.1795,0.890869140625,5.975830078125,-5.755615234375
0.18,1.571533203125,5.855712890625,-6.476318359375
0.1805,2.652587890625,5.094970703125,-6.916748046875
0.181,3.973876953125,3.693603515625,-7.197021484375
0.1815,5.135009765625,2.252197265625,-7.237060546875
0.182,5.815673828125,0.930908203125,-6.916748046875
0.1825,6.135986328125,0.050048828125,-6.716552734375
0.183,6.055908203125,-0.830810546875,-6.156005859375
0.1835,5.735595703125,-1.951904296875,-5.114990234375
0.184,5.415283203125,-3.273193359375,-3.713623046875
0.1845,5.094970703125,-4.634521484375,-2.272216796875
0.185,4.614501953125,-5.515380859375,-1.151123046875
0.1855,4.254150390625,-6.156005859375,-0.350341796875
0.186,3.493408203125,-6.356201171875,0.690673828125
0.1865,2.212158203125,-6.476318359375,2.052001953125
0.187,0.730712890625,-6.596435546875,3.653564453125
0.1875,-0.510498046875,-6.556396484375,4.814697265625
0.188,-1.231201171875,-6.716552734375,5.695556640625
