wavelength,x,y,z
0.0,4.334228515625,2.532470703125,-6.556396484375
0.0005,5.375244140625,1.211181640625,-6.716552734375
0.001,5.895751953125,0.490478515625,-6.836669921875
0.0015,5.775634765625,-0.430419921875,-6.436279296875
0.002,5.415283203125,-1.271240234375,-5.235107421875
0.0025,5.094970703125,-2.632568359375,-3.793701171875
0.003,4.894775390625,-4.114013671875,-2.392333984375
0.0035,4.814697265625,-5.275146484375,-1.351318359375
0.004,4.654541015625,-5.995849609375,-0.670654296875
0.0045,3.773681640625,-6.115966796875,0.290283203125
0.005,2.332275390625,-6.035888671875,1.531494140625
0.0055,0.890869140625,-6.196044921875,3.173095703125
0.006,-0.310302734375,-6.476318359375,4.574462890625
0.0065,-0.990966796875,-6.756591796875,5.615478515625
0.007,-1.671630859375,-6.596435546875,6.216064453125
0.0075,-2.832763671875,-5.475341796875,6.416259765625
0.008,-4.234130859375,-3.953857421875,6.576416015625
0.0085,-5.515380859375,-2.472412109375,6.696533203125
0.009,-6.356201171875,-1.351318359375,6.736572265625
0.0095,-6.636474609375,-0.670654296875,6.736572265625
0.01,-6.276123046875,0.210205078125,5.895751953125
0.0105,-5.755615234375,1.331298828125,4.494384765625
0.011,-5.435302734375,2.812744140625,3.012939453125
0.0115,-5.275146484375,4.174072265625,1.651611328125
0.012,-5.155029296875,5.175048828125,0.770751953125
0.0125,-4.674560546875,5.655517578125,0.090087890625
0.013,-3.553466796875,5.615478515625,-0.990966796875
0.0135,-1.991943359375,5.575439453125,-2.512451171875
0.014,-0.590576171875,5.735595703125,-4.114013671875
0.0145,0.490478515625,6.015869140625,-5.355224609375
0.015,1.010986328125,6.256103515625,-6.236083984375
0.0155,1.811767578125,5.695556640625,-6.596435546875
0.016,3.093017578125,4.294189453125,-6.716552734375
0.0165,4.494384765625,2.692626953125,-6.876708984375
0.017,5.615478515625,1.291259765625,-6.876708984375
0.0175,6.256103515625,0.370361328125,-6.996826171875
0.018,6.256103515625,-0.390380859375,-6.676513671875
0.0185,5.775634765625,-1.271240234375,-5.635498046875
0.019,5.295166015625,-2.512451171875,-4.154052734375
0.0195,5.014892578125,-3.993896484375,-2.632568359375
0.02,4.854736328125,-5.275146484375,-1.431396484375
0.0205,4.734619140625,-6.115966796875,-0.630615234375
0.021,4.053955078125,-6.396240234375,0.170166015625
0.0215,2.732666015625,-6.276123046875,1.291259765625
0.022,1.211181640625,-6.276123046875,2.852783203125
0.0225,-0.270263671875,-6.476318359375,4.454345703125
0.023,-0.990966796875,-6.756591796875,5.495361328125
0.0235,-1.591552734375,-6.876708984375,6.256103515625
0.024,-2.512451171875,-6.035888671875,6.536376953125
0.0245,-3.873779296875,-4.514404296875,6.616455078125
0.025,-5.195068359375,-2.992919921875,6.696533203125
0.0255,-6.276123046875,-1.751708984375,6.736572265625
0.026,-6.676513671875,-0.910888671875,6.856689453125
0.0265,-6.476318359375,-0.230224609375,6.336181640625
0.027,-5.955810546875,0.890869140625,5.094970703125
0.0275,-5.595458984375,2.252197265625,3.653564453125
0.028,-5.355224609375,3.733642578125,2.172119140625
0.0285,-5.275146484375,4.854736328125,1.131103515625
0.029,-4.994873046875,5.575439453125,0.410400390625
0.0295,-4.114013671875,5.615478515625,-0.510498046875
0.03,-2.632568359375,5.535400390625,-1.791748046875
0.0305,-1.151123046875,5.695556640625,-3.433349609375
0.031,0.130126953125,5.895751953125,-4.874755859375
0.0315,0.730712890625,6.216064453125,-5.875732421875
0.032,1.371337890625,6.095947265625,-6.436279296875
0.0325,2.452392578125,4.934814453125,-6.596435546875
0.033,3.853759765625,3.413330078125,-6.756591796875
0.0335,5.135009765625,1.891845703125,-6.836669921875
0.034,5.975830078125,0.770751953125,-6.916748046875
0.0345,6.296142578125,0.090087890625,-6.916748046875
0.035,5.975830078125,-0.750732421875,-6.196044921875
0.0355,5.455322265625,-1.871826171875,-4.834716796875
0.036,5.135009765625,-3.353271484375,-3.313232421875
0.0365,4.974853515625,-4.794677734375,-1.951904296875
0.037,4.854736328125,-5.795654296875,-1.031005859375
0.0375,4.494384765625,-6.356201171875,-0.310302734375
0.038,3.373291015625,-6.276123046875,0.730712890625
0.0385,1.891845703125,-6.276123046875,2.172119140625
0.039,0.330322265625,-6.396240234375,3.853759765625
0.0395,-0.710693359375,-6.716552734375,5.135009765625
0.04,-1.271240234375,-7.036865234375,6.095947265625
0.0405,-2.072021484375,-6.516357421875,6.496337890625
0.041,-3.353271484375,-5.114990234375,6.616455078125
0.0415,-4.834716796875,-3.593505859375,6.776611328125
0.042,-5.995849609375,-2.072021484375,6.856689453125
0.0425,-6.636474609375,-1.151123046875,6.936767578125
0.043,-6.716552734375,-0.430419921875,6.656494140625
0.0435,-6.276123046875,0.570556640625,5.655517578125
0.044,-5.795654296875,1.851806640625,4.174072265625
0.0445,-5.475341796875,3.413330078125,2.572509765625
0.045,-5.315185546875,4.694580078125,1.371337890625
0.0455,-5.155029296875,5.575439453125,0.490478515625
0.046,-4.474365234375,5.775634765625,-0.310302734375
0.0465,-3.153076171875,5.695556640625,-1.471435546875
0.047,-1.551513671875,5.735595703125,-3.153076171875
0.0475,0.010009765625,5.855712890625,-4.714599609375
0.048,0.730712890625,6.135986328125,-5.755615234375
0.0485,1.291259765625,6.176025390625,-6.556396484375
0.049,2.252197265625,5.295166015625,-6.756591796875
0.0495,3.533447265625,3.733642578125,-6.836669921875
0.05,4.934814453125,2.252197265625,-6.916748046875
0.0505,5.895751953125,0.930908203125,-6.916748046875
0.051,6.336181640625,0.130126953125,-6.916748046875
0.0515,6.135986328125,-0.670654296875,-6.436279296875
0.052,5.615478515625,-1.591552734375,-5.195068359375
0.0525,5.175048828125,-2.952880859375,-3.713623046875
0.053,4.934814453125,-4.434326171875,-2.232177734375
0.0535,4.814697265625,-5.555419921875,-1.151123046875
0.054,4.614501953125,-6.276123046875,-0.470458984375
0.0545,3.693603515625,-6.276123046875,0.450439453125
0.055,2.292236328125,-6.156005859375,1.611572265625
0.0555,0.770751953125,-6.276123046875,3.253173828125
0.056,-0.510498046875,-6.476318359375,4.614501953125
0.0565,-1.111083984375,-6.796630859375,5.655517578125
0.057,-1.711669921875,-6.716552734375,6.216064453125
0.0575,-2.752685546875,-5.715576171875,6.336181640625
0.058,-4.073974609375,-4.154052734375,6.536376953125
0.0585,-5.315185546875,-2.672607421875,6.616455078125
0.059,-6.196044921875,-1.551513671875,6.696533203125
0.0595,-6.476318359375,-0.910888671875,6.696533203125
0.06,-6.196044921875,-0.190185546875,6.055908203125
0.0605,-5.715576171875,0.930908203125,4.814697265625
0.061,-5.435302734375,2.292236328125,3.413330078125
0.0615,-5.235107421875,3.693603515625,2.052001953125
0.062,-5.155029296875,4.774658203125,1.131103515625
0.0625,-4.874755859375,5.335205078125,0.490478515625
0.063,-3.873779296875,5.375244140625,-0.510498046875
0.0635,-2.472412109375,5.375244140625,-1.871826171875
0.064,-1.111083984375,5.575439453125,-3.433349609375
0.0645,0.010009765625,5.815673828125,-4.754638671875
0.065,0.570556640625,6.135986328125,-5.715576171875
0.0655,1.251220703125,5.815673828125,-6.156005859375
0.066,2.412353515625,4.654541015625,-6.276123046875
0.0665,3.773681640625,3.253173828125,-6.476318359375
0.067,4.974853515625,1.891845703125,-6.636474609375
0.0675,5.735595703125,0.930908203125,-6.756591796875
0.068,5.895751953125,0.290283203125,-6.676513671875
0.0685,5.535400390625,-0.590576171875,-5.835693359375
0.069,5.094970703125,-1.671630859375,-4.594482421875
0.0695,4.854736328125,-3.072998046875,-3.193115234375
0.07,4.814697265625,-4.434326171875,-2.031982421875
0.0705,4.814697265625,-5.395263671875,-1.271240234375
0.071,4.294189453125,-5.755615234375,-0.590576171875
0.0715,3.173095703125,-5.755615234375,0.490478515625
0.072,1.891845703125,-5.875732421875,1.891845703125
0.0725,0.570556640625,-6.115966796875,3.413330078125
0.073,-0.310302734375,-6.476318359375,4.614501953125
0.0735,-0.830810546875,-6.796630859375,5.415283203125
0.074,-1.671630859375,-6.115966796875,5.775634765625
0.0745,-2.872802734375,-4.914794921875,5.935791015625
0.075,-4.194091796875,-3.553466796875,6.135986328125
0.0755,-5.275146484375,-2.352294921875,6.336181640625
0.076,-5.875732421875,-1.591552734375,6.536376953125
0.0765,-5.915771484375,-0.990966796875,6.256103515625
0.077,-5.515380859375,-0.190185546875,5.375244140625
0.0775,-5.275146484375,1.091064453125,4.174072265625
0.078,-5.114990234375,2.532470703125,2.852783203125
0.0785,-5.114990234375,3.693603515625,1.931884765625
0.079,-5.074951171875,4.534423828125,1.211181640625
0.0795,-4.434326171875,4.814697265625,0.490478515625
0.08,-3.273193359375,4.854736328125,-0.670654296875
0.0805,-2.072021484375,5.054931640625,-2.112060546875
0.081,-0.950927734375,5.375244140625,-3.553466796875
0.0815,-0.350341796875,5.735595703125,-4.634521484375
0.082,0.450439453125,5.935791015625,-5.395263671875
0.0825,1.331298828125,5.175048828125,-5.635498046875
0.083,2.532470703125,4.013916015625,-5.915771484375
0.0835,3.853759765625,2.692626953125,-6.115966796875
0.084,4.814697265625,1.651611328125,-6.396240234375
0.0845,5.375244140625,1.010986328125,-6.596435546875
0.085,5.255126953125,0.370361328125,-6.156005859375
0.0855,4.934814453125,-0.630615234375,-5.195068359375
0.086,4.734619140625,-1.831787109375,-4.033935546875
0.0865,4.734619140625,-3.193115234375,-2.872802734375
0.087,4.774658203125,-4.354248046875,-2.031982421875
0.0875,4.614501953125,-5.074951171875,-1.391357421875
0.088,3.853759765625,-5.275146484375,-0.630615234375
0.0885,2.772705078125,-5.435302734375,0.650634765625
0.089,1.531494140625,-5.715576171875,2.092041015625
0.0895,0.610595703125,-6.156005859375,3.453369140625
0.09,0.050048828125,-6.556396484375,4.494384765625
0.0905,-0.790771484375,-6.436279296875,5.135009765625
0.091,-1.831787109375,-5.515380859375,5.375244140625
0.0915,-3.113037109375,-4.354248046875,5.695556640625
0.092,-4.354248046875,-3.113037109375,5.975830078125
0.0925,-5.195068359375,-2.272216796875,6.256103515625
0.093,-5.515380859375,-1.671630859375,6.336181640625
0.0935,-5.395263671875,-0.990966796875,5.735595703125
0.094,-5.114990234375,0.130126953125,4.774658203125
0.0945,-4.994873046875,1.411376953125,3.613525390625
0.095,-5.034912109375,2.692626953125,2.572509765625
0.0955,-5.114990234375,3.773681640625,1.851806640625
0.096,-4.794677734375,4.294189453125,1.171142578125
0.0965,-3.873779296875,4.414306640625,0.290283203125
0.097,-2.832763671875,4.614501953125,-1.111083984375
0.0975,-1.711669921875,4.974853515625,-2.512451171875
0.098,-0.950927734375,5.495361328125,-3.713623046875
0.0985,-0.390380859375,5.895751953125,-4.674560546875
0.099,0.530517578125,5.495361328125,-5.114990234375
0.0995,1.611572265625,4.494384765625,-5.395263671875
0.1,2.892822265625,3.333251953125,-5.715576171875
0.1005,4.013916015625,2.252197265625,-6.035888671875
0.101,4.774658203125,1.571533203125,-6.356201171875
0.1015,4.974853515625,0.970947265625,-6.276123046875
0.102,4.774658203125,0.250244140625,-5.595458984375
0.1025,4.614501953125,-0.950927734375,-4.594482421875
0.103,4.534423828125,-2.232177734375,-3.553466796875
0.1035,4.694580078125,-3.473388671875,-2.592529296875
0.104,4.774658203125,-4.434326171875,-1.991943359375
0.1045,4.254150390625,-4.834716796875,-1.311279296875
0.105,3.333251953125,-5.034912109375,-0.270263671875
0.1055,2.292236328125,-5.395263671875,1.131103515625
0.106,1.291259765625,-5.755615234375,2.532470703125
0.1065,0.610595703125,-6.316162109375,3.693603515625
0.107,0.010009765625,-6.516357421875,4.534423828125
0.1075,-1.031005859375,-5.915771484375,4.974853515625
0.108,-2.272216796875,-4.954833984375,5.335205078125
0.1085,-3.553466796875,-3.793701171875,5.655517578125
0.109,-4.634521484375,-2.752685546875,6.055908203125
0.1095,-5.235107421875,-2.152099609375,6.336181640625
0.11,-5.275146484375,-1.511474609375,6.015869140625
0.1105,-5.114990234375,-0.630615234375,5.175048828125
0.111,-4.994873046875,0.610595703125,4.214111328125
0.1115,-5.034912109375,1.971923828125,3.133056640625
0.112,-5.155029296875,3.173095703125,2.292236328125
0.1125,-5.074951171875,3.893798828125,1.611572265625
0.113,-4.354248046875,4.174072265625,0.810791015625
0.1135,-3.353271484375,4.454345703125,-0.510498046875
0.114,-2.232177734375,4.854736328125,-1.871826171875
0.1145,-1.311279296875,5.335205078125,-3.193115234375
0.115,-0.710693359375,5.815673828125,-4.314208984375
0.1155,0.130126953125,5.695556640625,-4.954833984375
0.116,1.171142578125,4.854736328125,-5.275146484375
0.1165,2.492431640625,3.773681640625,-5.635498046875
0.117,3.733642578125,2.532470703125,-5.915771484375
0.1175,4.614501953125,1.731689453125,-6.316162109375
0.118,5.054931640625,1.091064453125,-6.396240234375
0.1185,4.894775390625,0.370361328125,-5.795654296875
0.119,4.694580078125,-0.710693359375,-4.834716796875
0.1195,4.614501953125,-2.031982421875,-3.713623046875
0.12,4.614501953125,-3.353271484375,-2.712646484375
0.1205,4.774658203125,-4.434326171875,-1.951904296875
0.121,4.454345703125,-4.994873046875,-1.271240234375
0.1215,3.493408203125,-5.155029296875,-0.390380859375
0.122,2.412353515625,-5.315185546875,1.010986328125
0.1225,1.291259765625,-5.715576171875,2.492431640625
0.123,0.570556640625,-6.236083984375,3.693603515625
0.1235,-0.190185546875,-6.556396484375,4.654541015625
0.124,-0.990966796875,-6.115966796875,5.135009765625
0.1245,-2.192138671875,-5.034912109375,5.415283203125
0.125,-3.553466796875,-3.833740234375,5.735595703125
0.1255,-4.674560546875,-2.672607421875,6.015869140625
0.126,-5.395263671875,-1.951904296875,6.336181640625
0.1265,-5.515380859375,-1.351318359375,6.095947265625
0.127,-5.235107421875,-0.550537109375,5.295166015625
0.1275,-5.074951171875,0.650634765625,4.294189453125
0.128,-4.994873046875,2.052001953125,3.052978515625
0.1285,-5.074951171875,3.253173828125,2.172119140625
0.129,-5.074951171875,4.134033203125,1.451416015625
0.1295,-4.514404296875,4.454345703125,0.690673828125
0.13,-3.393310546875,4.574462890625,-0.470458984375
0.1305,-2.272216796875,4.854736328125,-1.831787109375
0.131,-1.231201171875,5.255126953125,-3.233154296875
0.1315,-0.550537109375,5.735595703125,-4.394287109375
0.132,0.170166015625,5.855712890625,-5.155029296875
0.1325,1.131103515625,5.094970703125,-5.435302734375
0.133,2.412353515625,3.973876953125,-5.755615234375
0.1335,3.773681640625,2.652587890625,-6.035888671875
0.134,4.734619140625,1.651611328125,-6.356201171875
0.1345,5.255126953125,1.010986328125,-6.556396484375
0.135,5.175048828125,0.330322265625,-6.075927734375
0.1355,4.854736328125,-0.670654296875,-5.114990234375
0.136,4.734619140625,-1.951904296875,-3.913818359375
0.1365,4.654541015625,-3.353271484375,-2.752685546875
0.137,4.774658203125,-4.514404296875,-1.951904296875
0.1375,4.574462890625,-5.195068359375,-1.271240234375
0.138,3.773681640625,-5.315185546875,-0.430419921875
0.1385,2.612548828125,-5.435302734375,0.890869140625
0.139,1.331298828125,-5.755615234375,2.372314453125
0.1395,0.490478515625,-6.196044921875,3.733642578125
0.14,-0.270263671875,-6.636474609375,4.814697265625
0.1405,-0.990966796875,-6.396240234375,5.375244140625
0.141,-2.152099609375,-5.355224609375,5.615478515625
0.1415,-3.513427734375,-4.073974609375,5.895751953125
0.142,-4.754638671875,-2.792724609375,6.176025390625
0.1425,-5.595458984375,-1.911865234375,6.416259765625
0.143,-5.835693359375,-1.271240234375,6.376220703125
0.1435,-5.635498046875,-0.510498046875,5.655517578125
0.144,-5.275146484375,0.730712890625,4.494384765625
0.1445,-5.155029296875,2.092041015625,3.173095703125
0.145,-5.155029296875,3.453369140625,2.052001953125
0.1455,-5.155029296875,4.454345703125,1.291259765625
0.146,-4.634521484375,4.854736328125,0.610595703125
0.1465,-3.553466796875,4.934814453125,-0.550537109375
0.147,-2.272216796875,5.094970703125,-1.951904296875
0.1475,-0.990966796875,5.415283203125,-3.553466796875
0.148,-0.270263671875,5.855712890625,-4.754638671875
0.1485,0.490478515625,6.095947265625,-5.635498046875
0.149,1.371337890625,5.415283203125,-5.995849609375
0.1495,2.692626953125,4.134033203125,-6.196044921875
0.15,4.093994140625,2.692626953125,-6.396240234375
0.1505,5.175048828125,1.411376953125,-6.596435546875
0.151,5.775634765625,0.650634765625,-6.756591796875
0.1515,5.735595703125,0.010009765625,-6.396240234375
0.152,5.335205078125,-1.071044921875,-5.315185546875
0.1525,5.014892578125,-2.432373046875,-3.913818359375
0.153,4.854736328125,-3.913818359375,-2.552490234375
0.1535,4.814697265625,-5.155029296875,-1.511474609375
0.154,4.694580078125,-5.875732421875,-0.790771484375
0.1545,3.853759765625,-6.035888671875,0.130126953125
0.155,2.452392578125,-5.955810546875,1.411376953125
0.1555,1.010986328125,-6.115966796875,3.012939453125
0.156,-0.230224609375,-6.436279296875,4.454345703125
0.1565,-0.910888671875,-6.756591796875,5.495361328125
0.157,-1.591552734375,-6.596435546875,6.135986328125
0.1575,-2.712646484375,-5.515380859375,6.336181640625
0.158,-4.114013671875,-3.993896484375,6.496337890625
0.1585,-5.395263671875,-2.552490234375,6.616455078125
0.159,-6.236083984375,-1.431396484375,6.696533203125
0.1595,-6.516357421875,-0.710693359375,6.696533203125
0.16,-6.196044921875,0.130126953125,5.895751953125
0.1605,-5.715576171875,1.251220703125,4.534423828125
0.161,-5.435302734375,2.652587890625,3.052978515625
0.1615,-5.275146484375,4.093994140625,1.651611328125
0.162,-5.114990234375,5.094970703125,0.810791015625
0.1625,-4.674560546875,5.575439453125,0.090087890625
0.163,-3.593505859375,5.535400390625,-0.950927734375
0.1635,-2.031982421875,5.495361328125,-2.432373046875
0.164,-0.630615234375,5.695556640625,-3.993896484375
0.1645,0.410400390625,5.935791015625,-5.275146484375
0.165,0.970947265625,6.216064453125,-6.156005859375
0.1655,1.771728515625,5.655517578125,-6.556396484375
0.166,3.012939453125,4.334228515625,-6.636474609375
0.1665,4.374267578125,2.812744140625,-6.756591796875
0.167,5.495361328125,1.331298828125,-6.836669921875
0.1675,6.135986328125,0.410400390625,-6.916748046875
0.168,6.216064453125,-0.350341796875,-6.676513671875
0.1685,5.735595703125,-1.231201171875,-5.675537109375
0.169,5.255126953125,-2.472412109375,-4.194091796875
0.1695,4.974853515625,-3.953857421875,-2.712646484375
0.17,4.854736328125,-5.195068359375,-1.471435546875
0.1705,4.774658203125,-6.115966796875,-0.710693359375
0.171,4.093994140625,-6.356201171875,0.130126953125
0.1715,2.812744140625,-6.236083984375,1.211181640625
0.172,1.291259765625,-6.276123046875,2.772705078125
0.1725,-0.190185546875,-6.436279296875,4.334228515625
0.173,-0.990966796875,-6.756591796875,5.455322265625
0.1735,-1.551513671875,-6.916748046875,6.256103515625
0.174,-2.512451171875,-6.035888671875,6.536376953125
0.1745,-3.833740234375,-4.554443359375,6.616455078125
0.175,-5.155029296875,-3.032958984375,6.696533203125
0.1755,-6.196044921875,-1.711669921875,6.776611328125
0.176,-6.676513671875,-0.910888671875,6.856689453125
0.1765,-6.516357421875,-0.230224609375,6.336181640625
0.177,-6.035888671875,0.850830078125,5.135009765625
0.1775,-5.635498046875,2.212158203125,3.653564453125
0.178,-5.395263671875,3.733642578125,2.172119140625
0.1785,-5.275146484375,4.894775390625,1.091064453125
0.179,-5.034912109375,5.615478515625,0.370361328125
0.1795,-4.114013671875,5.695556640625,-0.590576171875
0.18,-2.632568359375,5.615478515625,-1.871826171875
0.1805,-1.151123046875,5.735595703125,-3.513427734375
0.181,0.170166015625,5.895751953125,-4.954833984375
0.1815,0.810791015625,6.216064453125,-5.915771484375
0.182,1.491455078125,6.055908203125,-6.556396484375
0.1825,2.572509765625,4.934814453125,-6.716552734375
0.183,3.973876953125,3.373291015625,-6.836669921875
0.1835,5.215087890625,1.811767578125,-6.916748046875
0.184,6.055908203125,0.650634765625,-6.956787109375
0.1845,6.376220703125,-0.150146484375,-6.956787109375
0.185,6.055908203125,-0.950927734375,-6.156005859375
0.1855,5.455322265625,-2.072021484375,-4.834716796875
0.186,5.135009765625,-3.473388671875,-3.233154296875
0.1865,4.974853515625,-4.874755859375,-1.871826171875
0.187,4.814697265625,-5.915771484375,-0.910888671875
0.1875,4.454345703125,-6.436279296875,-0.190185546875
0.188,3.293212890625,-6.356201171875,0.850830078125
