wavelength,x,y,z
0.0,8.0128173828125,-20.254760742188,12.577270507812
0.0005,11.135864257812,-20.454956054688,9.7344970703125
0.001,14.899536132812,-19.694213867188,5.3302001953125
0.0015,17.942504882812,-18.252807617188,0.9659423828125
0.002,19.904418945312,-16.210815429688,-2.9979248046875
0.0025,20.985473632812,-14.088745117188,-6.1610107421875
0.003,21.185668945312,-11.245971679688,-9.1239013671875
0.0035,20.905395507812,-7.2420654296875,-12.887573242188
0.004,20.104614257812,-3.5584716796875,-15.730346679688
0.0045,18.663208007812,0.7257080078125,-18.453002929688
0.005,16.501098632812,4.5294189453125,-20.174682617188
0.0055,13.818481445312,7.3321533203125,-20.374877929688
0.006,10.975708007812,10.375122070312,-20.695190429688
0.0065,5.7706298828125,14.379028320312,-19.774291992188
0.007,1.2862548828125,17.221801757812,-18.332885742188
0.0075,-2.9178466796875,19.063598632812,-16.290893554688
0.008,-6.3211669921875,20.344848632812,-14.369018554688
0.0085,-9.2039794921875,20.304809570312,-11.646362304688
0.009,-12.487182617188,19.984497070312,-8.2030029296875
0.0095,-15.850463867188,19.223754882812,-4.1590576171875
0.01,-18.653198242188,17.462036132812,0.4053955078125
0.0105,-20.334838867188,15.380004882812,4.0889892578125
0.011,-20.855346679688,13.057739257812,6.9718017578125
0.0115,-21.215698242188,10.174926757812,9.9346923828125
0.012,-20.575073242188,5.7305908203125,13.938598632812
0.0125,-19.694213867188,2.0469970703125,16.661254882812
0.013,-17.972534179688,-1.8768310546875,18.863403320312
0.0135,-16.010620117188,-5.4403076171875,20.464965820312
0.014,-13.047729492188,-8.2030029296875,20.424926757812
0.0145,-9.7645263671875,-11.366088867188,20.424926757812
0.015,-4.8797607421875,-15.049682617188,19.504028320312
0.0155,0.0450439453125,-17.852416992188,17.662231445312
0.016,3.8087158203125,-19.373901367188,15.660278320312
0.0165,6.7716064453125,-20.254760742188,13.698364257812
0.017,9.8145751953125,-20.414916992188,10.975708007812
0.0175,13.498168945312,-19.734252929688,6.6915283203125
0.018,16.501098632812,-18.773315429688,2.9278564453125
0.0185,19.023559570312,-16.971557617188,-1.3963623046875
0.019,20.505004882812,-14.889526367188,-4.9998779296875
0.0195,20.665161132812,-12.206909179688,-7.7225341796875
0.02,20.905395507812,-9.3240966796875,-10.725463867188
0.0205,20.264770507812,-4.8797607421875,-14.529174804688
0.021,19.103637695312,-0.9158935546875,-17.371948242188
0.0215,17.141723632812,2.7677001953125,-19.053588867188
0.022,15.139770507812,6.0509033203125,-20.414916992188
0.0225,12.016723632812,9.0137939453125,-20.374877929688
0.023,7.6524658203125,12.737426757812,-19.894409179688
0.0235,3.4884033203125,15.900512695312,-19.093627929688
0.024,-1.5164794921875,18.503051757812,-17.051635742188
0.0245,-5.0399169921875,19.864379882812,-15.089721679688
0.025,-7.9227294921875,20.224731445312,-12.807495117188
0.0255,-10.965698242188,20.464965820312,-10.204956054688
0.026,-15.009643554688,19.544067382812,-5.2801513671875
0.0265,-17.932495117188,18.222778320312,-1.1561279296875
0.027,-19.894409179688,16.340942382812,2.6876220703125
0.0275,-21.175659179688,14.178833007812,6.0509033203125
0.028,-21.135620117188,11.055786132812,9.1339111328125
0.0285,-21.135620117188,7.5723876953125,12.617309570312
0.029,-20.494995117188,3.4884033203125,16.060668945312
0.0295,-18.973510742188,-0.9959716796875,18.903442382812
0.03,-16.771362304688,-4.5194091796875,20.344848632812
0.0305,-14.449096679688,-7.6424560546875,21.185668945312
0.031,-11.286010742188,-10.725463867188,21.265747070312
0.0315,-5.8406982421875,-14.889526367188,20.184692382812
0.032,-1.5164794921875,-17.732299804688,18.903442382812
0.0325,3.1280517578125,-19.974487304688,16.781372070312
0.033,6.6114501953125,-21.095581054688,14.699340820312
0.0335,9.7745361328125,-21.135620117188,11.656372070312
0.034,12.977661132812,-21.015502929688,8.5333251953125
0.0345,16.821411132812,-19.934448242188,3.7686767578125
0.035,19.784301757812,-17.972534179688,-1.1160888671875
0.0355,21.265747070312,-15.890502929688,-4.5594482421875
0.036,22.106567382812,-13.488159179688,-7.8026123046875
0.0365,21.946411132812,-10.124877929688,-10.925659179688
0.037,21.425903320312,-5.7606201171875,-14.809448242188
0.0375,20.505004882812,-1.9168701171875,-17.732299804688
0.038,18.623168945312,2.5675048828125,-20.254760742188
0.0385,16.060668945312,6.1309814453125,-21.375854492188
0.039,13.057739257812,9.3741455078125,-21.536010742188
0.0395,9.6143798828125,12.617309570312,-21.656127929688
0.04,3.8887939453125,16.661254882812,-20.254760742188
0.0405,-0.9959716796875,19.303833007812,-18.332885742188
0.041,-4.8797607421875,20.945434570312,-16.330932617188
0.0415,-8.3231201171875,21.786254882812,-14.048706054688
0.042,-11.646362304688,21.505981445312,-10.485229492188
0.0425,-15.169799804688,20.945434570312,-6.5614013671875
0.043,-18.493041992188,19.824340820312,-2.1170654296875
0.0435,-21.135620117188,17.502075195312,2.8477783203125
0.044,-22.136596679688,15.099731445312,6.0909423828125
0.0445,-22.697143554688,12.216918945312,9.4542236328125
0.045,-22.456909179688,8.8135986328125,12.657348632812
0.0455,-21.616088867188,3.8887939453125,16.621215820312
0.046,-20.134643554688,-0.3153076171875,19.343872070312
0.0465,-18.092651367188,-4.3192138671875,21.385864257812
0.047,-15.490112304688,-7.6824951171875,22.266723632812
0.0475,-11.846557617188,-10.965698242188,22.066528320312
0.048,-7.8426513671875,-14.449096679688,21.706176757812
0.0485,-2.5574951171875,-18.132690429688,20.224731445312
0.049,2.7276611328125,-20.494995117188,17.662231445312
0.0495,6.1309814453125,-21.616088867188,15.580200195312
0.05,9.4542236328125,-22.216674804688,13.137817382812
0.0505,12.817504882812,-21.776245117188,9.5343017578125
0.051,16.581176757812,-20.735229492188,4.8096923828125
0.0515,19.584106445312,-19.293823242188,0.4854736328125
0.052,21.826293945312,-16.971557617188,-4.1190185546875
0.0525,22.466918945312,-14.409057617188,-7.2020263671875
0.053,22.587036132812,-11.085815429688,-10.605346679688
0.0535,22.346801757812,-7.5623779296875,-13.848510742188
0.054,21.385864257812,-2.9578857421875,-17.492065429688
0.0545,19.383911132812,1.5665283203125,-20.014526367188
0.055,17.181762695312,5.1300048828125,-21.495971679688
0.0555,14.579223632812,8.4932861328125,-22.296752929688
0.056,10.615356445312,11.816528320312,-21.816284179688
0.0565,5.8106689453125,15.540161132812,-21.015502929688
0.057,0.9659423828125,18.783325195312,-19.614135742188
0.0575,-4.0389404296875,20.985473632812,-17.131713867188
0.058,-7.2020263671875,21.666137695312,-14.809448242188
0.0585,-10.565307617188,22.066528320312,-12.086791992188
0.059,-13.968627929688,21.626098632812,-8.3231201171875
0.0595,-17.652221679688,20.424926757812,-3.5584716796875
0.06,-20.414916992188,18.503051757812,1.0860595703125
0.0605,-22.256713867188,16.220825195312,5.0899658203125
0.061,-22.777221679688,13.538208007812,8.2930908203125
0.0615,-22.737182617188,9.8546142578125,11.816528320312
0.062,-22.136596679688,5.7305908203125,15.380004882812
0.0625,-21.135620117188,1.4864501953125,18.703247070312
0.063,-18.933471679688,-3.1981201171875,21.065551757812
0.0635,-16.491088867188,-6.5213623046875,22.026489257812
0.064,-13.768432617188,-9.7645263671875,22.707153320312
0.0645,-9.3641357421875,-13.408081054688,22.066528320312
0.065,-4.1990966796875,-17.051635742188,20.745239257812
0.0655,0.7657470703125,-19.894409179688,18.903442382812
0.066,5.2901611328125,-21.776245117188,16.621215820312
0.0665,8.3731689453125,-22.096557617188,14.098754882812
0.067,11.816528320312,-22.176635742188,10.855590820312
0.0675,15.540161132812,-21.536010742188,6.6514892578125
0.068,18.983520507812,-20.134643554688,1.9268798828125
0.0685,21.425903320312,-17.892456054688,-2.7576904296875
0.069,22.747192382812,-15.570190429688,-6.4012451171875
0.0695,23.187622070312,-12.647338867188,-9.6444091796875
0.07,22.867309570312,-8.6434326171875,-13.328002929688
0.0705,21.946411132812,-4.3192138671875,-16.611206054688
0.071,20.665161132812,0.0050048828125,-19.734252929688
0.0715,18.262817382812,4.4893798828125,-21.816284179688
0.072,15.460083007812,7.6124267578125,-22.256713867188
0.0725,12.377075195312,10.935668945312,-22.657104492188
0.073,7.4122314453125,14.899536132812,-21.936401367188
0.0735,2.3673095703125,18.222778320312,-20.454956054688
0.074,-2.5574951171875,20.585083007812,-18.132690429688
0.0745,-6.5213623046875,22.146606445312,-15.970581054688
0.075,-9.6444091796875,22.346801757812,-13.207885742188
0.0755,-13.127807617188,22.066528320312,-9.6444091796875
0.076,-16.811401367188,21.185668945312,-5.2000732421875
0.0765,-20.014526367188,19.504028320312,-0.3953857421875
0.077,-22.176635742188,17.101684570312,4.1290283203125
0.0775,-22.937377929688,14.579223632812,7.3721923828125
0.078,-23.257690429688,11.456176757812,10.815551757812
0.0785,-22.777221679688,6.9718017578125,14.739379882812
0.079,-21.776245117188,2.7276611328125,17.942504882812
0.0795,-20.014526367188,-1.5965576171875,20.464965820312
0.08,-17.732299804688,-5.7205810546875,22.426879882812
0.0805,-14.729370117188,-8.7635498046875,22.546997070312
0.081,-11.205932617188,-12.126831054688,22.466918945312
0.0815,-6.1209716796875,-16.050659179688,21.586059570312
0.082,-0.9158935546875,-19.213745117188,19.824340820312
0.0825,3.7686767578125,-21.055541992188,17.301879882812
0.083,7.1719970703125,-22.056518554688,15.179809570312
0.0835,10.415161132812,-22.256713867188,12.296997070312
0.084,14.098754882812,-21.536010742188,8.0928955078125
0.0845,17.421997070312,-20.575073242188,3.8887939453125
0.085,20.344848632812,-18.733276367188,-0.9158935546875
0.0855,22.186645507812,-16.330932617188,-5.0799560546875
0.086,22.426879882812,-13.528198242188,-8.0028076171875
0.0865,22.627075195312,-10.445190429688,-11.286010742188
0.087,21.986450195312,-5.8406982421875,-15.209838867188
0.0875,20.905395507812,-1.7567138671875,-18.252807617188
0.088,18.783325195312,2.4073486328125,-20.254760742188
0.0885,16.621215820312,6.0509033203125,-21.776245117188
0.089,13.538208007812,9.1339111328125,-21.936401367188
0.0895,9.3341064453125,12.697387695312,-21.536010742188
0.09,4.7696533203125,16.260864257812,-20.535034179688
0.0905,-0.5155029296875,19.223754882812,-18.693237304688
0.091,-4.7196044921875,20.865356445312,-16.411010742188
0.0915,-7.6824951171875,21.385864257812,-14.128784179688
0.092,-10.885620117188,21.706176757812,-11.406127929688
0.0925,-14.849487304688,20.785278320312,-6.6815185546875
0.093,-17.892456054688,19.584106445312,-2.5975341796875
0.0935,-20.254760742188,17.662231445312,1.7667236328125
0.094,-21.896362304688,15.380004882812,5.5704345703125
0.0945,-22.056518554688,12.497192382812,8.5733642578125
0.095,-22.096557617188,9.0137939453125,12.096801757812
0.0955,-21.415893554688,4.6495361328125,15.700317382812
0.096,-20.174682617188,0.3253173828125,18.823364257812
0.0965,-17.972534179688,-3.7186279296875,20.545043945312
0.097,-15.730346679688,-6.8416748046875,21.626098632812
0.0975,-12.727416992188,-10.044799804688,21.906372070312
0.098,-7.7225341796875,-14.008666992188,21.065551757812
0.0985,-3.3582763671875,-17.011596679688,19.984497070312
0.099,1.6065673828125,-19.574096679688,17.902465820312
0.0995,5.6104736328125,-21.135620117188,15.740356445312
0.1,8.4932861328125,-21.215698242188,13.097778320312
0.1005,11.656372070312,-21.415893554688,10.214965820312
0.101,15.740356445312,-20.494995117188,5.4102783203125
0.1015,18.703247070312,-18.933471679688,0.9259033203125
0.102,20.665161132812,-16.851440429688,-3.0780029296875
0.1025,21.866333007812,-14.609252929688,-6.4813232421875
0.103,21.906372070312,-11.526245117188,-9.5242919921875
0.1035,21.706176757812,-7.4822998046875,-13.328002929688
0.104,20.945434570312,-3.7186279296875,-16.370971679688
0.1045,19.383911132812,0.7657470703125,-19.213745117188
0.105,16.981567382812,4.6094970703125,-20.815307617188
0.1055,14.379028320312,7.5723876953125,-21.215698242188
0.106,11.456176757812,10.775512695312,-21.616088867188
0.1065,5.7706298828125,15.019653320312,-20.494995117188
0.107,1.4063720703125,17.862426757812,-19.093627929688
0.1075,-2.9178466796875,19.824340820312,-17.011596679688
0.108,-6.5614013671875,21.145629882812,-14.969604492188
0.1085,-9.6043701171875,21.025512695312,-12.006713867188
0.109,-12.887573242188,20.785278320312,-8.5633544921875
0.1095,-16.531127929688,19.944458007812,-4.2391357421875
0.11,-19.373901367188,18.022583007812,0.5655517578125
0.1105,-20.935424804688,15.860473632812,4.1690673828125
0.111,-21.656127929688,13.418090820312,7.2921142578125
0.1115,-21.776245117188,10.495239257812,10.295043945312
0.112,-21.175659179688,5.7305908203125,14.419067382812
0.1125,-20.254760742188,2.0069580078125,17.221801757812
0.113,-18.573120117188,-2.0770263671875,19.504028320312
0.1135,-16.370971679688,-5.7205810546875,21.065551757812
0.114,-13.287963867188,-8.5633544921875,20.985473632812
0.1145,-9.9647216796875,-11.766479492188,21.105590820312
0.115,-4.8397216796875,-15.690307617188,20.024536132812
0.1155,0.2052001953125,-18.412963867188,18.062622070312
0.116,3.8487548828125,-19.894409179688,16.020629882812
0.1165,7.0518798828125,-20.815307617188,14.018676757812
0.117,10.094848632812,-20.775268554688,11.135864257812
0.1175,13.938598632812,-20.014526367188,6.6915283203125
0.118,16.901489257812,-19.133666992188,2.8878173828125
0.1185,19.383911132812,-17.251831054688,-1.4764404296875
0.119,20.705200195312,-15.089721679688,-4.8797607421875
0.1195,20.905395507812,-12.367065429688,-7.7225341796875
0.12,21.105590820312,-9.5242919921875,-10.765502929688
0.1205,20.424926757812,-4.9998779296875,-14.609252929688
0.121,19.183715820312,-0.9959716796875,-17.371948242188
0.1215,17.301879882812,2.5675048828125,-19.053588867188
0.122,15.339965820312,5.8907470703125,-20.414916992188
0.1225,12.136840820312,8.8135986328125,-20.254760742188
0.123,7.8526611328125,12.497192382812,-19.854370117188
0.1235,3.6885986328125,15.660278320312,-19.093627929688
0.124,-1.2362060546875,18.182739257812,-16.971557617188
0.1245,-4.5594482421875,19.423950195312,-15.089721679688
0.125,-7.4022216796875,19.904418945312,-12.887573242188
0.1255,-10.325073242188,20.104614257812,-10.285034179688
0.126,-14.328979492188,19.183715820312,-5.5203857421875
0.1265,-17.131713867188,17.902465820312,-1.5965576171875
0.127,-19.053588867188,16.140747070312,2.0870361328125
0.1275,-20.214721679688,14.098754882812,5.2501220703125
0.128,-20.214721679688,11.215942382812,8.1729736328125
0.1285,-20.294799804688,7.8126220703125,11.496215820312
0.129,-19.814331054688,3.9688720703125,14.859497070312
0.1295,-18.332885742188,-0.2752685546875,17.582153320312
0.13,-16.370971679688,-3.5584716796875,18.943481445312
0.1305,-14.369018554688,-6.4412841796875,19.904418945312
0.131,-11.486206054688,-9.3240966796875,20.024536132812
0.1315,-6.3211669921875,-13.328002929688,19.103637695312
0.132,-2.2772216796875,-16.090698242188,18.062622070312
0.1325,1.9669189453125,-18.172729492188,16.140747070312
0.133,5.1700439453125,-19.333862304688,14.258911132812
0.1335,8.0128173828125,-19.413940429688,11.656372070312
0.134,11.095825195312,-19.534057617188,8.8135986328125
0.1345,14.739379882812,-18.693237304688,4.5294189453125
0.135,17.462036132812,-17.011596679688,0.2052001953125
0.1355,18.943481445312,-15.249877929688,-3.0379638671875
0.136,19.864379882812,-13.167846679688,-5.9207763671875
0.1365,19.864379882812,-10.485229492188,-8.6834716796875
0.137,19.504028320312,-6.4012451171875,-12.407104492188
0.1375,18.983520507812,-2.9979248046875,-15.249877929688
0.138,17.462036132812,1.0059814453125,-17.652221679688
0.1385,15.420043945312,4.2891845703125,-18.893432617188
0.139,12.857543945312,7.0518798828125,-19.213745117188
0.1395,9.8946533203125,10.174926757812,-19.534057617188
0.14,4.8096923828125,14.018676757812,-18.533081054688
0.1405,0.4854736328125,16.581176757812,-16.931518554688
0.141,-2.9979248046875,18.182739257812,-15.329956054688
0.1415,-6.1209716796875,19.143676757812,-13.528198242188
0.142,-9.0037841796875,19.103637695312,-10.725463867188
0.1425,-12.367065429688,18.783325195312,-7.0418701171875
0.143,-15.490112304688,17.982543945312,-3.2381591796875
0.1435,-17.932495117188,16.180786132812,0.9659423828125
0.144,-19.053588867188,14.298950195312,3.9288330078125
0.1445,-19.654174804688,11.976684570312,6.8116455078125
0.145,-19.814331054688,9.2139892578125,9.6143798828125
0.1455,-19.253784179688,4.8497314453125,13.418090820312
0.146,-18.292846679688,1.2462158203125,16.140747070312
0.1465,-16.811401367188,-2.2772216796875,18.062622070312
0.147,-14.889526367188,-5.2801513671875,19.263793945312
0.1475,-11.846557617188,-8.1229248046875,19.223754882812
0.148,-8.2830810546875,-11.526245117188,19.143676757812
0.1485,-3.7186279296875,-14.929565429688,18.222778320312
0.149,0.9659423828125,-17.291870117188,16.180786132812
0.1495,3.8887939453125,-18.453002929688,14.619262695312
0.15,6.8116455078125,-19.253784179688,12.657348632812
0.1505,9.7344970703125,-19.173706054688,9.8546142578125
0.151,13.418090820312,-18.453002929688,5.5704345703125
0.1515,16.220825195312,-17.411987304688,1.8067626953125
0.152,18.262817382812,-15.690307617188,-1.9969482421875
0.1525,19.143676757812,-13.728393554688,-4.7596435546875
0.153,19.343872070312,-11.045776367188,-7.6424560546875
0.1535,19.423950195312,-8.0428466796875,-10.645385742188
0.154,18.943481445312,-4.0789794921875,-14.088745117188
0.1545,17.502075195312,-0.1551513671875,-16.611206054688
0.155,15.820434570312,3.0479736328125,-18.012573242188
0.1555,13.818481445312,5.9708251953125,-19.093627929688
0.156,10.695434570312,8.8536376953125,-18.933471679688
0.1565,6.2510986328125,12.497192382812,-18.332885742188
0.157,2.2071533203125,15.500122070312,-17.452026367188
0.1575,-2.0770263671875,17.582153320312,-15.530151367188
0.158,-4.8397216796875,18.463012695312,-13.808471679688
0.1585,-7.8426513671875,18.903442382812,-11.526245117188
0.159,-10.845581054688,18.863403320312,-8.5633544921875
0.1595,-14.328979492188,18.022583007812,-4.3992919921875
0.16,-16.931518554688,16.541137695312,-0.3953857421875
0.1605,-18.573120117188,14.779418945312,2.8878173828125
0.161,-19.333862304688,12.777465820312,5.6905517578125
0.1615,-19.373901367188,9.8546142578125,8.5733642578125
0.162,-19.133666992188,6.2110595703125,12.016723632812
0.1625,-18.613159179688,2.6075439453125,15.099731445312
0.163,-17.011596679688,-1.3162841796875,17.421997070312
0.1635,-15.089721679688,-4.1990966796875,18.422973632812
0.164,-12.887573242188,-7.0819091796875,19.183715820312
0.1645,-9.5242919921875,-10.244995117188,19.063598632812
0.165,-4.7996826171875,-13.768432617188,18.062622070312
0.1655,-0.5955810546875,-16.370971679688,16.661254882812
0.166,3.1680908203125,-18.132690429688,14.979614257812
0.1665,5.8907470703125,-18.773315429688,13.097778320312
0.167,8.8135986328125,-18.933471679688,10.495239257812
0.1675,12.176879882812,-18.613159179688,6.9718017578125
0.168,15.339965820312,-17.732299804688,3.0079345703125
0.1685,17.662231445312,-16.010620117188,-1.1160888671875
0.169,18.783325195312,-14.128784179688,-3.8787841796875
0.1695,19.423950195312,-12.046752929688,-6.7615966796875
0.17,19.343872070312,-8.8436279296875,-9.6844482421875
0.1705,18.823364257812,-4.9998779296875,-13.007690429688
0.171,17.942504882812,-1.4364013671875,-15.730346679688
0.1715,16.300903320312,2.2872314453125,-17.812377929688
0.172,14.138793945312,5.0098876953125,-18.533081054688
0.1725,11.576293945312,7.8927001953125,-18.853393554688
0.173,7.7325439453125,11.376098632812,-18.653198242188
0.1735,3.3282470703125,14.579223632812,-17.652221679688
0.174,-0.9959716796875,16.781372070312,-15.770385742188
0.1745,-4.0389404296875,18.142700195312,-14.248901367188
0.175,-6.7615966796875,18.743286132812,-12.327026367188
0.1755,-9.7645263671875,18.623168945312,-9.4442138671875
0.176,-13.127807617188,18.102661132812,-5.6405029296875
0.1765,-16.010620117188,16.981567382812,-1.7967529296875
0.177,-18.052612304688,15.219848632812,2.0469970703125
0.1775,-18.773315429688,13.297973632812,4.6094970703125
0.178,-19.253784179688,10.815551757812,7.5323486328125
