wavelength,x,y,z
0.0,-2.8828125,0.8408203125,2.482421875
0.0005,-3.04296875,1.44140625,1.841796875
0.001,-3.123046875,1.921875,1.4013671875
0.0015,-3.0830078125,2.2021484375,0.8408203125
0.002,-2.8828125,2.482421875,0.3603515625
0.0025,-2.6025390625,2.6826171875,-0.2802734375
0.003,-2.2021484375,2.8427734375,-0.9609375
0.0035,-1.6015625,2.8427734375,-1.7216796875
0.004,-1.1611328125,2.6826171875,-2.1220703125
0.0045,-0.6806640625,2.5625,-2.6025390625
0.005,-0.2001953125,2.2822265625,-2.9228515625
0.0055,0.4404296875,1.9619140625,-3.283203125
0.006,1.28125,1.3212890625,-3.603515625
0.0065,1.921875,0.8408203125,-3.7236328125
0.007,2.2421875,0.3603515625,-3.603515625
0.0075,2.5224609375,-0.1201171875,-3.4833984375
0.008,2.7626953125,-0.640625,-3.203125
0.0085,3.04296875,-1.2412109375,-2.7626953125
0.009,3.1630859375,-1.9619140625,-2.2421875
0.0095,3.123046875,-2.2822265625,-1.681640625
0.01,2.962890625,-2.5625,-1.1611328125
0.0105,2.6826171875,-2.72265625,-0.6005859375
0.011,2.40234375,-2.8828125,0.0400390625
0.0115,1.76171875,-2.962890625,0.9609375
0.012,1.28125,-2.9228515625,1.5615234375
0.0125,0.7607421875,-2.72265625,1.9619140625
0.013,0.3603515625,-2.5224609375,2.2822265625
0.0135,-0.3203125,-2.2021484375,2.642578125
0.014,-1.0009765625,-1.681640625,2.9228515625
0.0145,-1.8017578125,-1.0810546875,3.203125
0.015,-2.2421875,-0.560546875,3.1630859375
0.0155,-2.5224609375,-0.16015625,3.04296875
0.016,-2.6826171875,0.3603515625,2.7626953125
0.0165,-2.8828125,0.7607421875,2.482421875
0.017,-3.0830078125,1.4013671875,1.8818359375
0.0175,-3.203125,1.921875,1.3212890625
0.018,-3.0029296875,2.2822265625,0.80078125
0.0185,-2.8828125,2.5224609375,0.3603515625
0.019,-2.6025390625,2.6025390625,-0.2802734375
0.0195,-2.2421875,2.7626953125,-0.9208984375
0.02,-1.6015625,2.8427734375,-1.7216796875
0.0205,-1.12109375,2.6826171875,-2.2421875
0.021,-0.640625,2.5224609375,-2.6025390625
0.0215,-0.2001953125,2.2421875,-2.9228515625
0.022,0.4404296875,1.9619140625,-3.2431640625
0.0225,1.2412109375,1.3212890625,-3.5634765625
0.023,1.8818359375,0.880859375,-3.763671875
0.0235,2.2822265625,0.3203125,-3.68359375
0.024,2.5625,0.0,-3.603515625
0.0245,2.7626953125,-0.640625,-3.283203125
0.025,3.0029296875,-1.041015625,-2.962890625
0.0255,3.0830078125,-1.841796875,-2.322265625
0.026,3.1630859375,-2.2822265625,-1.8017578125
0.0265,3.04296875,-2.5224609375,-1.28125
0.027,2.8427734375,-2.72265625,-0.720703125
0.0275,2.5625,-2.8828125,-0.16015625
0.028,2.001953125,-2.962890625,0.6806640625
0.0285,1.4814453125,-3.0830078125,1.4814453125
0.029,0.880859375,-2.8427734375,1.9619140625
0.0295,0.48046875,-2.6826171875,2.322265625
0.03,-0.16015625,-2.2822265625,2.6025390625
0.0305,-0.7607421875,-1.9619140625,3.0029296875
0.031,-1.76171875,-1.1611328125,3.203125
0.0315,-2.2021484375,-0.720703125,3.3232421875
0.032,-2.5625,-0.16015625,3.1630859375
0.0325,-2.7626953125,0.240234375,3.0029296875
0.033,-2.962890625,0.80078125,2.5625
0.0335,-3.203125,1.3212890625,2.08203125
0.034,-3.283203125,2.0419921875,1.4814453125
0.0345,-3.203125,2.4423828125,0.9208984375
0.035,-3.0029296875,2.6025390625,0.400390625
0.0355,-2.72265625,2.72265625,-0.240234375
0.036,-2.40234375,2.8828125,-0.8408203125
0.0365,-1.6015625,2.8828125,-1.8017578125
0.037,-1.1611328125,2.8427734375,-2.322265625
0.0375,-0.6005859375,2.5625,-2.72265625
0.038,-0.2001953125,2.40234375,-3.04296875
0.0385,0.48046875,1.921875,-3.283203125
0.039,1.12109375,1.4814453125,-3.5634765625
0.0395,1.9619140625,0.80078125,-3.8037109375
0.04,2.3623046875,0.3203125,-3.7236328125
0.0405,2.6025390625,-0.16015625,-3.5634765625
0.041,2.72265625,-0.640625,-3.283203125
0.0415,3.04296875,-1.12109375,-3.0830078125
0.042,3.04296875,-1.7216796875,-2.3623046875
0.0425,3.1630859375,-2.162109375,-1.921875
0.043,3.04296875,-2.5224609375,-1.28125
0.0435,2.8427734375,-2.642578125,-0.8408203125
0.044,2.5625,-2.802734375,-0.2802734375
0.0445,2.2421875,-2.9228515625,0.3603515625
0.045,1.521484375,-2.962890625,1.28125
0.0455,1.12109375,-2.8427734375,1.76171875
0.046,0.6005859375,-2.642578125,2.162109375
0.0465,0.2001953125,-2.482421875,2.482421875
0.047,-0.5205078125,-2.08203125,2.802734375
0.0475,-1.28125,-1.4814453125,3.04296875
0.048,-1.9619140625,-1.0009765625,3.283203125
0.0485,-2.322265625,-0.5205078125,3.1630859375
0.049,-2.5625,0.0,3.04296875
0.0495,-2.8427734375,0.48046875,2.7626953125
0.05,-3.0830078125,1.0009765625,2.5224609375
0.0505,-3.1630859375,1.76171875,1.76171875
0.051,-3.203125,2.08203125,1.28125
0.0515,-3.04296875,2.482421875,0.6806640625
0.052,-2.9228515625,2.642578125,0.2802734375
0.0525,-2.5625,2.802734375,-0.4404296875
0.053,-2.08203125,2.8828125,-1.1611328125
0.0535,-1.4814453125,2.9228515625,-1.9619140625
0.054,-0.9609375,2.72265625,-2.4423828125
0.0545,-0.5205078125,2.5224609375,-2.7626953125
0.055,0.0,2.2421875,-3.0830078125
0.0555,0.6806640625,1.921875,-3.4833984375
0.056,1.5615234375,1.12109375,-3.68359375
0.0565,2.0419921875,0.640625,-3.763671875
0.057,2.482421875,0.1201171875,-3.68359375
0.0575,2.642578125,-0.3203125,-3.5234375
0.058,2.8427734375,-0.80078125,-3.123046875
0.0585,3.0029296875,-1.28125,-2.72265625
0.059,3.1630859375,-2.001953125,-2.0419921875
0.0595,3.0830078125,-2.322265625,-1.6015625
0.06,2.8828125,-2.5625,-1.041015625
0.0605,2.72265625,-2.72265625,-0.5205078125
0.061,2.40234375,-2.8828125,0.16015625
0.0615,1.7216796875,-2.8828125,0.9609375
0.062,1.28125,-2.9228515625,1.5615234375
0.0625,0.7607421875,-2.72265625,2.001953125
0.063,0.3603515625,-2.5224609375,2.2822265625
0.0635,-0.240234375,-2.2021484375,2.6025390625
0.064,-0.8408203125,-1.8017578125,2.962890625
0.0645,-1.8017578125,-1.1611328125,3.1630859375
0.065,-2.1220703125,-0.6806640625,3.1630859375
0.0655,-2.5224609375,-0.2802734375,3.04296875
0.066,-2.642578125,0.2802734375,2.8427734375
0.0665,-2.8828125,0.7607421875,2.5625
0.067,-3.0029296875,1.361328125,2.001953125
0.0675,-3.1630859375,1.921875,1.521484375
0.068,-3.04296875,2.2421875,0.9609375
0.0685,-2.9228515625,2.482421875,0.48046875
0.069,-2.6826171875,2.6025390625,-0.16015625
0.0695,-2.40234375,2.8427734375,-0.720703125
0.07,-1.6416015625,2.8427734375,-1.6015625
0.0705,-1.2412109375,2.72265625,-2.08203125
0.071,-0.720703125,2.5625,-2.5625
0.0715,-0.3603515625,2.40234375,-2.8427734375
0.072,0.2802734375,2.0419921875,-3.203125
0.0725,1.0009765625,1.4814453125,-3.4033203125
0.073,1.841796875,0.9609375,-3.7236328125
0.0735,2.1220703125,0.4404296875,-3.68359375
0.074,2.4423828125,0.0400390625,-3.5234375
0.0745,2.6826171875,-0.4404296875,-3.36328125
0.075,2.9228515625,-0.9609375,-3.04296875
0.0755,3.0029296875,-1.6416015625,-2.3623046875
0.076,3.1630859375,-2.08203125,-1.9619140625
0.0765,3.0029296875,-2.4423828125,-1.361328125
0.077,2.8427734375,-2.6025390625,-0.9208984375
0.0775,2.5625,-2.7626953125,-0.2802734375
0.078,2.162109375,-2.8828125,0.48046875
0.0785,1.521484375,-2.962890625,1.3212890625
0.079,1.0009765625,-2.7626953125,1.76171875
0.0795,0.6005859375,-2.642578125,2.162109375
0.08,0.1201171875,-2.40234375,2.5224609375
0.0805,-0.6005859375,-2.0419921875,2.8427734375
0.081,-1.44140625,-1.361328125,3.0830078125
0.0815,-2.08203125,-0.9208984375,3.203125
0.082,-2.3623046875,-0.400390625,3.123046875
0.0825,-2.5625,0.1201171875,2.8828125
0.083,-2.8427734375,0.6005859375,2.642578125
0.0835,-3.04296875,1.1611328125,2.2421875
0.084,-3.123046875,1.841796875,1.5615234375
0.0845,-3.0830078125,2.162109375,1.12109375
0.085,-2.9228515625,2.4423828125,0.6005859375
0.0855,-2.72265625,2.6025390625,0.080078125
0.086,-2.4423828125,2.72265625,-0.6005859375
0.0865,-1.8017578125,2.7626953125,-1.361328125
0.087,-1.3212890625,2.802734375,-2.0419921875
0.0875,-0.8408203125,2.5224609375,-2.4423828125
0.088,-0.400390625,2.40234375,-2.72265625
0.0885,0.1201171875,2.0419921875,-3.0830078125
0.089,0.80078125,1.6015625,-3.36328125
0.0895,1.5615234375,1.0009765625,-3.6435546875
0.09,2.001953125,0.6005859375,-3.603515625
0.0905,2.3623046875,0.16015625,-3.5634765625
0.091,2.5224609375,-0.3203125,-3.36328125
0.0915,2.7626953125,-0.7607421875,-3.0830078125
0.092,2.9228515625,-1.361328125,-2.6025390625
0.0925,3.0830078125,-1.9619140625,-2.08203125
0.093,3.0029296875,-2.2822265625,-1.6015625
0.0935,2.8828125,-2.5224609375,-1.0810546875
0.094,2.6826171875,-2.6826171875,-0.560546875
0.0945,2.3623046875,-2.8828125,0.1201171875
0.095,1.76171875,-2.9228515625,0.9208984375
0.0955,1.28125,-2.8828125,1.5615234375
0.096,0.80078125,-2.72265625,1.921875
0.0965,0.3603515625,-2.5625,2.2822265625
0.097,-0.2802734375,-2.2421875,2.6826171875
0.0975,-1.041015625,-1.7216796875,2.9228515625
0.098,-1.8017578125,-1.12109375,3.1630859375
0.0985,-2.1220703125,-0.640625,3.123046875
0.099,-2.482421875,-0.16015625,3.04296875
0.0995,-2.6826171875,0.3203125,2.802734375
0.1,-2.9228515625,0.8408203125,2.5224609375
0.1005,-3.0830078125,1.521484375,1.8818359375
0.101,-3.1630859375,2.0419921875,1.361328125
0.1015,-3.04296875,2.2822265625,0.80078125
0.102,-2.8427734375,2.5224609375,0.3203125
0.1025,-2.6025390625,2.6826171875,-0.3203125
0.103,-2.1220703125,2.8427734375,-1.041015625
0.1035,-1.5615234375,2.8828125,-1.8017578125
0.104,-1.0009765625,2.6826171875,-2.2822265625
0.1045,-0.640625,2.5224609375,-2.642578125
0.105,0.0,2.2021484375,-2.962890625
0.1055,0.48046875,1.841796875,-3.283203125
0.106,1.361328125,1.2412109375,-3.5634765625
0.1065,1.921875,0.7607421875,-3.7236328125
0.107,2.2421875,0.3203125,-3.5634765625
0.1075,2.5224609375,-0.16015625,-3.443359375
0.108,2.72265625,-0.640625,-3.203125
0.1085,2.8828125,-1.201171875,-2.72265625
0.109,3.04296875,-1.8017578125,-2.2021484375
0.1095,3.04296875,-2.2421875,-1.6416015625
0.11,2.9228515625,-2.4423828125,-1.201171875
0.1105,2.6826171875,-2.6025390625,-0.640625
0.111,2.482421875,-2.8427734375,0.0
0.1115,1.841796875,-2.8828125,0.7607421875
0.112,1.4013671875,-2.9228515625,1.4013671875
0.1125,0.8408203125,-2.72265625,1.8818359375
0.113,0.48046875,-2.642578125,2.2421875
0.1135,-0.16015625,-2.322265625,2.5224609375
0.114,-0.7607421875,-1.841796875,2.8828125
0.1145,-1.6015625,-1.28125,3.1630859375
0.115,-2.08203125,-0.6806640625,3.1630859375
0.1155,-2.40234375,-0.3203125,3.0830078125
0.116,-2.6826171875,0.16015625,2.8828125
0.1165,-2.8828125,0.6806640625,2.6025390625
0.117,-3.0029296875,1.3212890625,2.001953125
0.1175,-3.1630859375,1.8818359375,1.5615234375
0.118,-3.04296875,2.2421875,0.9609375
0.1185,-2.9228515625,2.482421875,0.48046875
0.119,-2.642578125,2.6025390625,-0.16015625
0.1195,-2.322265625,2.802734375,-0.7607421875
0.12,-1.681640625,2.8427734375,-1.6015625
0.1205,-1.201171875,2.72265625,-2.1220703125
0.121,-0.720703125,2.5224609375,-2.5625
0.1215,-0.3203125,2.322265625,-2.8828125
0.122,0.3603515625,2.0419921875,-3.203125
0.1225,1.12109375,1.44140625,-3.4833984375
0.123,1.76171875,0.9609375,-3.7236328125
0.1235,2.2021484375,0.4404296875,-3.603515625
0.124,2.4423828125,0.0,-3.5234375
0.1245,2.642578125,-0.48046875,-3.2431640625
0.125,2.8828125,-0.9208984375,-3.0029296875
0.1255,3.04296875,-1.6416015625,-2.322265625
0.126,3.123046875,-2.08203125,-1.8818359375
0.1265,2.962890625,-2.40234375,-1.3212890625
0.127,2.8427734375,-2.6025390625,-0.8408203125
0.1275,2.5224609375,-2.7626953125,-0.2802734375
0.128,2.0419921875,-2.8828125,0.48046875
0.1285,1.521484375,-3.0029296875,1.28125
0.129,0.9609375,-2.8427734375,1.841796875
0.1295,0.560546875,-2.6826171875,2.1220703125
0.13,0.0400390625,-2.322265625,2.482421875
0.1305,-0.6005859375,-2.0419921875,2.8427734375
0.131,-1.44140625,-1.3212890625,3.0830078125
0.1315,-1.9619140625,-0.9208984375,3.203125
0.132,-2.3623046875,-0.3603515625,3.123046875
0.1325,-2.6025390625,0.080078125,2.962890625
0.133,-2.802734375,0.6005859375,2.6025390625
0.1335,-2.962890625,1.12109375,2.2421875
0.134,-3.123046875,1.76171875,1.6416015625
0.1345,-3.0830078125,2.162109375,1.0810546875
0.135,-2.9228515625,2.3623046875,0.6005859375
0.1355,-2.72265625,2.5625,0.1201171875
0.136,-2.482421875,2.72265625,-0.5205078125
0.1365,-1.8017578125,2.6826171875,-1.3212890625
0.137,-1.4013671875,2.72265625,-1.921875
0.1375,-0.8408203125,2.5224609375,-2.40234375
0.138,-0.5205078125,2.40234375,-2.6826171875
0.1385,0.1201171875,2.0419921875,-2.962890625
0.139,0.6806640625,1.76171875,-3.283203125
0.1395,1.521484375,1.0810546875,-3.5634765625
0.14,1.921875,0.6806640625,-3.5634765625
0.1405,2.2421875,0.240234375,-3.4833984375
0.141,2.482421875,-0.2001953125,-3.36328125
0.1415,2.6826171875,-0.6806640625,-3.0830078125
0.142,2.8427734375,-1.28125,-2.6025390625
0.1425,3.04296875,-1.76171875,-2.2021484375
0.143,2.962890625,-2.2021484375,-1.6015625
0.1435,2.8427734375,-2.40234375,-1.201171875
0.144,2.6025390625,-2.6025390625,-0.640625
0.1445,2.4423828125,-2.8427734375,0.0
0.145,1.76171875,-2.8828125,0.8408203125
0.1455,1.361328125,-2.8427734375,1.28125
0.146,0.880859375,-2.642578125,1.8017578125
0.1465,0.48046875,-2.5625,2.2021484375
0.147,-0.16015625,-2.2021484375,2.5224609375
0.1475,-0.80078125,-1.8017578125,2.8427734375
0.148,-1.6015625,-1.2412109375,3.123046875
0.1485,-2.0419921875,-0.6806640625,3.0830078125
0.149,-2.3623046875,-0.3203125,3.04296875
0.1495,-2.6025390625,0.240234375,2.8427734375
0.15,-2.9228515625,0.720703125,2.6025390625
0.1505,-3.04296875,1.4814453125,1.921875
0.151,-3.1630859375,1.921875,1.521484375
0.1515,-3.0830078125,2.2822265625,0.8408203125
0.152,-2.8828125,2.5224609375,0.400390625
0.1525,-2.5625,2.6025390625,-0.2802734375
0.153,-2.2021484375,2.802734375,-0.9208984375
0.1535,-1.6015625,2.8427734375,-1.8017578125
0.154,-1.0810546875,2.6826171875,-2.2421875
0.1545,-0.640625,2.5224609375,-2.6025390625
0.155,-0.16015625,2.2822265625,-2.9228515625
0.1555,0.560546875,1.921875,-3.283203125
0.156,1.4013671875,1.2412109375,-3.5634765625
0.1565,1.921875,0.7607421875,-3.68359375
0.157,2.2822265625,0.2802734375,-3.5634765625
0.1575,2.5224609375,-0.16015625,-3.4033203125
0.158,2.6826171875,-0.640625,-3.0830078125
0.1585,2.8828125,-1.1611328125,-2.7626953125
0.159,3.0029296875,-1.841796875,-2.08203125
0.1595,2.962890625,-2.162109375,-1.681640625
0.16,2.8427734375,-2.4423828125,-1.1611328125
0.1605,2.6826171875,-2.6025390625,-0.640625
0.161,2.40234375,-2.7626953125,0.0
0.1615,1.8017578125,-2.8427734375,0.640625
0.162,1.4013671875,-2.8427734375,1.28125
0.1625,0.880859375,-2.642578125,1.76171875
0.163,0.5205078125,-2.5224609375,2.08203125
0.1635,0.0,-2.2421875,2.4423828125
0.164,-0.640625,-1.9619140625,2.802734375
0.1645,-1.44140625,-1.28125,3.0029296875
0.165,-1.8818359375,-0.880859375,3.0830078125
0.1655,-2.2822265625,-0.3603515625,3.0029296875
0.166,-2.5224609375,0.080078125,2.8828125
0.1665,-2.7626953125,0.6005859375,2.6025390625
0.167,-2.962890625,1.12109375,2.2421875
0.1675,-3.1630859375,1.76171875,1.6416015625
0.168,-3.0830078125,2.162109375,1.12109375
0.1685,-2.9228515625,2.3623046875,0.6005859375
0.169,-2.7626953125,2.5625,0.1201171875
0.1695,-2.5625,2.7626953125,-0.6005859375
0.17,-1.8017578125,2.8427734375,-1.44140625
0.1705,-1.361328125,2.802734375,-1.9619140625
0.171,-0.8408203125,2.642578125,-2.5224609375
0.1715,-0.4404296875,2.4423828125,-2.802734375
0.172,0.2802734375,2.08203125,-3.1630859375
0.1725,0.9609375,1.6015625,-3.443359375
0.173,1.8017578125,1.0009765625,-3.763671875
0.1735,2.1220703125,0.560546875,-3.68359375
0.174,2.4423828125,0.080078125,-3.5634765625
0.1745,2.6826171875,-0.400390625,-3.283203125
0.175,2.8828125,-0.9609375,-3.0029296875
0.1755,3.04296875,-1.6416015625,-2.3623046875
0.176,3.123046875,-2.1220703125,-1.8818359375
0.1765,2.962890625,-2.482421875,-1.3212890625
0.177,2.7626953125,-2.6025390625,-0.8408203125
0.1775,2.482421875,-2.7626953125,-0.2802734375
0.178,2.08203125,-2.8828125,0.48046875
0.1785,1.44140625,-2.8828125,1.3212890625
0.179,1.0009765625,-2.72265625,1.681640625
0.1795,0.560546875,-2.6025390625,2.1220703125
0.18,0.1201171875,-2.322265625,2.40234375
0.1805,-0.560546875,-1.9619140625,2.72265625
0.181,-1.3212890625,-1.361328125,2.962890625
0.1815,-1.9619140625,-0.9208984375,3.1630859375
0.182,-2.2822265625,-0.4404296875,3.04296875
0.1825,-2.5224609375,0.0400390625,2.8828125
0.183,-2.72265625,0.48046875,2.6826171875
0.1835,-2.962890625,0.9609375,2.3623046875
0.184,-3.0830078125,1.681640625,1.6416015625
0.1845,-3.0830078125,2.001953125,1.2412109375
0.185,-2.962890625,2.3623046875,0.6806640625
0.1855,-2.8427734375,2.482421875,0.2001953125
0.186,-2.5224609375,2.6826171875,-0.4404296875
0.1865,-2.001953125,2.7626953125,-1.1611328125
0.187,-1.44140625,2.802734375,-1.8818359375
0.1875,-0.9609375,2.5625,-2.2822265625
0.188,-0.560546875,2.482421875,-2.6826171875
0.1885,0.0,2.162109375,-3.0830078125
0.189,0.6005859375,1.841796875,-3.36328125
0.1895,1.4814453125,1.201171875,-3.6435546875
0.19,1.9619140625,0.720703125,-3.68359375
0.1905,2.322265625,0.240234375,-3.603515625
0.191,2.5625,-0.240234375,-3.4033203125
0.1915,2.802734375,-0.720703125,-3.1630859375
0.192,3.0029296875,-1.3212890625,-2.72265625
0.1925,3.1630859375,-2.001953125,-2.1220703125
0.193,3.04296875,-2.322265625,-1.6015625
0.1935,2.8828125,-2.6025390625,-1.12109375
0.194,2.6826171875,-2.72265625,-0.560546875
0.1945,2.3623046875,-2.8828125,0.1201171875
0.195,1.76171875,-2.9228515625,1.0009765625
0.1955,1.2412109375,-2.8828125,1.5615234375
0.196,0.7607421875,-2.6826171875,2.001953125
0.1965,0.2802734375,-2.5625,2.3623046875
0.197,-0.3603515625,-2.162109375,2.6826171875
0.1975,-1.0810546875,-1.6416015625,2.962890625
0.198,-1.8818359375,-1.041015625,3.2431640625
0.1985,-2.2822265625,-0.5205078125,3.1630859375
0.199,-2.6025390625,-0.1201171875,3.0830078125
0.1995,-2.72265625,0.3603515625,2.802734375
0.2,-3.0029296875,0.9208984375,2.482421875
0.2005,-3.1630859375,1.5615234375,1.841796875
0.201,-3.203125,2.08203125,1.28125
0.2015,-3.0830078125,2.3623046875,0.6806640625
0.202,-2.8828125,2.5625,0.240234375
0.2025,-2.5625,2.72265625,-0.400390625
0.203,-2.08203125,2.802734375,-1.12109375
0.2035,-1.4814453125,2.8427734375,-1.9619140625
0.204,-0.9609375,2.6826171875,-2.40234375
0.2045,-0.5205078125,2.5224609375,-2.7626953125
0.205,0.0,2.2021484375,-3.04296875
0.2055,0.6005859375,1.8818359375,-3.36328125
0.206,1.44140625,1.201171875,-3.603515625
0.2065,2.0419921875,0.6806640625,-3.8037109375
0.207,2.3623046875,0.240234375,-3.603515625
0.2075,2.6025390625,-0.3203125,-3.4833984375
0.208,2.8427734375,-0.6806640625,-3.203125
0.2085,3.0029296875,-1.28125,-2.8427734375
0.209,3.1630859375,-1.9619140625,-2.2021484375
0.2095,3.123046875,-2.3623046875,-1.681640625
0.21,3.0029296875,-2.5625,-1.1611328125
0.2105,2.7626953125,-2.72265625,-0.640625
0.211,2.5224609375,-2.8828125,0.0
0.2115,1.921875,-2.8828125,0.80078125
0.212,1.4013671875,-3.0029296875,1.521484375
0.2125,0.880859375,-2.72265625,1.921875
0.213,0.4404296875,-2.6025390625,2.322265625
0.2135,-0.16015625,-2.2822265625,2.6025390625
0.214,-0.80078125,-1.921875,2.962890625
0.2145,-1.7216796875,-1.1611328125,3.2431640625
0.215,-2.2021484375,-0.6806640625,3.2431640625
0.2155,-2.5625,-0.2802734375,3.123046875
0.216,-2.7626953125,0.2802734375,2.9228515625
0.2165,-3.0029296875,0.7607421875,2.6826171875
0.217,-3.123046875,1.4013671875,2.0419921875
0.2175,-3.283203125,1.9619140625,1.521484375
0.218,-3.203125,2.4423828125,0.880859375
0.2185,-3.04296875,2.6025390625,0.400390625
0.219,-2.6826171875,2.7626953125,-0.240234375
0.2195,-2.40234375,2.9228515625,-0.8408203125
0.22,-1.6015625,2.9228515625,-1.841796875
0.2205,-1.1611328125,2.8427734375,-2.322265625
0.221,-0.6005859375,2.5625,-2.7626953125
0.2215,-0.16015625,2.40234375,-3.0830078125
0.222,0.5205078125,1.921875,-3.36328125
0.2225,1.28125,1.4013671875,-3.603515625
0.223,2.0419921875,0.8408203125,-3.84375
0.2235,2.4423828125,0.2802734375,-3.7236328125
0.224,2.6826171875,-0.16015625,-3.603515625
0.2245,2.8427734375,-0.6806640625,-3.283203125
0.225,3.04296875,-1.1611328125,-3.04296875
0.2255,3.123046875,-1.921875,-2.2421875
0.226,3.203125,-2.2822265625,-1.8017578125
0.2265,3.04296875,-2.6025390625,-1.1611328125
0.227,2.8828125,-2.7626953125,-0.720703125
0.2275,2.5224609375,-2.8427734375,0.0
0.228,2.0419921875,-2.9228515625,0.640625
0.2285,1.44140625,-3.0029296875,1.4814453125
0.229,0.880859375,-2.802734375,1.9619140625
