wavelength,x,y,z
0.0,9.9296875,-9.44921875,0.2802734375
0.0005,8.2080078125,-8.328125,1.5615234375
0.001,7.046875,-8.0478515625,3.123046875
0.0015,4.1240234375,-7.287109375,5.8857421875
0.002,2.0419921875,-6.166015625,7.4873046875
0.0025,-0.3203125,-5.685546875,9.76953125
0.003,-2.2822265625,-4.00390625,10.490234375
0.0035,-3.36328125,-2.72265625,10.5302734375
0.004,-5.845703125,-0.80078125,11.1708984375
0.0045,-8.16796875,1.44140625,10.970703125
0.005,-9.609375,3.123046875,10.41015625
0.0055,-11.53125,4.6044921875,10.3701171875
0.006,-11.4912109375,5.765625,8.4482421875
0.0065,-11.611328125,6.40625,7.3671875
0.007,-11.8515625,8.2880859375,4.7646484375
0.0075,-11.0908203125,8.6884765625,2.5625
0.008,-10.6904296875,9.2490234375,0.640625
0.0085,-9.76953125,9.44921875,-1.5615234375
0.009,-7.6474609375,8.2080078125,-3.203125
0.0095,-6.1259765625,7.767578125,-5.0048828125
0.01,-3.2431640625,7.046875,-7.7275390625
0.0105,-1.1611328125,5.765625,-8.96875
0.011,0.9609375,5.1650390625,-11.05078125
0.0115,3.123046875,3.36328125,-11.6513671875
0.012,4.5244140625,1.76171875,-11.5712890625
0.0125,7.1669921875,-0.400390625,-12.091796875
0.013,9.3291015625,-2.5625,-11.771484375
0.0135,10.4501953125,-4.1640625,-10.7705078125
0.014,12.1318359375,-5.28515625,-10.7705078125
0.0145,11.9716796875,-6.646484375,-8.48828125
0.015,11.8115234375,-7.2470703125,-7.0068359375
0.0155,12.01171875,-8.96875,-4.484375
0.016,10.9306640625,-9.2490234375,-2.2021484375
0.0165,10.3701171875,-9.4892578125,-0.400390625
0.017,9.3291015625,-9.609375,1.76171875
0.0175,6.806640625,-8.2080078125,3.5234375
0.018,5.044921875,-7.607421875,5.4052734375
0.0185,2.3623046875,-6.88671875,8.0478515625
0.019,0.240234375,-5.3251953125,9.0888671875
0.0195,-1.6416015625,-4.8046875,10.8505859375
0.02,-3.84375,-2.8828125,11.37109375
0.0205,-5.4453125,-1.0009765625,11.1708984375
0.021,-8.0478515625,1.12109375,11.5712890625
0.0215,-10.0498046875,3.1630859375,11.05078125
0.022,-10.8505859375,4.5244140625,9.9296875
0.0225,-12.251953125,5.4453125,9.8896484375
0.023,-11.9716796875,6.8466796875,7.447265625
0.0235,-11.69140625,7.607421875,5.60546875
0.024,-11.931640625,9.0888671875,3.283203125
0.0245,-10.650390625,9.12890625,0.9609375
0.025,-10.08984375,9.1689453125,-0.640625
0.0255,-8.8486328125,9.0888671875,-2.72265625
0.026,-6.2060546875,7.8076171875,-4.64453125
0.0265,-4.2841796875,7.20703125,-6.6064453125
0.027,-1.7216796875,6.56640625,-9.12890625
0.0275,0.400390625,4.8447265625,-9.9296875
0.028,1.9619140625,4.404296875,-11.4912109375
0.0285,4.244140625,2.2822265625,-11.8916015625
0.029,6.0458984375,0.2802734375,-11.611328125
0.0295,8.6884765625,-1.8017578125,-12.0517578125
0.03,10.41015625,-3.84375,-11.2509765625
0.0305,11.0107421875,-4.96484375,-10.2099609375
0.031,12.171875,-5.765625,-10.009765625
0.0315,11.8115234375,-7.20703125,-7.3271484375
0.032,11.4912109375,-8.0478515625,-5.3251953125
0.0325,11.7314453125,-9.5693359375,-3.0830078125
0.033,10.169921875,-9.2890625,-0.80078125
0.0335,9.6494140625,-9.1689453125,0.560546875
0.034,8.1279296875,-8.8486328125,2.642578125
0.0345,5.365234375,-7.52734375,4.64453125
0.035,3.4833984375,-6.9267578125,6.6064453125
0.0355,0.9609375,-6.2060546875,8.96875
0.036,-1.041015625,-4.484375,9.5693359375
0.0365,-2.4423828125,-4.00390625,10.890625
0.037,-4.7646484375,-1.8017578125,11.130859375
0.0375,-6.6064453125,0.3203125,10.8505859375
0.038,-9.208984375,2.2421875,11.2109375
0.0385,-10.5703125,4.1240234375,10.2099609375
0.039,-10.970703125,4.884765625,9.2890625
0.0395,-11.8916015625,5.685546875,8.8486328125
0.04,-11.4912109375,7.1669921875,6.1259765625
0.0405,-11.2109375,8.0078125,4.083984375
0.041,-11.37109375,9.3291015625,1.8818359375
0.0415,-9.6494140625,8.80859375,-0.3603515625
0.042,-9.2890625,8.6884765625,-1.361328125
0.0425,-7.4072265625,8.2080078125,-3.4833984375
0.043,-4.8046875,7.046875,-5.4853515625
0.0435,-2.8828125,6.56640625,-7.5673828125
0.044,-0.4404296875,5.6455078125,-9.6494140625
0.0445,1.3212890625,4.083984375,-10.0498046875
0.045,2.5224609375,3.5234375,-11.2109375
0.0455,4.884765625,1.2412109375,-11.291015625
0.046,6.7666015625,-0.80078125,-11.05078125
0.0465,9.4091796875,-2.7626953125,-11.37109375
0.047,10.41015625,-4.484375,-10.169921875
0.0475,10.810546875,-4.9248046875,-9.5693359375
0.048,11.4111328125,-5.845703125,-8.6484375
0.0485,11.0107421875,-7.3271484375,-6.005859375
0.049,10.810546875,-8.2080078125,-4.0439453125
0.0495,10.810546875,-9.369140625,-1.8818359375
0.05,9.12890625,-8.6083984375,0.0400390625
0.0505,8.80859375,-8.408203125,1.0009765625
0.051,6.646484375,-7.767578125,3.1630859375
0.0515,4.1640625,-6.7265625,5.125
0.052,2.2421875,-6.40625,7.3271484375
0.0525,-0.1201171875,-5.28515625,9.0087890625
0.053,-1.5615234375,-3.923828125,9.4091796875
0.0535,-2.8828125,-3.1630859375,10.2900390625
0.054,-5.205078125,-0.8408203125,10.3701171875
0.0545,-7.0869140625,1.0810546875,10.2099609375
0.055,-9.609375,2.962890625,10.4501953125
0.0555,-10.25,4.3642578125,9.208984375
0.056,-10.650390625,4.6845703125,8.7685546875
0.0565,-11.05078125,5.845703125,7.3671875
0.057,-10.73046875,7.126953125,4.96484375
0.0575,-10.6103515625,8.087890625,2.9228515625
0.058,-10.41015625,9.0087890625,0.80078125
0.0585,-8.80859375,8.248046875,-0.80078125
0.059,-8.3681640625,7.9677734375,-1.8017578125
0.0595,-5.9658203125,7.3671875,-4.1640625
0.06,-3.7236328125,6.40625,-6.0458984375
0.0605,-1.6015625,6.0859375,-8.3681640625
0.061,0.640625,4.8046875,-9.7294921875
0.0615,1.76171875,3.6435546875,-10.009765625
0.062,3.2431640625,2.5625,-10.73046875
0.0625,5.7255859375,0.240234375,-10.8505859375
0.063,7.5673828125,-1.6015625,-10.6103515625
0.0635,9.9296875,-3.4033203125,-10.7705078125
0.064,10.2900390625,-4.6845703125,-9.4091796875
0.0645,10.6103515625,-5.0849609375,-8.9287109375
0.065,10.970703125,-6.6064453125,-7.0869140625
0.0655,10.650390625,-7.607421875,-4.8447265625
0.066,10.4501953125,-8.48828125,-2.8427734375
0.0665,10.009765625,-9.0888671875,-0.720703125
0.067,8.3681640625,-8.1279296875,0.720703125
0.0675,7.6875,-7.767578125,1.8017578125
0.068,5.044921875,-7.1669921875,4.4443359375
0.0685,3.0029296875,-6.2861328125,6.0859375
0.069,0.80078125,-5.8056640625,8.3681640625
0.0695,-1.28125,-4.484375,9.44921875
0.07,-2.2822265625,-3.283203125,9.609375
0.0705,-4.1240234375,-1.8818359375,10.2099609375
0.071,-6.56640625,0.4404296875,10.2900390625
0.0715,-8.1279296875,2.0419921875,9.9697265625
0.072,-10.25,3.6435546875,10.0498046875
0.0725,-10.490234375,4.8046875,8.6083984375
0.073,-10.73046875,5.205078125,7.8076171875
0.0735,-11.0107421875,6.966796875,5.60546875
0.074,-10.6103515625,7.7275390625,3.603515625
0.0745,-10.330078125,8.4482421875,1.681640625
0.075,-9.76953125,8.96875,-0.3603515625
0.0755,-8.0078125,7.8876953125,-1.841796875
0.076,-6.9267578125,7.52734375,-3.203125
0.0765,-4.2841796875,6.966796875,-5.92578125
0.077,-2.322265625,6.005859375,-7.4072265625
0.0775,-0.2802734375,5.4853515625,-9.529296875
0.078,1.8017578125,4.0439453125,-10.41015625
0.0785,2.962890625,2.6826171875,-10.490234375
0.079,5.2451171875,0.9208984375,-11.05078125
0.0795,7.5673828125,-1.28125,-11.0908203125
0.08,8.9287109375,-2.8828125,-10.41015625
0.0805,10.73046875,-4.244140625,-10.5302734375
0.081,10.890625,-5.60546875,-8.80859375
0.0815,10.970703125,-6.1259765625,-7.6474609375
0.082,11.2109375,-7.767578125,-5.28515625
0.0825,10.650390625,-8.3681640625,-3.283203125
0.083,10.169921875,-8.728515625,-1.4814453125
0.0835,9.529296875,-9.048828125,0.5205078125
0.084,7.3671875,-7.927734375,2.2021484375
0.0845,5.92578125,-7.447265625,3.84375
0.085,3.3232421875,-6.9267578125,6.4462890625
0.0855,1.361328125,-5.7255859375,7.7275390625
0.086,-0.640625,-5.1650390625,9.609375
0.0865,-2.642578125,-3.5634765625,10.3701171875
0.087,-4.083984375,-1.921875,10.2900390625
0.0875,-6.5263671875,0.080078125,10.7705078125
0.088,-8.6884765625,2.0419921875,10.6904296875
0.0885,-9.689453125,3.5234375,9.7294921875
0.089,-11.2509765625,4.484375,9.849609375
0.0895,-11.2509765625,5.8857421875,7.767578125
0.09,-11.1708984375,6.646484375,6.2861328125
0.0905,-11.4111328125,8.248046875,3.9638671875
0.091,-10.6103515625,8.6484375,1.841796875
0.0915,-9.9697265625,8.6884765625,0.240234375
0.092,-9.1689453125,8.888671875,-1.7216796875
0.0925,-6.6865234375,7.6875,-3.68359375
0.093,-5.0048828125,7.1669921875,-5.4453125
0.0935,-2.5625,6.646484375,-7.9677734375
0.094,-0.5205078125,5.1650390625,-9.0087890625
0.0945,1.201171875,4.64453125,-10.5703125
0.095,3.283203125,2.9228515625,-11.2509765625
0.0955,4.96484375,1.12109375,-11.0908203125
0.096,7.447265625,-1.0009765625,-11.4912109375
0.0965,9.44921875,-3.0029296875,-11.1708984375
0.097,10.2099609375,-4.3642578125,-9.9697265625
0.0975,11.53125,-5.125,-10.1298828125
0.098,11.37109375,-6.5263671875,-7.7275390625
0.0985,11.130859375,-7.3271484375,-5.92578125
0.099,11.37109375,-8.7685546875,-3.7236328125
0.0995,10.2900390625,-8.9287109375,-1.5615234375
0.1,9.609375,-8.80859375,-0.16015625
0.1005,8.568359375,-8.728515625,1.8017578125
0.101,5.92578125,-7.4873046875,3.763671875
0.1015,4.1240234375,-6.9267578125,5.60546875
0.102,1.76171875,-6.40625,8.0478515625
0.1025,-0.3203125,-4.8046875,8.888671875
0.103,-1.76171875,-4.32421875,10.25
0.1035,-3.923828125,-2.3623046875,10.650390625
0.104,-5.685546875,-0.400390625,10.4501953125
0.1045,-8.16796875,1.521484375,10.8505859375
0.105,-9.8896484375,3.3232421875,10.2099609375
0.1055,-10.41015625,4.4443359375,9.208984375
0.106,-11.4912109375,5.0849609375,9.12890625
0.1065,-11.2509765625,6.6064453125,6.6064453125
0.107,-10.9306640625,7.52734375,4.64453125
0.1075,-11.2509765625,8.888671875,2.5224609375
0.108,-9.8896484375,8.728515625,0.4404296875
0.1085,-9.369140625,8.568359375,-0.80078125
0.109,-8.0078125,8.2880859375,-2.72265625
0.1095,-5.3251953125,7.0869140625,-4.8046875
0.11,-3.5234375,6.646484375,-6.7265625
0.1105,-1.1611328125,6.0458984375,-9.0087890625
0.111,0.80078125,4.3642578125,-9.6494140625
0.1115,2.001953125,3.923828125,-10.890625
0.112,4.2841796875,1.841796875,-11.1708984375
0.1125,6.166015625,-0.3203125,-10.9306640625
0.113,8.7685546875,-2.2822265625,-11.3310546875
0.1135,10.2099609375,-4.0439453125,-10.5302734375
0.114,10.5302734375,-4.7646484375,-9.609375
0.1145,11.451171875,-5.4853515625,-9.1689453125
0.115,11.130859375,-7.046875,-6.5263671875
0.1155,10.8505859375,-7.927734375,-4.5244140625
0.116,11.0908203125,-9.2890625,-2.3623046875
0.1165,9.4892578125,-8.8486328125,-0.3203125
0.117,9.0087890625,-8.5283203125,0.7607421875
0.1175,7.287109375,-8.087890625,2.802734375
0.118,4.6044921875,-7.0068359375,4.9248046875
0.1185,2.6826171875,-6.5263671875,6.966796875
0.119,0.3203125,-5.765625,9.0888671875
0.1195,-1.44140625,-4.083984375,9.4892578125
0.12,-2.5625,-3.5634765625,10.5302734375
0.1205,-5.044921875,-1.3212890625,10.6904296875
0.121,-6.9267578125,0.720703125,10.490234375
0.1215,-9.5693359375,2.6826171875,10.73046875
0.122,-10.6904296875,4.3642578125,9.76953125
0.1225,-10.890625,4.9248046875,8.9287109375
0.123,-11.53125,5.7255859375,8.1279296875
0.1235,-11.2509765625,7.4072265625,5.3251953125
0.124,-10.9306640625,8.2080078125,3.3232421875
0.1245,-11.0107421875,9.4892578125,1.041015625
0.125,-9.2890625,8.8486328125,-1.0009765625
0.1255,-8.728515625,8.3681640625,-1.8818359375
0.126,-6.6865234375,7.8876953125,-4.1640625
0.1265,-4.00390625,6.8466796875,-6.326171875
0.127,-1.8017578125,6.2861328125,-8.568359375
0.1275,0.6005859375,5.365234375,-10.4501953125
0.128,2.08203125,3.68359375,-10.6103515625
0.1285,3.203125,2.9228515625,-11.4111328125
0.129,6.0859375,0.3603515625,-11.69140625
0.1295,7.8076171875,-1.6015625,-11.291015625
0.13,10.3701171875,-3.5634765625,-11.37109375
0.1305,11.37109375,-5.0849609375,-10.25
0.131,11.3310546875,-5.5654296875,-9.1689453125
0.1315,11.8515625,-6.7265625,-7.84765625
0.132,11.53125,-8.2880859375,-5.0048828125
0.1325,11.0107421875,-8.8486328125,-3.04296875
0.133,10.8505859375,-9.9296875,-0.720703125
0.1335,9.0087890625,-9.0087890625,1.201171875
0.134,8.1279296875,-8.3681640625,2.162109375
0.1345,5.685546875,-7.8076171875,4.8046875
0.135,3.1630859375,-6.7265625,6.7265625
0.1355,0.80078125,-6.0458984375,8.9287109375
0.136,-1.521484375,-4.96484375,10.5703125
0.1365,-2.9228515625,-3.2431640625,10.5302734375
0.137,-4.32421875,-2.2421875,11.05078125
0.1375,-7.3671875,0.48046875,11.3310546875
0.138,-8.7685546875,2.2822265625,10.7705078125
0.1385,-10.970703125,4.00390625,10.73046875
0.139,-11.7314453125,5.4052734375,9.5693359375
0.1395,-11.5712890625,6.0458984375,8.1279296875
0.14,-11.931640625,7.287109375,6.4462890625
0.1405,-11.611328125,8.6484375,3.763671875
0.141,-10.890625,8.9287109375,1.841796875
0.1415,-10.650390625,9.76953125,-0.400390625
0.142,-8.6484375,8.80859375,-2.322265625
0.1425,-7.4072265625,8.0078125,-3.5234375
0.143,-4.8046875,7.5673828125,-6.2861328125
0.1435,-2.4423828125,6.40625,-8.0078125
0.144,-0.3203125,5.60546875,-9.8896484375
0.1445,1.921875,4.4443359375,-11.4111328125
0.145,3.443359375,2.6025390625,-11.291015625
0.1455,5.0849609375,1.201171875,-11.7314453125
0.146,8.087890625,-1.3212890625,-11.9716796875
0.1465,9.2890625,-3.04296875,-11.05078125
0.147,11.1708984375,-4.484375,-11.05078125
0.1475,11.8115234375,-5.765625,-9.6494140625
0.148,11.53125,-6.486328125,-8.0078125
0.1485,11.771484375,-7.84765625,-6.0859375
0.149,11.4111328125,-8.96875,-3.5634765625
0.1495,10.490234375,-8.96875,-1.76171875
0.15,10.2099609375,-9.6494140625,0.2802734375
0.1505,8.0078125,-8.6083984375,2.2421875
0.151,6.56640625,-7.767578125,3.5234375
0.1515,3.9638671875,-7.3271484375,6.326171875
0.152,1.76171875,-6.1259765625,7.84765625
0.1525,-0.2802734375,-5.3251953125,9.4892578125
0.153,-2.322265625,-4.1640625,10.810546875
0.1535,-3.9638671875,-2.2421875,10.6103515625
0.154,-5.8056640625,-0.6005859375,10.9306640625
0.1545,-8.6083984375,1.7216796875,11.2109375
0.155,-9.5693359375,3.36328125,10.08984375
0.1555,-11.2509765625,4.484375,10.169921875
0.156,-11.6513671875,5.8056640625,8.6484375
0.1565,-11.37109375,6.56640625,6.88671875
0.157,-11.53125,7.9677734375,4.8046875
0.1575,-11.1708984375,8.8486328125,2.482421875
0.158,-10.1298828125,8.6884765625,0.720703125
0.1585,-9.8896484375,9.2490234375,-1.0810546875
0.159,-7.4072265625,8.16796875,-3.203125
0.1595,-5.765625,7.3671875,-4.6845703125
0.16,-3.36328125,7.0068359375,-7.3671875
0.1605,-1.1611328125,5.685546875,-8.728515625
0.161,0.6005859375,4.8447265625,-10.169921875
0.1615,2.6025390625,3.6435546875,-11.37109375
0.162,4.4443359375,1.6015625,-11.1708984375
0.1625,6.5263671875,-0.240234375,-11.4111328125
0.163,9.12890625,-2.322265625,-11.5712890625
0.1635,9.8896484375,-3.9638671875,-10.2900390625
0.164,11.3310546875,-4.7646484375,-10.41015625
0.1645,11.5712890625,-6.1259765625,-8.6083984375
0.165,11.2109375,-7.046875,-6.6064453125
0.1655,11.4111328125,-8.3681640625,-4.564453125
0.166,10.8505859375,-9.0888671875,-2.2822265625
0.1665,9.689453125,-8.728515625,-0.6005859375
0.167,9.369140625,-9.0888671875,1.0810546875
0.1675,6.646484375,-7.9677734375,3.3232421875
0.168,4.884765625,-7.1669921875,4.9248046875
0.1685,2.5224609375,-6.88671875,7.5673828125
0.169,0.2802734375,-5.365234375,8.6884765625
0.1695,-1.28125,-4.64453125,9.9296875
0.17,-3.2431640625,-3.203125,10.8505859375
0.1705,-5.1650390625,-1.0009765625,10.6103515625
0.171,-7.4072265625,0.9208984375,10.8505859375
0.1715,-9.76953125,2.8828125,10.810546875
0.172,-10.25,4.32421875,9.4091796875
0.1725,-11.4111328125,4.8046875,9.5693359375
0.173,-11.4912109375,6.326171875,7.447265625
0.1735,-11.0908203125,7.287109375,5.28515625
0.174,-11.3310546875,8.6083984375,3.203125
0.1745,-10.490234375,9.0087890625,0.9208984375
0.175,-9.369140625,8.568359375,-0.6005859375
0.1755,-8.8486328125,8.6484375,-2.08203125
0.176,-5.9658203125,7.52734375,-4.404296875
0.1765,-4.083984375,6.7666015625,-6.1259765625
0.177,-1.8017578125,6.40625,-8.728515625
0.1775,0.400390625,4.6845703125,-9.609375
0.178,1.6416015625,4.1240234375,-10.6103515625
0.1785,3.68359375,2.5224609375,-11.291015625
0.179,5.685546875,0.3603515625,-11.05078125
0.1795,7.9677734375,-1.6416015625,-11.2509765625
0.18,10.0498046875,-3.5634765625,-10.9306640625
0.1805,10.2900390625,-4.6845703125,-9.5693359375
0.181,11.3310546875,-5.125,-9.6494140625
0.1815,11.2109375,-6.6865234375,-7.2470703125
0.182,10.810546875,-7.5673828125,-5.125
0.1825,11.0107421875,-8.9287109375,-3.04296875
0.183,9.9296875,-8.96875,-0.9208984375
0.1835,8.96875,-8.408203125,0.3203125
0.184,8.0478515625,-8.2880859375,1.9619140625
0.1845,5.2451171875,-7.1669921875,4.1640625
0.185,3.4033203125,-6.5263671875,5.92578125
0.1855,1.12109375,-6.1259765625,8.328125
0.186,-0.8408203125,-4.3642578125,8.9287109375
0.1865,-1.9619140625,-3.8837890625,9.9296875
0.187,-4.00390625,-2.001953125,10.330078125
0.1875,-5.92578125,0.0400390625,10.1298828125
0.188,-8.2880859375,1.921875,10.41015625
0.1885,-9.9697265625,3.6435546875,9.8896484375
0.189,-10.1298828125,4.4443359375,8.80859375
0.1895,-10.9306640625,5.0048828125,8.6083984375
0.19,-10.810546875,6.5263671875,6.0859375
0.1905,-10.5302734375,7.4072265625,4.1240234375
0.191,-10.7705078125,8.7685546875,2.001953125
0.1915,-9.4091796875,8.5283203125,0.0400390625
0.192,-8.7685546875,8.0478515625,-1.0009765625
0.1925,-7.4072265625,7.7275390625,-2.7626953125
0.193,-4.8046875,6.6865234375,-4.9248046875
0.1935,-2.8828125,6.2060546875,-6.9267578125
0.194,-0.640625,5.685546875,-9.048828125
0.1945,1.0810546875,4.083984375,-9.4892578125
0.195,2.0419921875,3.5634765625,-10.41015625
0.1955,4.3642578125,1.4814453125,-10.73046875
0.196,6.24609375,-0.5205078125,-10.5703125
0.1965,8.6884765625,-2.4423828125,-10.7705078125
0.197,10.0498046875,-4.00390625,-10.0498046875
0.1975,10.169921875,-4.6044921875,-9.12890625
0.198,10.810546875,-5.3251953125,-8.48828125
0.1985,10.650390625,-7.0068359375,-5.92578125
0.199,10.3701171875,-7.767578125,-4.00390625
0.1995,10.490234375,-9.0087890625,-1.841796875
0.2,9.0087890625,-8.5283203125,0.0
0.2005,8.3681640625,-8.0478515625,0.9208984375
0.201,6.646484375,-7.6474609375,2.8828125
0.2015,4.083984375,-6.6865234375,5.044921875
0.202,2.0419921875,-6.166015625,7.0869140625
0.2025,-0.2001953125,-5.365234375,9.0087890625
0.203,-1.6416015625,-3.8037109375,9.2490234375
0.2035,-2.6826171875,-3.0830078125,9.9296875
0.204,-5.28515625,-0.80078125,10.25
0.2045,-7.046875,1.0009765625,10.0498046875
0.205,-9.3291015625,2.8828125,10.169921875
0.2055,-10.41015625,4.32421875,9.2890625
0.206,-10.41015625,4.8447265625,8.2880859375
0.2065,-10.9306640625,5.765625,7.20703125
0.207,-10.810546875,7.4072265625,4.6044921875
0.2075,-10.41015625,7.9677734375,2.8427734375
0.208,-10.330078125,9.048828125,0.640625
0.2085,-8.80859375,8.2880859375,-1.1611328125
0.209,-7.84765625,7.6875,-2.1220703125
0.2095,-5.765625,7.3271484375,-4.5244140625
0.21,-3.4033203125,6.4462890625,-6.4462890625
0.2105,-1.3212890625,5.8056640625,-8.48828125
0.211,0.880859375,4.9248046875,-10.2099609375
0.2115,2.2421875,3.3232421875,-10.25
0.212,3.5234375,2.2822265625,-10.7705078125
0.2125,6.40625,-0.16015625,-11.130859375
0.213,7.8876953125,-1.921875,-10.650390625
0.2135,9.9296875,-3.5634765625,-10.650390625
0.214,10.8505859375,-4.884765625,-9.6494140625
0.2145,10.73046875,-5.525390625,-8.328125
0.215,11.130859375,-6.7265625,-6.806640625
0.2155,10.9306640625,-8.0478515625,-4.3642578125
0.216,10.2900390625,-8.3681640625,-2.6025390625
0.2165,10.1298828125,-9.2890625,-0.5205078125
0.217,8.2880859375,-8.4482421875,1.28125
0.2175,7.126953125,-7.7275390625,2.40234375
0.218,4.7646484375,-7.2470703125,5.0048828125
0.2185,2.5224609375,-6.2861328125,6.7666015625
0.219,0.560546875,-5.525390625,8.5283203125
0.2195,-1.5615234375,-4.5244140625,10.0498046875
0.22,-3.0029296875,-2.8427734375,9.9697265625
0.2205,-4.6044921875,-1.44140625,10.41015625
0.221,-7.4072265625,0.880859375,10.73046875
0.2215,-8.6884765625,2.5224609375,10.009765625
0.222,-10.4501953125,3.8837890625,10.009765625
0.2225,-11.1708984375,5.1650390625,8.888671875
0.223,-10.9306640625,5.92578125,7.2470703125
0.2235,-11.2109375,7.20703125,5.4052734375
0.224,-10.970703125,8.328125,3.123046875
0.2245,-10.169921875,8.328125,1.3212890625
