wavelength,x,y,z
0.0,0.74072265625,-2.70263671875,2.10205078125
0.0005,0.34033203125,-2.50244140625,2.46240234375
0.001,-0.34033203125,-2.14208984375,2.78271484375
0.0015,-1.10107421875,-1.74169921875,3.10302734375
0.002,-1.86181640625,-1.02099609375,3.26318359375
0.0025,-2.30224609375,-0.38037109375,3.18310546875
0.003,-2.54248046875,0.02001953125,3.06298828125
0.0035,-2.70263671875,0.38037109375,2.86279296875
0.004,-2.94287109375,0.90087890625,2.54248046875
0.0045,-3.06298828125,1.58154296875,1.86181640625
0.005,-3.14306640625,2.06201171875,1.30126953125
0.0055,-3.02294921875,2.34228515625,0.82080078125
0.006,-2.86279296875,2.54248046875,0.30029296875
0.0065,-2.62255859375,2.70263671875,-0.18017578125
0.007,-2.26220703125,2.86279296875,-0.90087890625
0.0075,-1.62158203125,2.86279296875,-1.66162109375
0.008,-1.02099609375,2.74267578125,-2.26220703125
0.0085,-0.66064453125,2.54248046875,-2.58251953125
0.009,-0.30029296875,2.30224609375,-2.90283203125
0.0095,0.38037109375,2.06201171875,-3.34326171875
0.01,1.22119140625,1.46142578125,-3.58349609375
0.0105,1.90185546875,0.94091796875,-3.78369140625
0.011,2.26220703125,0.46044921875,-3.66357421875
0.0115,2.58251953125,0.02001953125,-3.62353515625
0.012,2.78271484375,-0.50048828125,-3.38330078125
0.0125,3.10302734375,-1.10107421875,-3.14306640625
0.013,3.14306640625,-1.74169921875,-2.42236328125
0.0135,3.18310546875,-2.26220703125,-1.78173828125
0.014,3.10302734375,-2.50244140625,-1.30126953125
0.0145,2.90283203125,-2.74267578125,-0.74072265625
0.015,2.62255859375,-2.94287109375,-0.18017578125
0.0155,2.10205078125,-3.06298828125,0.70068359375
0.016,1.54150390625,-3.06298828125,1.46142578125
0.0165,0.98095703125,-2.90283203125,1.94189453125
0.017,0.54052734375,-2.82275390625,2.34228515625
0.0175,0.02001953125,-2.46240234375,2.62255859375
0.018,-0.66064453125,-2.10205078125,3.10302734375
0.0185,-1.58154296875,-1.26123046875,3.26318359375
0.019,-2.18212890625,-0.70068359375,3.30322265625
0.0195,-2.42236328125,-0.26025390625,3.18310546875
0.02,-2.74267578125,0.22021484375,3.02294921875
0.0205,-2.86279296875,0.74072265625,2.70263671875
0.021,-3.14306640625,1.34130859375,2.18212890625
0.0215,-3.18310546875,1.94189453125,1.58154296875
0.022,-3.14306640625,2.38232421875,0.98095703125
0.0225,-2.90283203125,2.54248046875,0.54052734375
0.023,-2.70263671875,2.70263671875,0.02001953125
0.0235,-2.42236328125,2.86279296875,-0.62060546875
0.024,-1.66162109375,2.90283203125,-1.58154296875
0.0245,-1.22119140625,2.78271484375,-2.18212890625
0.025,-0.70068359375,2.54248046875,-2.54248046875
0.0255,-0.34033203125,2.42236328125,-2.90283203125
0.026,0.26025390625,2.10205078125,-3.18310546875
0.0265,0.94091796875,1.74169921875,-3.54345703125
0.027,1.66162109375,1.10107421875,-3.70361328125
0.0275,2.22216796875,0.50048828125,-3.70361328125
0.028,2.50244140625,0.14013671875,-3.58349609375
0.0285,2.70263671875,-0.34033203125,-3.38330078125
0.029,2.94287109375,-0.86083984375,-3.18310546875
0.0295,3.10302734375,-1.58154296875,-2.50244140625
0.03,3.18310546875,-2.06201171875,-2.02197265625
0.0305,3.06298828125,-2.42236328125,-1.42138671875
0.031,2.98291015625,-2.62255859375,-0.98095703125
0.0315,2.70263671875,-2.78271484375,-0.38037109375
0.032,2.38232421875,-3.02294921875,0.30029296875
0.0325,1.70166015625,-3.06298828125,1.18115234375
0.033,1.10107421875,-2.90283203125,1.78173828125
0.0335,0.70068359375,-2.74267578125,2.10205078125
0.034,0.26025390625,-2.54248046875,2.50244140625
0.0345,-0.34033203125,-2.22216796875,2.86279296875
0.035,-1.22119140625,-1.54150390625,3.06298828125
0.0355,-1.78173828125,-1.06103515625,3.26318359375
0.036,-2.30224609375,-0.50048828125,3.18310546875
0.0365,-2.54248046875,0.02001953125,3.14306640625
0.037,-2.74267578125,0.42041015625,2.82275390625
0.0375,-3.06298828125,0.94091796875,2.58251953125
0.038,-3.14306640625,1.66162109375,1.86181640625
0.0385,-3.14306640625,2.14208984375,1.30126953125
0.039,-2.98291015625,2.34228515625,0.78076171875
0.0395,-2.90283203125,2.58251953125,0.30029296875
0.04,-2.58251953125,2.74267578125,-0.34033203125
0.0405,-2.06201171875,2.82275390625,-1.22119140625
0.041,-1.54150390625,2.86279296875,-1.78173828125
0.0415,-0.98095703125,2.62255859375,-2.38232421875
0.042,-0.58056640625,2.54248046875,-2.66259765625
0.0425,0.02001953125,2.30224609375,-3.02294921875
0.043,0.58056640625,2.06201171875,-3.46337890625
0.0435,1.42138671875,1.22119140625,-3.58349609375
0.044,1.98193359375,0.78076171875,-3.70361328125
0.0445,2.34228515625,0.34033203125,-3.54345703125
0.045,2.58251953125,-0.14013671875,-3.54345703125
0.0455,2.82275390625,-0.62060546875,-3.18310546875
0.046,3.06298828125,-1.26123046875,-2.78271484375
0.0465,3.14306640625,-1.82177734375,-2.22216796875
0.047,3.06298828125,-2.26220703125,-1.58154296875
0.0475,2.94287109375,-2.42236328125,-1.14111328125
0.048,2.78271484375,-2.62255859375,-0.58056640625
0.0485,2.54248046875,-2.94287109375,0.02001953125
0.049,1.82177734375,-2.90283203125,0.98095703125
0.0495,1.34130859375,-2.94287109375,1.50146484375
0.05,0.78076171875,-2.70263671875,1.98193359375
0.0505,0.46044921875,-2.54248046875,2.30224609375
0.051,-0.14013671875,-2.26220703125,2.62255859375
0.0515,-0.86083984375,-1.90185546875,3.06298828125
0.052,-1.70166015625,-1.22119140625,3.26318359375
0.0525,-2.14208984375,-0.62060546875,3.18310546875
0.053,-2.42236328125,-0.26025390625,3.06298828125
0.0535,-2.70263671875,0.30029296875,2.94287109375
0.054,-2.90283203125,0.78076171875,2.70263671875
0.0545,-3.06298828125,1.54150390625,1.98193359375
0.055,-3.18310546875,1.94189453125,1.54150390625
0.0555,-3.14306640625,2.38232421875,0.98095703125
0.056,-2.90283203125,2.50244140625,0.46044921875
0.0565,-2.62255859375,2.70263671875,-0.26025390625
0.057,-2.30224609375,2.94287109375,-0.90087890625
0.0575,-1.62158203125,2.90283203125,-1.74169921875
0.058,-1.10107421875,2.78271484375,-2.26220703125
0.0585,-0.62060546875,2.58251953125,-2.66259765625
0.059,-0.26025390625,2.42236328125,-2.98291015625
0.0595,0.46044921875,2.06201171875,-3.30322265625
0.06,1.30126953125,1.42138671875,-3.70361328125
0.0605,1.94189453125,0.90087890625,-3.82373046875
0.061,2.30224609375,0.34033203125,-3.66357421875
0.0615,2.54248046875,0.02001953125,-3.54345703125
0.062,2.78271484375,-0.58056640625,-3.30322265625
0.0625,3.06298828125,-1.02099609375,-3.02294921875
0.063,3.10302734375,-1.78173828125,-2.26220703125
0.0635,3.14306640625,-2.18212890625,-1.78173828125
0.064,2.94287109375,-2.50244140625,-1.18115234375
0.0645,2.86279296875,-2.66259765625,-0.74072265625
0.065,2.50244140625,-2.82275390625,-0.14013671875
0.0655,2.06201171875,-2.94287109375,0.70068359375
0.066,1.50146484375,-2.94287109375,1.38134765625
0.0665,0.94091796875,-2.78271484375,1.86181640625
0.067,0.58056640625,-2.58251953125,2.22216796875
0.0675,0.14013671875,-2.42236328125,2.54248046875
0.068,-0.58056640625,-2.14208984375,2.94287109375
0.0685,-1.42138671875,-1.34130859375,3.10302734375
0.069,-1.98193359375,-0.82080078125,3.18310546875
0.0695,-2.34228515625,-0.34033203125,3.14306640625
0.07,-2.58251953125,0.06005859375,2.98291015625
0.0705,-2.78271484375,0.62060546875,2.70263671875
0.071,-3.06298828125,1.22119140625,2.30224609375
0.0715,-3.18310546875,1.90185546875,1.74169921875
0.072,-3.06298828125,2.22216796875,1.10107421875
0.0725,-2.94287109375,2.50244140625,0.62060546875
0.073,-2.86279296875,2.70263671875,0.14013671875
0.0735,-2.54248046875,2.86279296875,-0.58056640625
0.074,-1.90185546875,2.94287109375,-1.46142578125
0.0745,-1.26123046875,2.90283203125,-2.10205078125
0.075,-0.82080078125,2.74267578125,-2.50244140625
0.0755,-0.38037109375,2.46240234375,-2.86279296875
0.076,0.22021484375,2.26220703125,-3.18310546875
0.0765,0.94091796875,1.78173828125,-3.66357421875
0.077,1.74169921875,1.14111328125,-3.74365234375
0.0775,2.18212890625,0.54052734375,-3.70361328125
0.078,2.50244140625,0.10009765625,-3.58349609375
0.0785,2.70263671875,-0.34033203125,-3.46337890625
0.079,2.90283203125,-0.90087890625,-3.06298828125
0.0795,3.06298828125,-1.58154296875,-2.50244140625
0.08,3.18310546875,-2.06201171875,-1.94189453125
0.0805,3.02294921875,-2.42236328125,-1.46142578125
0.081,2.82275390625,-2.58251953125,-0.86083984375
0.0815,2.58251953125,-2.74267578125,-0.34033203125
0.082,2.30224609375,-2.90283203125,0.34033203125
0.0825,1.58154296875,-2.90283203125,1.14111328125
0.083,1.14111328125,-2.78271484375,1.66162109375
0.0835,0.70068359375,-2.58251953125,2.06201171875
0.084,0.30029296875,-2.42236328125,2.34228515625
0.0845,-0.30029296875,-2.10205078125,2.74267578125
0.085,-1.06103515625,-1.62158203125,2.98291015625
0.0855,-1.66162109375,-1.06103515625,3.18310546875
0.086,-2.10205078125,-0.58056640625,3.10302734375
0.0865,-2.42236328125,-0.14013671875,3.02294921875
0.087,-2.70263671875,0.34033203125,2.86279296875
0.0875,-3.02294921875,0.82080078125,2.62255859375
0.088,-3.06298828125,1.50146484375,1.98193359375
0.0885,-3.10302734375,1.94189453125,1.42138671875
0.089,-3.06298828125,2.30224609375,0.94091796875
0.0895,-2.86279296875,2.54248046875,0.42041015625
0.09,-2.62255859375,2.78271484375,-0.26025390625
0.0905,-2.26220703125,2.94287109375,-0.98095703125
0.091,-1.58154296875,2.94287109375,-1.70166015625
0.0915,-1.06103515625,2.70263671875,-2.26220703125
0.092,-0.66064453125,2.62255859375,-2.70263671875
0.0925,-0.22021484375,2.46240234375,-2.94287109375
0.093,0.50048828125,2.14208984375,-3.50341796875
0.0935,1.38134765625,1.34130859375,-3.70361328125
0.094,2.06201171875,0.78076171875,-3.78369140625
0.0945,2.34228515625,0.34033203125,-3.70361328125
0.095,2.62255859375,-0.14013671875,-3.50341796875
0.0955,2.86279296875,-0.62060546875,-3.18310546875
0.096,3.06298828125,-1.30126953125,-2.82275390625
0.0965,3.18310546875,-1.94189453125,-2.10205078125
0.097,3.10302734375,-2.30224609375,-1.54150390625
0.0975,2.98291015625,-2.54248046875,-1.10107421875
0.098,2.70263671875,-2.70263671875,-0.54052734375
0.0985,2.42236328125,-2.86279296875,0.14013671875
0.099,1.78173828125,-2.98291015625,0.98095703125
0.0995,1.26123046875,-2.86279296875,1.62158203125
0.1,0.78076171875,-2.62255859375,1.98193359375
0.1005,0.34033203125,-2.46240234375,2.34228515625
0.101,-0.18017578125,-2.18212890625,2.58251953125
0.1015,-0.90087890625,-1.78173828125,2.94287109375
0.102,-1.66162109375,-1.18115234375,3.14306640625
0.1025,-2.06201171875,-0.58056640625,3.02294921875
0.103,-2.26220703125,-0.26025390625,2.94287109375
0.1035,-2.54248046875,0.22021484375,2.74267578125
0.104,-2.82275390625,0.66064453125,2.62255859375
0.1045,-2.90283203125,1.30126953125,2.06201171875
0.105,-3.06298828125,1.78173828125,1.58154296875
0.1055,-2.94287109375,2.06201171875,1.06103515625
0.106,-2.78271484375,2.38232421875,0.54052734375
0.1065,-2.58251953125,2.54248046875,0.06005859375
0.107,-2.42236328125,2.74267578125,-0.62060546875
0.1075,-1.86181640625,2.78271484375,-1.26123046875
0.108,-1.26123046875,2.70263671875,-1.94189453125
0.1085,-0.94091796875,2.62255859375,-2.26220703125
0.109,-0.46044921875,2.42236328125,-2.70263671875
0.1095,0.14013671875,2.26220703125,-3.18310546875
0.11,0.86083984375,1.70166015625,-3.42333984375
0.1105,1.46142578125,1.22119140625,-3.66357421875
0.111,1.94189453125,0.62060546875,-3.58349609375
0.1115,2.38232421875,0.18017578125,-3.62353515625
0.112,2.66259765625,-0.30029296875,-3.42333984375
0.1125,3.02294921875,-0.90087890625,-3.18310546875
0.113,3.10302734375,-1.54150390625,-2.54248046875
0.1135,3.18310546875,-2.14208984375,-1.94189453125
0.114,3.10302734375,-2.42236328125,-1.46142578125
0.1145,2.94287109375,-2.70263671875,-0.90087890625
0.115,2.66259765625,-2.86279296875,-0.26025390625
0.1155,2.14208984375,-3.02294921875,0.66064453125
0.116,1.58154296875,-3.06298828125,1.34130859375
0.1165,1.02099609375,-2.82275390625,1.90185546875
0.117,0.58056640625,-2.70263671875,2.26220703125
0.1175,0.06005859375,-2.38232421875,2.54248046875
0.118,-0.62060546875,-2.10205078125,3.06298828125
0.1185,-1.50146484375,-1.26123046875,3.14306640625
0.119,-2.06201171875,-0.70068359375,3.18310546875
0.1195,-2.34228515625,-0.26025390625,3.02294921875
0.12,-2.58251953125,0.18017578125,2.90283203125
0.1205,-2.74267578125,0.66064453125,2.58251953125
0.121,-2.94287109375,1.30126953125,2.14208984375
0.1215,-3.06298828125,1.82177734375,1.58154296875
0.122,-2.94287109375,2.22216796875,0.98095703125
0.1225,-2.86279296875,2.38232421875,0.58056640625
0.123,-2.58251953125,2.54248046875,0.02001953125
0.1235,-2.38232421875,2.70263671875,-0.58056640625
0.124,-1.74169921875,2.70263671875,-1.34130859375
0.1245,-1.26123046875,2.66259765625,-1.94189453125
0.125,-0.82080078125,2.54248046875,-2.26220703125
0.1255,-0.50048828125,2.42236328125,-2.66259765625
0.126,0.06005859375,2.18212890625,-2.94287109375
0.1265,0.70068359375,1.82177734375,-3.34326171875
0.127,1.30126953125,1.30126953125,-3.50341796875
0.1275,1.90185546875,0.70068359375,-3.54345703125
0.128,2.22216796875,0.34033203125,-3.54345703125
0.1285,2.50244140625,-0.18017578125,-3.34326171875
0.129,2.82275390625,-0.62060546875,-3.22314453125
0.1295,2.90283203125,-1.22119140625,-2.66259765625
0.13,3.14306640625,-1.78173828125,-2.26220703125
0.1305,3.10302734375,-2.14208984375,-1.70166015625
0.131,3.02294921875,-2.54248046875,-1.22119140625
0.1315,2.78271484375,-2.70263671875,-0.62060546875
0.132,2.54248046875,-2.94287109375,0.06005859375
0.1325,1.94189453125,-3.06298828125,0.82080078125
0.133,1.34130859375,-2.86279296875,1.46142578125
0.1335,0.94091796875,-2.82275390625,1.94189453125
0.134,0.50048828125,-2.62255859375,2.38232421875
0.1345,-0.18017578125,-2.42236328125,2.74267578125
0.135,-0.98095703125,-1.66162109375,3.02294921875
0.1355,-1.66162109375,-1.26123046875,3.26318359375
0.136,-2.18212890625,-0.62060546875,3.18310546875
0.1365,-2.46240234375,-0.26025390625,3.14306640625
0.137,-2.70263671875,0.30029296875,2.86279296875
0.1375,-3.02294921875,0.94091796875,2.62255859375
0.138,-3.14306640625,1.62158203125,1.86181640625
0.1385,-3.18310546875,2.06201171875,1.34130859375
0.139,-2.98291015625,2.30224609375,0.78076171875
0.1395,-2.82275390625,2.54248046875,0.30029296875
0.14,-2.46240234375,2.70263671875,-0.42041015625
0.1405,-1.94189453125,2.82275390625,-1.26123046875
0.141,-1.42138671875,2.86279296875,-1.90185546875
0.1415,-0.98095703125,2.62255859375,-2.26220703125
0.142,-0.50048828125,2.46240234375,-2.62255859375
0.1425,0.02001953125,2.18212890625,-2.90283203125
0.143,0.62060546875,1.94189453125,-3.42333984375
0.1435,1.42138671875,1.18115234375,-3.50341796875
0.144,1.90185546875,0.78076171875,-3.54345703125
0.1445,2.22216796875,0.26025390625,-3.42333984375
0.145,2.38232421875,-0.18017578125,-3.34326171875
0.1455,2.70263671875,-0.58056640625,-3.06298828125
0.146,2.86279296875,-1.10107421875,-2.70263671875
0.1465,3.02294921875,-1.66162109375,-2.26220703125
0.147,2.94287109375,-2.06201171875,-1.70166015625
0.1475,2.82275390625,-2.26220703125,-1.22119140625
0.148,2.70263671875,-2.54248046875,-0.70068359375
0.1485,2.54248046875,-2.78271484375,-0.22021484375
0.149,1.94189453125,-2.78271484375,0.66064453125
0.1495,1.54150390625,-2.82275390625,1.22119140625
0.15,1.02099609375,-2.70263671875,1.66162109375
0.1505,0.62060546875,-2.54248046875,2.14208984375
0.151,0.06005859375,-2.38232421875,2.46240234375
0.1515,-0.58056640625,-2.02197265625,2.90283203125
0.152,-1.26123046875,-1.42138671875,3.06298828125
0.1525,-1.78173828125,-0.90087890625,3.06298828125
0.153,-2.22216796875,-0.46044921875,3.10302734375
0.1535,-2.50244140625,0.06005859375,2.98291015625
0.154,-2.74267578125,0.58056640625,2.74267578125
0.1545,-3.02294921875,1.22119140625,2.22216796875
0.155,-3.14306640625,1.78173828125,1.78173828125
0.1555,-3.06298828125,2.18212890625,1.14111328125
0.156,-2.94287109375,2.42236328125,0.66064453125
0.1565,-2.70263671875,2.66259765625,0.02001953125
0.157,-2.50244140625,2.86279296875,-0.62060546875
0.1575,-1.86181640625,2.86279296875,-1.42138671875
0.158,-1.30126953125,2.78271484375,-2.02197265625
0.1585,-0.78076171875,2.70263671875,-2.50244140625
0.159,-0.38037109375,2.50244140625,-2.82275390625
0.1595,0.34033203125,2.14208984375,-3.22314453125
0.16,1.18115234375,1.54150390625,-3.54345703125
0.1605,1.78173828125,0.98095703125,-3.70361328125
0.161,2.22216796875,0.50048828125,-3.58349609375
0.1615,2.54248046875,0.06005859375,-3.54345703125
0.162,2.74267578125,-0.42041015625,-3.26318359375
0.1625,2.98291015625,-0.98095703125,-2.90283203125
0.163,3.06298828125,-1.74169921875,-2.26220703125
0.1635,3.06298828125,-2.10205078125,-1.74169921875
0.164,2.90283203125,-2.38232421875,-1.22119140625
0.1645,2.82275390625,-2.54248046875,-0.78076171875
0.165,2.42236328125,-2.74267578125,-0.14013671875
0.1655,1.94189453125,-2.86279296875,0.74072265625
0.166,1.46142578125,-2.82275390625,1.34130859375
0.1665,0.90087890625,-2.70263671875,1.78173828125
0.167,0.54052734375,-2.46240234375,2.14208984375
0.1675,0.10009765625,-2.26220703125,2.46240234375
0.168,-0.54052734375,-2.02197265625,2.86279296875
0.1685,-1.34130859375,-1.30126953125,3.02294921875
0.169,-1.82177734375,-0.86083984375,3.02294921875
0.1695,-2.26220703125,-0.38037109375,3.02294921875
0.17,-2.42236328125,0.06005859375,2.90283203125
0.1705,-2.66259765625,0.62060546875,2.66259765625
0.171,-2.94287109375,1.10107421875,2.34228515625
0.1715,-3.06298828125,1.66162109375,1.78173828125
0.172,-3.02294921875,2.06201171875,1.22119140625
0.1725,-2.90283203125,2.30224609375,0.66064453125
0.173,-2.82275390625,2.58251953125,0.22021484375
0.1735,-2.58251953125,2.78271484375,-0.34033203125
0.174,-1.98193359375,2.82275390625,-1.18115234375
0.1745,-1.46142578125,2.86279296875,-1.90185546875
0.175,-0.98095703125,2.62255859375,-2.34228515625
0.1755,-0.58056640625,2.54248046875,-2.70263671875
0.176,0.02001953125,2.26220703125,-3.06298828125
0.1765,0.70068359375,1.90185546875,-3.54345703125
0.177,1.50146484375,1.26123046875,-3.66357421875
0.1775,2.06201171875,0.78076171875,-3.70361328125
0.178,2.38232421875,0.18017578125,-3.66357421875
0.1785,2.70263671875,-0.22021484375,-3.54345703125
0.179,2.94287109375,-0.78076171875,-3.22314453125
0.1795,3.14306640625,-1.54150390625,-2.58251953125
0.18,3.26318359375,-2.10205078125,-2.02197265625
0.1805,3.14306640625,-2.42236328125,-1.42138671875
0.181,2.94287109375,-2.70263671875,-0.94091796875
0.1815,2.70263671875,-2.86279296875,-0.30029296875
0.182,2.26220703125,-3.06298828125,0.54052734375
0.1825,1.58154296875,-3.06298828125,1.38134765625
0.183,0.98095703125,-2.86279296875,1.94189453125
0.1835,0.62060546875,-2.74267578125,2.26220703125
0.184,0.10009765625,-2.46240234375,2.58251953125
0.1845,-0.58056640625,-2.14208984375,2.94287109375
0.185,-1.42138671875,-1.42138671875,3.22314453125
0.1855,-2.10205078125,-0.86083984375,3.26318359375
0.186,-2.42236328125,-0.30029296875,3.18310546875
0.1865,-2.62255859375,0.14013671875,2.94287109375
0.187,-2.86279296875,0.58056640625,2.74267578125
0.1875,-3.06298828125,1.14111328125,2.38232421875
0.188,-3.14306640625,1.82177734375,1.66162109375
0.1885,-3.06298828125,2.26220703125,1.06103515625
0.189,-2.94287109375,2.42236328125,0.62060546875
0.1895,-2.74267578125,2.62255859375,0.14013671875
0.19,-2.50244140625,2.74267578125,-0.46044921875
0.1905,-1.94189453125,2.90283203125,-1.26123046875
0.191,-1.34130859375,2.82275390625,-1.98193359375
0.1915,-0.86083984375,2.58251953125,-2.38232421875
0.192,-0.50048828125,2.50244140625,-2.70263671875
0.1925,0.02001953125,2.26220703125,-3.06298828125
0.193,0.62060546875,1.94189453125,-3.38330078125
0.1935,1.42138671875,1.30126953125,-3.58349609375
0.194,2.06201171875,0.66064453125,-3.78369140625
0.1945,2.34228515625,0.30029296875,-3.62353515625
0.195,2.62255859375,-0.18017578125,-3.54345703125
0.1955,2.86279296875,-0.62060546875,-3.26318359375
0.196,3.10302734375,-1.30126953125,-2.82275390625
0.1965,3.22314453125,-1.90185546875,-2.26220703125
0.197,3.14306640625,-2.30224609375,-1.62158203125
0.1975,3.06298828125,-2.58251953125,-1.18115234375
0.198,2.86279296875,-2.74267578125,-0.58056640625
0.1985,2.58251953125,-3.02294921875,0.06005859375
0.199,1.94189453125,-3.06298828125,0.98095703125
0.1995,1.30126953125,-3.02294921875,1.66162109375
