wavelength,x,y,z
0.0,-4.0439453125,48.0869140625,-44.8037109375
0.0005,7.0068359375,43.2822265625,-50.8896484375
0.001,16.9765625,36.9560546875,-54.453125
0.0015,25.1044921875,28.7880859375,-54.1728515625
0.002,32.19140625,20.1796875,-52.291015625
0.0025,40.51953125,9.7294921875,-49.9287109375
0.003,47.7666015625,-1.3212890625,-46.1650390625
0.0035,52.451171875,-11.4111328125,-40.759765625
0.004,54.29296875,-20.5400390625,-33.6328125
0.0045,53.65234375,-28.34765625,-25.5849609375
0.005,51.8505859375,-36.4755859375,-16.2958984375
0.0055,48.927734375,-44.2431640625,-5.9658203125
0.006,43.802734375,-49.8486328125,4.64453125
0.0065,37.076171875,-53.4521484375,14.814453125
0.007,29.5888671875,-54.61328125,23.5029296875
0.0075,21.3408203125,-53.33203125,30.75
0.008,10.6904296875,-49.9287109375,38.3173828125
0.0085,-0.5205078125,-45.9248046875,45.484375
0.009,-11.2509765625,-40.51953125,50.849609375
0.0095,-19.9794921875,-33.9130859375,53.01171875
0.01,-26.42578125,-25.625,50.9296875
0.0105,-34.59375,-15.8955078125,49.248046875
0.011,-42.4814453125,-5.205078125,46.685546875
0.0115,-48.0869140625,4.9248046875,42.6015625
0.012,-51.25,15.0546875,36.03515625
0.0125,-52.5712890625,24.0634765625,28.7880859375
0.013,-51.8505859375,31.3505859375,21.2607421875
0.0135,-49.6083984375,39.1982421875,11.451171875
0.014,-45.8046875,46.044921875,0.6806640625
0.0145,-40.83984375,51.5703125,-10.08984375
0.015,-34.4736328125,54.373046875,-19.5390625
0.0155,-26.7861328125,52.8515625,-26.3857421875
0.016,-17.6572265625,50.5693359375,-33.6728515625
0.0165,-6.9267578125,47.88671875,-41.80078125
0.017,3.7236328125,43.9228515625,-48.287109375
0.0175,13.4130859375,37.9970703125,-51.8505859375
0.018,22.421875,30.2294921875,-52.931640625
0.0185,29.7490234375,22.26171875,-51.9306640625
0.019,37.556640625,12.732421875,-49.8486328125
0.0195,44.4833984375,2.322265625,-46.365234375
0.02,49.728515625,-8.328125,-41.16015625
0.0205,53.171875,-18.2578125,-34.75390625
0.021,53.4921875,-26.1455078125,-27.546875
0.0215,51.5703125,-33.232421875,-19.21875
0.022,48.4873046875,-41.2001953125,-8.5283203125
0.0225,44.4833984375,-48.20703125,2.40234375
0.023,38.7978515625,-52.8515625,12.5322265625
0.0235,31.8310546875,-53.8525390625,20.4599609375
0.024,23.302734375,-52.0908203125,27.546875
0.0245,13.5732421875,-50.2490234375,35.6748046875
0.025,3.443359375,-47.2861328125,43.0419921875
0.0255,-6.9267578125,-41.9208984375,48.0068359375
0.026,-16.81640625,-35.1142578125,51.169921875
0.0265,-24.8642578125,-27.8271484375,51.73046875
0.027,-31.7509765625,-19.5791015625,49.96875
0.0275,-39.078125,-8.8486328125,46.7255859375
0.028,-46.0849609375,2.2421875,42.9619140625
0.0285,-50.849609375,12.65234375,37.63671875
0.029,-52.0107421875,20.66015625,31.1904296875
0.0295,-50.369140625,27.626953125,23.142578125
0.03,-49.2080078125,36.0751953125,13.853515625
0.0305,-46.685546875,43.5625,3.923828125
0.031,-41.720703125,48.767578125,-6.4462890625
0.0315,-35.5146484375,52.291015625,-16.3759765625
0.032,-28.66796875,52.9716796875,-24.423828125
0.0325,-20.5,50.849609375,-30.9501953125
0.033,-9.689453125,47.7666015625,-38.7578125
0.0335,0.9609375,44.203125,-45.8046875
0.034,10.73046875,39.078125,-50.2890625
0.0345,19.5390625,32.03125,-51.8505859375
0.035,27.1064453125,24.1435546875,-51.1298828125
0.0355,34.59375,15.4150390625,-49.6083984375
0.036,41.6806640625,5.2451171875,-46.4453125
0.0365,47.56640625,-5.60546875,-41.6806640625
0.037,51.810546875,-15.935546875,-35.7548828125
0.0375,52.69140625,-23.86328125,-28.98828125
0.038,50.2490234375,-29.94921875,-21.0205078125
0.0385,48.126953125,-38.357421875,-10.970703125
0.039,44.923828125,-45.5244140625,-0.80078125
0.0395,39.71875,-49.96875,8.80859375
0.04,32.7919921875,-52.4912109375,18.2177734375
0.0405,25.224609375,-52.291015625,25.6650390625
0.041,16.65625,-50.369140625,32.671875
0.0415,5.8857421875,-46.525390625,39.8388671875
0.042,-4.8046875,-42.28125,46.28515625
0.0425,-14.3740234375,-36.595703125,50.2490234375
0.043,-21.8212890625,-29.388671875,50.369140625
0.0435,-28.66796875,-21.380859375,48.84765625
0.044,-36.3955078125,-11.771484375,46.8857421875
0.0445,-42.76171875,-1.6416015625,43.2822265625
0.045,-47.7265625,8.9287109375,38.037109375
0.0455,-50.76953125,18.2578125,32.03125
0.046,-49.888671875,24.7841796875,25.14453125
0.0465,-48.0068359375,32.3115234375,16.17578125
0.047,-45.8447265625,40.4794921875,5.9658203125
0.0475,-42.3212890625,46.5654296875,-3.68359375
0.048,-36.1953125,49.7685546875,-13.3330078125
0.0485,-29.7490234375,51.5703125,-21.78125
0.049,-22.3017578125,50.2490234375,-28.3876953125
0.0495,-12.4921875,47.326171875,-35.5546875
0.05,-1.7216796875,43.962890625,-42.8017578125
0.0505,8.2080078125,39.3984375,-48.046875
0.051,16.896484375,32.9921875,-50.12890625
0.0515,24.50390625,25.46484375,-49.9287109375
0.052,31.7109375,17.6171875,-48.8876953125
0.0525,38.8779296875,7.5673828125,-45.96484375
0.053,45.1640625,-3.2431640625,-41.640625
0.0535,49.888671875,-13.373046875,-36.3955078125
0.054,51.08984375,-21.0205078125,-30.2294921875
0.0545,49.2080078125,-27.5869140625,-22.341796875
0.055,47.806640625,-35.71484375,-13.373046875
0.0555,45.00390625,-42.7216796875,-3.7236328125
0.056,39.87890625,-48.046875,6.486328125
0.0565,33.873046875,-51.6103515625,16.2158203125
0.057,26.9462890625,-51.890625,23.54296875
0.0575,18.41796875,-49.2080078125,29.7890625
0.058,8.16796875,-46.765625,37.796875
0.0585,-1.44140625,-43.40234375,44.123046875
0.059,-11.130859375,-37.4765625,47.8466796875
0.0595,-20.099609375,-30.9501953125,50.208984375
0.06,-26.666015625,-23.703125,49.2080078125
0.0605,-33.47265625,-14.333984375,46.4052734375
0.061,-40.759765625,-3.84375,43.40234375
0.0615,-46.205078125,5.8056640625,39.3984375
0.062,-48.84765625,15.0146484375,33.1923828125
0.0625,-49.80859375,23.1025390625,26.3857421875
0.063,-48.607421875,29.708984375,19.1787109375
0.0635,-45.64453125,36.99609375,9.1689453125
0.064,-42.201171875,44.04296875,-1.28125
0.0645,-37.5166015625,48.5673828125,-10.5302734375
0.065,-30.91015625,49.6884765625,-18.5380859375
0.0655,-23.623046875,48.927734375,-25.46484375
0.066,-15.4150390625,47.5263671875,-32.6318359375
0.0665,-4.96484375,43.642578125,-39.23828125
0.067,5.365234375,39.4384765625,-45.244140625
0.0675,14.173828125,33.9931640625,-48.447265625
0.068,21.701171875,26.7060546875,-48.4873046875
0.0685,28.427734375,19.3388671875,-47.40625
0.069,35.5947265625,9.9697265625,-45.1240234375
0.0695,42.0009765625,-0.5205078125,-41.16015625
0.07,47.166015625,-10.4501953125,-36.515625
0.0705,48.927734375,-18.2578125,-30.7099609375
0.071,47.6865234375,-24.8642578125,-23.4228515625
0.0715,46.765625,-32.3115234375,-15.5751953125
0.072,43.7626953125,-39.23828125,-5.765625
0.0725,39.4384765625,-45.484375,4.564453125
0.073,34.2734375,-49.48828125,13.7734375
0.0735,27.5068359375,-49.328125,20.5400390625
0.074,19.69921875,-47.9267578125,27.2265625
0.0745,10.8505859375,-46.1650390625,34.673828125
0.075,0.6005859375,-42.12109375,40.7998046875
0.0755,-9.44921875,-37.396484375,46.125
0.076,-17.6171875,-31.4306640625,48.20703125
0.0765,-24.103515625,-23.9033203125,46.845703125
0.077,-31.0302734375,-16.2158203125,45.8447265625
0.0775,-37.6767578125,-6.6865234375,43.0419921875
0.078,-43.6025390625,3.8837890625,38.677734375
0.0785,-47.7265625,13.4130859375,33.552734375
0.079,-48.0869140625,20.419921875,27.2666015625
0.0795,-46.845703125,27.0263671875,19.8994140625
0.08,-45.64453125,34.673828125,11.53125
0.0805,-41.9609375,40.919921875,1.5615234375
0.081,-37.4765625,46.4453125,-8.48828125
0.0815,-31.9111328125,48.84765625,-16.5361328125
0.082,-24.6640625,47.6865234375,-23.1025390625
0.0825,-17.1767578125,46.685546875,-29.94921875
0.083,-7.5673828125,43.6826171875,-36.595703125
0.0835,2.6826171875,39.4384765625,-42.5615234375
0.084,11.8115234375,34.59375,-46.765625
0.0845,19.21875,28.02734375,-47.40625
0.085,25.7451171875,20.7802734375,-46.28515625
0.0855,32.671875,12.412109375,-44.68359375
0.086,39.1982421875,2.2021484375,-41.0400390625
0.0865,44.84375,-7.6474609375,-36.916015625
0.087,46.9658203125,-15.615234375,-31.3505859375
0.0875,47.005859375,-22.662109375,-24.7041015625
0.088,45.9248046875,-29.1884765625,-17.697265625
0.0885,42.76171875,-36.0751953125,-7.9677734375
0.089,39.3583984375,-42.76171875,1.8818359375
0.0895,34.75390625,-46.28515625,10.2099609375
0.09,28.02734375,-47.7666015625,18.3779296875
0.0905,21.4609375,-47.0859375,24.6240234375
0.091,12.65234375,-44.4833984375,31.0703125
0.0915,2.5224609375,-41.3203125,38.1171875
0.092,-6.0458984375,-37.5966796875,42.921875
0.0925,-14.9345703125,-31.390625,45.484375
0.093,-21.94140625,-25.5048828125,46.4052734375
0.0935,-27.5068359375,-17.6171875,43.802734375
0.094,-34.9140625,-7.9677734375,41.560546875
0.0945,-40.51953125,0.7607421875,38.59765625
0.095,-44.4833984375,10.2900390625,33.3125
0.0955,-46.765625,18.6181640625,27.626953125
0.096,-44.84375,23.783203125,20.900390625
0.0965,-43.6826171875,31.23046875,12.7724609375
0.097,-41.560546875,38.0771484375,3.8837890625
0.0975,-36.8759765625,43.2421875,-5.845703125
0.098,-31.7509765625,46.685546875,-14.57421875
0.0985,-25.5048828125,46.205078125,-20.66015625
0.099,-18.017578125,44.68359375,-26.9462890625
0.0995,-9.5693359375,42.841796875,-33.8330078125
0.1,0.4404296875,38.5576171875,-39.4384765625
0.1005,9.529296875,34.2734375,-44.1630859375
0.101,16.9365234375,28.1875,-45.3642578125
0.1015,23.22265625,21.701171875,-44.84375
0.102,29.5087890625,14.173828125,-43.2822265625
0.1025,36.35546875,3.9638671875,-39.87890625
0.103,41.8408203125,-5.0048828125,-36.5556640625
0.1035,44.4033203125,-13.1728515625,-31.150390625
0.104,45.724609375,-20.66015625,-25.46484375
0.1045,43.6826171875,-25.9453125,-18.5380859375
0.105,41.640625,-33.3525390625,-9.529296875
0.1055,39.078125,-39.4384765625,-1.0009765625
0.106,34.1533203125,-43.6826171875,8.2080078125
0.1065,28.66796875,-46.3251953125,16.3359375
0.107,22.1416015625,-44.8037109375,21.5810546875
0.1075,14.173828125,-43.40234375,28.427734375
0.108,5.2451171875,-40.8798828125,34.9541015625
0.1085,-4.4443359375,-36.4755859375,40.19921875
0.109,-12.7724609375,-31.7509765625,43.7626953125
0.1095,-19.298828125,-25.3046875,43.72265625
0.11,-25.2646484375,-18.73828125,42.76171875
0.1105,-31.390625,-10.330078125,40.359375
0.111,-37.796875,-0.48046875,37.076171875
0.1115,-41.80078125,7.52734375,33.2724609375
0.112,-43.8828125,15.85546875,27.38671875
0.1125,-43.9228515625,21.7412109375,21.94140625
0.113,-41.5205078125,27.8671875,13.8935546875
0.1135,-39.87890625,34.9541015625,5.365234375
0.114,-36.1552734375,39.9189453125,-3.36328125
0.1145,-31.3505859375,44.0029296875,-12.251953125
0.115,-25.625,44.3232421875,-18.5380859375
0.1155,-18.73828125,42.5615234375,-24.1435546875
0.116,-11.2109375,41.400390625,-30.7099609375
0.1165,-1.361328125,37.2763671875,-36.3955078125
0.117,7.046875,33.5927734375,-41.0400390625
0.1175,14.6943359375,27.8271484375,-42.76171875
0.118,20.8603515625,22.341796875,-43.2021484375
0.1185,26.3056640625,14.7744140625,-40.7197265625
0.119,33.2724609375,5.7255859375,-38.59765625
0.1195,38.2373046875,-2.4423828125,-35.5546875
0.12,42.0009765625,-11.451171875,-30.509765625
0.1205,43.08203125,-18.09765625,-25.224609375
0.121,41.16015625,-23.22265625,-18.73828125
0.1215,40.359375,-29.94921875,-11.5712890625
0.122,36.7958984375,-35.8349609375,-2.2421875
0.1225,33.1923828125,-40.83984375,6.3662109375
0.123,27.8671875,-42.6015625,13.453125
0.1235,22.421875,-43.2021484375,19.69921875
0.124,15.0146484375,-40.6796875,24.9443359375
0.1245,6.2861328125,-38.59765625,31.7109375
0.125,-1.8818359375,-35.39453125,36.6357421875
0.1255,-10.6103515625,-30.509765625,40.4794921875
0.126,-17.056640625,-25.224609375,41.48046875
0.1265,-22.1015625,-18.8583984375,39.71875
0.127,-28.427734375,-11.7314453125,38.7978515625
0.1275,-34.1533203125,-2.2822265625,35.234375
0.128,-38.677734375,5.8056640625,31.87109375
0.1285,-40.7197265625,13.373046875,26.5859375
0.129,-41.560546875,19.3388671875,21.7412109375
0.1295,-38.9580078125,24.583984375,14.4140625
0.13,-37.8369140625,31.5107421875,6.7265625
0.1305,-34.4736328125,36.4755859375,-1.6416015625
0.131,-30.26953125,40.759765625,-10.1298828125
0.1315,-24.904296875,41.16015625,-16.095703125
0.132,-19.298828125,40.51953125,-21.4208984375
0.1325,-11.8515625,38.5576171875,-27.1865234375
0.133,-2.72265625,35.5546875,-33.3125
0.1335,4.6044921875,32.271484375,-37.2763671875
0.134,12.892578125,27.0263671875,-40.2392578125
0.1345,18.5380859375,21.7412109375,-40.359375
0.135,23.703125,14.9345703125,-38.357421875
0.1355,29.8291015625,7.52734375,-37.0361328125
0.136,35.0341796875,-1.6015625,-33.232421875
0.1365,38.4375,-8.728515625,-29.6689453125
0.137,39.8388671875,-15.9755859375,-24.18359375
0.1375,39.23828125,-20.419921875,-19.37890625
0.138,37.1162109375,-26.5458984375,-11.5712890625
0.1385,35.5947265625,-32.7119140625,-4.0439453125
0.139,31.3505859375,-37.15625,4.6044921875
0.1395,27.1865234375,-40.0791015625,11.611328125
0.14,21.4208984375,-39.87890625,17.376953125
0.1405,15.6953125,-38.7978515625,22.341796875
0.141,7.3271484375,-36.0751953125,28.1875
0.1415,-0.4404296875,-33.712890625,33.5927734375
0.142,-8.48828125,-29.1083984375,36.916015625
0.1425,-15.134765625,-24.3837890625,38.7177734375
0.143,-19.4990234375,-18.818359375,37.1962890625
0.1435,-25.384765625,-12.2919921875,36.35546875
0.144,-30.7900390625,-3.603515625,33.15234375
0.1445,-35.314453125,3.8837890625,30.3896484375
0.145,-37.63671875,11.2109375,25.5849609375
0.1455,-38.5576171875,17.216796875,20.8603515625
0.146,-36.275390625,21.541015625,14.734375
0.1465,-35.71484375,27.9072265625,8.0078125
0.147,-32.19140625,33.072265625,-0.6005859375
0.1475,-28.908203125,36.7958984375,-7.5673828125
0.148,-23.783203125,38.1171875,-14.173828125
0.1485,-19.298828125,37.716796875,-18.578125
0.149,-11.7314453125,35.3544921875,-24.0634765625
0.1495,-4.724609375,33.9130859375,-29.6689453125
0.15,3.84375,29.7490234375,-34.033203125
0.1505,10.2099609375,26.025390625,-36.5556640625
0.151,16.3359375,20.5400390625,-37.0361328125
0.1515,20.33984375,15.455078125,-35.634765625
0.152,26.3056640625,7.84765625,-33.9130859375
0.1525,31.1103515625,0.560546875,-31.470703125
0.153,35.1142578125,-7.5673828125,-27.5068359375
0.1535,36.1552734375,-13.1328125,-23.142578125
0.154,35.9951171875,-18.017578125,-18.4580078125
0.1545,33.9130859375,-22.8623046875,-11.9716796875
0.155,32.3515625,-28.828125,-4.724609375
0.1555,29.1083984375,-32.8720703125,2.5625
0.156,25.3046875,-36.2353515625,9.76953125
0.1565,20.1396484375,-35.955078125,14.7744140625
0.157,15.615234375,-35.5546875,19.138671875
0.1575,7.8076171875,-32.9521484375,24.50390625
0.158,0.9208984375,-30.91015625,29.46875
0.1585,-6.7666015625,-26.7861328125,32.9921875
0.159,-12.5322265625,-22.7822265625,34.59375
0.1595,-17.0966796875,-17.77734375,33.9130859375
0.16,-21.6611328125,-12.0517578125,32.4716796875
0.1605,-26.986328125,-4.564453125,30.3095703125
0.161,-30.91015625,2.2021484375,27.5869140625
0.1615,-34.0732421875,9.609375,23.6630859375
0.162,-33.9931640625,14.3740234375,19.05859375
0.1625,-33.47265625,18.5380859375,14.7744140625
0.163,-31.390625,23.7431640625,7.7275390625
0.1635,-29.6689453125,28.9482421875,1.041015625
0.164,-25.9052734375,32.3916015625,-6.24609375
0.1645,-22.181640625,34.193359375,-11.8515625
0.165,-17.3369140625,33.4326171875,-16.17578125
0.1655,-11.9716796875,32.0712890625,-20.5400390625
0.166,-4.7646484375,30.109375,-25.78515625
0.1665,2.0419921875,27.2666015625,-29.7490234375
0.167,8.888671875,23.4228515625,-32.7119140625
0.1675,13.693359375,18.8583984375,-32.751953125
0.168,17.45703125,14.8544921875,-32.3115234375
0.1685,22.421875,7.6875,-30.029296875
0.169,27.306640625,1.4013671875,-28.587890625
0.1695,30.669921875,-5.8056640625,-24.82421875
0.17,32.19140625,-11.05078125,-21.2607421875
0.1705,31.9912109375,-15.4951171875,-16.9365234375
0.171,30.2294921875,-19.37890625,-11.69140625
0.1715,29.1484375,-24.984375,-5.28515625
0.172,26.0654296875,-28.828125,1.6015625
0.1725,22.8623046875,-31.791015625,7.767578125
0.173,18.498046875,-32.19140625,12.65234375
0.1735,14.6142578125,-31.390625,15.9755859375
0.174,7.8076171875,-29.548828125,21.1005859375
0.1745,1.6416015625,-27.6669921875,25.544921875
0.175,-5.28515625,-24.34375,29.068359375
0.1755,-10.4501953125,-20.5,30.26953125
0.176,-14.7744140625,-16.6162109375,30.4296875
0.1765,-18.2177734375,-11.1708984375,28.267578125
0.177,-23.3427734375,-5.525390625,27.5869140625
0.1775,-27.2666015625,1.8818359375,24.423828125
0.178,-29.388671875,7.046875,21.4609375
0.1785,-30.6298828125,12.4521484375,17.5771484375
0.179,-28.908203125,15.21484375,13.4130859375
0.1795,-28.34765625,20.419921875,7.9677734375
0.18,-25.865234375,24.744140625,1.28125
0.1805,-23.5830078125,27.8271484375,-4.083984375
0.181,-19.859375,29.94921875,-10.08984375
0.1815,-15.6953125,29.228515625,-13.6533203125
0.182,-11.5712890625,28.4677734375,-17.296875
0.1825,-5.0048828125,26.2255859375,-21.78125
0.183,0.7607421875,24.34375,-25.5849609375
0.1835,7.0869140625,20.7001953125,-28.2275390625
0.184,11.2109375,17.13671875,-28.66796875
0.1845,14.654296875,13.4931640625,-28.1875
0.185,18.658203125,7.52734375,-26.185546875
0.1855,23.0224609375,2.3623046875,-25.2646484375
0.186,26.2255859375,-4.32421875,-21.94140625
0.1865,27.5869140625,-8.80859375,-18.9384765625
0.187,27.787109375,-12.8525390625,-15.3349609375
0.1875,25.9453125,-15.6953125,-11.0107421875
0.188,25.544921875,-20.7802734375,-5.685546875
0.1885,22.7021484375,-24.50390625,0.8408203125
0.189,20.1796875,-26.6259765625,5.4052734375
0.1895,16.6962890625,-28.02734375,10.3701171875
0.19,12.732421875,-26.4658203125,13.0126953125
0.1905,8.087890625,-25.9853515625,17.296875
0.191,1.841796875,-23.623046875,21.2607421875
0.1915,-3.2431640625,-21.3408203125,24.0234375
0.192,-8.7685546875,-18.017578125,26.10546875
0.1925,-11.9716796875,-14.2939453125,25.4248046875
0.193,-14.9345703125,-11.130859375,24.9443359375
0.1935,-19.2587890625,-4.8447265625,23.0224609375
0.194,-22.58203125,0.1201171875,21.4609375
0.1945,-25.224609375,5.8857421875,18.498046875
0.195,-25.5048828125,9.689453125,15.21484375
0.1955,-25.14453125,12.5322265625,12.2119140625
0.196,-23.623046875,16.2958984375,7.20703125
0.1965,-22.6220703125,20.2998046875,2.40234375
0.197,-20.1796875,23.54296875,-3.283203125
0.1975,-17.0166015625,24.82421875,-7.767578125
0.198,-14.0537109375,25.1044921875,-11.2509765625
0.1985,-10.330078125,23.86328125,-13.8935546875
0.199,-5.044921875,22.421875,-17.857421875
0.1995,0.0,20.8603515625,-21.30078125
0.2,5.4453125,17.697265625,-23.5830078125
0.2005,8.96875,14.9345703125,-24.3037109375
0.201,11.8515625,11.7314453125,-23.783203125
0.2015,14.8544921875,7.287109375,-22.1416015625
0.202,19.0185546875,2.72265625,-21.6611328125
0.2025,21.78125,-3.0830078125,-18.7783203125
0.203,22.982421875,-6.8466796875,-16.255859375
0.2035,23.3828125,-10.330078125,-13.453125
0.204,21.78125,-12.6123046875,-9.8095703125
0.2045,21.1806640625,-16.6162109375,-5.4052734375
0.205,19.37890625,-19.9794921875,-0.3603515625
0.2055,16.81640625,-21.9814453125,4.2041015625
0.206,14.25390625,-23.0625,7.927734375
0.2065,11.130859375,-22.341796875,10.490234375
0.207,7.3671875,-21.1005859375,13.0927734375
0.2075,2.6826171875,-20.33984375,17.056640625
0.208,-2.6826171875,-17.6171875,19.69921875
0.2085,-6.24609375,-15.3349609375,20.8603515625
0.209,-9.5693359375,-12.6123046875,21.30078125
0.2095,-11.451171875,-9.2490234375,19.8193359375
0.21,-15.134765625,-5.2451171875,19.4189453125
0.2105,-18.2177734375,-0.400390625,17.6572265625
0.211,-20.01953125,3.84375,15.375
0.2115,-21.0205078125,7.3671875,13.0126953125
0.212,-20.3798828125,9.689453125,10.2099609375
0.2125,-19.2587890625,12.01171875,7.046875
0.213,-18.658203125,15.8154296875,2.7626953125
0.2135,-16.4560546875,18.41796875,-2.0419921875
0.214,-14.3740234375,19.69921875,-5.365234375
0.2145,-11.931640625,20.2998046875,-8.48828125
0.215,-8.80859375,18.8583984375,-10.3701171875
0.2155,-5.205078125,18.3779296875,-13.61328125
0.216,-0.80078125,16.9365234375,-16.65625
0.2165,3.5234375,14.5341796875,-18.5380859375
