wavelength,x,y,z
0.0,-1.751708984375,5.255126953125,-2.712646484375
0.0005,-0.910888671875,5.455322265625,-3.833740234375
0.001,-0.230224609375,5.655517578125,-4.714599609375
0.0015,0.770751953125,5.335205078125,-5.355224609375
0.002,1.971923828125,4.454345703125,-5.755615234375
0.0025,3.253173828125,3.333251953125,-6.156005859375
0.003,4.334228515625,2.132080078125,-6.356201171875
0.0035,4.974853515625,1.251220703125,-6.356201171875
0.004,5.175048828125,0.490478515625,-6.115966796875
0.0045,5.094970703125,-0.470458984375,-5.475341796875
0.005,5.014892578125,-1.591552734375,-4.514404296875
0.0055,4.974853515625,-2.952880859375,-3.313232421875
0.006,4.814697265625,-4.114013671875,-2.272216796875
0.0065,4.614501953125,-4.874755859375,-1.431396484375
0.007,4.053955078125,-5.275146484375,-0.630615234375
0.0075,3.052978515625,-5.515380859375,0.570556640625
0.008,1.971923828125,-5.915771484375,1.971923828125
0.0085,0.770751953125,-6.156005859375,3.373291015625
0.009,0.010009765625,-6.396240234375,4.374267578125
0.0095,-0.830810546875,-6.396240234375,5.135009765625
0.01,-1.871826171875,-5.755615234375,5.695556640625
0.0105,-3.153076171875,-4.594482421875,6.055908203125
0.011,-4.434326171875,-3.353271484375,6.376220703125
0.0115,-5.275146484375,-2.192138671875,6.336181640625
0.012,-5.715576171875,-1.351318359375,6.256103515625
0.0125,-5.715576171875,-0.590576171875,5.775634765625
0.013,-5.515380859375,0.610595703125,4.814697265625
0.0135,-5.475341796875,1.851806640625,3.733642578125
0.014,-5.395263671875,3.213134765625,2.532470703125
0.0145,-5.155029296875,4.174072265625,1.531494140625
0.015,-4.794677734375,4.774658203125,0.770751953125
0.0155,-3.993896484375,5.054931640625,-0.270263671875
0.016,-2.792724609375,5.255126953125,-1.591552734375
0.0165,-1.551513671875,5.575439453125,-3.193115234375
0.017,-0.510498046875,5.695556640625,-4.434326171875
0.0175,0.290283203125,5.815673828125,-5.315185546875
0.018,1.211181640625,5.575439453125,-5.955810546875
0.0185,2.452392578125,4.534423828125,-6.356201171875
0.019,3.813720703125,3.253173828125,-6.676513671875
0.0195,4.974853515625,1.931884765625,-6.796630859375
0.02,5.615478515625,0.850830078125,-6.716552734375
0.0205,5.775634765625,0.050048828125,-6.396240234375
0.021,5.655517578125,-0.990966796875,-5.635498046875
0.0215,5.415283203125,-2.272216796875,-4.394287109375
0.022,5.255126953125,-3.713623046875,-3.072998046875
0.0225,5.054931640625,-4.874755859375,-1.871826171875
0.023,4.694580078125,-5.675537109375,-0.950927734375
0.0235,4.053955078125,-6.035888671875,0.010009765625
0.024,2.932861328125,-6.156005859375,1.131103515625
0.0245,1.571533203125,-6.396240234375,2.692626953125
0.025,0.210205078125,-6.556396484375,4.174072265625
0.0255,-0.790771484375,-6.636474609375,5.175048828125
0.026,-1.431396484375,-6.516357421875,5.895751953125
0.0265,-2.512451171875,-5.835693359375,6.376220703125
0.027,-3.833740234375,-4.514404296875,6.656494140625
0.0275,-5.114990234375,-3.153076171875,6.856689453125
0.028,-5.955810546875,-1.871826171875,6.736572265625
0.0285,-6.356201171875,-0.910888671875,6.536376953125
0.029,-6.276123046875,0.010009765625,6.015869140625
0.0295,-6.035888671875,1.091064453125,4.974853515625
0.03,-5.755615234375,2.372314453125,3.653564453125
0.0305,-5.555419921875,3.813720703125,2.292236328125
0.031,-5.235107421875,4.774658203125,1.171142578125
0.0315,-4.834716796875,5.335205078125,0.330322265625
0.032,-3.993896484375,5.575439453125,-0.630615234375
0.0325,-2.712646484375,5.575439453125,-1.871826171875
0.033,-1.351318359375,5.815673828125,-3.473388671875
0.0335,0.010009765625,5.895751953125,-4.794677734375
0.034,0.730712890625,5.975830078125,-5.675537109375
0.0345,1.411376953125,5.815673828125,-6.316162109375
0.035,2.572509765625,4.894775390625,-6.716552734375
0.0355,3.933837890625,3.493408203125,-6.956787109375
0.036,5.135009765625,2.052001953125,-7.076904296875
0.0365,5.895751953125,0.850830078125,-6.916748046875
0.037,6.095947265625,0.010009765625,-6.676513671875
0.0375,5.935791015625,-0.950927734375,-5.955810546875
0.038,5.615478515625,-2.072021484375,-4.834716796875
0.0385,5.415283203125,-3.473388671875,-3.473388671875
0.039,5.175048828125,-4.834716796875,-2.112060546875
0.0395,4.814697265625,-5.715576171875,-1.031005859375
0.04,4.334228515625,-6.196044921875,-0.270263671875
0.0405,3.373291015625,-6.396240234375,0.810791015625
0.041,1.931884765625,-6.436279296875,2.252197265625
0.0415,0.570556640625,-6.716552734375,3.853759765625
0.042,-0.630615234375,-6.676513671875,5.054931640625
0.0425,-1.311279296875,-6.716552734375,5.815673828125
0.043,-2.112060546875,-6.276123046875,6.376220703125
0.0435,-3.433349609375,-5.114990234375,6.696533203125
0.044,-4.754638671875,-3.713623046875,6.896728515625
0.0445,-5.835693359375,-2.312255859375,6.936767578125
0.045,-6.396240234375,-1.191162109375,6.696533203125
0.0455,-6.436279296875,-0.390380859375,6.336181640625
0.046,-6.276123046875,0.610595703125,5.495361328125
0.0465,-5.915771484375,1.931884765625,4.174072265625
0.047,-5.755615234375,3.333251953125,2.852783203125
0.0475,-5.435302734375,4.494384765625,1.571533203125
0.048,-5.074951171875,5.255126953125,0.650634765625
0.0485,-4.394287109375,5.575439453125,-0.310302734375
0.049,-3.273193359375,5.655517578125,-1.391357421875
0.0495,-1.911865234375,5.815673828125,-2.992919921875
0.05,-0.510498046875,6.015869140625,-4.514404296875
0.0505,0.490478515625,6.015869140625,-5.475341796875
0.051,1.171142578125,6.015869140625,-6.196044921875
0.0515,2.172119140625,5.295166015625,-6.676513671875
0.052,3.533447265625,3.973876953125,-6.916748046875
0.0525,4.854736328125,2.572509765625,-7.116943359375
0.053,5.735595703125,1.211181640625,-7.036865234375
0.0535,6.135986328125,0.250244140625,-6.796630859375
0.054,6.095947265625,-0.710693359375,-6.276123046875
0.0545,5.815673828125,-1.751708984375,-5.235107421875
0.055,5.535400390625,-3.072998046875,-3.873779296875
0.0555,5.335205078125,-4.514404296875,-2.472412109375
0.056,5.014892578125,-5.595458984375,-1.271240234375
0.0565,4.534423828125,-6.276123046875,-0.430419921875
0.057,3.693603515625,-6.436279296875,0.570556640625
0.0575,2.372314453125,-6.516357421875,1.891845703125
0.058,0.970947265625,-6.676513671875,3.533447265625
0.0585,-0.430419921875,-6.716552734375,4.854736328125
0.059,-1.231201171875,-6.756591796875,5.735595703125
0.0595,-1.951904296875,-6.516357421875,6.376220703125
0.06,-3.072998046875,-5.555419921875,6.696533203125
0.0605,-4.474365234375,-4.154052734375,6.936767578125
0.061,-5.635498046875,-2.632568359375,7.056884765625
0.0615,-6.356201171875,-1.391357421875,6.816650390625
0.062,-6.556396484375,-0.590576171875,6.536376953125
0.0625,-6.396240234375,0.410400390625,5.815673828125
0.063,-6.035888671875,1.571533203125,4.534423828125
0.0635,-5.795654296875,2.932861328125,3.253173828125
0.064,-5.515380859375,4.294189453125,1.891845703125
0.0645,-5.155029296875,5.094970703125,0.890869140625
0.065,-4.634521484375,5.535400390625,0.010009765625
0.0655,-3.713623046875,5.655517578125,-1.031005859375
0.066,-2.272216796875,5.735595703125,-2.432373046875
0.0665,-0.910888671875,5.975830078125,-4.033935546875
0.067,0.330322265625,5.935791015625,-5.155029296875
0.0675,0.970947265625,6.015869140625,-5.955810546875
0.068,1.811767578125,5.575439453125,-6.436279296875
0.0685,3.052978515625,4.414306640625,-6.756591796875
0.069,4.334228515625,3.052978515625,-6.996826171875
0.0695,5.415283203125,1.651611328125,-6.996826171875
0.07,5.895751953125,0.610595703125,-6.796630859375
0.0705,6.055908203125,-0.310302734375,-6.436279296875
0.071,5.815673828125,-1.151123046875,-5.675537109375
0.0715,5.495361328125,-2.352294921875,-4.434326171875
0.072,5.295166015625,-3.753662109375,-3.072998046875
0.0725,5.014892578125,-4.954833984375,-1.871826171875
0.073,4.654541015625,-5.715576171875,-0.950927734375
0.0735,4.053955078125,-6.115966796875,0.010009765625
0.074,3.012939453125,-6.156005859375,1.010986328125
0.0745,1.731689453125,-6.356201171875,2.492431640625
0.075,0.290283203125,-6.436279296875,3.973876953125
0.0755,-0.630615234375,-6.556396484375,4.974853515625
0.076,-1.311279296875,-6.556396484375,5.735595703125
0.0765,-2.192138671875,-5.995849609375,6.216064453125
0.077,-3.473388671875,-4.834716796875,6.456298828125
0.0775,-4.714599609375,-3.553466796875,6.696533203125
0.078,-5.635498046875,-2.232177734375,6.656494140625
0.0785,-6.115966796875,-1.311279296875,6.496337890625
0.079,-6.115966796875,-0.510498046875,6.095947265625
0.0795,-5.875732421875,0.570556640625,5.175048828125
0.08,-5.715576171875,1.731689453125,4.093994140625
0.0805,-5.515380859375,3.133056640625,2.732666015625
0.081,-5.275146484375,4.174072265625,1.651611328125
0.0815,-4.994873046875,4.814697265625,0.810791015625
0.082,-4.314208984375,5.175048828125,0.010009765625
0.0825,-3.153076171875,5.335205078125,-1.271240234375
0.083,-1.951904296875,5.655517578125,-2.752685546875
0.0835,-0.670654296875,5.735595703125,-4.114013671875
0.084,0.210205078125,5.895751953125,-5.114990234375
0.0845,0.970947265625,5.815673828125,-5.795654296875
0.085,1.971923828125,5.054931640625,-6.236083984375
0.0855,3.293212890625,3.853759765625,-6.556396484375
0.086,4.534423828125,2.492431640625,-6.756591796875
0.0865,5.295166015625,1.291259765625,-6.676513671875
0.087,5.655517578125,0.490478515625,-6.516357421875
0.0875,5.615478515625,-0.390380859375,-5.955810546875
0.088,5.375244140625,-1.431396484375,-4.994873046875
0.0885,5.215087890625,-2.792724609375,-3.833740234375
0.089,5.054931640625,-4.114013671875,-2.552490234375
0.0895,4.774658203125,-5.074951171875,-1.551513671875
0.09,4.414306640625,-5.595458984375,-0.750732421875
0.0905,3.573486328125,-5.795654296875,0.290283203125
0.091,2.372314453125,-5.955810546875,1.531494140625
0.0915,1.091064453125,-6.236083984375,3.093017578125
0.092,0.050048828125,-6.356201171875,4.214111328125
0.0925,-0.750732421875,-6.436279296875,5.094970703125
0.093,-1.511474609375,-6.196044921875,5.695556640625
0.0935,-2.672607421875,-5.195068359375,6.055908203125
0.094,-3.873779296875,-4.033935546875,6.336181640625
0.0945,-4.994873046875,-2.792724609375,6.416259765625
0.095,-5.635498046875,-1.751708984375,6.376220703125
0.0955,-5.795654296875,-0.990966796875,6.095947265625
0.096,-5.715576171875,-0.190185546875,5.455322265625
0.0965,-5.435302734375,0.890869140625,4.494384765625
0.097,-5.395263671875,2.252197265625,3.333251953125
0.0975,-5.235107421875,3.373291015625,2.172119140625
0.098,-4.994873046875,4.214111328125,1.331298828125
0.0985,-4.514404296875,4.694580078125,0.610595703125
0.099,-3.633544921875,4.894775390625,-0.510498046875
0.0995,-2.552490234375,5.175048828125,-1.751708984375
0.1,-1.351318359375,5.415283203125,-3.153076171875
0.1005,-0.510498046875,5.575439453125,-4.194091796875
0.101,0.250244140625,5.735595703125,-5.034912109375
0.1015,1.091064453125,5.335205078125,-5.555419921875
0.102,2.252197265625,4.414306640625,-5.915771484375
0.1025,3.533447265625,3.213134765625,-6.276123046875
0.103,4.494384765625,2.052001953125,-6.356201171875
0.1035,5.054931640625,1.211181640625,-6.356201171875
0.104,5.255126953125,0.450439453125,-6.115966796875
0.1045,5.094970703125,-0.510498046875,-5.435302734375
0.105,4.974853515625,-1.591552734375,-4.514404296875
0.1055,4.934814453125,-2.912841796875,-3.393310546875
0.106,4.814697265625,-3.993896484375,-2.392333984375
0.1065,4.614501953125,-4.754638671875,-1.551513671875
0.107,4.093994140625,-5.195068359375,-0.790771484375
0.1075,3.173095703125,-5.435302734375,0.370361328125
0.108,2.172119140625,-5.795654296875,1.691650390625
0.1085,0.970947265625,-6.035888671875,3.052978515625
0.109,0.250244140625,-6.276123046875,4.053955078125
0.1095,-0.590576171875,-6.316162109375,4.854736328125
0.11,-1.551513671875,-5.755615234375,5.335205078125
0.1105,-2.712646484375,-4.794677734375,5.735595703125
0.111,-3.913818359375,-3.673583984375,6.015869140625
0.1115,-4.794677734375,-2.592529296875,6.095947265625
0.112,-5.275146484375,-1.791748046875,6.095947265625
0.1125,-5.395263671875,-1.151123046875,5.735595703125
0.113,-5.235107421875,-0.230224609375,4.934814453125
0.1135,-5.275146484375,0.970947265625,4.093994140625
0.114,-5.155029296875,2.292236328125,3.052978515625
0.1145,-5.074951171875,3.253173828125,2.092041015625
0.115,-4.834716796875,3.973876953125,1.371337890625
0.1155,-4.194091796875,4.334228515625,0.570556640625
0.116,-3.313232421875,4.654541015625,-0.630615234375
0.1165,-2.272216796875,5.094970703125,-1.991943359375
0.117,-1.311279296875,5.295166015625,-3.193115234375
0.1175,-0.630615234375,5.575439453125,-4.154052734375
0.118,0.290283203125,5.495361328125,-4.874755859375
0.1185,1.291259765625,4.814697265625,-5.355224609375
0.119,2.492431640625,3.853759765625,-5.755615234375
0.1195,3.653564453125,2.732666015625,-6.035888671875
0.12,4.414306640625,1.771728515625,-6.115966796875
0.1205,4.814697265625,1.051025390625,-6.115966796875
0.121,4.854736328125,0.290283203125,-5.675537109375
0.1215,4.814697265625,-0.750732421875,-4.954833984375
0.122,4.814697265625,-1.951904296875,-3.993896484375
0.1225,4.734619140625,-3.153076171875,-2.952880859375
0.123,4.654541015625,-4.033935546875,-2.152099609375
0.1235,4.334228515625,-4.674560546875,-1.351318359375
0.124,3.653564453125,-4.994873046875,-0.470458984375
0.1245,2.732666015625,-5.435302734375,0.850830078125
0.125,1.651611328125,-5.755615234375,2.212158203125
0.1255,0.810791015625,-6.115966796875,3.333251953125
0.126,0.130126953125,-6.276123046875,4.214111328125
0.1265,-0.830810546875,-6.035888671875,4.854736328125
0.127,-1.951904296875,-5.195068359375,5.335205078125
0.1275,-3.193115234375,-4.194091796875,5.735595703125
0.128,-4.234130859375,-3.072998046875,5.935791015625
0.1285,-4.874755859375,-2.272216796875,6.015869140625
0.129,-5.155029296875,-1.551513671875,5.815673828125
0.1295,-5.155029296875,-0.710693359375,5.175048828125
0.13,-5.155029296875,0.450439453125,4.494384765625
0.1305,-5.155029296875,1.691650390625,3.493408203125
0.131,-5.074951171875,2.852783203125,2.532470703125
0.1315,-4.954833984375,3.653564453125,1.771728515625
0.132,-4.474365234375,4.134033203125,0.970947265625
0.1325,-3.633544921875,4.454345703125,-0.190185546875
0.133,-2.712646484375,4.934814453125,-1.471435546875
0.1335,-1.671630859375,5.175048828125,-2.752685546875
0.134,-0.950927734375,5.495361328125,-3.833740234375
0.1345,-0.190185546875,5.615478515625,-4.634521484375
0.135,0.890869140625,5.094970703125,-5.195068359375
0.1355,2.092041015625,4.134033203125,-5.635498046875
0.136,3.333251953125,3.052978515625,-5.995849609375
0.1365,4.254150390625,1.931884765625,-6.115966796875
0.137,4.734619140625,1.251220703125,-6.156005859375
0.1375,4.854736328125,0.450439453125,-5.835693359375
0.138,4.814697265625,-0.510498046875,-5.114990234375
0.1385,4.854736328125,-1.671630859375,-4.194091796875
0.139,4.814697265625,-2.952880859375,-3.153076171875
0.1395,4.694580078125,-3.953857421875,-2.232177734375
0.14,4.494384765625,-4.674560546875,-1.471435546875
0.1405,3.813720703125,-5.034912109375,-0.630615234375
0.141,2.852783203125,-5.355224609375,0.650634765625
0.1415,1.771728515625,-5.755615234375,2.052001953125
0.142,0.810791015625,-5.995849609375,3.253173828125
0.1425,0.130126953125,-6.276123046875,4.174072265625
0.143,-0.790771484375,-6.115966796875,4.934814453125
0.1435,-1.871826171875,-5.315185546875,5.375244140625
0.144,-3.153076171875,-4.314208984375,5.775634765625
0.1445,-4.234130859375,-3.193115234375,6.015869140625
0.145,-4.994873046875,-2.272216796875,6.055908203125
0.1455,-5.315185546875,-1.551513671875,5.895751953125
0.146,-5.275146484375,-0.670654296875,5.415283203125
0.1465,-5.195068359375,0.450439453125,4.534423828125
0.147,-5.235107421875,1.731689453125,3.573486328125
0.1475,-5.114990234375,2.852783203125,2.532470703125
0.148,-4.994873046875,3.733642578125,1.691650390625
0.1485,-4.554443359375,4.254150390625,0.930908203125
0.149,-3.753662109375,4.534423828125,0.010009765625
0.1495,-2.792724609375,4.934814453125,-1.431396484375
0.15,-1.631591796875,5.255126953125,-2.872802734375
0.1505,-0.790771484375,5.495361328125,-3.913818359375
0.151,0.010009765625,5.695556640625,-4.794677734375
0.1515,0.930908203125,5.255126953125,-5.395263671875
0.152,2.172119140625,4.294189453125,-5.795654296875
0.1525,3.453369140625,3.133056640625,-6.196044921875
0.153,4.414306640625,1.931884765625,-6.276123046875
0.1535,4.974853515625,1.131103515625,-6.316162109375
0.154,5.135009765625,0.370361328125,-5.995849609375
0.1545,5.054931640625,-0.630615234375,-5.235107421875
0.155,4.974853515625,-1.791748046875,-4.314208984375
0.1555,4.934814453125,-3.193115234375,-3.113037109375
0.156,4.774658203125,-4.234130859375,-2.072021484375
0.1565,4.534423828125,-4.994873046875,-1.311279296875
0.157,3.893798828125,-5.355224609375,-0.470458984375
0.1575,2.852783203125,-5.595458984375,0.810791015625
0.158,1.731689453125,-5.955810546875,2.252197265625
0.1585,0.610595703125,-6.156005859375,3.533447265625
0.159,-0.190185546875,-6.396240234375,4.534423828125
0.1595,-0.990966796875,-6.276123046875,5.255126953125
0.16,-2.072021484375,-5.475341796875,5.735595703125
0.1605,-3.353271484375,-4.394287109375,6.095947265625
0.161,-4.554443359375,-3.153076171875,6.296142578125
0.1615,-5.395263671875,-2.072021484375,6.256103515625
0.162,-5.675537109375,-1.271240234375,6.095947265625
0.1625,-5.635498046875,-0.430419921875,5.575439453125
0.163,-5.435302734375,0.770751953125,4.574462890625
0.1635,-5.395263671875,2.052001953125,3.493408203125
0.164,-5.275146484375,3.333251953125,2.292236328125
0.1645,-5.074951171875,4.214111328125,1.411376953125
0.165,-4.634521484375,4.734619140625,0.610595703125
0.1655,-3.793701171875,4.974853515625,-0.430419921875
0.166,-2.632568359375,5.215087890625,-1.751708984375
0.1665,-1.351318359375,5.535400390625,-3.273193359375
0.167,-0.470458984375,5.695556640625,-4.434326171875
0.1675,0.370361328125,5.855712890625,-5.275146484375
0.168,1.251220703125,5.415283203125,-5.875732421875
0.1685,2.532470703125,4.334228515625,-6.236083984375
0.169,3.853759765625,3.093017578125,-6.596435546875
0.1695,4.934814453125,1.771728515625,-6.716552734375
0.17,5.495361328125,0.810791015625,-6.556396484375
0.1705,5.655517578125,0.050048828125,-6.276123046875
0.171,5.495361328125,-0.990966796875,-5.475341796875
0.1715,5.295166015625,-2.232177734375,-4.354248046875
0.172,5.175048828125,-3.713623046875,-2.952880859375
0.1725,4.974853515625,-4.834716796875,-1.791748046875
0.173,4.614501953125,-5.595458984375,-0.990966796875
0.1735,3.973876953125,-5.915771484375,0.010009765625
0.174,2.812744140625,-6.075927734375,1.211181640625
0.1745,1.531494140625,-6.356201171875,2.732666015625
0.175,0.210205078125,-6.476318359375,4.214111328125
0.1755,-0.710693359375,-6.596435546875,5.135009765625
0.176,-1.431396484375,-6.436279296875,5.855712890625
0.1765,-2.552490234375,-5.755615234375,6.336181640625
0.177,-3.873779296875,-4.434326171875,6.576416015625
0.1775,-5.195068359375,-3.072998046875,6.776611328125
0.178,-5.955810546875,-1.711669921875,6.696533203125
0.1785,-6.276123046875,-0.870849609375,6.456298828125
0.179,-6.196044921875,0.130126953125,5.815673828125
0.1795,-5.915771484375,1.211181640625,4.734619140625
0.18,-5.675537109375,2.532470703125,3.453369140625
0.1805,-5.475341796875,3.893798828125,2.092041015625
0.181,-5.155029296875,4.854736328125,1.051025390625
0.1815,-4.674560546875,5.375244140625,0.250244140625
0.182,-3.833740234375,5.495361328125,-0.790771484375
0.1825,-2.472412109375,5.615478515625,-2.152099609375
0.183,-1.151123046875,5.895751953125,-3.753662109375
0.1835,0.130126953125,5.895751953125,-4.954833984375
0.184,0.810791015625,5.975830078125,-5.755615234375
0.1845,1.651611328125,5.615478515625,-6.396240234375
0.185,2.852783203125,4.534423828125,-6.716552734375
0.1855,4.134033203125,3.173095703125,-6.996826171875
0.186,5.335205078125,1.771728515625,-7.036865234375
0.1865,5.895751953125,0.610595703125,-6.796630859375
0.187,6.095947265625,-0.310302734375,-6.476318359375
0.1875,5.895751953125,-1.231201171875,-5.755615234375
0.188,5.575439453125,-2.392333984375,-4.514404296875
