wavelength,x,y,z
0.0,-4.7646484375,10.0498046875,-5.6455078125
0.0005,-2.5625,9.2890625,-7.0869140625
0.001,-0.5205078125,8.96875,-8.8486328125
0.0015,1.5615234375,8.1279296875,-10.08984375
0.002,2.9228515625,6.6865234375,-9.9697265625
0.0025,4.6845703125,5.3251953125,-10.41015625
0.003,7.287109375,2.8828125,-10.5302734375
0.0035,8.4482421875,0.7607421875,-9.609375
0.004,10.25,-1.041015625,-9.689453125
0.0045,10.810546875,-2.9228515625,-8.328125
0.005,10.810546875,-4.1640625,-7.0869140625
0.0055,11.0908203125,-6.2861328125,-5.205078125
0.006,10.6904296875,-8.0478515625,-2.9228515625
0.0065,9.9296875,-8.9287109375,-1.201171875
0.007,9.609375,-10.330078125,0.6806640625
0.0075,7.5673828125,-10.08984375,2.5224609375
0.008,6.326171875,-10.009765625,3.763671875
0.0085,3.9638671875,-10.08984375,6.24609375
0.009,1.76171875,-9.2490234375,7.52734375
0.0095,0.0,-8.8486328125,9.0888671875
0.01,-2.08203125,-7.8876953125,10.1298828125
0.0105,-3.5634765625,-6.2861328125,10.08984375
0.011,-5.5654296875,-4.64453125,10.4501953125
0.0115,-7.9677734375,-2.2822265625,10.490234375
0.012,-8.96875,-0.16015625,9.4091796875
0.0125,-10.5703125,1.3212890625,9.529296875
0.013,-10.890625,3.2431640625,7.927734375
0.0135,-10.7705078125,4.6044921875,6.40625
0.014,-11.0908203125,6.8466796875,4.4443359375
0.0145,-10.5302734375,8.4482421875,2.2021484375
0.015,-9.6494140625,9.0888671875,0.560546875
0.0155,-9.2890625,10.3701171875,-1.2412109375
0.016,-7.0869140625,9.9296875,-3.0830078125
0.0165,-5.60546875,9.76953125,-4.484375
0.017,-3.283203125,9.8896484375,-7.0068359375
0.0175,-1.041015625,8.80859375,-8.1279296875
0.018,0.6005859375,8.48828125,-9.44921875
0.0185,2.6025390625,7.4072265625,-10.3701171875
0.019,4.2841796875,5.60546875,-10.25
0.0195,6.486328125,3.603515625,-10.490234375
0.02,8.80859375,1.201171875,-10.3701171875
0.0205,9.5693359375,-0.9208984375,-9.12890625
0.021,10.890625,-2.001953125,-9.3291015625
0.0215,11.1708984375,-4.1240234375,-7.4873046875
0.022,10.890625,-5.685546875,-5.6455078125
0.0225,11.2109375,-7.8876953125,-3.603515625
0.023,10.2900390625,-9.3291015625,-1.2412109375
0.0235,9.3291015625,-9.76953125,0.3203125
0.024,8.8486328125,-10.7705078125,1.921875
0.0245,6.3662109375,-10.25,3.9638671875
0.025,4.5244140625,-10.0498046875,5.525390625
0.0255,2.2421875,-10.1298828125,8.0478515625
0.026,-0.16015625,-8.6884765625,8.96875
0.0265,-1.44140625,-8.3681640625,10.0498046875
0.027,-3.4833984375,-7.0869140625,10.73046875
0.0275,-5.3251953125,-5.0048828125,10.5302734375
0.028,-7.607421875,-2.7626953125,10.6103515625
0.0285,-9.76953125,-0.3603515625,10.330078125
0.029,-10.1298828125,1.521484375,8.9287109375
0.0295,-11.2509765625,2.5224609375,9.048828125
0.03,-11.291015625,4.724609375,6.8466796875
0.0305,-10.890625,6.3662109375,4.7646484375
0.031,-11.1708984375,8.6484375,2.642578125
0.0315,-10.009765625,9.7294921875,0.3203125
0.032,-9.048828125,9.9296875,-0.9208984375
0.0325,-8.328125,10.650390625,-2.5224609375
0.033,-5.765625,9.9697265625,-4.6044921875
0.0335,-3.84375,9.7294921875,-6.24609375
0.034,-1.4814453125,9.7294921875,-8.6083984375
0.0345,0.7607421875,8.1279296875,-9.2490234375
0.035,1.76171875,7.9677734375,-10.1298828125
0.0355,3.84375,6.40625,-10.650390625
0.036,5.7255859375,4.2041015625,-10.3701171875
0.0365,8.1279296875,1.8818359375,-10.41015625
0.037,9.9697265625,-0.6005859375,-9.8896484375
0.0375,10.2099609375,-1.9619140625,-8.6884765625
0.038,11.130859375,-2.962890625,-8.6083984375
0.0385,11.05078125,-5.2451171875,-6.2861328125
0.039,10.6904296875,-6.88671875,-4.2041015625
0.0395,10.9306640625,-9.12890625,-2.08203125
0.04,9.529296875,-9.8095703125,0.2001953125
0.0405,8.7685546875,-10.009765625,1.1611328125
0.041,7.6474609375,-10.5302734375,2.802734375
0.0415,5.0849609375,-9.849609375,4.884765625
0.042,3.04296875,-9.6494140625,6.6865234375
0.0425,0.7607421875,-9.44921875,8.888671875
0.043,-1.1611328125,-7.9677734375,9.2490234375
0.0435,-2.08203125,-7.7275390625,10.08984375
0.044,-4.32421875,-5.92578125,10.4501953125
0.0445,-6.1259765625,-3.8037109375,10.169921875
0.045,-8.5283203125,-1.44140625,10.2099609375
0.0455,-9.9697265625,0.80078125,9.4892578125
0.046,-10.1298828125,1.9619140625,8.4482421875
0.0465,-10.890625,3.1630859375,8.0478515625
0.047,-10.7705078125,5.4052734375,5.60546875
0.0475,-10.4501953125,7.0068359375,3.68359375
0.048,-10.5703125,9.12890625,1.44140625
0.0485,-9.0888671875,9.5693359375,-0.5205078125
0.049,-8.5283203125,9.689453125,-1.361328125
0.0495,-7.0869140625,9.9697265625,-3.1630859375
0.05,-4.6044921875,9.44921875,-5.125
0.0505,-2.6025390625,9.3291015625,-7.0869140625
0.051,-0.3203125,8.888671875,-8.9287109375
0.0515,1.3212890625,7.5673828125,-9.2490234375
0.052,2.2822265625,7.287109375,-9.9296875
0.0525,4.724609375,5.125,-10.25
0.053,6.40625,3.123046875,-9.9296875
0.0535,8.8486328125,0.7607421875,-9.9697265625
0.054,10.009765625,-1.3212890625,-9.12890625
0.0545,10.169921875,-2.40234375,-8.248046875
0.055,10.8505859375,-3.8837890625,-7.4072265625
0.0555,10.73046875,-6.1259765625,-5.0048828125
0.056,10.3701171875,-7.6474609375,-3.0830078125
0.0565,10.330078125,-9.6494140625,-0.9208984375
0.057,8.7685546875,-9.8095703125,0.9208984375
0.0575,8.087890625,-9.849609375,1.76171875
0.058,6.2060546875,-10.08984375,3.9638671875
0.0585,3.8837890625,-9.5693359375,5.8056640625
0.059,1.7216796875,-9.3291015625,7.8076171875
0.0595,-0.5205078125,-8.80859375,9.4892578125
0.06,-1.9619140625,-7.447265625,9.609375
0.0605,-3.0830078125,-6.806640625,10.169921875
0.061,-5.8056640625,-4.4443359375,10.4501953125
0.0615,-7.3671875,-2.4423828125,9.9697265625
0.062,-9.4892578125,-0.2802734375,9.9697265625
0.0625,-10.4501953125,1.76171875,9.0087890625
0.063,-10.5703125,3.0029296875,7.84765625
0.0635,-11.05078125,4.724609375,6.56640625
0.064,-10.8505859375,6.88671875,4.1240234375
0.0645,-10.2900390625,8.0478515625,2.322265625
0.065,-10.2099609375,9.8896484375,0.240234375
0.0655,-8.48828125,9.9296875,-1.6015625
0.066,-7.52734375,9.8896484375,-2.6025390625
0.0665,-5.4052734375,10.08984375,-4.96484375
0.067,-3.1630859375,9.44921875,-6.6865234375
0.0675,-1.041015625,9.0888671875,-8.3681640625
0.068,1.12109375,8.4482421875,-9.9296875
0.0685,2.6025390625,6.966796875,-9.9296875
0.069,4.083984375,5.8857421875,-10.3701171875
0.0695,6.8466796875,3.4033203125,-10.650390625
0.07,8.2080078125,1.28125,-9.849609375
0.0705,10.009765625,-0.6806640625,-9.8095703125
0.071,10.890625,-2.6025390625,-8.728515625
0.0715,10.8505859375,-4.0439453125,-7.287109375
0.072,11.2109375,-5.8857421875,-5.685546875
0.0725,11.0107421875,-8.0078125,-3.36328125
0.073,10.08984375,-8.9287109375,-1.521484375
0.0735,9.9697265625,-10.4501953125,0.4404296875
0.074,7.9677734375,-10.41015625,2.40234375
0.0745,6.6865234375,-10.2099609375,3.5634765625
0.075,4.404296875,-10.2900390625,6.0458984375
0.0755,2.08203125,-9.6494140625,7.6875
0.076,0.2001953125,-9.0087890625,9.048828125
0.0765,-1.8818359375,-8.3681640625,10.4501953125
0.077,-3.6435546875,-6.56640625,10.41015625
0.0775,-5.3251953125,-5.125,10.6904296875
0.078,-8.0078125,-2.642578125,10.9306640625
0.0785,-9.1689453125,-0.3603515625,9.76953125
0.079,-10.650390625,1.2412109375,9.7294921875
0.0795,-11.37109375,3.1630859375,8.4482421875
0.08,-11.1708984375,4.7646484375,6.6865234375
0.0805,-11.37109375,6.6865234375,4.8447265625
0.081,-11.1708984375,8.728515625,2.482421875
0.0815,-9.8896484375,9.3291015625,0.6005859375
0.082,-9.8095703125,10.73046875,-1.041015625
0.0825,-7.5673828125,10.5302734375,-3.203125
0.083,-5.92578125,10.169921875,-4.5244140625
0.0835,-3.7236328125,10.2900390625,-7.0068359375
0.084,-1.28125,9.4091796875,-8.48828125
0.0845,0.5205078125,8.6484375,-9.5693359375
0.085,2.40234375,8.0078125,-10.810546875
0.0855,4.404296875,5.92578125,-10.73046875
0.086,6.2861328125,4.083984375,-10.7705078125
0.0865,9.0087890625,1.5615234375,-11.0107421875
0.087,9.8896484375,-0.80078125,-9.5693359375
0.0875,11.130859375,-2.0419921875,-9.609375
0.088,11.7314453125,-4.083984375,-8.16796875
0.0885,11.37109375,-5.8056640625,-5.9658203125
0.089,11.4912109375,-7.84765625,-4.0439453125
0.0895,11.0908203125,-9.8095703125,-1.5615234375
0.09,9.5693359375,-10.0498046875,0.3603515625
0.0905,9.44921875,-11.1708984375,1.6416015625
0.091,6.88671875,-10.8505859375,3.9638671875
0.0915,4.9248046875,-10.330078125,5.5654296875
0.092,2.6826171875,-10.4501953125,7.9677734375
0.0925,0.1201171875,-9.2890625,9.4091796875
0.093,-1.44140625,-8.48828125,10.1298828125
0.0935,-3.203125,-7.7275390625,11.130859375
0.094,-5.3251953125,-5.4052734375,10.9306640625
0.0945,-7.4072265625,-3.203125,10.8505859375
0.095,-9.9296875,-0.80078125,10.9306640625
0.0955,-10.4501953125,1.4814453125,9.2890625
0.096,-11.4111328125,2.40234375,9.3291015625
0.0965,-11.8115234375,4.484375,7.52734375
0.097,-11.291015625,6.2861328125,5.1650390625
0.0975,-11.37109375,8.408203125,3.123046875
0.098,-10.7705078125,10.08984375,0.720703125
0.0985,-9.2490234375,10.08984375,-1.0009765625
0.099,-8.96875,10.970703125,-2.2021484375
0.0995,-6.326171875,10.5302734375,-4.484375
0.1,-4.2041015625,9.9697265625,-6.0859375
0.1005,-2.001953125,10.1298828125,-8.48828125
0.101,0.5205078125,8.6884765625,-9.4892578125
0.1015,1.681640625,8.0478515625,-10.1298828125
0.102,3.4833984375,7.046875,-10.9306640625
0.1025,5.60546875,4.724609375,-10.73046875
0.103,7.7275390625,2.40234375,-10.5703125
0.1035,10.08984375,0.0,-10.5302734375
0.104,10.41015625,-1.9619140625,-8.96875
0.1045,11.291015625,-2.802734375,-9.0087890625
0.105,11.53125,-5.0849609375,-7.0068359375
0.1055,11.0908203125,-6.7265625,-4.724609375
0.106,11.1708984375,-8.9287109375,-2.5625
0.1065,10.2900390625,-10.2900390625,-0.2001953125
0.107,8.96875,-10.2099609375,1.201171875
0.1075,8.4482421875,-10.890625,2.4423828125
0.108,5.685546875,-10.41015625,4.8447265625
0.1085,3.5634765625,-9.9697265625,6.5263671875
0.109,1.28125,-10.009765625,8.96875
0.1095,-1.1611328125,-8.5283203125,9.8095703125
0.11,-2.08203125,-8.0078125,10.2900390625
0.1105,-4.0439453125,-6.6865234375,10.9306640625
0.111,-6.2861328125,-4.244140625,10.73046875
0.1115,-8.408203125,-1.9619140625,10.6103515625
0.112,-10.5703125,0.48046875,10.3701171875
0.1125,-10.73046875,2.2021484375,8.8486328125
0.113,-11.4912109375,3.04296875,8.6484375
0.1135,-11.611328125,5.60546875,6.24609375
0.114,-11.0908203125,7.20703125,4.083984375
0.1145,-11.0908203125,9.4892578125,1.76171875
0.115,-10.1298828125,10.6103515625,-0.6005859375
0.1155,-8.728515625,10.2900390625,-1.76171875
0.116,-7.9677734375,10.810546875,-3.0830078125
0.1165,-5.044921875,10.3701171875,-5.6455078125
0.117,-2.8427734375,9.8896484375,-7.4072265625
0.1175,-0.400390625,9.76953125,-9.76953125
0.118,1.76171875,8.248046875,-10.3701171875
0.1185,2.6826171875,7.5673828125,-10.650390625
0.119,5.044921875,5.8056640625,-11.291015625
0.1195,7.287109375,3.283203125,-10.970703125
0.12,9.2490234375,0.880859375,-10.5703125
0.1205,11.3310546875,-1.4814453125,-10.3701171875
0.121,11.3310546875,-3.2431640625,-8.6884765625
0.1215,11.8115234375,-4.32421875,-8.0078125
0.122,12.0517578125,-7.0869140625,-5.4453125
0.1225,11.3310546875,-8.408203125,-3.2431640625
0.123,11.05078125,-10.41015625,-0.9208984375
0.1235,10.009765625,-11.4111328125,1.3212890625
0.124,8.2080078125,-10.890625,2.6826171875
0.1245,6.966796875,-11.2109375,4.32421875
0.125,3.9638671875,-10.8505859375,7.046875
0.1255,1.8017578125,-10.0498046875,8.4482421875
0.126,-0.6806640625,-9.76953125,10.650390625
0.1265,-2.7626953125,-8.16796875,11.130859375
0.127,-3.8837890625,-7.0068359375,11.1708984375
0.1275,-6.486328125,-4.884765625,11.6513671875
0.128,-8.6484375,-2.322265625,11.2509765625
0.1285,-10.08984375,0.0,10.4501953125
0.129,-11.931640625,1.921875,10.2099609375
0.1295,-11.8916015625,4.00390625,8.16796875
0.13,-12.0517578125,5.1650390625,7.1669921875
0.1305,-12.1318359375,7.8876953125,4.4443359375
0.131,-11.2509765625,9.0888671875,2.2421875
0.1315,-10.7705078125,10.5302734375,0.240234375
0.132,-9.6494140625,11.4912109375,-1.9619140625
0.1325,-7.5673828125,10.8505859375,-3.5234375
0.133,-6.1259765625,10.9306640625,-5.125
0.1335,-3.2431640625,10.5302734375,-7.6875
0.134,-1.1611328125,9.5693359375,-8.80859375
0.1345,1.12109375,9.2490234375,-10.73046875
0.135,3.1630859375,7.607421875,-11.0908203125
0.1355,4.4443359375,6.2060546875,-11.05078125
0.136,7.046875,3.923828125,-11.4912109375
0.1365,9.0087890625,1.4013671875,-10.890625
0.137,10.2099609375,-0.80078125,-10.0498046875
0.1375,11.771484375,-2.4423828125,-9.8095703125
0.138,11.6513671875,-4.484375,-7.7275390625
0.1385,11.6513671875,-5.7255859375,-6.40625
0.139,11.8115234375,-8.328125,-3.84375
0.1395,10.73046875,-9.2890625,-1.7216796875
0.14,10.2900390625,-10.5703125,0.16015625
0.1405,9.0087890625,-11.2509765625,2.2021484375
0.141,6.966796875,-10.5703125,3.68359375
0.1415,5.2451171875,-10.650390625,5.5654296875
0.142,2.5625,-10.2900390625,7.927734375
0.1425,0.560546875,-9.208984375,8.888671875
0.143,-1.4013671875,-9.0087890625,10.6103515625
0.1435,-3.5234375,-7.20703125,10.9306640625
0.144,-4.8447265625,-5.685546875,10.810546875
0.1445,-7.5673828125,-3.4033203125,11.1708984375
0.145,-9.2490234375,-1.0009765625,10.41015625
0.1455,-10.25,0.9609375,9.609375
0.146,-11.53125,2.5224609375,9.3291015625
0.1465,-11.37109375,4.484375,7.0869140625
0.147,-11.2509765625,5.8857421875,5.60546875
0.1475,-11.4912109375,8.4482421875,3.1630859375
0.148,-10.2099609375,9.1689453125,1.12109375
0.1485,-9.8896484375,10.25,-0.4404296875
0.149,-8.48828125,10.7705078125,-2.5224609375
0.1495,-6.326171875,10.08984375,-4.00390625
0.15,-4.564453125,10.169921875,-5.92578125
0.1505,-2.0419921875,9.76953125,-8.1279296875
0.151,-0.16015625,8.6083984375,-8.888671875
0.1515,1.5615234375,8.4482421875,-10.3701171875
0.152,3.68359375,6.5263671875,-10.650390625
0.1525,5.28515625,4.8046875,-10.490234375
0.153,7.927734375,2.40234375,-10.890625
0.1535,9.4091796875,0.0400390625,-9.849609375
0.154,10.2900390625,-1.4814453125,-9.2890625
0.1545,11.37109375,-2.9228515625,-8.8486328125
0.155,11.0908203125,-4.96484375,-6.56640625
0.1555,11.0107421875,-6.56640625,-4.8447265625
0.156,11.1708984375,-8.96875,-2.5224609375
0.1565,9.6494140625,-9.4091796875,-0.48046875
0.157,9.44921875,-10.3701171875,0.8408203125
0.1575,7.7275390625,-10.5703125,2.8427734375
0.158,5.4853515625,-9.9697265625,4.5244140625
0.1585,3.68359375,-10.08984375,6.56640625
0.159,1.12109375,-9.4892578125,8.568359375
0.1595,-0.640625,-8.328125,9.1689453125
0.16,-2.08203125,-8.16796875,10.3701171875
0.1605,-4.2041015625,-6.1259765625,10.490234375
0.161,-5.9658203125,-4.2041015625,10.330078125
0.1615,-8.6083984375,-1.8017578125,10.650390625
0.162,-9.689453125,0.560546875,9.44921875
0.1625,-10.3701171875,1.681640625,9.0087890625
0.163,-11.1708984375,3.203125,8.248046875
0.1635,-10.810546875,5.1650390625,5.8857421875
0.164,-10.7705078125,6.88671875,4.0439453125
0.1645,-10.7705078125,9.0888671875,1.76171875
0.165,-9.1689453125,9.2490234375,-0.16015625
0.1655,-9.048828125,10.08984375,-1.201171875
0.166,-7.0869140625,10.08984375,-3.203125
0.1665,-4.9248046875,9.529296875,-4.8447265625
0.167,-3.0029296875,9.6494140625,-6.9267578125
0.1675,-0.640625,8.8486328125,-8.568359375
0.168,0.880859375,7.84765625,-9.0888671875
0.1685,2.2421875,7.4873046875,-10.1298828125
0.169,4.32421875,5.3251953125,-10.169921875
0.1695,6.2060546875,3.36328125,-9.9697265625
0.17,8.80859375,1.0009765625,-10.2099609375
0.1705,9.529296875,-1.041015625,-8.9287109375
0.171,10.2099609375,-1.9619140625,-8.728515625
0.1715,10.8505859375,-3.68359375,-7.5673828125
0.172,10.490234375,-5.5654296875,-5.3251953125
0.1725,10.490234375,-7.4072265625,-3.4033203125
0.173,10.25,-9.2890625,-1.2412109375
0.1735,8.80859375,-9.2890625,0.400390625
0.174,8.6083984375,-10.009765625,1.4013671875
0.1745,6.40625,-9.8896484375,3.5634765625
0.175,4.2841796875,-9.4091796875,5.2451171875
0.1755,2.2421875,-9.5693359375,7.52734375
0.176,0.0,-8.6083984375,8.80859375
0.1765,-1.28125,-7.8076171875,9.208984375
0.177,-2.72265625,-7.1669921875,10.009765625
0.1775,-4.884765625,-4.884765625,10.0498046875
0.178,-6.806640625,-2.8828125,9.9296875
0.1785,-9.2890625,-0.5205078125,9.9697265625
0.179,-9.689453125,1.28125,8.6884765625
0.1795,-10.330078125,2.1220703125,8.48828125
0.18,-10.7705078125,4.1240234375,6.9267578125
0.1805,-10.490234375,5.9658203125,4.724609375
0.181,-10.490234375,7.927734375,2.6826171875
0.1815,-10.009765625,9.5693359375,0.5205078125
0.182,-8.6083984375,9.369140625,-0.880859375
0.1825,-8.2080078125,9.9296875,-1.8818359375
0.183,-5.765625,9.7294921875,-4.2041015625
0.1835,-3.68359375,9.2890625,-5.92578125
0.184,-1.4814453125,9.2890625,-8.2080078125
0.1845,0.7607421875,8.16796875,-9.2490234375
0.185,1.7216796875,7.4072265625,-9.5693359375
0.1855,3.36328125,6.40625,-10.2099609375
0.186,5.7255859375,4.0439453125,-10.2099609375
0.1865,7.6474609375,1.921875,-9.9296875
0.187,9.9296875,-0.400390625,-9.9697265625
0.1875,10.2099609375,-2.08203125,-8.6083984375
0.188,10.73046875,-3.04296875,-8.16796875
0.1885,11.130859375,-5.4052734375,-6.1259765625
0.189,10.73046875,-7.0869140625,-4.00390625
0.1895,10.5302734375,-8.9287109375,-1.8818359375
0.19,9.9296875,-10.330078125,0.3203125
0.1905,8.2880859375,-9.9697265625,1.681640625
0.191,7.52734375,-10.3701171875,2.8828125
0.1915,4.8046875,-10.2099609375,5.525390625
0.192,2.6826171875,-9.6494140625,7.0869140625
0.1925,0.3603515625,-9.4892578125,9.2890625
0.193,-1.7216796875,-8.2880859375,10.1298828125
0.1935,-2.802734375,-7.1669921875,10.2099609375
0.194,-4.884765625,-5.685546875,10.810546875
0.1945,-7.3271484375,-3.1630859375,10.6904296875
0.195,-8.7685546875,-1.041015625,10.08984375
0.1955,-10.810546875,1.0810546875,10.0498046875
0.196,-11.0107421875,2.9228515625,8.328125
0.1965,-11.2509765625,4.1240234375,7.4072265625
0.197,-11.53125,6.5263671875,5.1650390625
0.1975,-10.890625,8.1279296875,2.9228515625
0.198,-10.41015625,9.4892578125,1.0009765625
0.1985,-9.76953125,10.73046875,-1.12109375
0.199,-7.767578125,10.25,-2.642578125
0.1995,-6.6064453125,10.41015625,-4.0439453125
0.2,-3.923828125,10.2099609375,-6.6064453125
0.2005,-1.841796875,9.369140625,-7.8876953125
0.201,0.3603515625,9.048828125,-9.8095703125
0.2015,2.3623046875,7.767578125,-10.5302734375
0.202,3.68359375,6.40625,-10.4501953125
0.2025,5.92578125,4.564453125,-10.890625
0.203,8.16796875,2.0419921875,-10.650390625
0.2035,9.369140625,0.0,-9.7294921875
0.204,11.130859375,-1.841796875,-9.76953125
0.2045,11.2109375,-3.8037109375,-7.8876953125
0.205,11.2509765625,-5.0048828125,-6.6865234375
0.2055,11.451171875,-7.4072265625,-4.404296875
0.206,10.6904296875,-8.7685546875,-2.2021484375
0.2065,10.08984375,-9.849609375,-0.4404296875
0.207,9.2890625,-10.890625,1.5615234375
0.2075,7.0869140625,-10.2900390625,3.1630859375
0.208,5.7255859375,-10.3701171875,4.7646484375
0.2085,3.123046875,-10.2099609375,7.1669921875
0.209,1.0810546875,-9.1689453125,8.248046875
0.2095,-0.9208984375,-8.9287109375,9.9697265625
0.21,-2.8427734375,-7.447265625,10.5302734375
0.2105,-4.244140625,-5.92578125,10.41015625
0.211,-6.646484375,-3.8837890625,10.810546875
0.2115,-8.6484375,-1.5615234375,10.41015625
0.212,-9.609375,0.48046875,9.44921875
0.2125,-11.0908203125,1.9619140625,9.44921875
0.213,-11.05078125,3.8837890625,7.4072265625
0.2135,-10.970703125,5.205078125,6.005859375
0.214,-11.2109375,7.6474609375,3.8037109375
0.2145,-10.25,8.728515625,1.6015625
0.215,-9.76953125,9.689453125,0.0400390625
0.2155,-8.80859375,10.5302734375,-1.8818359375
0.216,-6.6064453125,9.849609375,-3.4833984375
0.2165,-5.0849609375,9.9296875,-5.125
0.217,-2.642578125,9.7294921875,-7.4873046875
0.2175,-0.640625,8.6484375,-8.328125
0.218,1.0810546875,8.4482421875,-9.8896484375
0.2185,3.04296875,6.88671875,-10.2900390625
0.219,4.564453125,5.2451171875,-10.2099609375
0.2195,7.046875,3.123046875,-10.5703125
0.22,8.888671875,0.6806640625,-9.9697265625
0.2205,9.7294921875,-1.0810546875,-9.12890625
0.221,11.0107421875,-2.4423828125,-9.048828125
0.2215,10.8505859375,-4.3642578125,-6.9267578125
0.222,10.810546875,-5.92578125,-5.28515625
0.2225,11.130859375,-8.328125,-3.123046875
0.223,9.849609375,-9.12890625,-1.0009765625
