wavelength,x,y,z
0.0,-29.2685546875,-27.2265625,54.7333984375
0.0005,-37.0361328125,-17.3369140625,52.1708984375
0.001,-45.484375,-6.24609375,49.568359375
0.0015,-51.970703125,5.0849609375,45.0439453125
0.002,-55.89453125,15.775390625,38.5576171875
0.0025,-56.2548828125,24.583984375,30.509765625
0.003,-54.0927734375,31.87109375,21.62109375
0.0035,-52.1708984375,41.080078125,11.130859375
0.004,-49.087890625,49.248046875,0.1201171875
0.0045,-44.04296875,54.693359375,-10.25
0.005,-36.515625,56.4951171875,-19.5390625
0.0055,-27.8671875,55.5341796875,-27.306640625
0.006,-18.177734375,53.732421875,-35.71484375
0.0065,-7.4072265625,51.2099609375,-44.2431640625
0.007,3.123046875,46.5654296875,-50.12890625
0.0075,13.6533203125,39.3583984375,-53.5322265625
0.008,23.0625,31.1103515625,-54.6533203125
0.0085,30.6298828125,22.6220703125,-53.4921875
0.009,38.8779296875,12.2119140625,-51.08984375
0.0095,46.4052734375,1.041015625,-47.40625
0.01,52.2109375,-9.9697265625,-42.2412109375
0.0105,55.013671875,-19.7392578125,-35.314453125
0.011,53.6123046875,-26.42578125,-27.466796875
0.0115,51.650390625,-34.75390625,-17.5771484375
0.012,49.7685546875,-43.8828125,-6.56640625
0.0125,46.0849609375,-50.76953125,4.2041015625
0.013,40.0390625,-54.1728515625,13.7734375
0.0135,31.791015625,-54.6533203125,22.7822265625
0.014,23.302734375,-53.5322265625,30.3896484375
0.0145,13.29296875,-52.0107421875,38.7578125
0.015,2.72265625,-49.248046875,46.1650390625
0.0155,-7.9677734375,-43.9228515625,51.08984375
0.016,-18.2177734375,-36.9560546875,53.9326171875
0.0165,-27.1865234375,-28.828125,54.1328125
0.017,-34.513671875,-20.01953125,52.2109375
0.0175,-42.1611328125,-9.609375,49.408203125
0.018,-49.0078125,1.5615234375,45.6044921875
0.0185,-53.8125,12.4921875,39.7587890625
0.019,-55.6943359375,22.341796875,32.19140625
0.0195,-54.052734375,29.388671875,24.1435546875
0.02,-51.7705078125,37.796875,14.0537109375
0.0205,-49.328125,46.5654296875,3.203125
0.021,-44.8837890625,53.01171875,-7.607421875
0.0215,-38.4775390625,56.2548828125,-17.1767578125
0.022,-30.029296875,55.734375,-25.2646484375
0.0225,-21.140625,53.7724609375,-32.6318359375
0.023,-10.6904296875,51.4501953125,-41.080078125
0.0235,-0.240234375,47.966796875,-48.126953125
0.024,10.169921875,41.6806640625,-52.2509765625
0.0245,20.01953125,33.7529296875,-54.212890625
0.025,27.947265625,25.544921875,-53.732421875
0.0255,35.9951171875,15.7353515625,-51.73046875
0.026,43.72265625,4.8046875,-48.2470703125
0.0265,50.0888671875,-6.2861328125,-43.6826171875
0.027,53.97265625,-16.576171875,-37.236328125
0.0275,53.65234375,-24.103515625,-29.62890625
0.028,51.2900390625,-31.150390625,-20.66015625
0.0285,49.6884765625,-40.359375,-10.08984375
0.029,46.765625,-47.966796875,0.48046875
0.0295,41.3203125,-52.05078125,10.08984375
0.03,33.6328125,-53.8125,19.6591796875
0.0305,25.625,-53.2119140625,27.2666015625
0.031,16.17578125,-51.5703125,35.234375
0.0315,5.3251953125,-48.4873046875,42.841796875
0.032,-5.6455078125,-44.36328125,49.2880859375
0.0325,-15.8955078125,-38.3173828125,53.091796875
0.033,-23.86328125,-30.6298828125,52.771484375
0.0335,-30.4296875,-21.9814453125,50.208984375
0.034,-39.0380859375,-11.6513671875,48.52734375
0.0345,-46.4052734375,-1.28125,45.8046875
0.035,-50.76953125,8.80859375,40.4794921875
0.0355,-53.2119140625,18.818359375,33.3125
0.036,-53.2119140625,27.1865234375,25.5849609375
0.0365,-51.4501953125,34.8740234375,16.7763671875
0.037,-48.7275390625,42.9619140625,6.24609375
0.0375,-44.923828125,50.0888671875,-4.64453125
0.038,-39.078125,54.5732421875,-14.89453125
0.0385,-31.630859375,55.09375,-22.982421875
0.039,-23.0224609375,52.771484375,-29.62890625
0.0395,-13.0927734375,50.8095703125,-38.037109375
0.04,-2.72265625,48.0068359375,-45.6845703125
0.0405,7.4072265625,42.5615234375,-50.4091796875
0.041,17.4169921875,35.234375,-53.0517578125
0.0415,25.78515625,27.1865234375,-53.33203125
0.042,32.912109375,18.41796875,-51.25
0.0425,40.759765625,7.7275390625,-48.20703125
0.043,47.806640625,-3.203125,-44.4033203125
0.0435,52.37109375,-13.453125,-38.7978515625
0.044,53.01171875,-21.5009765625,-31.470703125
0.0445,51.169921875,-28.3876953125,-23.142578125
0.045,49.6884765625,-37.076171875,-13.4130859375
0.0455,47.2060546875,-44.84375,-3.283203125
0.046,42.0810546875,-49.8486328125,6.966796875
0.0465,35.474609375,-52.9716796875,16.65625
0.047,27.9072265625,-53.091796875,24.6240234375
0.0475,18.818359375,-50.6494140625,31.55078125
0.048,7.8076171875,-48.20703125,40.0390625
0.0485,-2.7626953125,-44.923828125,47.0458984375
0.049,-12.01171875,-39.638671875,50.7294921875
0.0495,-20.98046875,-31.9111328125,51.5703125
0.05,-28.1474609375,-24.18359375,50.5693359375
0.0505,-35.9150390625,-14.8544921875,48.8076171875
0.051,-43.162109375,-4.1240234375,45.484375
0.0515,-49.2080078125,6.8466796875,41.0
0.052,-52.53125,16.65625,34.833984375
0.0525,-51.5703125,24.0634765625,27.0263671875
0.053,-49.8486328125,31.390625,18.578125
0.0535,-48.447265625,40.3193359375,8.6484375
0.054,-45.32421875,47.2060546875,-1.361328125
0.0545,-39.6787109375,51.810546875,-11.5712890625
0.055,-32.83203125,54.052734375,-20.66015625
0.0555,-25.1845703125,52.5712890625,-27.2666015625
0.056,-15.2548828125,49.728515625,-34.7939453125
0.0565,-4.7646484375,47.2060546875,-42.9619140625
0.057,5.0048828125,43.2421875,-48.6474609375
0.0575,14.57421875,36.35546875,-51.330078125
0.058,23.623046875,28.34765625,-52.2109375
0.0585,30.2294921875,20.4599609375,-50.6494140625
0.059,37.7568359375,10.2900390625,-47.7666015625
0.0595,45.244140625,-0.640625,-44.36328125
0.06,50.208984375,-10.5302734375,-39.5185546875
0.0605,51.5302734375,-18.8583984375,-32.671875
0.061,50.609375,-26.185546875,-24.7841796875
0.0615,49.16796875,-33.712890625,-16.17578125
0.062,46.4453125,-41.3203125,-6.1259765625
0.0625,42.2412109375,-47.6064453125,4.484375
0.063,36.435546875,-51.650390625,14.25390625
0.0635,28.9482421875,-51.41015625,21.62109375
0.064,20.5,-49.2080078125,28.2275390625
0.0645,10.7705078125,-47.7265625,36.595703125
0.065,0.880859375,-44.7236328125,43.3623046875
0.0655,-9.44921875,-39.4384765625,48.0869140625
0.066,-18.498046875,-33.0322265625,50.5693359375
0.0665,-24.82421875,-25.5849609375,48.927734375
0.067,-32.111328125,-16.255859375,46.6455078125
0.0675,-40.3193359375,-6.1259765625,44.84375
0.068,-46.0048828125,3.443359375,41.2001953125
0.0685,-49.568359375,13.4130859375,35.07421875
0.069,-50.689453125,21.9013671875,28.1875
0.0695,-48.447265625,27.8671875,20.5400390625
0.07,-46.60546875,36.6357421875,10.41015625
0.0705,-44.443359375,44.4833984375,0.560546875
0.071,-39.9189453125,48.9677734375,-8.48828125
0.0715,-33.2724609375,51.3701171875,-17.6572265625
0.072,-26.0654296875,51.3701171875,-25.14453125
0.0725,-17.3369140625,48.6474609375,-31.6708984375
0.073,-6.646484375,46.044921875,-39.8388671875
0.0735,3.1630859375,42.681640625,-46.28515625
0.074,12.171875,36.7958984375,-49.328125
0.0745,21.140625,29.4287109375,-50.76953125
0.075,27.6669921875,22.021484375,-49.6083984375
0.0755,34.994140625,12.1318359375,-46.765625
0.076,42.76171875,1.521484375,-44.0029296875
0.0765,47.9267578125,-7.767578125,-39.9990234375
0.077,49.96875,-16.6162109375,-33.392578125
0.0775,50.3291015625,-24.6240234375,-26.0654296875
0.078,48.447265625,-31.0703125,-18.2578125
0.0785,45.6044921875,-38.7978515625,-7.8876953125
0.079,42.4013671875,-45.8447265625,2.322265625
0.0795,37.5166015625,-49.48828125,10.890625
0.08,30.109375,-50.44921875,19.37890625
0.0805,22.7421875,-49.728515625,26.3056640625
0.081,13.4130859375,-47.3662109375,33.47265625
0.0815,2.802734375,-44.1630859375,40.83984375
0.082,-6.806640625,-40.279296875,46.5654296875
0.0825,-15.2548828125,-34.2333984375,48.6474609375
0.083,-23.3427734375,-26.5458984375,48.7275390625
0.0835,-29.46875,-19.0986328125,46.92578125
0.084,-36.67578125,-9.0087890625,44.04296875
0.0845,-43.642578125,1.4013671875,40.83984375
0.085,-47.646484375,10.169921875,36.275390625
0.0855,-48.607421875,18.578125,29.1884765625
0.086,-47.9267578125,25.46484375,22.2216796875
0.0865,-45.8447265625,32.671875,13.4130859375
0.087,-43.2421875,40.6396484375,3.04296875
0.0875,-39.798828125,46.6455078125,-6.2861328125
0.088,-33.953125,48.927734375,-14.57421875
0.0885,-26.7060546875,49.4482421875,-22.501953125
0.089,-19.37890625,47.6064453125,-28.4677734375
0.0895,-9.0087890625,44.603515625,-36.03515625
0.09,0.9208984375,41.640625,-42.9619140625
0.0905,9.369140625,36.9560546875,-46.6455078125
0.091,18.2177734375,29.94921875,-48.4072265625
0.0915,24.744140625,23.0224609375,-47.7265625
0.092,31.5107421875,13.693359375,-44.8837890625
0.0925,39.318359375,3.6435546875,-42.681640625
0.093,44.5634765625,-5.125,-39.2783203125
0.0935,47.56640625,-14.333984375,-33.3125
0.094,48.52734375,-22.181640625,-26.666015625
0.0945,45.64453125,-27.466796875,-18.978515625
0.095,44.0029296875,-35.5947265625,-9.4892578125
0.0955,41.6806640625,-42.3212890625,-0.5205078125
0.096,36.515625,-46.7255859375,9.0888671875
0.0965,30.4697265625,-49.0478515625,17.537109375
0.097,23.0224609375,-47.1259765625,23.3828125
0.0975,14.4541015625,-45.404296875,30.4296875
0.098,5.125,-43.5224609375,37.9169921875
0.0985,-4.7646484375,-39.1181640625,43.322265625
0.099,-13.7734375,-33.953125,47.005859375
0.0995,-20.5,-27.2265625,46.6455078125
0.1,-26.7060546875,-19.6591796875,44.8837890625
0.1005,-33.9130859375,-10.9306640625,43.2021484375
0.101,-40.279296875,-0.880859375,39.6787109375
0.1015,-45.404296875,8.6484375,35.5546875
0.102,-46.765625,16.17578125,29.62890625
0.1025,-46.205078125,23.22265625,22.5419921875
0.103,-44.603515625,29.708984375,15.0146484375
0.1035,-41.880859375,37.15625,5.0849609375
0.104,-38.9580078125,43.6826171875,-4.2041015625
0.1045,-33.953125,46.525390625,-12.1318359375
0.105,-27.3466796875,47.7265625,-20.099609375
0.1055,-20.5,45.884765625,-25.5849609375
0.106,-10.7705078125,43.162109375,-32.7919921875
0.1065,-1.5615234375,40.83984375,-39.71875
0.107,7.2470703125,36.35546875,-43.962890625
0.1075,15.9755859375,30.4296875,-46.685546875
0.108,22.2216796875,23.5029296875,-45.7646484375
0.1085,28.4677734375,15.21484375,-43.40234375
0.109,35.8349609375,6.326171875,-41.8408203125
0.1095,41.5205078125,-3.36328125,-37.95703125
0.11,45.6845703125,-12.4521484375,-33.1923828125
0.1105,45.6044921875,-18.9384765625,-26.8662109375
0.111,44.283203125,-25.0244140625,-19.939453125
0.1115,42.5615234375,-31.951171875,-11.69140625
0.112,39.3984375,-38.91796875,-1.6416015625
0.1125,35.9951171875,-43.962890625,6.7666015625
0.113,30.0693359375,-45.724609375,14.57421875
0.1135,23.623046875,-46.0048828125,21.5009765625
0.114,15.7353515625,-43.1220703125,26.90625
0.1145,6.166015625,-41.1201171875,34.59375
0.115,-2.40234375,-38.3974609375,40.279296875
0.1155,-11.4912109375,-33.1923828125,44.0029296875
0.116,-18.498046875,-27.3466796875,44.923828125
0.1165,-23.703125,-20.0595703125,42.4013671875
0.117,-30.7900390625,-12.1318359375,41.3203125
0.1175,-36.8759765625,-2.802734375,38.197265625
0.118,-42.28125,6.5263671875,34.513671875
0.1185,-44.203125,13.853515625,29.3486328125
0.119,-44.1630859375,20.8603515625,22.7421875
0.1195,-42.28125,26.3056640625,15.9755859375
0.12,-39.798828125,33.79296875,6.3662109375
0.1205,-37.6767578125,40.0390625,-2.001953125
0.121,-32.8720703125,43.642578125,-10.330078125
0.1215,-27.2265625,45.484375,-17.857421875
0.122,-20.33984375,42.9619140625,-22.7021484375
0.1225,-12.33203125,41.6005859375,-29.5888671875
0.123,-3.36328125,38.8779296875,-35.9150390625
0.1235,6.005859375,34.9541015625,-41.3203125
0.124,13.212890625,30.109375,-43.6025390625
0.1245,20.01953125,23.22265625,-43.40234375
0.125,25.3046875,16.65625,-41.80078125
0.1255,32.1513671875,7.046875,-38.91796875
0.126,38.27734375,-1.44140625,-36.595703125
0.1265,41.7607421875,-9.609375,-32.0712890625
0.127,43.6826171875,-17.0966796875,-26.7060546875
0.1275,41.3603515625,-21.861328125,-20.01953125
0.128,40.119140625,-28.7080078125,-12.4521484375
0.1285,37.63671875,-35.07421875,-3.8037109375
0.129,34.2333984375,-40.7197265625,5.365234375
0.1295,29.548828125,-42.8017578125,12.171875
0.13,23.22265625,-43.08203125,19.0185546875
0.1305,16.6162109375,-41.0400390625,23.943359375
0.131,7.287109375,-38.4775390625,30.830078125
0.1315,-0.6806640625,-36.3955078125,36.595703125
0.132,-9.44921875,-31.7509765625,40.599609375
0.1325,-16.17578125,-26.6259765625,42.041015625
0.133,-21.30078125,-19.939453125,39.9990234375
0.1335,-27.3466796875,-13.0126953125,38.8779296875
0.134,-33.392578125,-3.7236328125,35.6748046875
0.1345,-38.4775390625,4.404296875,32.912109375
0.135,-40.7998046875,11.8916015625,27.947265625
0.1355,-41.6806640625,18.5380859375,22.4619140625
0.136,-38.677734375,22.9423828125,15.6552734375
0.1365,-37.796875,30.2294921875,7.8076171875
0.137,-34.833984375,35.875,-0.80078125
0.1375,-31.2705078125,40.4794921875,-8.80859375
0.138,-25.9853515625,41.3203125,-15.0947265625
0.1385,-20.2197265625,40.7998046875,-20.5400390625
0.139,-12.6923828125,37.9970703125,-25.6650390625
0.1395,-4.1240234375,36.115234375,-32.51171875
0.14,3.84375,32.83203125,-37.1162109375
0.1405,11.771484375,28.3076171875,-40.3994140625
0.141,17.296875,22.4619140625,-39.9189453125
0.1415,22.341796875,16.3759765625,-38.59765625
0.142,28.107421875,8.2880859375,-36.115234375
0.1425,34.3935546875,-0.3603515625,-33.8330078125
0.143,37.796875,-7.447265625,-30.26953125
0.1435,39.87890625,-14.734375,-25.3447265625
0.144,38.197265625,-19.2587890625,-19.4189453125
0.1445,36.7958984375,-25.0244140625,-12.8125
0.145,34.3134765625,-30.91015625,-4.6044921875
0.1455,31.7109375,-36.35546875,3.5634765625
0.146,27.546875,-38.7177734375,10.169921875
0.1465,22.341796875,-39.71875,16.576171875
0.147,15.8955078125,-36.8359375,20.419921875
0.1475,8.408203125,-35.8349609375,26.9462890625
0.148,0.0,-32.751953125,32.3515625
0.1485,-7.5673828125,-29.62890625,36.6357421875
0.149,-13.7333984375,-24.6640625,37.63671875
0.1495,-18.73828125,-19.7392578125,37.2763671875
0.15,-23.3828125,-12.4521484375,34.43359375
0.1505,-29.62890625,-5.0849609375,33.3125
0.151,-34.353515625,3.36328125,29.8291015625
0.1515,-37.236328125,10.009765625,26.265625
0.152,-37.236328125,15.775390625,20.8203125
0.1525,-35.9150390625,20.01953125,15.6552734375
0.153,-33.6328125,25.9853515625,7.767578125
0.1535,-32.0712890625,31.7109375,0.6806640625
0.154,-28.4677734375,36.1552734375,-7.3671875
0.1545,-24.34375,37.4365234375,-12.8525390625
0.155,-18.9384765625,36.8359375,-17.8974609375
0.1555,-12.6123046875,34.59375,-22.3017578125
0.156,-4.64453125,32.6318359375,-28.3876953125
0.1565,2.72265625,29.8291015625,-32.9921875
0.157,10.0498046875,25.9453125,-36.35546875
0.1575,14.974609375,20.8603515625,-36.03515625
0.158,19.4189453125,15.8154296875,-35.1943359375
0.1585,24.5439453125,8.16796875,-32.4716796875
0.159,30.109375,1.12109375,-31.0302734375
0.1595,34.0732421875,-6.6064453125,-27.38671875
0.16,35.71484375,-12.33203125,-23.54296875
0.1605,34.75390625,-17.0166015625,-18.2978515625
0.161,33.1123046875,-21.2607421875,-12.732421875
0.1615,30.9501953125,-27.1064453125,-4.9248046875
0.162,28.7880859375,-31.791015625,1.921875
0.1625,25.1044921875,-35.234375,9.0888671875
0.163,20.419921875,-35.07421875,13.7734375
0.1635,15.4951171875,-34.1533203125,18.017578125
0.164,8.2080078125,-31.5107421875,22.90234375
0.1645,1.1611328125,-30.1494140625,28.5078125
0.165,-6.2861328125,-26.5859375,32.3115234375
0.1655,-11.7314453125,-23.0224609375,34.033203125
0.166,-16.3759765625,-17.9375,33.3125
0.1665,-20.01953125,-12.5322265625,31.2705078125
0.167,-25.6650390625,-5.125,29.46875
0.1675,-29.9892578125,1.8017578125,27.0263671875
0.168,-33.2724609375,8.568359375,23.703125
0.1685,-33.3125,13.373046875,19.21875
0.169,-32.3115234375,17.0966796875,14.89453125
0.1695,-29.9091796875,22.0615234375,7.84765625
0.17,-28.7080078125,27.38671875,1.521484375
0.1705,-25.46484375,31.5107421875,-5.8056640625
0.171,-22.1015625,32.9921875,-10.7705078125
0.1715,-17.5771484375,32.9921875,-15.4150390625
0.172,-11.8115234375,30.189453125,-18.73828125
0.1725,-5.4853515625,29.388671875,-24.3837890625
0.173,2.1220703125,26.1455078125,-28.7080078125
0.1735,7.607421875,23.54296875,-31.55078125
0.174,12.97265625,19.0185546875,-32.271484375
0.1745,15.9755859375,14.57421875,-30.58984375
0.175,20.98046875,8.408203125,-29.228515625
0.1755,25.5849609375,1.4013671875,-26.7861328125
0.176,29.5087890625,-4.7646484375,-24.6640625
0.1765,31.0703125,-10.41015625,-20.8603515625
0.177,30.75,-14.3740234375,-16.8564453125
0.1775,28.7080078125,-17.8173828125,-11.69140625
0.178,27.0263671875,-22.4619140625,-5.4853515625
0.1785,25.0244140625,-27.146484375,1.12109375
0.179,21.9013671875,-29.869140625,6.966796875
0.1795,18.5380859375,-30.990234375,11.5712890625
0.18,13.853515625,-29.1884765625,14.7744140625
0.1805,8.408203125,-27.6669921875,18.818359375
0.181,1.5615234375,-25.705078125,23.7431640625
0.1815,-4.564453125,-23.0625,27.146484375
0.182,-9.76953125,-20.1796875,29.2685546875
0.1825,-13.4931640625,-15.8955078125,28.5078125
0.183,-16.4560546875,-11.611328125,26.9462890625
0.1835,-21.220703125,-5.28515625,25.3046875
0.184,-25.1845703125,0.7607421875,23.0224609375
0.1845,-28.1474609375,6.486328125,20.6201171875
0.185,-28.5078125,10.9306640625,16.81640625
0.1855,-27.4267578125,13.7734375,13.2529296875
0.186,-25.78515625,17.9775390625,7.7275390625
0.1865,-24.0234375,22.3017578125,1.76171875
0.187,-22.021484375,26.10546875,-3.9638671875
0.1875,-18.8984375,27.9072265625,-8.96875
0.188,-15.4150390625,27.787109375,-12.5322265625
0.1885,-10.970703125,26.0654296875,-15.4150390625
0.189,-5.1650390625,24.263671875,-19.4990234375
0.1895,0.640625,22.58203125,-23.703125
0.19,6.4462890625,19.619140625,-26.4658203125
0.1905,10.169921875,16.6162109375,-27.1064453125
0.191,13.29296875,12.9326171875,-26.3056640625
0.1915,16.576171875,7.6875,-24.2236328125
0.192,21.0205078125,2.40234375,-23.22265625
0.1925,24.423828125,-4.00390625,-20.580078125
0.193,25.8251953125,-7.8876953125,-18.1376953125
0.1935,26.10546875,-11.6513671875,-14.814453125
0.194,23.7431640625,-13.853515625,-10.5703125
0.1945,23.1826171875,-18.337890625,-5.7255859375
0.195,20.7802734375,-22.3017578125,0.6005859375
0.1955,18.818359375,-24.7041015625,5.0048828125
0.196,15.8955078125,-26.1455078125,9.44921875
0.1965,12.01171875,-24.50390625,11.8916015625
0.197,7.8076171875,-23.5029296875,15.1748046875
0.1975,1.9619140625,-21.6611328125,19.21875
0.198,-3.36328125,-19.5791015625,22.421875
0.1985,-7.8876953125,-17.1767578125,24.4638671875
0.199,-11.05078125,-13.8935546875,24.1435546875
0.1995,-13.1728515625,-10.4501953125,22.58203125
0.2,-17.296875,-5.3251953125,21.4609375
0.2005,-20.8603515625,0.48046875,19.37890625
0.201,-23.3427734375,4.724609375,17.4970703125
0.2015,-24.3837890625,8.96875,14.734375
0.202,-23.0625,11.2109375,11.4111328125
0.2025,-22.1015625,14.494140625,7.4873046875
0.203,-20.0595703125,18.2177734375,1.921875
0.2035,-18.73828125,21.380859375,-2.642578125
0.204,-16.255859375,23.703125,-7.4072265625
0.2045,-13.1728515625,23.1826171875,-10.1298828125
0.205,-10.1298828125,22.1015625,-12.2919921875
0.2055,-5.0048828125,20.5,-16.015625
0.206,0.16015625,18.8984375,-19.5390625
0.2065,4.8046875,16.9365234375,-22.1416015625
0.207,8.6083984375,14.2138671875,-23.1025390625
0.2075,10.6904296875,11.2509765625,-22.1416015625
0.208,13.5732421875,7.3671875,-21.140625
0.2085,16.9365234375,2.162109375,-19.21875
0.209,19.8994140625,-2.1220703125,-17.9375
0.2095,22.0615234375,-6.7265625,-15.53515625
0.21,21.62109375,-9.2490234375,-12.732421875
0.2105,20.580078125,-11.2509765625,-9.9697265625
0.211,18.978515625,-14.57421875,-5.205078125
0.2115,17.6171875,-17.857421875,-0.640625
0.212,15.8955078125,-20.5400390625,3.763671875
0.2125,13.453125,-21.62109375,7.3671875
0.213,10.6904296875,-20.740234375,9.44921875
0.2135,7.3271484375,-19.7392578125,11.8115234375
0.214,2.2822265625,-17.8974609375,15.134765625
0.2145,-1.8818359375,-16.6962890625,18.0576171875
0.215,-6.2861328125,-14.4541015625,20.1396484375
0.2155,-8.6884765625,-11.931640625,19.8994140625
0.216,-10.3701171875,-9.4091796875,18.9384765625
0.2165,-13.453125,-5.205078125,17.697265625
