wavelength,x,y,z
0.0,14.484130859375,9.639404296875,-24.153564453125
0.0005,9.639404296875,13.363037109375,-23.072509765625
0.001,6.676513671875,16.806396484375,-23.552978515625
0.0015,1.951904296875,19.088623046875,-21.150634765625
0.002,-2.852783203125,22.011474609375,-19.388916015625
0.0025,-7.337158203125,23.092529296875,-16.065673828125
0.003,-12.502197265625,24.093505859375,-11.941650390625
0.0035,-15.545166015625,23.773193359375,-8.698486328125
0.004,-19.028564453125,23.012451171875,-4.414306640625
0.0045,-20.790283203125,21.170654296875,-0.930908203125
0.005,-23.072509765625,18.808349609375,3.873779296875
0.0055,-23.953369140625,15.164794921875,8.438232421875
0.006,-23.312744140625,10.520263671875,12.522216796875
0.0065,-23.833251953125,8.157958984375,15.485107421875
0.007,-21.791259765625,3.513427734375,18.167724609375
0.0075,-20.269775390625,-0.730712890625,20.770263671875
0.008,-17.106689453125,-5.295166015625,22.171630859375
0.0085,-13.262939453125,-10.700439453125,23.653076171875
0.009,-8.858642578125,-14.023681640625,22.572021484375
0.0095,-5.375244140625,-17.467041015625,22.491943359375
0.01,-0.770751953125,-19.428955078125,20.089599609375
0.0105,3.873779296875,-22.231689453125,18.327880859375
0.011,8.558349609375,-22.992431640625,14.404052734375
0.0115,13.122802734375,-23.432861328125,10.400146484375
0.012,16.125732421875,-23.673095703125,7.757568359375
0.0125,19.248779296875,-22.191650390625,3.153076171875
0.013,21.290771484375,-20.349853515625,-0.770751953125
0.0135,22.932373046875,-17.627197265625,-5.135009765625
0.014,23.813232421875,-13.943603515625,-9.779541015625
0.0145,22.932373046875,-9.619384765625,-13.383056640625
0.015,23.372802734375,-7.136962890625,-16.305908203125
0.0155,21.010498046875,-2.492431640625,-18.548095703125
0.016,19.529052734375,1.951904296875,-21.510986328125
0.0165,15.445068359375,6.676513671875,-22.231689453125
0.017,11.681396484375,11.601318359375,-23.392822265625
0.0175,7.997802734375,14.804443359375,-22.912353515625
0.018,3.833740234375,17.967529296875,-21.831298828125
0.0185,-0.570556640625,19.929443359375,-19.549072265625
0.019,-5.255126953125,22.572021484375,-17.587158203125
0.0195,-10.059814453125,23.172607421875,-13.423095703125
0.02,-14.103759765625,23.212646484375,-9.459228515625
0.0205,-17.066650390625,23.452880859375,-6.976806640625
0.021,-19.789306640625,21.531005859375,-2.252197265625
0.0215,-22.071533203125,19.529052734375,2.112060546875
0.022,-22.992431640625,16.205810546875,6.356201171875
0.0225,-23.833251953125,12.562255859375,10.960693359375
0.023,-22.952392578125,8.518310546875,14.203857421875
0.0235,-22.872314453125,5.515380859375,17.166748046875
0.024,-20.389892578125,0.870849609375,19.368896484375
0.0245,-18.708251953125,-3.893798828125,22.371826171875
0.025,-14.103759765625,-8.698486328125,22.572021484375
0.0255,-10.300048828125,-13.262939453125,23.132568359375
0.026,-7.016845703125,-15.985595703125,22.772216796875
0.0265,-1.971923828125,-19.148681640625,20.930419921875
0.027,2.432373046875,-21.190673828125,18.728271484375
0.0275,7.557373046875,-23.352783203125,15.725341796875
0.028,11.881591796875,-23.673095703125,11.921630859375
0.0285,15.805419921875,-23.673095703125,7.757568359375
0.029,18.447998046875,-23.232666015625,5.114990234375
0.0295,21.010498046875,-21.150634765625,0.190185546875
0.03,23.452880859375,-18.748291015625,-4.534423828125
0.0305,23.532958984375,-14.784423828125,-8.738525390625
0.031,24.293701171875,-11.341064453125,-12.982666015625
0.0315,23.212646484375,-7.417236328125,-15.945556640625
0.032,22.411865234375,-3.693603515625,-18.868408203125
0.0325,19.889404296875,0.950927734375,-20.990478515625
0.033,17.246826171875,6.276123046875,-23.633056640625
0.0335,12.442138671875,10.760498046875,-23.392822265625
0.034,8.678466796875,15.044677734375,-23.673095703125
0.0345,5.395263671875,17.487060546875,-22.952392578125
0.035,-0.130126953125,20.650146484375,-20.670166015625
0.0355,-4.534423828125,22.612060546875,-18.307861328125
0.036,-9.979736328125,24.053466796875,-14.464111328125
0.0365,-13.743408203125,24.293701171875,-11.020751953125
0.037,-17.627197265625,23.693115234375,-6.696533203125
0.0375,-19.869384765625,22.892333984375,-3.533447265625
0.038,-22.552001953125,20.530029296875,1.391357421875
0.0385,-24.473876953125,17.687255859375,6.396240234375
0.039,-24.033447265625,12.962646484375,10.640380859375
0.0395,-24.553955078125,9.919677734375,14.404052734375
0.04,-23.352783203125,6.035888671875,17.126708984375
0.0405,-21.831298828125,1.591552734375,20.049560546875
0.041,-19.268798828125,-3.012939453125,22.051513671875
0.0415,-15.865478515625,-8.698486328125,24.213623046875
0.042,-11.220947265625,-12.662353515625,23.653076171875
0.0425,-7.337158203125,-16.586181640625,23.653076171875
0.043,-3.693603515625,-18.708251953125,22.211669921875
0.0435,1.871826171875,-21.751220703125,19.849365234375
0.044,6.596435546875,-23.633056640625,17.046630859375
0.0445,11.801513671875,-24.313720703125,12.562255859375
0.045,15.324951171875,-24.634033203125,9.559326171875
0.0455,18.848388671875,-23.673095703125,5.074951171875
0.046,21.130615234375,-22.351806640625,1.431396484375
0.0465,23.332763671875,-19.749267578125,-3.413330078125
0.047,25.134521484375,-16.626220703125,-8.498291015625
0.0475,24.093505859375,-11.661376953125,-12.502197265625
0.048,24.654052734375,-8.778564453125,-15.985595703125
0.0485,23.092529296875,-4.934814453125,-18.307861328125
0.049,21.210693359375,0.030029296875,-21.350830078125
0.0495,18.207763671875,4.754638671875,-23.112548828125
0.05,14.123779296875,10.560302734375,-24.714111328125
0.0505,9.999755859375,14.123779296875,-24.193603515625
0.051,5.835693359375,17.847412109375,-23.713134765625
0.0515,1.871826171875,19.849365234375,-21.791259765625
0.052,-3.373291015625,22.732177734375,-19.589111328125
0.0525,-8.578369140625,24.493896484375,-16.265869140625
0.053,-13.383056640625,24.413818359375,-11.461181640625
0.0535,-16.706298828125,25.014404296875,-8.818603515625
0.054,-19.869384765625,23.412841796875,-4.053955078125
0.0545,-22.231689453125,21.771240234375,0.030029296875
0.055,-23.993408203125,18.848388671875,4.714599609375
0.0555,-25.554931640625,15.204833984375,9.999755859375
0.056,-24.353759765625,10.400146484375,13.683349609375
0.0565,-24.674072265625,7.317138671875,17.126708984375
0.057,-22.632080078125,3.233154296875,19.208740234375
0.0575,-20.790283203125,-2.011962890625,22.451904296875
0.058,-17.106689453125,-6.896728515625,23.773193359375
0.0585,-12.662353515625,-12.342041015625,24.614013671875
0.059,-8.978759765625,-15.545166015625,24.333740234375
0.0595,-4.334228515625,-19.068603515625,23.092529296875
0.06,0.150146484375,-21.110595703125,20.810302734375
0.0605,5.155029296875,-23.673095703125,18.528076171875
0.061,10.680419921875,-25.114501953125,14.564208984375
0.0615,14.964599609375,-24.553955078125,9.759521484375
0.062,18.207763671875,-25.154541015625,7.197021484375
0.0625,21.090576171875,-23.032470703125,2.232177734375
0.063,23.653076171875,-21.110595703125,-2.412353515625
0.0635,24.654052734375,-17.747314453125,-6.816650390625
0.064,25.815185546875,-13.783447265625,-12.101806640625
0.0645,24.614013671875,-9.419189453125,-15.344970703125
0.065,24.493896484375,-5.935791015625,-18.708251953125
0.0655,21.971435546875,-1.611572265625,-20.550048828125
0.066,20.009521484375,3.673583984375,-23.713134765625
0.0665,15.525146484375,8.998779296875,-24.593994140625
0.067,10.920654296875,13.963623046875,-24.914306640625
0.0675,7.837646484375,17.006591796875,-24.914306640625
0.068,2.432373046875,20.249755859375,-22.792236328125
0.0685,-2.132080078125,22.371826171875,-20.389892578125
0.069,-7.056884765625,24.453857421875,-17.707275390625
0.0695,-12.502197265625,25.655029296875,-13.503173828125
0.07,-16.345947265625,24.734130859375,-8.818603515625
0.0705,-19.509033203125,24.974365234375,-6.015869140625
0.071,-21.951416015625,22.491943359375,-1.010986328125
0.0715,-24.634033203125,20.249755859375,3.953857421875
0.072,-24.994384765625,16.325927734375,8.318115234375
0.0725,-25.835205078125,12.201904296875,13.363037109375
0.073,-24.714111328125,8.238037109375,16.325927734375
0.0735,-23.953369140625,4.114013671875,19.609130859375
0.074,-21.350830078125,-0.330322265625,21.450927734375
0.0745,-18.948486328125,-5.695556640625,24.373779296875
0.075,-14.303955078125,-10.860595703125,24.854248046875
0.0755,-9.539306640625,-15.304931640625,24.533935546875
0.076,-6.656494140625,-18.107666015625,24.493896484375
0.0765,-0.810791015625,-21.110595703125,21.731201171875
0.077,3.833740234375,-23.312744140625,19.489013671875
0.0775,8.998779296875,-24.714111328125,15.765380859375
0.078,13.803466796875,-25.635009765625,11.961669921875
0.0785,17.527099609375,-24.634033203125,7.357177734375
0.079,20.449951171875,-24.313720703125,4.114013671875
0.0795,22.732177734375,-21.711181640625,-0.850830078125
0.08,25.294677734375,-19.228759765625,-5.935791015625
0.0805,25.014404296875,-14.864501953125,-10.179931640625
0.081,25.494873046875,-10.860595703125,-14.744384765625
0.0815,24.654052734375,-7.537353515625,-17.306884765625
0.082,23.052490234375,-2.772705078125,-20.429931640625
0.0825,20.530029296875,1.671630859375,-22.311767578125
0.083,17.326904296875,7.197021484375,-24.593994140625
0.0835,12.802490234375,12.121826171875,-24.994384765625
0.084,8.037841796875,16.205810546875,-24.313720703125
0.0845,5.195068359375,18.688232421875,-23.953369140625
0.085,-0.650634765625,21.571044921875,-21.110595703125
0.0855,-5.335205078125,23.933349609375,-18.868408203125
0.086,-10.540283203125,24.654052734375,-14.464111328125
0.0865,-14.784423828125,25.414794921875,-11.060791015625
0.087,-17.987548828125,24.413818359375,-6.856689453125
0.0875,-20.950439453125,23.532958984375,-3.052978515625
0.088,-22.912353515625,20.890380859375,1.631591796875
0.0885,-25.314697265625,18.007568359375,6.876708984375
0.089,-24.674072265625,13.242919921875,11.120849609375
0.0895,-25.034423828125,9.479248046875,15.324951171875
0.09,-24.313720703125,6.476318359375,17.647216796875
0.0905,-22.111572265625,1.271240234375,20.810302734375
0.091,-19.789306640625,-3.333251953125,22.892333984375
0.0915,-15.665283203125,-8.938720703125,24.413818359375
0.092,-11.741455078125,-13.383056640625,24.854248046875
0.0925,-6.936767578125,-17.226806640625,23.973388671875
0.093,-3.653564453125,-19.509033203125,22.892333984375
0.0935,2.072021484375,-22.271728515625,20.089599609375
0.094,7.197021484375,-24.714111328125,17.567138671875
0.0945,12.201904296875,-24.674072265625,12.442138671875
0.095,16.085693359375,-25.514892578125,9.639404296875
0.0955,19.248779296875,-24.313720703125,5.315185546875
0.096,22.091552734375,-22.872314453125,1.031005859375
0.0965,24.013427734375,-20.109619140625,-3.813720703125
0.097,25.935302734375,-16.786376953125,-9.138916015625
0.0975,25.134521484375,-12.061767578125,-13.182861328125
0.098,25.174560546875,-8.298095703125,-17.026611328125
0.0985,23.973388671875,-5.014892578125,-19.068603515625
0.099,21.651123046875,0.590576171875,-22.311767578125
0.0995,18.568115234375,5.635498046875,-24.233642578125
0.1,13.843505859375,11.281005859375,-25.154541015625
0.1005,10.239990234375,15.084716796875,-25.394775390625
0.101,5.515380859375,18.648193359375,-24.233642578125
0.1015,1.311279296875,21.010498046875,-22.391845703125
0.102,-3.973876953125,23.532958984375,-19.829345703125
0.1025,-9.659423828125,25.775146484375,-16.466064453125
0.103,-14.223876953125,25.054443359375,-11.301025390625
0.1035,-17.947509765625,25.775146484375,-8.338134765625
0.104,-20.710205078125,24.053466796875,-3.933837890625
0.1045,-23.512939453125,22.211669921875,0.790771484375
0.105,-24.834228515625,18.928466796875,5.515380859375
0.1055,-26.235595703125,14.884521484375,10.960693359375
0.106,-25.314697265625,10.560302734375,14.564208984375
0.1065,-25.154541015625,6.676513671875,18.247802734375
0.107,-23.232666015625,2.992919921875,20.049560546875
0.1075,-20.990478515625,-2.532470703125,23.252685546875
0.108,-17.226806640625,-7.857666015625,24.894287109375
0.1085,-12.181884765625,-13.022705078125,24.974365234375
0.109,-9.018798828125,-16.466064453125,25.254638671875
0.1095,-4.013916015625,-19.589111328125,23.372802734375
0.11,0.630615234375,-21.951416015625,21.170654296875
0.1105,5.475341796875,-24.033447265625,18.528076171875
0.111,11.401123046875,-25.995361328125,14.604248046875
0.1115,15.324951171875,-24.834228515625,9.719482421875
0.112,18.968505859375,-25.474853515625,6.676513671875
0.1125,21.210693359375,-23.352783203125,2.432373046875
0.113,24.053466796875,-21.310791015625,-2.652587890625
0.1135,24.974365234375,-17.787353515625,-7.177001953125
0.114,25.775146484375,-13.383056640625,-12.342041015625
0.1145,25.214599609375,-9.739501953125,-15.505126953125
0.115,24.333740234375,-5.535400390625,-18.908447265625
0.1155,22.291748046875,-1.731689453125,-20.670166015625
0.116,19.929443359375,3.513427734375,-23.512939453125
0.1165,15.765380859375,9.279052734375,-25.034423828125
0.117,10.680419921875,13.803466796875,-24.553955078125
0.1175,7.917724609375,17.166748046875,-25.154541015625
0.118,2.792724609375,19.889404296875,-22.752197265625
0.1185,-2.052001953125,22.451904296875,-20.670166015625
0.119,-6.696533203125,24.053466796875,-17.627197265625
0.1195,-12.462158203125,25.614990234375,-13.543212890625
0.12,-15.945556640625,24.694091796875,-9.259033203125
0.1205,-19.509033203125,24.734130859375,-5.815673828125
0.121,-21.430908203125,22.491943359375,-1.691650390625
0.1215,-24.273681640625,20.289794921875,3.473388671875
0.122,-24.874267578125,16.406005859375,8.157958984375
0.1225,-25.194580078125,11.841552734375,13.122802734375
0.123,-25.074462890625,8.878662109375,16.005615234375
0.1235,-23.633056640625,4.194091796875,19.248779296875
0.124,-21.470947265625,0.030029296875,21.290771484375
0.1245,-18.828369140625,-5.094970703125,23.693115234375
0.125,-14.584228515625,-10.860595703125,25.134521484375
0.1255,-9.499267578125,-14.904541015625,24.173583984375
0.126,-6.696533203125,-18.067626953125,24.493896484375
0.1265,-1.251220703125,-20.630126953125,21.691162109375
0.127,3.713623046875,-23.352783203125,19.649169921875
0.1275,8.638427734375,-24.353759765625,15.845458984375
0.128,13.923583984375,-25.594970703125,11.841552734375
0.1285,17.326904296875,-24.994384765625,7.877685546875
0.129,20.690185546875,-24.353759765625,3.873779296875
0.1295,22.572021484375,-21.911376953125,-0.650634765625
0.13,25.134521484375,-19.268798828125,-5.815673828125
0.1305,25.374755859375,-15.024658203125,-10.500244140625
0.131,25.294677734375,-10.420166015625,-14.904541015625
0.1315,25.214599609375,-7.817626953125,-17.547119140625
0.132,23.012451171875,-2.532470703125,-20.630126953125
0.1325,20.810302734375,1.991943359375,-22.872314453125
0.133,17.086669921875,7.357177734375,-24.473876953125
0.1335,12.922607421875,12.682373046875,-25.635009765625
0.134,7.957763671875,16.526123046875,-24.513916015625
0.1345,4.754638671875,19.489013671875,-24.273681640625
0.135,-0.850830078125,21.891357421875,-21.190673828125
0.1355,-5.895751953125,24.654052734375,-19.068603515625
0.136,-10.860595703125,24.974365234375,-14.384033203125
0.1365,-15.625244140625,25.735107421875,-10.580322265625
0.137,-18.628173828125,25.014404296875,-6.936767578125
0.1375,-21.831298828125,23.653076171875,-2.412353515625
0.138,-23.673095703125,21.010498046875,2.232177734375
0.1385,-25.635009765625,17.847412109375,7.437255859375
0.139,-25.554931640625,13.322998046875,11.921630859375
0.1395,-25.114501953125,8.878662109375,16.085693359375
0.14,-24.874267578125,6.236083984375,18.447998046875
0.1405,-22.231689453125,0.670654296875,21.410888671875
0.141,-19.869384765625,-4.134033203125,23.733154296875
0.1415,-15.385009765625,-9.459228515625,24.573974609375
0.142,-11.541259765625,-14.103759765625,25.454833984375
0.1425,-6.896728515625,-17.587158203125,24.333740234375
0.143,-2.892822265625,-20.349853515625,23.052490234375
0.1435,2.272216796875,-22.431884765625,20.249755859375
0.144,7.717529296875,-25.154541015625,17.447021484375
0.1445,12.322021484375,-24.714111328125,12.562255859375
0.145,16.726318359375,-25.514892578125,8.838623046875
0.1455,19.288818359375,-24.634033203125,5.555419921875
0.146,22.291748046875,-22.872314453125,0.550537109375
0.1465,24.173583984375,-19.869384765625,-4.134033203125
0.147,25.574951171875,-16.546142578125,-9.218994140625
0.1475,25.494873046875,-12.141845703125,-13.343017578125
0.148,24.774169921875,-7.977783203125,-17.026611328125
0.1485,24.053466796875,-4.974853515625,-19.188720703125
0.149,21.330810546875,0.470458984375,-21.831298828125
0.1495,18.608154296875,5.635498046875,-24.273681640625
0.15,13.603271484375,10.760498046875,-24.393798828125
0.1505,10.119873046875,14.964599609375,-25.114501953125
0.151,5.875732421875,17.967529296875,-23.873291015625
0.1515,1.271240234375,20.810302734375,-22.111572265625
0.152,-3.453369140625,22.732177734375,-19.509033203125
0.1525,-9.138916015625,25.014404296875,-16.305908203125
0.153,-13.383056640625,24.493896484375,-11.621337890625
0.1535,-17.427001953125,24.854248046875,-8.017822265625
0.154,-19.589111328125,23.853271484375,-4.814697265625
0.1545,-22.431884765625,21.811279296875,0.150146484375
0.155,-24.113525390625,18.728271484375,4.994873046875
0.1555,-24.714111328125,14.524169921875,9.839599609375
0.156,-24.954345703125,10.960693359375,13.723388671875
0.1565,-24.033447265625,6.796630859375,17.006591796875
0.157,-22.872314453125,3.513427734375,19.248779296875
0.1575,-20.429931640625,-1.571533203125,21.771240234375
0.158,-17.266845703125,-7.056884765625,24.093505859375
0.1585,-12.221923828125,-11.621337890625,23.653076171875
0.159,-8.938720703125,-15.585205078125,24.253662109375
0.1595,-4.974853515625,-18.067626953125,22.812255859375
0.16,0.070068359375,-20.990478515625,20.850341796875
0.1605,4.554443359375,-22.752197265625,18.167724609375
0.161,10.280029296875,-24.593994140625,14.323974609375
0.1615,13.963623046875,-24.273681640625,10.400146484375
0.162,17.887451171875,-24.273681640625,6.676513671875
0.1625,19.889404296875,-22.952392578125,3.313232421875
0.163,22.572021484375,-20.790283203125,-1.611572265625
0.1635,24.213623046875,-17.627197265625,-6.536376953125
0.164,24.093505859375,-13.022705078125,-11.060791015625
0.1645,24.654052734375,-10.219970703125,-14.544189453125
0.165,23.372802734375,-6.015869140625,-17.467041015625
0.1655,21.931396484375,-2.212158203125,-19.909423828125
0.166,19.368896484375,2.672607421875,-22.071533203125
0.1665,15.645263671875,8.558349609375,-24.313720703125
0.167,10.880615234375,12.682373046875,-23.552978515625
0.1675,7.637451171875,16.486083984375,-24.153564453125
0.168,3.513427734375,18.648193359375,-22.231689453125
0.1685,-1.571533203125,21.651123046875,-20.269775390625
0.169,-6.135986328125,23.132568359375,-17.306884765625
0.1695,-11.661376953125,24.293701171875,-13.062744140625
0.17,-15.064697265625,24.293701171875,-9.739501953125
0.1705,-18.708251953125,23.693115234375,-5.575439453125
0.171,-20.630126953125,22.131591796875,-2.052001953125
0.1715,-23.032470703125,19.809326171875,2.752685546875
0.172,-24.433837890625,16.325927734375,7.797607421875
0.1725,-23.873291015625,11.441162109375,12.161865234375
0.173,-24.513916015625,8.918701171875,15.445068359375
0.1735,-22.752197265625,4.514404296875,18.087646484375
0.174,-21.110595703125,0.110107421875,20.850341796875
0.1745,-18.187744140625,-4.574462890625,22.491943359375
0.175,-14.183837890625,-10.340087890625,24.293701171875
0.1755,-9.659423828125,-13.983642578125,23.412841796875
0.176,-6.095947265625,-17.627197265625,23.452880859375
0.1765,-1.731689453125,-19.589111328125,21.130615234375
0.177,3.273193359375,-22.592041015625,19.208740234375
0.1775,8.197998046875,-23.673095703125,15.445068359375
0.178,13.202880859375,-24.153564453125,11.080810546875
0.1785,16.446044921875,-24.473876953125,8.278076171875
0.179,19.729248046875,-23.152587890625,3.713623046875
0.1795,21.811279296875,-21.310791015625,-0.290283203125
0.18,23.613037109375,-18.628173828125,-4.814697265625
0.1805,24.734130859375,-14.824462890625,-9.859619140625
