wavelength,x,y,z
0.0,-9.2039794921875,-12.206909179688,20.665161132812
0.0005,-3.7186279296875,-16.010620117188,19.143676757812
0.001,1.3262939453125,-18.933471679688,17.301879882812
0.0015,4.6094970703125,-20.575073242188,15.940551757812
0.002,7.5723876953125,-21.295776367188,14.018676757812
0.0025,10.615356445312,-20.975463867188,10.855590820312
0.003,14.218872070312,-20.214721679688,6.6915283203125
0.0035,17.542114257812,-18.853393554688,2.0870361328125
0.004,20.224731445312,-16.931518554688,-2.5174560546875
0.0045,21.145629882812,-15.089721679688,-5.2000732421875
0.005,21.505981445312,-12.367065429688,-8.0828857421875
0.0055,21.145629882812,-8.8436279296875,-11.406127929688
0.006,20.144653320312,-4.1590576171875,-15.089721679688
0.0065,18.623168945312,0.3253173828125,-17.972534179688
0.007,17.101684570312,3.9288330078125,-20.214721679688
0.0075,14.899536132812,6.7716064453125,-20.895385742188
0.008,11.656372070312,9.7344970703125,-20.655151367188
0.0085,7.1719970703125,13.418090820312,-20.094604492188
0.009,2.0469970703125,16.941528320312,-18.573120117188
0.0095,-2.7977294921875,19.504028320312,-16.651245117188
0.01,-5.6405029296875,20.625122070312,-15.209838867188
0.0105,-8.5633544921875,21.105590820312,-12.967651367188
0.011,-11.686401367188,20.665161132812,-9.6444091796875
0.0115,-15.249877929688,19.504028320312,-5.0799560546875
0.012,-18.372924804688,17.902465820312,-0.5155029296875
0.0125,-20.655151367188,16.140747070312,3.5284423828125
0.013,-21.215698242188,14.058715820312,6.1710205078125
0.0135,-21.295776367188,11.095825195312,9.2139892578125
0.014,-20.815307617188,7.0919189453125,12.737426757812
0.0145,-19.734252929688,2.6075439453125,16.140747070312
0.015,-18.012573242188,-1.8367919921875,18.863403320312
0.0155,-16.411010742188,-4.9197998046875,20.424926757812
0.016,-14.088745117188,-7.8026123046875,20.985473632812
0.0165,-10.325073242188,-11.005737304688,20.545043945312
0.017,-5.6004638671875,-14.609252929688,19.504028320312
0.0175,-0.5955810546875,-17.892456054688,17.942504882812
0.018,3.8487548828125,-20.134643554688,16.180786132812
0.0185,6.4112548828125,-20.815307617188,14.539184570312
0.019,9.5343017578125,-21.095581054688,12.016723632812
0.0195,12.897583007812,-20.454956054688,8.1729736328125
0.02,16.260864257812,-19.093627929688,3.5684814453125
0.0205,19.103637695312,-17.291870117188,-0.9559326171875
0.021,20.865356445312,-15.690307617188,-4.2391357421875
0.0215,21.185668945312,-13.328002929688,-6.9217529296875
0.022,21.065551757812,-10.004760742188,-10.124877929688
0.0225,20.264770507812,-5.8006591796875,-13.568237304688
0.023,19.143676757812,-1.3963623046875,-16.811401367188
0.0235,17.421997070312,2.8077392578125,-19.293823242188
0.024,15.540161132812,5.5704345703125,-20.254760742188
0.0245,12.977661132812,8.4532470703125,-20.655151367188
0.025,8.6134033203125,12.016723632812,-20.134643554688
0.0255,3.8487548828125,15.380004882812,-18.853393554688
0.026,-1.0360107421875,18.382934570312,-17.131713867188
0.0265,-4.6795654296875,20.344848632812,-15.730346679688
0.027,-7.3221435546875,20.745239257812,-13.648315429688
0.0275,-10.244995117188,20.745239257812,-11.045776367188
0.028,-13.968627929688,19.984497070312,-6.7615966796875
0.0285,-17.251831054688,18.463012695312,-1.9969482421875
0.029,-19.854370117188,16.661254882812,2.2471923828125
0.0295,-21.055541992188,14.979614257812,5.0899658203125
0.03,-21.335815429688,12.417114257812,7.9727783203125
0.0305,-21.015502929688,8.4532470703125,11.536254882812
0.031,-20.054565429688,4.3292236328125,14.819458007812
0.0315,-18.733276367188,-0.1551513671875,17.902465820312
0.032,-17.131713867188,-3.9989013671875,20.184692382812
0.0325,-14.809448242188,-6.6815185546875,20.585083007812
0.033,-12.046752929688,-9.6444091796875,20.825317382812
0.0335,-7.1219482421875,-13.608276367188,19.984497070312
0.034,-2.0369873046875,-16.851440429688,18.422973632812
0.0345,2.4473876953125,-19.293823242188,16.661254882812
0.035,5.6104736328125,-20.815307617188,15.339965820312
0.0355,8.4532470703125,-21.015502929688,12.937622070312
0.036,11.696411132812,-20.695190429688,9.5343017578125
0.0365,15.179809570312,-19.694213867188,5.3302001953125
0.037,18.463012695312,-18.092651367188,0.4454345703125
0.0375,20.625122070312,-16.290893554688,-3.4783935546875
0.038,21.185668945312,-14.128784179688,-6.1209716796875
0.0385,21.425903320312,-11.486206054688,-9.0037841796875
0.039,20.785278320312,-6.9217529296875,-12.967651367188
0.0395,19.664184570312,-2.7576904296875,-16.010620117188
0.04,18.062622070312,1.5264892578125,-18.653198242188
0.0405,16.501098632812,4.9698486328125,-20.695190429688
0.041,13.778442382812,7.6925048828125,-20.695190429688
0.0415,10.255004882812,10.855590820312,-20.575073242188
0.042,5.4903564453125,14.659301757812,-19.614135742188
0.0425,0.0850830078125,17.942504882812,-17.692260742188
0.043,-3.8387451171875,19.904418945312,-16.170776367188
0.0435,-6.5614013671875,20.865356445312,-14.609252929688
0.044,-9.4842529296875,21.065551757812,-12.086791992188
0.0445,-13.127807617188,20.264770507812,-7.8826904296875
0.045,-16.290893554688,19.103637695312,-3.6785888671875
0.0455,-19.213745117188,17.301879882812,0.9659423828125
0.046,-21.135620117188,15.580200195312,4.4893798828125
0.0465,-21.215698242188,13.097778320312,7.0518798828125
0.047,-21.335815429688,10.134887695312,10.134887695312
0.0475,-20.535034179688,5.4903564453125,14.018676757812
0.048,-19.253784179688,1.0860595703125,17.141723632812
0.0485,-17.532104492188,-2.8377685546875,19.383911132812
0.049,-15.930541992188,-5.8406982421875,20.825317382812
0.0495,-13.087768554688,-8.8035888671875,20.905395507812
0.05,-8.6834716796875,-12.447143554688,20.304809570312
0.0505,-4.0789794921875,-15.690307617188,19.183715820312
0.051,1.1260986328125,-18.693237304688,17.341918945312
0.0515,4.7296142578125,-20.494995117188,15.820434570312
0.052,7.3721923828125,-20.815307617188,13.778442382812
0.0525,10.214965820312,-21.095581054688,11.376098632812
0.053,14.258911132812,-20.054565429688,6.4512939453125
0.0535,17.341918945312,-18.533081054688,1.9669189453125
0.054,19.704223632812,-16.891479492188,-2.0770263671875
0.0545,21.105590820312,-15.129760742188,-5.1199951171875
0.055,21.105590820312,-12.286987304688,-7.8426513671875
0.0555,20.865356445312,-8.6834716796875,-11.366088867188
0.056,19.984497070312,-4.4793701171875,-14.609252929688
0.0565,18.583129882812,0.0850830078125,-17.852416992188
0.057,16.781372070312,3.7286376953125,-19.694213867188
0.0575,14.739379882812,6.4512939453125,-20.454956054688
0.058,12.056762695312,9.3341064453125,-20.775268554688
0.0585,6.7315673828125,13.458129882812,-19.614135742188
0.059,2.2071533203125,16.461059570312,-18.292846679688
0.0595,-2.3172607421875,19.063598632812,-16.651245117188
0.06,-5.6405029296875,20.625122070312,-15.209838867188
0.0605,-8.3231201171875,20.585083007812,-12.727416992188
0.061,-11.205932617188,20.545043945312,-9.9647216796875
0.0615,-15.009643554688,19.504028320312,-5.2801513671875
0.062,-18.252807617188,17.622192382812,-0.4754638671875
0.0625,-20.214721679688,15.940551757812,3.0880126953125
0.063,-21.135620117188,14.098754882812,6.0909423828125
0.0635,-21.175659179688,11.336059570312,8.8135986328125
0.064,-20.695190429688,6.8917236328125,12.817504882812
0.0645,-19.614135742188,2.8477783203125,15.740356445312
0.065,-18.172729492188,-1.5164794921875,18.703247070312
0.0655,-16.531127929688,-4.9598388671875,20.464965820312
0.066,-13.808471679688,-7.6024169921875,20.505004882812
0.0665,-10.925659179688,-10.645385742188,20.785278320312
0.067,-5.4002685546875,-14.769409179688,19.504028320312
0.0675,-0.3153076171875,-17.812377929688,17.782348632812
0.068,3.4884033203125,-19.814331054688,16.260864257812
0.0685,6.5714111328125,-21.095581054688,14.699340820312
0.069,9.4542236328125,-20.895385742188,11.856567382812
0.0695,12.937622070312,-20.374877929688,8.0528564453125
0.07,16.340942382812,-19.213745117188,3.7686767578125
0.0705,19.383911132812,-17.411987304688,-1.1961669921875
0.071,20.865356445312,-15.690307617188,-4.3192138671875
0.0715,21.265747070312,-13.247924804688,-7.0819091796875
0.072,21.305786132812,-10.445190429688,-9.8846435546875
0.0725,20.505004882812,-5.4403076171875,-14.128784179688
0.073,19.143676757812,-1.2762451171875,-17.011596679688
0.0735,17.582153320312,2.6075439453125,-19.413940429688
0.074,15.900512695312,5.9307861328125,-20.975463867188
0.0745,12.657348632812,8.7735595703125,-20.615112304688
0.075,8.8536376953125,12.176879882812,-20.374877929688
0.0755,3.8487548828125,15.860473632812,-19.213745117188
0.076,-1.5565185546875,18.863403320312,-17.171752929688
0.0765,-4.7996826171875,20.344848632812,-15.650268554688
0.077,-7.6024169921875,21.105590820312,-13.808471679688
0.0775,-10.405151367188,20.985473632812,-11.085815429688
0.078,-14.409057617188,19.864379882812,-6.2410888671875
0.0785,-17.492065429688,18.463012695312,-1.8768310546875
0.079,-20.014526367188,16.661254882812,2.4073486328125
0.0795,-21.295776367188,14.859497070312,5.4102783203125
0.08,-21.175659179688,12.016723632812,8.2130126953125
0.0805,-21.095581054688,8.8536376953125,11.336059570312
0.081,-20.214721679688,4.0889892578125,15.059692382812
0.0815,-18.573120117188,-0.5955810546875,18.102661132812
0.082,-16.811401367188,-3.8787841796875,19.824340820312
0.0825,-15.089721679688,-6.8817138671875,21.025512695312
0.083,-11.846557617188,-9.6844482421875,20.745239257812
0.0835,-6.9217529296875,-13.608276367188,19.864379882812
0.084,-2.2371826171875,-16.811401367188,18.543090820312
0.0845,2.7276611328125,-19.534057617188,16.661254882812
0.085,5.6905517578125,-20.695190429688,15.099731445312
0.0855,8.5733642578125,-20.895385742188,12.697387695312
0.086,11.416137695312,-20.815307617188,9.9747314453125
0.0865,15.380004882812,-19.574096679688,4.9698486328125
0.087,18.422973632812,-17.812377929688,0.2452392578125
0.0875,20.344848632812,-16.210815429688,-3.2781982421875
0.088,21.265747070312,-14.248901367188,-6.1209716796875
0.0885,21.065551757812,-11.205932617188,-8.8436279296875
0.089,20.625122070312,-7.2821044921875,-12.527221679688
0.0895,19.584106445312,-3.0780029296875,-15.890502929688
0.09,18.062622070312,1.6065673828125,-18.733276367188
0.0905,16.220825195312,4.7296142578125,-20.134643554688
0.091,13.818481445312,7.5723876953125,-20.655151367188
0.0915,10.575317382812,10.615356445312,-20.535034179688
0.092,5.1300048828125,14.659301757812,-19.213745117188
0.0925,0.2852783203125,17.622192382812,-17.652221679688
0.093,-3.7186279296875,19.864379882812,-16.090698242188
0.0935,-6.5614013671875,20.785278320312,-14.409057617188
0.094,-9.5643310546875,20.625122070312,-11.606323242188
0.0945,-12.687377929688,20.224731445312,-8.2830810546875
0.095,-16.250854492188,18.943481445312,-3.5985107421875
0.0955,-19.213745117188,16.981567382812,1.2862548828125
0.096,-20.615112304688,15.380004882812,4.3292236328125
0.0965,-21.255737304688,13.097778320312,7.1319580078125
0.097,-21.015502929688,10.094848632812,9.8946533203125
0.0975,-20.294799804688,5.4102783203125,13.778442382812
0.098,-19.093627929688,1.2462158203125,16.861450195312
0.0985,-17.612182617188,-2.8778076171875,19.463989257812
0.099,-15.690307617188,-5.7606201171875,20.545043945312
0.0995,-12.767456054688,-8.6834716796875,20.545043945312
0.1,-9.1239013671875,-12.046752929688,20.424926757812
0.1005,-3.6785888671875,-15.730346679688,18.903442382812
0.101,1.3663330078125,-18.573120117188,17.021606445312
0.1015,4.5294189453125,-20.214721679688,15.660278320312
0.102,7.4522705078125,-20.935424804688,13.778442382812
0.1025,10.375122070312,-20.655151367188,10.815551757812
0.103,13.938598632812,-19.814331054688,6.5313720703125
0.1035,17.261840820312,-18.453002929688,2.0469970703125
0.104,19.904418945312,-16.651245117188,-2.4373779296875
0.1045,20.785278320312,-14.849487304688,-5.1199951171875
0.105,21.065551757812,-12.206909179688,-8.0028076171875
0.1055,20.785278320312,-8.8436279296875,-11.085815429688
0.106,19.824340820312,-4.1190185546875,-14.769409179688
0.1065,18.302856445312,0.3253173828125,-17.652221679688
0.107,16.821411132812,3.8087158203125,-19.774291992188
0.1075,14.699340820312,6.6915283203125,-20.535034179688
0.108,11.456176757812,9.5343017578125,-20.334838867188
0.1085,7.0518798828125,13.177856445312,-19.654174804688
0.109,2.0469970703125,16.621215820312,-18.332885742188
0.1095,-2.8377685546875,19.223754882812,-16.370971679688
0.11,-5.5604248046875,20.264770507812,-14.929565429688
0.1105,-8.4031982421875,20.745239257812,-12.807495117188
0.111,-11.446166992188,20.344848632812,-9.5643310546875
0.1115,-15.049682617188,19.183715820312,-4.9598388671875
0.112,-18.132690429688,17.622192382812,-0.4754638671875
0.1125,-20.374877929688,15.940551757812,3.4884033203125
0.113,-20.975463867188,13.858520507812,6.0509033203125
0.1135,-20.975463867188,10.855590820312,8.9737548828125
0.114,-20.575073242188,7.0919189453125,12.497192382812
0.1145,-19.574096679688,2.6876220703125,15.940551757812
0.115,-17.892456054688,-1.7967529296875,18.663208007812
0.1155,-16.330932617188,-4.7996826171875,20.144653320312
0.116,-14.048706054688,-7.6424560546875,20.785278320312
0.1165,-10.365112304688,-10.765502929688,20.344848632812
0.117,-5.4803466796875,-14.369018554688,19.263793945312
0.1175,-0.6356201171875,-17.772338867188,17.742309570312
0.118,3.7686767578125,-19.894409179688,16.020629882812
0.1185,6.3712158203125,-20.535034179688,14.379028320312
0.119,9.2940673828125,-20.775268554688,11.856567382812
0.1195,12.737426757812,-20.254760742188,8.1729736328125
0.12,16.060668945312,-18.933471679688,3.5684814453125
0.1205,18.983520507812,-17.251831054688,-1.0360107421875
0.121,20.665161132812,-15.610229492188,-4.1990966796875
0.1215,21.025512695312,-13.287963867188,-6.9217529296875
0.122,20.865356445312,-9.9647216796875,-10.044799804688
0.1225,20.144653320312,-5.7205810546875,-13.528198242188
0.123,19.063598632812,-1.3563232421875,-16.811401367188
0.1235,17.421997070312,2.8477783203125,-19.333862304688
0.124,15.460083007812,5.6505126953125,-20.134643554688
0.1245,12.937622070312,8.4932861328125,-20.615112304688
0.125,8.6134033203125,12.176879882812,-20.134643554688
0.1255,3.7286376953125,15.500122070312,-18.773315429688
0.126,-1.1561279296875,18.382934570312,-17.091674804688
0.1265,-4.7596435546875,20.344848632812,-15.690307617188
0.127,-7.4022216796875,20.705200195312,-13.648315429688
0.1275,-10.365112304688,20.665161132812,-10.885620117188
0.128,-13.968627929688,19.904418945312,-6.6014404296875
0.1285,-17.371948242188,18.382934570312,-1.8768310546875
0.129,-19.894409179688,16.501098632812,2.4073486328125
0.1295,-21.055541992188,14.739379882812,5.2501220703125
0.13,-21.415893554688,12.216918945312,8.1329345703125
0.1305,-21.015502929688,8.2930908203125,11.656372070312
0.131,-20.014526367188,4.0889892578125,14.899536132812
0.1315,-18.653198242188,-0.3153076171875,17.942504882812
0.132,-17.091674804688,-4.1590576171875,20.264770507812
0.1325,-14.729370117188,-6.8016357421875,20.665161132812
0.133,-11.806518554688,-9.5643310546875,20.865356445312
0.1335,-7.0418701171875,-13.648315429688,19.984497070312
0.134,-1.8768310546875,-16.971557617188,18.422973632812
0.1345,2.6475830078125,-19.413940429688,16.621215820312
0.135,5.7305908203125,-20.895385742188,15.219848632812
0.1355,8.6134033203125,-21.135620117188,12.857543945312
0.136,11.816528320312,-20.655151367188,9.4542236328125
0.1365,15.339965820312,-19.734252929688,5.2100830078125
0.137,18.783325195312,-17.972534179688,0.2852783203125
0.1375,20.785278320312,-16.370971679688,-3.7186279296875
0.138,21.345825195312,-14.088745117188,-6.3612060546875
0.1385,21.586059570312,-11.366088867188,-9.2840576171875
0.139,20.945434570312,-6.8817138671875,-13.207885742188
0.1395,19.824340820312,-2.5975341796875,-16.370971679688
0.14,18.222778320312,1.6466064453125,-19.013549804688
0.1405,16.581176757812,5.1300048828125,-20.895385742188
0.141,13.778442382812,7.8927001953125,-20.975463867188
0.1415,10.214965820312,11.175903320312,-20.735229492188
0.142,5.4503173828125,14.819458007812,-19.814331054688
0.1425,0.0450439453125,18.222778320312,-17.972534179688
0.143,-4.1190185546875,20.224731445312,-16.170776367188
0.1435,-6.8817138671875,21.105590820312,-14.529174804688
0.144,-9.9246826171875,21.345825195312,-12.046752929688
0.1445,-13.488159179688,20.464965820312,-7.6824951171875
0.145,-16.691284179688,19.223754882812,-3.4783935546875
0.1455,-19.734252929688,17.421997070312,1.2862548828125
0.146,-21.536010742188,15.700317382812,4.8497314453125
0.1465,-21.656127929688,13.097778320312,7.5323486328125
0.147,-21.776245117188,10.014770507812,10.695434570312
0.1475,-20.895385742188,5.3702392578125,14.579223632812
0.148,-19.574096679688,0.8458251953125,17.822387695312
0.1485,-17.732299804688,-3.1981201171875,19.984497070312
0.149,-16.010620117188,-6.2811279296875,21.345825195312
0.1495,-13.087768554688,-9.2039794921875,21.425903320312
0.15,-8.4832763671875,-12.927612304688,20.705200195312
0.1505,-3.8387451171875,-16.130737304688,19.463989257812
0.151,1.4464111328125,-19.253784179688,17.622192382812
0.1515,5.1700439453125,-21.095581054688,15.980590820312
0.152,7.9327392578125,-21.375854492188,13.738403320312
0.1525,10.855590820312,-21.656127929688,11.255981445312
0.153,14.939575195312,-20.494995117188,6.2510986328125
0.1535,18.062622070312,-18.933471679688,1.6065673828125
0.154,20.505004882812,-17.131713867188,-2.5574951171875
0.1545,21.946411132812,-15.289916992188,-5.7606201171875
0.155,21.826293945312,-12.367065429688,-8.4832763671875
0.1555,21.626098632812,-8.5233154296875,-12.126831054688
0.156,20.625122070312,-4.2391357421875,-15.530151367188
0.1565,19.143676757812,0.6055908203125,-18.813354492188
0.157,17.261840820312,4.3292236328125,-20.695190429688
0.1575,14.979614257812,7.1319580078125,-21.295776367188
0.158,12.176879882812,10.134887695312,-21.536010742188
0.1585,6.5714111328125,14.379028320312,-20.374877929688
0.159,1.8468017578125,17.381958007812,-18.893432617188
0.1595,-2.8377685546875,19.984497070312,-17.171752929688
0.16,-6.2811279296875,21.626098632812,-15.610229492188
0.1605,-9.0438232421875,21.465942382812,-12.847534179688
0.161,-12.206909179688,21.305786132812,-9.8045654296875
0.1615,-16.130737304688,20.144653320312,-4.9598388671875
0.162,-19.413940429688,18.222778320312,0.2852783203125
0.1625,-21.295776367188,16.461059570312,3.8887939453125
0.163,-22.256713867188,14.298950195312,6.8917236328125
0.1635,-22.176635742188,11.376098632812,9.7344970703125
0.164,-21.576049804688,6.6514892578125,13.858520507812
0.1645,-20.374877929688,2.4874267578125,16.901489257812
0.165,-18.813354492188,-2.0770263671875,19.864379882812
0.1655,-16.931518554688,-5.6405029296875,21.586059570312
0.166,-13.968627929688,-8.4031982421875,21.505981445312
0.1665,-10.885620117188,-11.566284179688,21.626098632812
0.167,-5.1199951171875,-15.730346679688,20.264770507812
0.1675,0.2852783203125,-18.853393554688,18.302856445312
0.168,4.0889892578125,-20.815307617188,16.661254882812
0.1685,7.3321533203125,-22.056518554688,14.979614257812
0.169,10.295043945312,-21.816284179688,11.976684570312
0.1695,13.858520507812,-21.135620117188,7.8126220703125
0.17,17.301879882812,-19.894409179688,3.3682861328125
0.1705,20.424926757812,-17.812377929688,-1.6766357421875
0.171,21.826293945312,-15.970581054688,-4.9598388671875
0.1715,22.106567382812,-13.328002929688,-7.8026123046875
0.172,22.066528320312,-10.365112304688,-10.765502929688
0.1725,20.985473632812,-5.2801513671875,-14.929565429688
0.173,19.624145507812,-0.7957763671875,-17.892456054688
0.1735,17.942504882812,3.1680908203125,-20.214721679688
0.174,16.100708007812,6.4913330078125,-21.736206054688
0.1745,12.697387695312,9.3741455078125,-21.295776367188
0.175,8.6934814453125,12.857543945312,-20.935424804688
0.1755,3.5684814453125,16.581176757812,-19.694213867188
0.176,-1.9168701171875,19.584106445312,-17.572143554688
0.1765,-5.2801513671875,21.025512695312,-16.170776367188
0.177,-8.2030029296875,21.706176757812,-13.928588867188
0.1775,-11.125854492188,21.586059570312,-11.165893554688
0.178,-15.089721679688,20.384887695312,-6.1209716796875
