wavelength,x,y,z
0.0,2.692626953125,1.411376953125,-4.514404296875
0.0005,1.971923828125,2.292236328125,-4.674560546875
0.001,1.091064453125,3.453369140625,-4.914794921875
0.0015,0.210205078125,3.693603515625,-4.274169921875
0.002,-0.470458984375,4.334228515625,-4.234130859375
0.0025,-1.471435546875,4.454345703125,-3.233154296875
0.003,-2.272216796875,4.654541015625,-2.712646484375
0.0035,-3.553466796875,4.814697265625,-1.591552734375
0.004,-4.314208984375,4.774658203125,-0.870849609375
0.0045,-4.594482421875,4.134033203125,0.010009765625
0.005,-4.994873046875,3.973876953125,0.610595703125
0.0055,-4.954833984375,3.012939453125,1.491455078125
0.006,-4.994873046875,2.412353515625,2.172119140625
0.0065,-5.275146484375,1.411376953125,3.333251953125
0.007,-4.754638671875,0.570556640625,3.733642578125
0.0075,-4.434326171875,-0.350341796875,4.294189453125
0.008,-3.713623046875,-1.271240234375,4.454345703125
0.0085,-3.032958984375,-2.192138671875,4.534423828125
0.009,-2.232177734375,-3.153076171875,4.654541015625
0.0095,-1.351318359375,-4.154052734375,4.814697265625
0.01,-0.430419921875,-4.354248046875,4.134033203125
0.0105,0.130126953125,-4.954833984375,4.134033203125
0.011,1.331298828125,-4.994873046875,3.052978515625
0.0115,2.092041015625,-5.235107421875,2.532470703125
0.012,3.413330078125,-5.435302734375,1.411376953125
0.0125,3.893798828125,-5.155029296875,0.610595703125
0.013,4.254150390625,-4.634521484375,-0.150146484375
0.0135,4.494384765625,-4.314208984375,-0.750732421875
0.014,4.494384765625,-3.353271484375,-1.711669921875
0.0145,4.534423828125,-2.672607421875,-2.392333984375
0.015,4.814697265625,-1.791748046875,-3.513427734375
0.0155,4.093994140625,-0.790771484375,-3.713623046875
0.016,3.853759765625,0.010009765625,-4.234130859375
0.0165,3.012939453125,0.930908203125,-4.354248046875
0.017,2.372314453125,1.731689453125,-4.514404296875
0.0175,1.531494140625,2.692626953125,-4.634521484375
0.018,0.770751953125,3.533447265625,-4.634521484375
0.0185,-0.110107421875,3.773681640625,-3.993896484375
0.019,-0.710693359375,4.294189453125,-3.913818359375
0.0195,-1.911865234375,4.334228515625,-2.752685546875
0.02,-2.592529296875,4.534423828125,-2.312255859375
0.0205,-3.793701171875,4.694580078125,-1.311279296875
0.021,-4.114013671875,4.334228515625,-0.590576171875
0.0215,-4.514404296875,4.013916015625,0.130126953125
0.022,-4.634521484375,3.493408203125,0.770751953125
0.0225,-4.754638671875,2.692626953125,1.611572265625
0.023,-4.834716796875,1.971923828125,2.412353515625
0.0235,-5.034912109375,1.251220703125,3.333251953125
0.024,-4.234130859375,0.210205078125,3.533447265625
0.0245,-4.234130859375,-0.510498046875,4.134033203125
0.025,-3.193115234375,-1.551513671875,4.134033203125
0.0255,-2.752685546875,-2.312255859375,4.414306640625
0.026,-1.871826171875,-3.233154296875,4.494384765625
0.0265,-1.151123046875,-3.873779296875,4.374267578125
0.027,-0.390380859375,-4.194091796875,3.893798828125
0.0275,0.330322265625,-4.634521484375,3.653564453125
0.028,1.531494140625,-4.754638671875,2.572509765625
0.0285,2.252197265625,-4.994873046875,2.132080078125
0.029,3.253173828125,-5.114990234375,1.251220703125
0.0295,3.533447265625,-4.594482421875,0.490478515625
0.03,3.973876953125,-4.434326171875,-0.070068359375
0.0305,4.053955078125,-3.713623046875,-0.910888671875
0.031,4.214111328125,-3.072998046875,-1.671630859375
0.0315,4.254150390625,-2.272216796875,-2.472412109375
0.032,4.334228515625,-1.631591796875,-3.193115234375
0.0325,3.533447265625,-0.630615234375,-3.433349609375
0.033,3.533447265625,0.010009765625,-3.913818359375
0.0335,2.492431640625,1.010986328125,-3.993896484375
0.034,2.172119140625,1.771728515625,-4.274169921875
0.0345,1.291259765625,2.692626953125,-4.354248046875
0.035,0.610595703125,3.093017578125,-4.073974609375
0.0355,-0.070068359375,3.533447265625,-3.793701171875
0.036,-0.910888671875,3.853759765625,-3.313232421875
0.0365,-1.951904296875,4.013916015625,-2.472412109375
0.037,-2.632568359375,4.214111328125,-1.951904296875
0.0375,-3.473388671875,4.334228515625,-1.231201171875
0.038,-3.673583984375,3.773681640625,-0.510498046875
0.0385,-4.154052734375,3.733642578125,0.010009765625
0.039,-4.154052734375,2.852783203125,0.890869140625
0.0395,-4.434326171875,2.492431640625,1.531494140625
0.04,-4.514404296875,1.651611328125,2.372314453125
0.0405,-4.474365234375,1.091064453125,2.852783203125
0.041,-3.873779296875,0.130126953125,3.213134765625
0.0415,-3.753662109375,-0.550537109375,3.653564453125
0.042,-2.832763671875,-1.551513671875,3.813720703125
0.0425,-2.512451171875,-2.232177734375,4.134033203125
0.043,-1.751708984375,-3.072998046875,4.174072265625
0.0435,-1.071044921875,-3.393310546875,3.853759765625
0.044,-0.430419921875,-3.913818359375,3.733642578125
0.0445,0.570556640625,-4.154052734375,3.012939453125
0.045,1.451416015625,-4.514404296875,2.452392578125
0.0455,2.252197265625,-4.594482421875,1.771728515625
0.046,2.852783203125,-4.674560546875,1.251220703125
0.0465,3.133056640625,-4.154052734375,0.490478515625
0.047,3.533447265625,-4.154052734375,0.050048828125
0.0475,3.573486328125,-3.193115234375,-0.950927734375
0.048,3.893798828125,-2.872802734375,-1.551513671875
0.0485,3.973876953125,-2.152099609375,-2.392333984375
0.049,3.733642578125,-1.551513671875,-2.752685546875
0.0495,3.333251953125,-0.630615234375,-3.233154296875
0.05,3.012939453125,0.090087890625,-3.513427734375
0.0505,2.292236328125,1.091064453125,-3.753662109375
0.051,1.931884765625,1.691650390625,-3.993896484375
0.0515,1.291259765625,2.452392578125,-4.073974609375
0.052,0.570556640625,2.732666015625,-3.673583984375
0.0525,0.010009765625,3.293212890625,-3.593505859375
0.053,-1.111083984375,3.493408203125,-2.712646484375
0.0535,-1.871826171875,3.853759765625,-2.392333984375
0.054,-2.632568359375,3.893798828125,-1.631591796875
0.0545,-3.153076171875,3.893798828125,-1.191162109375
0.055,-3.393310546875,3.493408203125,-0.470458984375
0.0555,-3.753662109375,3.333251953125,0.010009765625
0.056,-3.913818359375,2.572509765625,0.970947265625
0.0565,-4.194091796875,2.172119140625,1.531494140625
0.057,-4.354248046875,1.531494140625,2.332275390625
0.0575,-3.913818359375,0.770751953125,2.572509765625
0.058,-3.833740234375,0.050048828125,3.213134765625
0.0585,-3.193115234375,-0.790771484375,3.413330078125
0.059,-2.752685546875,-1.631591796875,3.813720703125
0.0595,-2.192138671875,-2.312255859375,3.893798828125
0.06,-1.631591796875,-2.952880859375,3.973876953125
0.0605,-0.910888671875,-3.273193359375,3.533447265625
0.061,-0.270263671875,-3.873779296875,3.493408203125
0.0615,0.930908203125,-4.033935546875,2.532470703125
0.062,1.611572265625,-4.434326171875,2.212158203125
0.0625,2.372314453125,-4.434326171875,1.491455078125
0.063,2.772705078125,-4.274169921875,0.970947265625
0.0635,3.133056640625,-3.993896484375,0.330322265625
0.064,3.333251953125,-3.593505859375,-0.310302734375
0.0645,3.653564453125,-3.032958984375,-1.191162109375
0.065,3.773681640625,-2.512451171875,-1.791748046875
0.0655,3.853759765625,-1.951904296875,-2.512451171875
0.066,3.253173828125,-0.990966796875,-2.712646484375
0.0665,3.253173828125,-0.390380859375,-3.273193359375
0.067,2.412353515625,0.610595703125,-3.433349609375
0.0675,2.172119140625,1.331298828125,-3.873779296875
0.068,1.451416015625,2.011962890625,-3.833740234375
0.0685,0.930908203125,2.532470703125,-3.833740234375
0.069,0.170166015625,2.892822265625,-3.393310546875
0.0695,-0.550537109375,3.373291015625,-3.193115234375
0.07,-1.631591796875,3.613525390625,-2.312255859375
0.0705,-2.272216796875,3.853759765625,-1.951904296875
0.071,-2.952880859375,3.853759765625,-1.311279296875
0.0715,-3.233154296875,3.573486328125,-0.710693359375
0.072,-3.633544921875,3.373291015625,-0.190185546875
0.0725,-3.753662109375,2.692626953125,0.610595703125
0.073,-4.114013671875,2.252197265625,1.331298828125
0.0735,-4.114013671875,1.611572265625,1.931884765625
0.074,-4.194091796875,1.131103515625,2.572509765625
0.0745,-3.553466796875,0.170166015625,2.892822265625
0.075,-3.553466796875,-0.430419921875,3.453369140625
0.0755,-2.632568359375,-1.511474609375,3.573486328125
0.076,-2.352294921875,-2.152099609375,3.933837890625
0.0765,-1.671630859375,-2.832763671875,3.893798828125
0.077,-1.071044921875,-3.273193359375,3.733642578125
0.0775,-0.350341796875,-3.713623046875,3.413330078125
0.078,0.610595703125,-4.033935546875,2.852783203125
0.0785,1.651611328125,-4.434326171875,2.132080078125
0.079,2.252197265625,-4.434326171875,1.571533203125
0.0795,2.892822265625,-4.514404296875,1.010986328125
0.08,3.052978515625,-3.953857421875,0.370361328125
0.0805,3.493408203125,-3.873779296875,-0.190185546875
0.081,3.573486328125,-3.032958984375,-1.151123046875
0.0815,3.893798828125,-2.632568359375,-1.871826171875
0.082,3.733642578125,-1.791748046875,-2.432373046875
0.0825,3.653564453125,-1.191162109375,-2.952880859375
0.083,3.012939453125,-0.270263671875,-3.193115234375
0.0835,2.812744140625,0.410400390625,-3.593505859375
0.084,1.931884765625,1.531494140625,-3.833740234375
0.0845,1.571533203125,2.052001953125,-3.993896484375
0.085,0.890869140625,2.692626953125,-3.913818359375
0.0855,0.170166015625,3.052978515625,-3.553466796875
0.086,-0.590576171875,3.453369140625,-3.233154296875
0.0865,-1.591552734375,3.693603515625,-2.472412109375
0.087,-2.552490234375,4.013916015625,-1.871826171875
0.0875,-2.992919921875,3.853759765625,-1.231201171875
0.088,-3.553466796875,3.853759765625,-0.710693359375
0.0885,-3.673583984375,3.253173828125,0.010009765625
0.089,-3.993896484375,3.052978515625,0.490478515625
0.0895,-4.194091796875,2.132080078125,1.531494140625
0.09,-4.354248046875,1.771728515625,2.172119140625
0.0905,-4.194091796875,0.970947265625,2.772705078125
0.091,-3.953857421875,0.290283203125,3.173095703125
0.0915,-3.393310546875,-0.630615234375,3.493408203125
0.092,-2.952880859375,-1.391357421875,3.813720703125
0.0925,-2.232177734375,-2.472412109375,4.093994140625
0.093,-1.631591796875,-2.912841796875,3.973876953125
0.0935,-0.990966796875,-3.593505859375,4.013916015625
0.094,-0.270263671875,-3.873779296875,3.493408203125
0.0945,0.530517578125,-4.314208984375,3.173095703125
0.095,1.771728515625,-4.554443359375,2.212158203125
0.0955,2.612548828125,-4.794677734375,1.571533203125
0.096,3.052978515625,-4.474365234375,0.850830078125
0.0965,3.533447265625,-4.514404296875,0.290283203125
0.097,3.613525390625,-3.793701171875,-0.470458984375
0.0975,3.853759765625,-3.393310546875,-1.111083984375
0.098,4.134033203125,-2.472412109375,-2.192138671875
0.0985,4.013916015625,-1.871826171875,-2.672607421875
0.099,3.853759765625,-0.990966796875,-3.273193359375
0.0995,3.333251953125,-0.190185546875,-3.553466796875
0.1,2.812744140625,0.610595703125,-3.833740234375
0.1005,2.092041015625,1.531494140625,-3.993896484375
0.101,1.451416015625,2.532470703125,-4.314208984375
0.1015,0.770751953125,2.852783203125,-3.953857421875
0.102,0.170166015625,3.533447265625,-3.993896484375
0.1025,-0.750732421875,3.653564453125,-3.233154296875
0.103,-1.471435546875,4.013916015625,-2.872802734375
0.1035,-2.792724609375,4.254150390625,-1.871826171875
0.104,-3.473388671875,4.334228515625,-1.231201171875
0.1045,-3.873779296875,3.893798828125,-0.510498046875
0.105,-4.314208984375,3.773681640625,0.090087890625
0.1055,-4.314208984375,3.052978515625,0.810791015625
0.106,-4.514404296875,2.492431640625,1.571533203125
0.1065,-4.834716796875,1.691650390625,2.652587890625
0.107,-4.474365234375,0.930908203125,3.052978515625
0.1075,-4.354248046875,0.130126953125,3.693603515625
0.108,-3.633544921875,-0.790771484375,3.853759765625
0.1085,-3.153076171875,-1.551513671875,4.134033203125
0.109,-2.272216796875,-2.592529296875,4.334228515625
0.1095,-1.631591796875,-3.553466796875,4.494384765625
0.11,-0.790771484375,-3.833740234375,3.973876953125
0.1105,-0.230224609375,-4.514404296875,4.053955078125
0.111,0.850830078125,-4.554443359375,3.093017578125
0.1115,1.611572265625,-4.874755859375,2.612548828125
0.112,3.012939453125,-5.114990234375,1.531494140625
0.1125,3.533447265625,-4.954833984375,0.770751953125
0.113,3.933837890625,-4.634521484375,0.050048828125
0.1135,4.214111328125,-4.194091796875,-0.590576171875
0.114,4.294189453125,-3.433349609375,-1.351318359375
0.1145,4.334228515625,-2.712646484375,-2.192138671875
0.115,4.654541015625,-1.871826171875,-3.233154296875
0.1155,4.013916015625,-0.910888671875,-3.553466796875
0.116,3.893798828125,-0.190185546875,-4.154052734375
0.1165,2.932861328125,0.810791015625,-4.154052734375
0.117,2.452392578125,1.571533203125,-4.394287109375
0.1175,1.531494140625,2.692626953125,-4.514404296875
0.118,0.770751953125,3.453369140625,-4.554443359375
0.1185,-0.070068359375,3.733642578125,-3.993896484375
0.119,-0.670654296875,4.214111328125,-3.873779296875
0.1195,-1.871826171875,4.334228515625,-2.832763671875
0.12,-2.592529296875,4.534423828125,-2.272216796875
0.1205,-3.873779296875,4.734619140625,-1.271240234375
0.121,-4.234130859375,4.294189453125,-0.510498046875
0.1215,-4.634521484375,4.093994140625,0.210205078125
0.122,-4.794677734375,3.493408203125,0.930908203125
0.1225,-4.874755859375,2.692626953125,1.771728515625
0.123,-4.914794921875,1.931884765625,2.572509765625
0.1235,-5.155029296875,1.131103515625,3.533447265625
0.124,-4.354248046875,0.010009765625,3.773681640625
0.1245,-4.314208984375,-0.630615234375,4.374267578125
0.125,-3.193115234375,-1.751708984375,4.334228515625
0.1255,-2.712646484375,-2.512451171875,4.574462890625
0.126,-1.711669921875,-3.593505859375,4.654541015625
0.1265,-0.950927734375,-4.234130859375,4.494384765625
0.127,-0.150146484375,-4.514404296875,3.973876953125
0.1275,0.650634765625,-4.994873046875,3.733642578125
0.128,1.931884765625,-5.114990234375,2.572509765625
0.1285,2.612548828125,-5.275146484375,1.971923828125
0.129,3.853759765625,-5.435302734375,0.970947265625
0.1295,4.093994140625,-4.834716796875,0.170166015625
0.13,4.494384765625,-4.594482421875,-0.430419921875
0.1305,4.534423828125,-3.793701171875,-1.351318359375
0.131,4.614501953125,-2.992919921875,-2.192138671875
0.1315,4.614501953125,-2.112060546875,-3.032958984375
0.132,4.734619140625,-1.351318359375,-3.873779296875
0.1325,3.853759765625,-0.190185546875,-4.033935546875
0.133,3.693603515625,0.490478515625,-4.514404296875
0.1335,2.492431640625,1.651611328125,-4.514404296875
0.134,1.971923828125,2.412353515625,-4.674560546875
0.1345,1.010986328125,3.453369140625,-4.754638671875
0.135,0.170166015625,3.933837890625,-4.434326171875
0.1355,-0.670654296875,4.294189453125,-3.913818359375
0.136,-1.551513671875,4.614501953125,-3.393310546875
0.1365,-2.752685546875,4.654541015625,-2.272216796875
0.137,-3.433349609375,4.734619140625,-1.631591796875
0.1375,-4.474365234375,4.814697265625,-0.790771484375
0.138,-4.594482421875,4.134033203125,0.090087890625
0.1385,-4.994873046875,3.893798828125,0.650634765625
0.139,-5.034912109375,2.892822265625,1.731689453125
0.1395,-5.114990234375,2.212158203125,2.492431640625
0.14,-5.074951171875,1.291259765625,3.253173828125
0.1405,-4.994873046875,0.530517578125,3.973876953125
0.141,-4.114013671875,-0.630615234375,4.134033203125
0.1415,-3.913818359375,-1.271240234375,4.614501953125
0.142,-2.592529296875,-2.592529296875,4.614501953125
0.1425,-2.192138671875,-3.193115234375,4.734619140625
0.143,-1.191162109375,-4.154052734375,4.734619140625
0.1435,-0.310302734375,-4.554443359375,4.254150390625
0.144,0.570556640625,-4.954833984375,3.773681640625
0.1445,1.531494140625,-5.275146484375,3.093017578125
0.145,2.692626953125,-5.395263671875,2.052001953125
0.1455,3.373291015625,-5.275146484375,1.331298828125
0.146,4.174072265625,-5.275146484375,0.490478515625
0.1465,4.294189453125,-4.514404296875,-0.310302734375
0.147,4.614501953125,-4.314208984375,-0.870849609375
0.1475,4.614501953125,-3.113037109375,-2.031982421875
0.148,4.734619140625,-2.552490234375,-2.712646484375
0.1485,4.534423828125,-1.551513671875,-3.553466796875
0.149,4.374267578125,-0.750732421875,-4.033935546875
0.1495,3.493408203125,0.330322265625,-4.194091796875
0.15,3.173095703125,1.010986328125,-4.554443359375
0.1505,1.931884765625,2.332275390625,-4.594482421875
0.151,1.491455078125,2.852783203125,-4.674560546875
0.1515,0.570556640625,3.733642578125,-4.594482421875
0.152,-0.310302734375,3.893798828125,-4.114013671875
0.1525,-0.990966796875,4.334228515625,-3.713623046875
0.153,-2.112060546875,4.614501953125,-2.712646484375
0.1535,-3.193115234375,4.734619140625,-1.911865234375
0.154,-3.793701171875,4.574462890625,-1.151123046875
0.1545,-4.514404296875,4.494384765625,-0.430419921875
0.155,-4.554443359375,3.733642578125,0.410400390625
0.1555,-4.874755859375,3.533447265625,0.930908203125
0.156,-4.874755859375,2.372314453125,2.092041015625
0.1565,-4.994873046875,1.891845703125,2.692626953125
0.157,-4.874755859375,0.930908203125,3.453369140625
0.1575,-4.514404296875,0.130126953125,3.853759765625
0.158,-3.833740234375,-0.870849609375,4.134033203125
0.1585,-3.353271484375,-1.631591796875,4.414306640625
0.159,-2.312255859375,-2.832763671875,4.534423828125
0.1595,-1.791748046875,-3.353271484375,4.494384765625
0.16,-0.990966796875,-4.154052734375,4.494384765625
0.1605,-0.110107421875,-4.434326171875,3.853759765625
0.161,0.570556640625,-4.954833984375,3.533447265625
0.1615,1.891845703125,-4.954833984375,2.492431640625
0.162,2.732666015625,-5.195068359375,1.851806640625
0.1625,3.333251953125,-4.954833984375,1.010986328125
0.163,3.893798828125,-4.834716796875,0.410400390625
0.1635,3.973876953125,-4.114013671875,-0.470458984375
0.164,4.254150390625,-3.833740234375,-0.990966796875
0.1645,4.334228515625,-2.712646484375,-2.192138671875
0.165,4.374267578125,-2.272216796875,-2.632568359375
0.1655,4.294189453125,-1.351318359375,-3.393310546875
0.166,3.733642578125,-0.510498046875,-3.673583984375
0.1665,3.253173828125,0.410400390625,-3.993896484375
0.167,2.532470703125,1.251220703125,-4.154052734375
0.1675,1.811767578125,2.252197265625,-4.434326171875
0.168,1.171142578125,2.652587890625,-4.274169921875
0.1685,0.490478515625,3.413330078125,-4.234130859375
0.169,-0.390380859375,3.613525390625,-3.593505859375
0.1695,-1.071044921875,4.093994140625,-3.353271484375
0.17,-2.352294921875,4.214111328125,-2.232177734375
0.1705,-2.992919921875,4.454345703125,-1.791748046875
0.171,-3.593505859375,4.174072265625,-0.990966796875
0.1715,-4.033935546875,4.013916015625,-0.390380859375
0.172,-4.194091796875,3.413330078125,0.370361328125
0.1725,-4.354248046875,3.012939453125,0.970947265625
0.173,-4.634521484375,2.172119140625,2.011962890625
0.1735,-4.514404296875,1.571533203125,2.452392578125
0.174,-4.514404296875,0.810791015625,3.213134765625
0.1745,-3.873779296875,-0.070068359375,3.413330078125
0.175,-3.593505859375,-0.790771484375,3.893798828125
0.1755,-2.752685546875,-1.831787109375,3.973876953125
0.176,-2.272216796875,-2.632568359375,4.334228515625
0.1765,-1.551513671875,-3.193115234375,4.053955078125
0.177,-0.990966796875,-3.833740234375,4.053955078125
0.1775,-0.070068359375,-3.953857421875,3.453369140625
0.178,0.650634765625,-4.434326171875,3.173095703125
0.1785,1.931884765625,-4.634521484375,2.132080078125
0.179,2.492431640625,-4.754638671875,1.691650390625
0.1795,3.093017578125,-4.594482421875,0.970947265625
0.18,3.333251953125,-4.234130859375,0.370361328125
0.1805,3.653564453125,-3.873779296875,-0.310302734375
0.181,3.733642578125,-3.193115234375,-1.071044921875
0.1815,4.093994140625,-2.632568359375,-1.951904296875
0.182,3.853759765625,-1.951904296875,-2.392333984375
0.1825,3.893798828125,-1.311279296875,-3.072998046875
0.183,3.133056640625,-0.350341796875,-3.193115234375
0.1835,3.052978515625,0.250244140625,-3.713623046875
0.184,2.092041015625,1.291259765625,-3.833740234375
0.1845,1.851806640625,1.931884765625,-4.154052734375
0.185,1.051025390625,2.492431640625,-3.953857421875
0.1855,0.490478515625,3.052978515625,-3.873779296875
0.186,-0.390380859375,3.333251953125,-3.273193359375
0.1865,-1.151123046875,3.693603515625,-2.872802734375
0.187,-2.272216796875,3.973876953125,-2.072021484375
0.1875,-2.712646484375,3.973876953125,-1.631591796875
0.188,-3.353271484375,3.973876953125,-0.990966796875
