wavelength,x,y,z
0.0,17.532104492188,3.4783935546875,-21.065551757812
0.0005,14.288940429688,8.9237060546875,-23.227661132812
0.001,12.807495117188,11.806518554688,-23.227661132812
0.0015,6.6815185546875,15.690307617188,-22.266723632812
0.002,2.2371826171875,17.732299804688,-19.744262695312
0.0025,-3.2081298828125,20.615112304688,-17.381958007812
0.003,-6.8116455078125,22.056518554688,-15.259887695312
0.0035,-11.576293945312,23.738159179688,-12.296997070312
0.004,-14.539184570312,23.217651367188,-8.8536376953125
0.0045,-17.822387695312,21.896362304688,-4.3692626953125
0.005,-20.144653320312,19.453979492188,0.4754638671875
0.0055,-22.226684570312,17.812377929688,4.0789794921875
0.006,-23.547973632812,14.569213867188,8.6434326171875
0.0065,-23.988403320312,11.966674804688,11.646362304688
0.007,-23.467895507812,7.8026123046875,15.209838867188
0.0075,-21.185668945312,3.1580810546875,17.411987304688
0.008,-18.943481445312,-1.8468017578125,19.974487304688
0.0085,-16.741333007812,-5.8106689453125,21.656127929688
0.009,-13.738403320312,-10.895629882812,23.578002929688
0.0095,-10.214965820312,-13.978637695312,22.897338867188
0.01,-5.2901611328125,-17.462036132812,21.415893554688
0.0105,-0.7257080078125,-19.103637695312,18.693237304688
0.011,5.1199951171875,-20.505004882812,16.931518554688
0.0115,8.2030029296875,-22.947387695312,13.808471679688
0.012,11.766479492188,-23.067504882812,11.686401367188
0.0125,15.490112304688,-23.347778320312,7.0819091796875
0.013,18.052612304688,-20.505004882812,3.0379638671875
0.0135,20.134643554688,-19.423950195312,-1.7667236328125
0.014,22.296752929688,-17.662231445312,-5.2901611328125
0.0145,23.417846679688,-14.218872070312,-9.8145751953125
0.015,23.417846679688,-11.255981445312,-12.657348632812
0.0155,22.416870117188,-7.3321533203125,-15.580200195312
0.016,19.974487304688,-2.4473876953125,-16.661254882812
0.0165,18.252807617188,2.1170654296875,-19.223754882812
0.017,16.651245117188,7.6824951171875,-21.826293945312
0.0175,13.207885742188,10.485229492188,-23.708129882812
0.018,8.3631591796875,14.248901367188,-22.426879882812
0.0185,3.9588623046875,16.931518554688,-20.745239257812
0.019,-1.4063720703125,20.494995117188,-17.742309570312
0.0195,-5.1700439453125,21.736206054688,-16.501098632812
0.02,-9.9747314453125,22.737182617188,-11.536254882812
0.0205,-12.897583007812,23.337768554688,-10.575317382812
0.021,-16.380981445312,22.416870117188,-6.2510986328125
0.0215,-19.103637695312,20.334838867188,-1.5264892578125
0.022,-21.305786132812,18.172729492188,2.8778076171875
0.0225,-22.827270507812,15.850463867188,6.6414794921875
0.023,-24.108520507812,13.167846679688,10.325073242188
0.0235,-23.267700195312,8.8836669921875,13.928588867188
0.024,-22.186645507812,5.4002685546875,16.250854492188
0.0245,-19.263793945312,1.2762451171875,18.613159179688
0.025,-17.822387695312,-4.3692626953125,21.295776367188
0.0255,-14.218872070312,-7.6925048828125,22.096557617188
0.026,-12.256958007812,-12.337036132812,23.457885742188
0.0265,-7.0518798828125,-15.820434570312,21.616088867188
0.027,-2.6075439453125,-18.262817382812,19.734252929688
0.0275,2.5174560546875,-19.223754882812,17.011596679688
0.028,6.5213623046875,-22.827270507812,15.329956054688
0.0285,10.645385742188,-23.868286132812,12.367065429688
0.029,14.208862304688,-23.387817382812,8.3631591796875
0.0295,17.932495117188,-22.627075195312,5.2801513671875
0.03,19.574096679688,-20.024536132812,-0.2852783203125
0.0305,21.736206054688,-18.262817382812,-4.1690673828125
0.031,22.536987304688,-14.899536132812,-8.2130126953125
0.0315,23.978393554688,-13.297973632812,-11.255981445312
0.032,22.336791992188,-7.9327392578125,-14.859497070312
0.0325,21.135620117188,-4.5694580078125,-16.981567382812
0.033,18.252807617188,0.7156982421875,-19.263793945312
0.0335,16.611206054688,5.0799560546875,-21.826293945312
0.034,13.127807617188,9.3240966796875,-22.466918945312
0.0345,11.526245117188,12.767456054688,-22.947387695312
0.035,5.7606201171875,15.410034179688,-21.025512695312
0.0355,0.5555419921875,18.212768554688,-18.583129882812
0.036,-3.7686767578125,20.334838867188,-16.541137695312
0.0365,-8.3731689453125,22.136596679688,-13.818481445312
0.037,-11.255981445312,23.377807617188,-12.296997070312
0.0375,-15.420043945312,21.976440429688,-6.7716064453125
0.038,-17.341918945312,21.175659179688,-4.1690673828125
0.0385,-20.144653320312,18.533081054688,1.3963623046875
0.039,-22.466918945312,16.931518554688,5.2801513671875
0.0395,-22.707153320312,13.287963867188,9.0838623046875
0.04,-23.988403320312,11.366088867188,12.166870117188
0.0405,-21.906372070312,6.4412841796875,14.889526367188
0.041,-20.264770507812,2.0369873046875,17.532104492188
0.0415,-17.982543945312,-1.2862548828125,19.694213867188
0.042,-15.540161132812,-7.4122314453125,21.976440429688
0.0425,-13.177856445312,-10.575317382812,22.697143554688
0.043,-8.2130126953125,-14.779418945312,21.896362304688
0.0435,-3.8487548828125,-16.421020507812,20.334838867188
0.044,0.8358154296875,-19.383911132812,17.532104492188
0.0445,4.5994873046875,-21.505981445312,15.970581054688
0.045,9.5643310546875,-22.747192382812,12.286987304688
0.0455,11.966674804688,-23.868286132812,11.085815429688
0.046,15.730346679688,-22.106567382812,5.6405029296875
0.0465,18.132690429688,-20.264770507812,2.2371826171875
0.047,20.174682617188,-18.583129882812,-2.2872314453125
0.0475,22.456909179688,-16.340942382812,-6.7716064453125
0.048,22.577026367188,-13.418090820312,-9.7344970703125
0.0485,24.338745117188,-9.9747314453125,-13.698364257812
0.049,21.215698242188,-5.1300048828125,-15.339965820312
0.0495,19.013549804688,-1.2061767578125,-18.262817382812
0.05,17.171752929688,2.9178466796875,-20.224731445312
0.0505,14.048706054688,8.0428466796875,-22.106567382812
0.051,12.286987304688,10.605346679688,-22.827270507812
0.0515,6.6414794921875,14.729370117188,-21.145629882812
0.052,3.3182373046875,16.330932617188,-19.423950195312
0.0525,-2.1671142578125,20.494995117188,-16.981567382812
0.053,-6.3712158203125,21.536010742188,-15.219848632812
0.0535,-10.335083007812,22.216674804688,-11.976684570312
0.054,-13.418090820312,22.697143554688,-9.4542236328125
0.0545,-16.100708007812,20.975463867188,-5.1700439453125
0.055,-18.943481445312,19.053588867188,-0.4854736328125
0.0555,-20.705200195312,17.411987304688,2.9979248046875
0.056,-22.667114257812,14.449096679688,7.8426513671875
0.0565,-22.987426757812,12.407104492188,10.084838867188
0.057,-22.426879882812,8.9637451171875,14.208862304688
0.0575,-20.705200195312,4.4393310546875,15.650268554688
0.058,-18.463012695312,-0.9659423828125,18.653198242188
0.0585,-16.501098632812,-5.1700439453125,20.815307617188
0.059,-13.338012695312,-9.7344970703125,22.056518554688
0.0595,-11.055786132812,-12.577270507812,22.536987304688
0.06,-5.8507080078125,-15.660278320312,20.374877929688
0.0605,-1.7266845703125,-17.742309570312,18.292846679688
0.061,3.8387451171875,-20.064575195312,16.531127929688
0.0615,7.6024169921875,-22.426879882812,13.928588867188
0.062,10.405151367188,-22.867309570312,11.566284179688
0.0625,14.369018554688,-22.546997070312,7.3621826171875
0.063,16.290893554688,-20.985473632812,3.9588623046875
0.0635,20.494995117188,-18.943481445312,-1.0059814453125
0.064,20.855346679688,-17.261840820312,-4.2491455078125
0.0645,22.256713867188,-13.978637695312,-8.8936767578125
0.065,22.536987304688,-11.816528320312,-11.376098632812
0.0655,21.095581054688,-7.2120361328125,-14.499145507812
0.066,19.333862304688,-3.5684814453125,-16.220825195312
0.0665,17.732299804688,0.9959716796875,-18.903442382812
0.067,15.209838867188,5.8006591796875,-21.105590820312
0.0675,12.687377929688,9.2440185546875,-21.866333007812
0.068,9.0037841796875,12.927612304688,-20.505004882812
0.0685,4.5594482421875,15.129760742188,-19.544067382812
0.069,-0.6055908203125,17.772338867188,-17.261840820312
0.0695,-3.6085205078125,19.574096679688,-15.980590820312
0.07,-7.6925048828125,21.736206054688,-12.857543945312
0.0705,-11.175903320312,21.816284179688,-10.775512695312
0.071,-14.979614257812,21.095581054688,-6.3712158203125
0.0715,-16.981567382812,19.293823242188,-2.6475830078125
0.072,-19.544067382812,17.612182617188,1.6365966796875
0.0725,-20.705200195312,15.329956054688,5.1600341796875
0.073,-22.186645507812,12.847534179688,8.9237060546875
0.0735,-22.346801757812,9.6844482421875,12.126831054688
0.074,-20.545043945312,5.5604248046875,14.489135742188
0.0745,-18.583129882812,2.5574951171875,17.932495117188
0.075,-17.181762695312,-2.6876220703125,19.053588867188
0.0755,-14.298950195312,-7.8126220703125,21.175659179688
0.076,-12.096801757812,-10.415161132812,21.255737304688
0.0765,-7.7325439453125,-14.178833007812,20.775268554688
0.077,-3.6885986328125,-16.020629882812,18.613159179688
0.0775,1.3563232421875,-18.943481445312,16.611206054688
0.078,4.5994873046875,-19.223754882812,15.009643554688
0.0785,9.2440185546875,-22.506958007812,12.407104492188
0.079,12.166870117188,-22.106567382812,9.2039794921875
0.0795,15.049682617188,-21.145629882812,5.8006591796875
0.08,17.411987304688,-19.143676757812,0.9959716796875
0.0805,19.814331054688,-17.902465820312,-2.6075439453125
0.081,21.135620117188,-15.099731445312,-6.7716064453125
0.0815,22.056518554688,-12.937622070312,-9.7745361328125
0.082,21.616088867188,-8.8936767578125,-13.177856445312
0.0825,19.734252929688,-4.8897705078125,-15.259887695312
0.083,17.852416992188,-0.4053955078125,-17.782348632812
0.0835,16.210815429688,3.4383544921875,-19.784301757812
0.084,13.528198242188,8.2830810546875,-21.826293945312
0.0845,10.204956054688,11.326049804688,-21.505981445312
0.085,6.0809326171875,14.369018554688,-20.264770507812
0.0855,1.3162841796875,16.571166992188,-17.742309570312
0.086,-2.8878173828125,19.253784179688,-16.380981445312
0.0865,-6.8516845703125,20.575073242188,-13.778442382812
0.087,-10.335083007812,22.256713867188,-12.016723632812
0.0875,-13.978637695312,21.255737304688,-7.4522705078125
0.088,-16.380981445312,19.974487304688,-3.9288330078125
0.0885,-18.783325195312,17.772338867188,0.7156982421875
0.089,-20.865356445312,16.491088867188,3.9989013671875
0.0895,-21.986450195312,13.448120117188,8.0428466796875
0.09,-22.306762695312,10.845581054688,11.005737304688
0.0905,-21.345825195312,7.0819091796875,13.768432617188
0.091,-18.983520507812,2.3572998046875,16.050659179688
0.0915,-17.622192382812,-1.8868408203125,18.693237304688
0.092,-15.099731445312,-6.0509033203125,20.214721679688
0.0925,-13.338012695312,-9.8145751953125,22.096557617188
0.093,-8.6934814453125,-13.378051757812,20.975463867188
0.0935,-4.9698486328125,-15.700317382812,19.534057617188
0.094,0.2352294921875,-17.982543945312,16.771362304688
0.0945,5.1199951171875,-20.585083007812,15.810424804688
0.095,8.3231201171875,-21.706176757812,12.487182617188
0.0955,11.205932617188,-22.707153320312,10.685424804688
0.096,14.529174804688,-21.666137695312,6.4813232421875
0.0965,16.971557617188,-19.904418945312,2.2371826171875
0.097,20.494995117188,-18.062622070312,-1.9268798828125
0.0975,20.975463867188,-16.060668945312,-5.6505126953125
0.098,22.216674804688,-13.738403320312,-9.0538330078125
0.0985,23.057495117188,-9.6544189453125,-12.657348632812
0.099,20.775268554688,-6.5714111328125,-14.659301757812
0.0995,18.052612304688,-1.4063720703125,-16.981567382812
0.1,16.971557617188,2.4774169921875,-19.584106445312
0.1005,13.808471679688,6.8416748046875,-20.665161132812
0.101,12.046752929688,10.164916992188,-22.146606445312
0.1015,7.0819091796875,13.488159179688,-20.464965820312
0.102,2.9979248046875,16.010620117188,-18.583129882812
0.1025,-1.8067626953125,18.092651367188,-16.300903320312
0.103,-5.6104736328125,20.454956054688,-14.899536132812
0.1035,-9.3741455078125,21.576049804688,-12.296997070312
0.104,-11.536254882812,21.415893554688,-8.7735595703125
0.1045,-15.099731445312,20.615112304688,-5.7706298828125
0.105,-16.661254882812,18.212768554688,-0.6456298828125
0.1055,-19.664184570312,16.931518554688,2.6776123046875
0.106,-21.225708007812,15.369995117188,6.7615966796875
0.1065,-22.707153320312,12.607299804688,9.7244873046875
0.107,-21.345825195312,8.9637451171875,13.207885742188
0.1075,-20.224731445312,4.4393310546875,15.289916992188
0.108,-17.702270507812,-0.6055908203125,17.612182617188
0.1085,-16.380981445312,-4.7696533203125,20.294799804688
0.109,-13.338012695312,-8.7335205078125,21.215698242188
0.1095,-10.575317382812,-12.216918945312,23.057495117188
0.11,-6.4512939453125,-14.659301757812,20.014526367188
0.1105,-1.6065673828125,-17.261840820312,17.772338867188
0.111,2.5174560546875,-19.504028320312,15.970581054688
0.1115,7.0418701171875,-21.505981445312,13.528198242188
0.112,9.9246826171875,-22.787231445312,12.046752929688
0.1125,13.968627929688,-21.946411132812,6.8817138671875
0.113,15.690307617188,-20.865356445312,4.4393310546875
0.1135,18.412963867188,-18.543090820312,-0.7257080078125
0.114,20.935424804688,-17.061645507812,-4.5294189453125
0.1145,21.335815429688,-13.658325195312,-8.2530517578125
0.115,22.577026367188,-11.816528320312,-11.296020507812
0.1155,20.775268554688,-7.4122314453125,-13.818481445312
0.116,19.173706054688,-3.2481689453125,-16.340942382812
0.1165,17.211791992188,1.1561279296875,-18.543090820312
0.117,15.049682617188,5.9207763671875,-21.025512695312
0.1175,12.887573242188,10.244995117188,-21.826293945312
0.118,8.3631591796875,13.167846679688,-21.385864257812
0.1185,4.9598388671875,14.849487304688,-19.664184570312
0.119,-0.6856689453125,17.772338867188,-17.061645507812
0.1195,-4.3692626953125,20.134643554688,-15.700317382812
0.12,-9.1339111328125,21.415893554688,-12.377075195312
0.1205,-10.255004882812,22.456909179688,-11.055786132812
0.121,-15.139770507812,20.855346679688,-5.9708251953125
0.1215,-17.341918945312,19.453979492188,-2.4874267578125
0.122,-19.584106445312,17.452026367188,1.8768310546875
0.1225,-22.026489257812,15.410034179688,6.2410888671875
0.123,-22.146606445312,12.647338867188,9.1239013671875
0.1235,-22.667114257812,9.2840576171875,12.887573242188
0.124,-20.825317382812,5.7205810546875,14.569213867188
0.1245,-18.583129882812,0.5955810546875,17.331909179688
0.125,-16.981567382812,-3.4483642578125,19.534057617188
0.1255,-13.978637695312,-8.4132080078125,21.455932617188
0.126,-12.216918945312,-11.055786132812,22.216674804688
0.1265,-7.0118408203125,-14.819458007812,20.655151367188
0.127,-3.6485595703125,-16.380981445312,18.893432617188
0.1275,1.6365966796875,-19.143676757812,16.531127929688
0.128,5.7606201171875,-21.626098632812,14.929565429688
0.1285,9.7244873046875,-22.466918945312,11.806518554688
0.129,12.847534179688,-22.867309570312,9.0838623046875
0.1295,16.651245117188,-21.305786132812,5.1600341796875
0.13,18.052612304688,-19.263793945312,0.5955810546875
0.1305,19.934448242188,-17.702270507812,-2.8878173828125
0.131,21.896362304688,-14.819458007812,-7.6524658203125
0.1315,22.256713867188,-12.777465820312,-9.9747314453125
0.132,21.616088867188,-8.3331298828125,-13.818481445312
0.1325,19.974487304688,-5.1700439453125,-15.139770507812
0.133,17.812377929688,1.2762451171875,-17.982543945312
0.1335,16.090698242188,4.1190185546875,-20.304809570312
0.134,12.927612304688,8.6434326171875,-21.626098632812
0.1345,10.645385742188,11.486206054688,-22.106567382812
0.135,5.5604248046875,14.729370117188,-19.744262695312
0.1355,1.4364013671875,16.571166992188,-17.862426757812
0.136,-2.6475830078125,18.893432617188,-16.220825195312
0.1365,-7.5323486328125,21.335815429688,-13.858520507812
0.137,-8.9737548828125,21.736206054688,-11.656372070312
0.1375,-14.218872070312,21.455932617188,-7.5323486328125
0.138,-16.020629882812,19.934448242188,-4.2091064453125
0.1385,-18.943481445312,17.772338867188,0.6756591796875
0.139,-20.665161132812,16.491088867188,3.8787841796875
0.1395,-22.106567382812,13.287963867188,8.4432373046875
0.14,-22.546997070312,11.205932617188,10.885620117188
0.1405,-21.145629882812,6.6815185546875,14.008666992188
0.141,-19.263793945312,2.9178466796875,15.810424804688
0.1415,-17.582153320312,-1.7266845703125,18.493041992188
0.142,-15.299926757812,-6.4512939453125,20.815307617188
0.1425,-12.777465820312,-9.8946533203125,21.616088867188
0.143,-9.1739501953125,-13.458129882812,21.495971679688
0.1435,-4.8897705078125,-15.540161132812,19.293823242188
0.144,0.1951904296875,-18.102661132812,16.931518554688
0.1445,3.4383544921875,-20.064575195312,15.650268554688
0.145,8.8035888671875,-22.346801757812,12.647338867188
0.1455,11.005737304688,-22.466918945312,10.405151367188
0.146,14.729370117188,-21.746215820312,6.2410888671875
0.1465,16.771362304688,-19.864379882812,2.4774169921875
0.147,19.333862304688,-18.102661132812,-1.8868408203125
0.1475,21.055541992188,-16.180786132812,-5.5303955078125
0.148,22.096557617188,-13.378051757812,-9.3341064453125
0.1485,22.216674804688,-10.174926757812,-12.537231445312
0.149,20.454956054688,-6.1309814453125,-14.779418945312
0.1495,18.292846679688,-1.6866455078125,-16.981567382812
0.15,16.891479492188,2.2772216796875,-19.303833007812
0.1505,14.128784179688,7.3621826171875,-21.546020507812
0.151,11.646362304688,10.204956054688,-21.826293945312
0.1515,7.2821044921875,13.888549804688,-21.025512695312
0.152,2.9979248046875,15.850463867188,-18.663208007812
0.1525,-2.0069580078125,18.613159179688,-16.621215820312
0.153,-5.3302001953125,20.294799804688,-15.059692382812
0.1535,-10.014770507812,22.256713867188,-12.417114257812
0.154,-12.897583007812,21.736206054688,-9.0137939453125
0.1545,-15.900512695312,20.855346679688,-5.2901611328125
0.155,-18.302856445312,18.493041992188,-0.5255126953125
0.1555,-20.545043945312,17.131713867188,3.1180419921875
0.156,-21.906372070312,14.369018554688,7.1619873046875
0.1565,-22.827270507812,12.126831054688,10.285034179688
0.157,-22.226684570312,8.1229248046875,13.608276367188
0.1575,-20.264770507812,3.8787841796875,15.810424804688
0.158,-18.142700195312,-0.8858642578125,18.252807617188
0.1585,-16.340942382812,-4.8897705078125,20.334838867188
0.159,-13.658325195312,-9.6544189453125,22.336791992188
0.1595,-8.9737548828125,-12.657348632812,21.816284179688
0.16,-6.1309814453125,-15.660278320312,20.615112304688
0.1605,-0.0050048828125,-17.742309570312,17.852416992188
0.161,3.0379638671875,-20.384887695312,16.330932617188
0.1615,7.1619873046875,-21.826293945312,13.608276367188
0.162,10.845581054688,-23.387817382812,11.766479492188
0.1625,14.369018554688,-22.266723632812,7.0819091796875
0.163,16.771362304688,-21.025512695312,3.6385498046875
0.1635,19.173706054688,-18.583129882812,-0.0050048828125
0.164,21.255737304688,-17.141723632812,-4.8096923828125
0.1645,22.376831054688,-14.058715820312,-8.8536376953125
0.165,22.697143554688,-11.296020507812,-11.896606445312
0.1655,21.495971679688,-7.5323486328125,-14.579223632812
0.166,20.494995117188,-2.7677001953125,-16.821411132812
0.1665,17.612182617188,1.5565185546875,-19.343872070312
0.167,15.049682617188,5.8807373046875,-20.985473632812
0.1675,13.007690429688,9.9246826171875,-22.827270507812
0.168,8.2430419921875,13.568237304688,-21.425903320312
0.1685,4.3592529296875,15.810424804688,-19.984497070312
0.169,-1.0059814453125,18.052612304688,-17.021606445312
0.1695,-4.7296142578125,20.615112304688,-15.940551757812
0.17,-9.2139892578125,21.696166992188,-12.537231445312
0.1705,-12.136840820312,22.657104492188,-10.615356445312
0.171,-14.098754882812,21.375854492188,-6.2911376953125
0.1715,-17.822387695312,19.534057617188,-2.0469970703125
0.172,-20.024536132812,17.452026367188,2.2772216796875
0.1725,-21.866333007812,15.410034179688,6.1209716796875
0.173,-21.786254882812,13.087768554688,9.6043701171875
0.1735,-22.587036132812,9.0037841796875,13.087768554688
0.174,-21.385864257812,5.7205810546875,15.169799804688
0.1745,-18.583129882812,0.4354248046875,17.572143554688
0.175,-17.381958007812,-3.7286376953125,20.174682617188
0.1755,-13.978637695312,-8.2930908203125,21.295776367188
0.176,-12.256958007812,-11.616333007812,22.817260742188
0.1765,-7.1319580078125,-14.939575195312,20.935424804688
0.177,-3.1680908203125,-17.181762695312,19.173706054688
0.1775,1.9569091796875,-19.504028320312,16.491088867188
0.178,6.0008544921875,-21.906372070312,14.969604492188
