wavelength,x,y,z
0.0,17.902465820312,-23.017456054688,5.2901611328125
0.0005,20.024536132812,-21.215698242188,1.2862548828125
0.001,22.627075195312,-19.373901367188,-3.2381591796875
0.0015,23.027465820312,-15.369995117188,-7.7625732421875
0.002,22.747192382812,-10.725463867188,-12.126831054688
0.0025,22.947387695312,-8.2030029296875,-14.929565429688
0.003,21.666137695312,-3.5584716796875,-18.292846679688
0.0035,20.224731445312,0.2852783203125,-20.695190429688
0.004,17.902465820312,4.7296142578125,-22.737182617188
0.0045,13.578247070312,10.094848632812,-23.858276367188
0.005,9.1739501953125,13.498168945312,-22.777221679688
0.0055,6.4112548828125,16.781372070312,-23.337768554688
0.006,1.6065673828125,19.183715820312,-20.935424804688
0.0065,-2.8778076171875,21.906372070312,-19.373901367188
0.007,-7.0819091796875,22.426879882812,-15.650268554688
0.0075,-11.926635742188,23.027465820312,-11.566284179688
0.008,-14.609252929688,22.546997070312,-8.5233154296875
0.0085,-18.132690429688,21.986450195312,-4.5194091796875
0.009,-20.014526367188,20.224731445312,-0.9559326171875
0.0095,-22.056518554688,18.062622070312,3.4483642578125
0.01,-22.336791992188,13.778442382812,8.1329345703125
0.0105,-21.776245117188,9.5343017578125,11.856567382812
0.011,-22.456909179688,7.2921142578125,14.859497070312
0.0115,-20.735229492188,2.7677001953125,17.702270507812
0.012,-19.614135742188,-1.1561279296875,20.464965820312
0.0125,-16.611206054688,-5.4803466796875,21.746215820312
0.013,-12.607299804688,-10.565307617188,22.827270507812
0.0135,-8.8836669921875,-13.488159179688,22.066528320312
0.014,-5.4403076171875,-16.931518554688,21.946411132812
0.0145,-1.0760498046875,-18.973510742188,19.784301757812
0.015,3.2481689453125,-21.696166992188,18.262817382812
0.0155,7.8126220703125,-21.776245117188,13.898559570312
0.016,11.936645507812,-22.136596679688,10.214965820312
0.0165,14.739379882812,-22.456909179688,7.7725830078125
0.017,18.062622070312,-21.215698242188,3.2882080078125
0.0175,20.104614257812,-19.694213867188,-0.4354248046875
0.018,21.546020507812,-16.931518554688,-4.5994873046875
0.0185,22.026489257812,-12.767456054688,-9.2840576171875
0.019,21.305786132812,-8.8436279296875,-12.567260742188
0.0195,21.906372070312,-6.3612060546875,-15.770385742188
0.02,20.024536132812,-1.8768310546875,-18.372924804688
0.0205,18.943481445312,2.2872314453125,-21.415893554688
0.021,14.739379882812,6.8917236328125,-21.776245117188
0.0215,11.175903320312,11.456176757812,-22.777221679688
0.022,7.9327392578125,14.338989257812,-22.376831054688
0.0225,3.7286376953125,17.622192382812,-21.495971679688
0.023,-0.5555419921875,19.704223632812,-19.373901367188
0.0235,-4.9598388671875,22.066528320312,-17.452026367188
0.024,-9.5643310546875,21.946411132812,-12.847534179688
0.0245,-13.167846679688,21.906372070312,-9.2840576171875
0.025,-16.010620117188,22.226684570312,-6.8817138671875
0.0255,-18.973510742188,20.464965820312,-2.1971435546875
0.026,-21.095581054688,18.703247070312,1.8468017578125
0.0265,-21.576049804688,15.019653320312,6.0909423828125
0.027,-22.176635742188,11.296020507812,10.495239257812
0.0275,-21.375854492188,7.5323486328125,13.498168945312
0.028,-21.495971679688,4.4893798828125,16.661254882812
0.0285,-19.534057617188,0.1251220703125,19.223754882812
0.029,-18.092651367188,-4.3592529296875,22.146606445312
0.0295,-13.167846679688,-8.9237060546875,21.786254882812
0.03,-9.9246826171875,-12.887573242188,22.466918945312
0.0305,-6.7615966796875,-15.690307617188,22.106567382812
0.031,-1.9569091796875,-18.853393554688,20.424926757812
0.0315,2.2071533203125,-20.775268554688,18.382934570312
0.032,6.9718017578125,-22.376831054688,15.380004882812
0.0325,10.975708007812,-22.416870117188,11.416137695312
0.033,14.419067382812,-21.976440429688,7.6124267578125
0.0335,17.261840820312,-22.096557617188,4.9298095703125
0.034,19.984497070312,-20.054565429688,0.2852783203125
0.0345,22.066528320312,-17.972534179688,-4.0389404296875
0.035,21.706176757812,-13.448120117188,-8.3231201171875
0.0355,22.426879882812,-10.285034179688,-12.206909179688
0.036,21.626098632812,-6.6414794921875,-15.129760742188
0.0365,20.985473632812,-2.9178466796875,-18.252807617188
0.037,19.063598632812,1.2862548828125,-20.494995117188
0.0375,16.581176757812,6.3311767578125,-23.057495117188
0.038,11.736450195312,10.535278320312,-22.416870117188
0.0385,8.4532470703125,14.218872070312,-22.777221679688
0.039,5.2901611328125,16.821411132812,-22.256713867188
0.0395,0.1651611328125,19.904418945312,-20.214721679688
0.04,-3.8787841796875,21.746215820312,-18.172729492188
0.0405,-8.9637451171875,22.426879882812,-13.928588867188
0.041,-12.487182617188,22.667114257812,-10.805541992188
0.0415,-15.850463867188,21.946411132812,-6.7615966796875
0.042,-18.493041992188,21.465942382812,-3.6385498046875
0.0425,-20.775268554688,19.383911132812,0.7657470703125
0.043,-22.697143554688,16.701293945312,5.4903564453125
0.0435,-21.656127929688,11.776489257812,9.5343017578125
0.044,-22.376831054688,8.9337158203125,13.137817382812
0.0445,-21.536010742188,5.3302001953125,15.980590820312
0.045,-20.454956054688,1.1260986328125,19.103637695312
0.0455,-18.533081054688,-2.9178466796875,21.105590820312
0.046,-15.049682617188,-8.2030029296875,22.907348632812
0.0465,-10.885620117188,-11.846557617188,22.386840820312
0.047,-7.2821044921875,-15.410034179688,22.346801757812
0.0475,-3.7586669921875,-17.812377929688,21.185668945312
0.048,1.2061767578125,-20.575073242188,19.223754882812
0.0485,5.4503173828125,-22.416870117188,16.781372070312
0.049,10.174926757812,-22.176635742188,11.896606445312
0.0495,13.378051757812,-22.737182617188,9.3741455078125
0.05,16.701293945312,-21.816284179688,5.2501220703125
0.0505,19.343872070312,-20.855346679688,1.6866455078125
0.051,21.145629882812,-18.653198242188,-2.3973388671875
0.0515,22.707153320312,-15.410034179688,-7.3221435546875
0.052,21.505981445312,-10.645385742188,-10.925659179688
0.0525,22.066528320312,-7.8426513671875,-14.409057617188
0.053,21.105590820312,-4.3992919921875,-16.891479492188
0.0535,19.864379882812,0.1251220703125,-20.094604492188
0.054,17.462036132812,4.2891845703125,-21.896362304688
0.0545,13.097778320312,9.4542236328125,-22.737182617188
0.055,9.9346923828125,12.657348632812,-22.737182617188
0.0555,5.8507080078125,16.260864257812,-22.216674804688
0.056,2.2071533203125,18.422973632812,-20.815307617188
0.0565,-2.2772216796875,20.865356445312,-18.893432617188
0.057,-7.0819091796875,22.466918945312,-15.850463867188
0.0575,-11.245971679688,21.786254882812,-11.045776367188
0.058,-14.288940429688,22.466918945312,-8.8035888671875
0.0585,-17.331909179688,21.305786132812,-4.5594482421875
0.059,-19.894409179688,20.144653320312,-0.8758544921875
0.0595,-21.215698242188,17.622192382812,3.0880126953125
0.06,-22.296752929688,13.738403320312,8.1329345703125
0.0605,-21.415893554688,9.6944580078125,11.376098632812
0.061,-21.776245117188,6.5313720703125,14.939575195312
0.0615,-20.615112304688,3.1680908203125,17.181762695312
0.062,-19.333862304688,-1.2762451171875,20.344848632812
0.0625,-16.411010742188,-5.7606201171875,21.906372070312
0.063,-11.846557617188,-10.565307617188,22.066528320312
0.0635,-9.3240966796875,-13.488159179688,22.506958007812
0.064,-4.6795654296875,-16.931518554688,21.265747070312
0.0645,-0.8358154296875,-19.253784179688,19.784301757812
0.065,3.2081298828125,-21.255737304688,17.822387695312
0.0655,8.3331298828125,-22.536987304688,14.058715820312
0.066,11.896606445312,-21.656127929688,9.7344970703125
0.0665,15.299926757812,-22.456909179688,7.2921142578125
0.067,17.982543945312,-20.975463867188,3.1680908203125
0.0675,20.705200195312,-19.574096679688,-0.9959716796875
0.068,21.465942382812,-16.611206054688,-4.8397216796875
0.0685,22.106567382812,-12.447143554688,-9.7645263671875
0.069,21.666137695312,-9.1239013671875,-12.687377929688
0.0695,21.505981445312,-5.3201904296875,-16.370971679688
0.07,20.184692382812,-1.7967529296875,-18.573120117188
0.0705,18.743286132812,2.6475830078125,-21.536010742188
0.071,14.939575195312,7.5323486328125,-22.617065429688
0.0715,10.455200195312,11.816528320312,-22.376831054688
0.072,8.1329345703125,14.859497070312,-23.097534179688
0.0725,3.0479736328125,18.022583007812,-21.215698242188
0.073,-1.1561279296875,20.464965820312,-19.654174804688
0.0735,-5.1199951171875,21.906372070312,-17.171752929688
0.074,-10.405151367188,22.987426757812,-13.087768554688
0.0745,-13.488159179688,21.986450195312,-9.0438232421875
0.075,-17.131713867188,22.506958007812,-6.0408935546875
0.0755,-19.494018554688,20.665161132812,-1.7967529296875
0.076,-22.096557617188,18.983520507812,2.6075439453125
0.0765,-22.176635742188,15.059692382812,6.6915283203125
0.077,-22.536987304688,10.815551757812,11.376098632812
0.0775,-22.336791992188,7.8927001953125,14.178833007812
0.078,-21.495971679688,3.3682861328125,17.902465820312
0.0785,-19.934448242188,-0.5155029296875,20.184692382812
0.079,-18.012573242188,-4.9998779296875,22.667114257812
0.0795,-13.608276367188,-10.004760742188,23.347778320312
0.08,-9.1639404296875,-13.808471679688,22.587036132812
0.0805,-6.5213623046875,-16.971557617188,23.067504882812
0.081,-0.9959716796875,-19.934448242188,20.585083007812
0.0815,3.3682861328125,-22.456909179688,18.863403320312
0.082,7.6925048828125,-22.897338867188,15.099731445312
0.0825,12.417114257812,-23.698120117188,11.376098632812
0.083,15.460083007812,-22.697143554688,7.3721923828125
0.0835,19.143676757812,-22.577026367188,3.5684814453125
0.084,21.305786132812,-20.374877929688,-0.7957763671875
0.0845,23.668090820312,-18.252807617188,-5.3602294921875
0.085,23.067504882812,-13.528198242188,-9.6043701171875
0.0855,23.107543945312,-9.4041748046875,-13.808471679688
0.086,22.987426757812,-6.6014404296875,-16.531127929688
0.0865,21.345825195312,-1.5164794921875,-20.014526367188
0.087,19.504028320312,2.6475830078125,-22.336791992188
0.0875,16.340942382812,7.5323486328125,-23.978393554688
0.088,12.056762695312,12.176879882812,-24.378784179688
0.0885,7.5723876953125,15.660278320312,-23.377807617188
0.089,4.3692626953125,18.703247070312,-23.217651367188
0.0895,-1.1561279296875,21.425903320312,-20.575073242188
0.09,-5.6004638671875,23.908325195312,-18.653198242188
0.0905,-10.285034179688,23.427856445312,-13.608276367188
0.091,-14.328979492188,24.108520507812,-10.365112304688
0.0915,-17.331909179688,23.107543945312,-6.4813232421875
0.092,-20.655151367188,22.146606445312,-2.1170654296875
0.0925,-22.496948242188,19.784301757812,2.2071533203125
0.093,-24.338745117188,16.901489257812,7.0118408203125
0.0935,-23.497924804688,11.936645507812,11.175903320312
0.094,-23.217651367188,7.9727783203125,14.939575195312
0.0945,-23.057495117188,5.0499267578125,17.702270507812
0.095,-21.055541992188,-0.2752685546875,20.985473632812
0.0955,-19.133666992188,-4.5194091796875,23.387817382812
0.096,-14.769409179688,-9.6043701171875,24.028442382812
0.0965,-11.165893554688,-13.688354492188,24.468872070312
0.097,-6.6815185546875,-17.011596679688,23.307739257812
0.0975,-2.7176513671875,-19.934448242188,22.266723632812
0.098,2.4073486328125,-22.256713867188,19.704223632812
0.0985,7.2520751953125,-24.659057617188,17.341918945312
0.099,11.696411132812,-23.537963867188,11.816528320312
0.0995,15.380004882812,-24.058471679688,8.8135986328125
0.1,18.382934570312,-23.257690429688,5.0899658203125
0.1005,21.626098632812,-21.736206054688,0.3253173828125
0.101,23.267700195312,-19.213745117188,-3.9588623046875
0.1015,24.468872070312,-15.530151367188,-8.9637451171875
0.102,23.708129882812,-11.045776367188,-12.807495117188
0.1025,23.187622070312,-7.0819091796875,-16.370971679688
0.103,22.707153320312,-3.8787841796875,-18.973510742188
0.1035,20.625122070312,1.3262939453125,-22.136596679688
0.104,18.262817382812,6.1309814453125,-24.538940429688
0.1045,12.937622070312,11.135864257812,-24.178588867188
0.105,9.9747314453125,14.739379882812,-24.819213867188
0.1055,5.4102783203125,18.062622070312,-23.578002929688
0.106,0.9259033203125,20.945434570312,-22.056518554688
0.1065,-3.7987060546875,22.987426757812,-19.534057617188
0.107,-9.1239013671875,24.989379882812,-16.330932617188
0.1075,-13.167846679688,23.748168945312,-11.085815429688
0.108,-16.731323242188,24.028442382812,-7.8826904296875
0.1085,-19.534057617188,22.987426757812,-4.1190185546875
0.109,-22.577026367188,21.145629882812,0.8458251953125
0.1095,-23.938354492188,18.222778320312,5.2100830078125
0.11,-24.298706054688,13.618286132812,10.214965820312
0.1105,-23.978393554688,9.8946533203125,13.738403320312
0.111,-23.177612304688,5.5704345703125,17.301879882812
0.1115,-22.176635742188,2.0469970703125,19.864379882812
0.112,-20.134643554688,-2.9178466796875,22.747192382812
0.1125,-17.131713867188,-8.2030029296875,24.909301757812
0.113,-11.526245117188,-12.807495117188,23.868286132812
0.1135,-8.9237060546875,-16.130737304688,24.508911132812
0.114,-3.9188232421875,-19.213745117188,22.787231445312
0.1145,0.9659423828125,-22.096557617188,20.985473632812
0.115,5.2100830078125,-23.658081054688,18.342895507812
0.1155,10.855590820312,-25.019409179688,14.178833007812
0.116,14.298950195312,-23.858276367188,9.7344970703125
0.1165,18.102661132812,-23.978393554688,6.0509033203125
0.117,20.625122070312,-22.577026367188,2.2071533203125
0.1175,23.507934570312,-20.575073242188,-2.7576904296875
0.118,24.508911132812,-17.131713867188,-7.3621826171875
0.1185,24.228637695312,-12.086791992188,-12.206909179688
0.119,24.188598632812,-9.0438232421875,-15.289916992188
0.1195,23.067504882812,-4.3192138671875,-18.933471679688
0.12,21.666137695312,-0.3953857421875,-21.495971679688
0.1205,19.463989257812,4.3292236328125,-23.978393554688
0.121,15.420043945312,10.054809570312,-25.660034179688
0.1215,10.054809570312,14.098754882812,-24.378784179688
0.122,7.3321533203125,17.542114257812,-25.019409179688
0.1225,2.2071533203125,20.464965820312,-22.777221679688
0.123,-2.8778076171875,23.427856445312,-20.855346679688
0.1235,-7.1619873046875,24.468872070312,-17.652221679688
0.124,-12.847534179688,25.309692382812,-12.967651367188
0.1245,-15.890502929688,24.308715820312,-9.0438232421875
0.125,-19.814331054688,24.028442382812,-4.8397216796875
0.1255,-21.976440429688,22.106567382812,-0.7557373046875
0.126,-24.578979492188,19.864379882812,4.1290283203125
0.1265,-25.059448242188,15.580200195312,9.0538330078125
0.127,-24.458862304688,10.415161132812,13.658325195312
0.1275,-24.578979492188,7.6925048828125,16.621215820312
0.128,-22.937377929688,2.4073486328125,20.184692382812
0.1285,-21.295776367188,-1.9168701171875,22.907348632812
0.129,-18.613159179688,-6.5213623046875,24.789184570312
0.1295,-14.088745117188,-12.286987304688,25.990356445312
0.13,-9.0037841796875,-15.810424804688,24.428833007812
0.1305,-5.7205810546875,-19.293823242188,24.669067382812
0.131,-0.2352294921875,-21.936401367188,21.866333007812
0.1315,4.8096923828125,-24.819213867188,19.904418945312
0.132,9.3341064453125,-25.019409179688,15.660278320312
0.1325,14.539184570312,-25.579956054688,11.135864257812
0.133,17.421997070312,-24.659057617188,7.4522705078125
0.1335,21.425903320312,-23.778198242188,2.6075439453125
0.134,23.427856445312,-21.576049804688,-1.7567138671875
0.1345,25.549926757812,-18.933471679688,-6.5213623046875
0.135,25.549926757812,-14.128784179688,-11.486206054688
0.1355,24.588989257812,-9.1239013671875,-15.610229492188
0.136,24.709106445312,-6.4813232421875,-18.493041992188
0.1365,22.466918945312,-0.9158935546875,-21.856323242188
0.137,20.705200195312,3.6485595703125,-24.538940429688
0.1375,16.861450195312,8.4132080078125,-25.579956054688
0.138,12.377075195312,13.898559570312,-26.380737304688
0.1385,7.6524658203125,17.141723632812,-24.859252929688
0.139,3.6885986328125,20.625122070312,-24.418823242188
0.1395,-1.6766357421875,22.947387695312,-21.495971679688
0.14,-6.5614013671875,25.670043945312,-19.494018554688
0.1405,-11.406127929688,25.109497070312,-14.128784179688
0.141,-15.890502929688,25.349731445312,-10.084838867188
0.1415,-18.613159179688,24.749145507812,-6.8016357421875
0.142,-22.256713867188,23.067504882812,-1.4364013671875
0.1425,-24.138549804688,20.665161132812,2.8878173828125
0.143,-25.539916992188,17.341918945312,7.6925048828125
0.1435,-25.379760742188,12.497192382812,12.497192382812
0.144,-24.218627929688,7.7725830078125,16.140747070312
0.1445,-24.338745117188,4.9298095703125,19.183715820312
0.145,-21.816284179688,-0.7156982421875,22.186645507812
0.1455,-20.134643554688,-5.2801513671875,25.109497070312
0.146,-15.249877929688,-10.164916992188,25.029418945312
0.1465,-11.286010742188,-14.809448242188,25.790161132812
0.147,-7.0018310546875,-17.852416992188,24.468872070312
0.1475,-2.1971435546875,-21.255737304688,23.107543945312
0.148,2.7677001953125,-23.337768554688,20.384887695312
0.1485,7.8526611328125,-25.820190429688,17.942504882812
0.149,12.537231445312,-24.899291992188,12.417114257812
0.1495,16.501098632812,-24.859252929688,8.5333251953125
0.15,19.303833007812,-24.498901367188,5.4503173828125
0.1505,22.707153320312,-22.416870117188,-0.1551513671875
0.151,24.629028320312,-19.894409179688,-4.5594482421875
0.1515,25.229614257812,-15.810424804688,-9.3641357421875
0.152,25.229614257812,-11.486206054688,-13.808471679688
0.1525,24.068481445312,-7.0418701171875,-17.171752929688
0.153,23.588012695312,-3.7186279296875,-20.174682617188
0.1535,21.385864257812,1.7266845703125,-23.057495117188
0.154,19.023559570312,6.6915283203125,-25.900268554688
0.1545,13.257934570312,11.696411132812,-25.059448242188
0.155,9.8546142578125,15.780395507812,-25.740112304688
0.1555,5.7305908203125,18.743286132812,-24.538940429688
0.156,0.4854736328125,22.066528320312,-22.697143554688
0.1565,-4.2791748046875,23.948364257812,-19.974487304688
0.157,-9.7244873046875,25.870239257812,-16.531127929688
0.1575,-13.968627929688,24.989379882812,-11.566284179688
0.158,-17.652221679688,24.629028320312,-7.6024169921875
0.1585,-20.334838867188,23.988403320312,-4.3592529296875
0.159,-23.417846679688,21.746215820312,1.1661376953125
0.1595,-25.179565429688,18.783325195312,5.9307861328125
0.16,-24.939331054688,13.698364257812,10.815551757812
0.1605,-25.139526367188,10.054809570312,14.619262695312
0.161,-23.898315429688,5.6104736328125,18.062622070312
0.1615,-22.977416992188,1.6065673828125,20.825317382812
0.162,-20.615112304688,-3.3582763671875,23.668090820312
0.1625,-17.692260742188,-8.8436279296875,26.190551757812
0.163,-11.846557617188,-13.408081054688,24.909301757812
0.1635,-8.7235107421875,-17.011596679688,25.349731445312
0.164,-4.2791748046875,-19.894409179688,23.828247070312
0.1645,1.3262939453125,-23.137573242188,21.666137695312
0.165,5.8907470703125,-24.739135742188,18.783325195312
0.1655,11.656372070312,-25.860229492188,14.218872070312
0.166,15.179809570312,-25.219604492188,10.214965820312
0.1665,19.023559570312,-24.659057617188,5.8106689453125
0.167,21.586059570312,-23.537963867188,2.1671142578125
0.1675,24.468872070312,-21.135620117188,-3.1981201171875
0.168,25.990356445312,-17.652221679688,-8.2830810546875
0.1685,24.989379882812,-12.206909179688,-13.047729492188
0.169,25.469848632812,-9.2440185546875,-16.451049804688
0.1695,23.788208007812,-4.5194091796875,-19.814331054688
0.17,22.466918945312,0.0850830078125,-22.737182617188
0.1705,19.864379882812,4.9698486328125,-25.019409179688
0.171,15.740356445312,11.055786132812,-26.901245117188
0.1715,10.335083007812,15.019653320312,-25.459838867188
0.172,7.0118408203125,18.663208007812,-25.780151367188
0.1725,2.2872314453125,21.265747070312,-23.698120117188
0.173,-3.3983154296875,24.468872070312,-21.415893554688
0.1735,-8.0428466796875,25.589965820312,-17.972534179688
0.174,-13.808471679688,26.070434570312,-12.807495117188
0.1745,-16.771362304688,25.469848632812,-9.3240966796875
0.175,-20.735229492188,24.588989257812,-4.5194091796875
0.1755,-22.937377929688,22.827270507812,-0.5155029296875
0.176,-25.379760742188,20.184692382812,4.6094970703125
0.1765,-26.300659179688,15.980590820312,10.054809570312
0.177,-25.059448242188,10.295043945312,14.379028320312
0.1775,-25.499877929688,7.6925048828125,17.622192382812
0.178,-23.578002929688,2.5274658203125,20.785278320312
