wavelength,x,y,z
0.0,20.515014648438,-7.1519775390625,-12.557250976562
0.0005,19.674194335938,-3.5484619140625,-15.640258789062
0.001,18.072631835938,1.1361083984375,-18.402954101562
0.0015,15.830444335938,4.8197021484375,-20.004516601562
0.002,13.468139648438,7.9427490234375,-20.645141601562
0.0025,10.545288085938,11.105834960938,-21.045532226562
0.003,5.3802490234375,15.029663085938,-20.044555664062
0.0035,1.2161865234375,17.632202148438,-18.563110351562
0.004,-3.2281494140625,19.714233398438,-16.441040039062
0.0045,-6.6314697265625,20.955444335938,-14.559204101562
0.005,-9.8345947265625,20.795288085938,-11.396118164062
0.0055,-12.877563476562,20.715209960938,-8.5133056640625
0.006,-16.200805664062,19.714233398438,-4.3492431640625
0.0065,-18.843383789062,17.592163085938,0.3353271484375
0.007,-20.204711914062,15.470092773438,3.8187255859375
0.0075,-21.005493164062,13.107788085938,6.9017333984375
0.008,-20.925415039062,9.9847412109375,9.9447021484375
0.0085,-20.324829101562,5.4603271484375,13.828491210938
0.009,-19.283813476562,1.7767333984375,16.631225585938
0.0095,-17.482055664062,-2.5074462890625,19.073608398438
0.01,-15.440063476562,-5.9508056640625,20.635131835938
0.0105,-12.477172851562,-9.0338134765625,20.795288085938
0.011,-9.4742431640625,-12.317016601562,21.115600585938
0.0115,-4.4293212890625,-16.000610351562,19.914428710938
0.012,0.5355224609375,-18.563110351562,17.792358398438
0.0125,4.2191162109375,-20.124633789062,15.870483398438
0.013,7.5423583984375,-21.125610351562,13.908569335938
0.0135,10.785522460938,-21.005493164062,10.705444335938
0.014,14.148803710938,-20.364868164062,6.9017333984375
0.0145,17.031616210938,-19.363891601562,3.0579833984375
0.015,19.473999023438,-17.081665039062,-1.5465087890625
0.0155,20.515014648438,-14.919555664062,-4.7095947265625
0.016,20.835327148438,-12.076782226562,-7.8726806640625
0.0165,20.875366210938,-9.0738525390625,-11.075805664062
0.017,20.074584960938,-4.5494384765625,-14.799438476562
0.0175,18.513061523438,-0.5054931640625,-17.442016601562
0.018,16.711303710938,3.5784912109375,-19.524047851562
0.0185,14.709350585938,6.9417724609375,-20.885375976562
0.019,11.225952148438,10.265014648438,-20.805297851562
0.0195,7.4222412109375,13.748413085938,-20.685180664062
0.02,2.9779052734375,17.031616210938,-19.644165039062
0.0205,-2.3072509765625,19.514038085938,-17.121704101562
0.021,-5.5904541015625,20.635131835938,-15.239868164062
0.0215,-8.9537353515625,21.315795898438,-12.797485351562
0.022,-12.156860351562,21.235717773438,-9.7545166015625
0.0225,-15.800415039062,20.194702148438,-5.3502197265625
0.023,-18.442993164062,18.633178710938,-1.1861572265625
0.0235,-20.484985351562,16.390991210938,3.1380615234375
0.024,-21.285766601562,14.108764648438,6.2210693359375
0.0245,-21.285766601562,10.665405273438,9.6243896484375
0.025,-21.125610351562,7.1820068359375,12.987670898438
0.0255,-20.324829101562,2.8177490234375,16.471069335938
0.026,-18.242797851562,-1.7867431640625,19.153686523438
0.0265,-16.080688476562,-5.4302978515625,20.635131835938
0.027,-13.878540039062,-8.7135009765625,21.796264648438
0.0275,-10.114868164062,-12.116821289062,21.515991210938
0.028,-5.5504150390625,-15.640258789062,20.635131835938
0.0285,-0.9859619140625,-18.563110351562,19.193725585938
0.029,4.0189208984375,-20.725219726562,16.671264648438
0.0295,7.1820068359375,-21.485961914062,14.589233398438
0.03,10.665405273438,-21.766235351562,11.546264648438
0.0305,13.868530273438,-21.485961914062,8.2630615234375
0.031,17.271850585938,-20.204711914062,3.8187255859375
0.0315,19.794311523438,-18.082641601562,-0.9058837890625
0.032,21.355834960938,-15.840454101562,-4.6295166015625
0.0325,21.916381835938,-13.317993164062,-7.7926025390625
0.033,21.596069335938,-9.6343994140625,-11.195922851562
0.0335,20.995483398438,-5.6304931640625,-14.599243164062
0.034,19.994506835938,-1.4263916015625,-17.722290039062
0.0345,17.672241210938,3.2982177734375,-20.164672851562
0.035,15.390014648438,6.5413818359375,-21.165649414062
0.0355,12.587280273438,9.9447021484375,-21.846313476562
0.036,8.7034912109375,13.508178710938,-21.606079101562
0.0365,3.8587646484375,16.871459960938,-20.324829101562
0.037,-0.9859619140625,19.393920898438,-18.242797851562
0.0375,-5.2701416015625,21.195678710938,-16.080688476562
0.038,-8.3131103515625,21.716186523438,-13.758422851562
0.0385,-11.796508789062,21.636108398438,-10.395141601562
0.039,-15.079711914062,21.075561523438,-6.7515869140625
0.0395,-18.122680664062,19.594116210938,-2.4273681640625
0.04,-20.364868164062,17.151733398438,2.2972412109375
0.0405,-21.405883789062,14.909545898438,5.5003662109375
0.041,-21.846313476562,12.026733398438,8.8236083984375
0.0415,-21.526000976562,8.2630615234375,12.266967773438
0.042,-20.605102539062,4.1390380859375,15.590209960938
0.0425,-19.163696289062,-0.1851806640625,18.432983398438
0.043,-17.001586914062,-4.5093994140625,20.635131835938
0.0435,-14.639282226562,-7.5924072265625,21.395874023438
0.044,-11.476196289062,-10.915649414062,21.716186523438
0.0445,-7.4722900390625,-14.479125976562,21.315795898438
0.045,-2.5474853515625,-17.762329101562,19.874389648438
0.0455,2.4173583984375,-19.884399414062,17.351928710938
0.046,5.9007568359375,-21.285766601562,15.510131835938
0.0465,9.2239990234375,-21.766235351562,12.947631835938
0.047,12.587280273438,-21.485961914062,9.4642333984375
0.0475,15.870483398438,-20.725219726562,5.6204833984375
0.048,18.833374023438,-19.083618164062,1.1361083984375
0.0485,20.955444335938,-16.681274414062,-3.4683837890625
0.049,21.515991210938,-14.359008789062,-6.3912353515625
0.0495,21.836303710938,-11.235961914062,-9.8345947265625
0.05,21.435913085938,-7.0718994140625,-13.518188476562
0.0505,20.474975585938,-2.9478759765625,-16.721313476562
0.051,18.553100585938,1.4964599609375,-19.163696289062
0.0515,16.511108398438,5.4603271484375,-21.125610351562
0.052,13.748413085938,8.7034912109375,-21.726196289062
0.0525,10.144897460938,12.186889648438,-21.766235351562
0.053,5.8206787109375,15.750366210938,-21.085571289062
0.0535,0.7757568359375,18.873413085938,-19.403930664062
0.054,-4.1090087890625,20.875366210938,-16.841430664062
0.0545,-7.1920166015625,21.756225585938,-14.839477539062
0.055,-10.755493164062,22.156616210938,-11.996704101562
0.0555,-14.318969726562,21.596069335938,-7.9927978515625
0.056,-17.401977539062,20.474975585938,-3.9888916015625
0.0565,-20.124633789062,18.432983398438,0.7357177734375
0.057,-22.006469726562,15.990600585938,5.0599365234375
0.0575,-22.246704101562,13.187866210938,7.9827880859375
0.058,-22.366821289062,9.7845458984375,11.586303710938
0.0585,-21.646118164062,5.4202880859375,15.309936523438
0.059,-20.444946289062,1.0159912109375,18.553100585938
0.0595,-18.002563476562,-3.5484619140625,20.675170898438
0.06,-15.960571289062,-7.0718994140625,22.116577148438
0.0605,-12.837524414062,-10.515258789062,22.557006835938
0.061,-8.6334228515625,-14.118774414062,22.076538085938
0.0615,-4.1890869140625,-17.281860351562,20.995483398438
0.062,1.1761474609375,-20.124633789062,18.753295898438
0.0625,5.6605224609375,-21.846313476562,16.310913085938
0.063,8.7034912109375,-22.206665039062,13.828491210938
0.0635,12.186889648438,-22.486938476562,10.905639648438
0.064,15.910522460938,-21.606079101562,6.4212646484375
0.0645,18.753295898438,-20.084594726562,2.2171630859375
0.065,20.995483398438,-17.762329101562,-2.3873291015625
0.0655,22.436889648438,-15.440063476562,-6.1109619140625
0.066,22.356811523438,-12.196899414062,-9.3140869140625
0.0665,22.156616210938,-8.3131103515625,-12.957641601562
0.067,21.275756835938,-4.3092041015625,-16.160766601562
0.0675,19.714233398438,0.4154052734375,-19.203735351562
0.068,17.151733398438,4.7796630859375,-21.085571289062
0.0685,14.749389648438,7.9027099609375,-21.806274414062
0.069,11.666381835938,11.265991210938,-22.286743164062
0.0695,6.7415771484375,15.229858398438,-21.485961914062
0.07,2.4173583984375,17.992553710938,-20.084594726562
0.0705,-2.6275634765625,20.314819335938,-17.682250976562
0.071,-6.5513916015625,21.916381835938,-15.560180664062
0.0715,-9.6343994140625,21.916381835938,-12.717407226562
0.072,-12.837524414062,21.916381835938,-9.7545166015625
0.0725,-16.401000976562,20.995483398438,-5.5103759765625
0.073,-19.203735351562,19.073608398438,-0.9058837890625
0.0735,-21.005493164062,16.631225585938,3.3782958984375
0.074,-21.926391601562,14.389038085938,6.5814208984375
0.0745,-22.046508789062,11.185913085938,9.9046630859375
0.075,-21.566040039062,6.7816162109375,13.828491210938
0.0755,-20.565063476562,3.0179443359375,16.671264648438
0.076,-18.763305664062,-1.5465087890625,19.393920898438
0.0765,-16.521118164062,-5.7105712890625,21.275756835938
0.077,-13.718383789062,-8.6734619140625,21.515991210938
0.0775,-10.835571289062,-11.836547851562,21.956420898438
0.078,-5.7906494140625,-15.760375976562,20.995483398438
0.0785,-0.9859619140625,-18.563110351562,19.193725585938
0.079,3.4583740234375,-20.364868164062,16.871459960938
0.0795,6.9017333984375,-21.726196289062,14.949584960938
0.08,10.224975585938,-21.726196289062,11.906616210938
0.0805,13.628295898438,-21.365844726562,8.3031005859375
0.081,16.711303710938,-20.525024414062,4.5394287109375
0.0815,19.514038085938,-18.402954101562,-0.3052978515625
0.082,21.235717773438,-15.960571289062,-4.2691650390625
0.0825,21.475952148438,-13.398071289062,-7.2320556640625
0.083,21.756225585938,-10.355102539062,-10.515258789062
0.0835,20.995483398438,-5.6705322265625,-14.519165039062
0.084,19.874389648438,-1.7867431640625,-17.321899414062
0.0845,17.832397460938,2.5374755859375,-19.524047851562
0.085,15.830444335938,6.2611083984375,-21.325805664062
0.0855,12.547241210938,9.4642333984375,-21.285766601562
0.086,9.1038818359375,12.827514648438,-21.405883789062
0.0865,4.6195068359375,16.350952148438,-20.525024414062
0.087,-0.7457275390625,19.153686523438,-18.242797851562
0.0875,-4.7095947265625,20.715209960938,-16.080688476562
0.088,-7.9527587890625,21.596069335938,-13.958618164062
0.0885,-11.235961914062,21.756225585938,-11.155883789062
0.089,-15.039672851562,20.875366210938,-6.6715087890625
0.0895,-17.762329101562,19.674194335938,-2.9078369140625
0.09,-20.084594726562,17.512084960938,1.6566162109375
0.0905,-21.526000976562,15.269897460938,5.3001708984375
0.091,-21.526000976562,12.146850585938,8.4632568359375
0.0915,-21.686157226562,8.8636474609375,11.866577148438
0.092,-20.845336914062,4.4193115234375,15.590209960938
0.0925,-19.243774414062,-0.1451416015625,18.473022460938
0.093,-16.961547851562,-4.1490478515625,20.234741210938
0.0935,-15.039672851562,-7.5123291015625,21.716186523438
0.094,-11.676391601562,-10.755493164062,21.756225585938
0.0945,-7.2320556640625,-14.559204101562,21.115600585938
0.095,-3.0279541015625,-17.442016601562,20.074584960938
0.0955,2.2972412109375,-20.004516601562,17.632202148438
0.096,6.0208740234375,-21.405883789062,15.510131835938
0.0965,9.2640380859375,-21.726196289062,12.787475585938
0.097,12.387084960938,-21.966430664062,10.104858398438
0.0975,16.190795898438,-20.845336914062,5.3402099609375
0.098,18.913452148438,-19.043579101562,0.9759521484375
0.0985,20.755249023438,-16.801391601562,-3.0679931640625
0.099,21.796264648438,-14.519165039062,-6.3912353515625
0.0995,21.556030273438,-11.075805664062,-9.6343994140625
0.1,21.275756835938,-7.2320556640625,-13.237915039062
0.1005,20.515014648438,-3.3482666015625,-16.401000976562
0.101,18.593139648438,1.4163818359375,-19.203735351562
0.1015,16.230834960938,5.2601318359375,-20.725219726562
0.102,13.668334960938,8.4632568359375,-21.485961914062
0.1025,10.625366210938,11.706420898438,-21.766235351562
0.103,5.3802490234375,15.710327148438,-20.645141601562
0.1035,1.0159912109375,18.352905273438,-19.083618164062
0.104,-3.5484619140625,20.434936523438,-16.841430664062
0.1045,-7.0318603515625,21.596069335938,-14.839477539062
0.105,-10.395141601562,21.475952148438,-11.556274414062
0.1055,-13.438110351562,21.355834960938,-8.6734619140625
0.106,-16.921508789062,20.274780273438,-4.2691650390625
0.1065,-19.484008789062,17.992553710938,0.6156005859375
0.107,-20.845336914062,15.790405273438,4.1390380859375
0.1075,-21.646118164062,13.307983398438,7.3421630859375
0.108,-21.485961914062,10.104858398438,10.425170898438
0.1085,-20.845336914062,5.5804443359375,14.389038085938
0.109,-19.844360351562,1.7366943359375,17.231811523438
0.1095,-17.762329101562,-2.7076416015625,19.714233398438
0.11,-15.640258789062,-6.3511962890625,21.115600585938
0.1105,-12.477172851562,-9.5543212890625,21.315795898438
0.111,-9.5543212890625,-12.757446289062,21.596069335938
0.1115,-4.3492431640625,-16.481079101562,20.314819335938
0.112,0.7357177734375,-19.003540039062,18.072631835938
0.1125,4.5394287109375,-20.605102539062,16.070678710938
0.113,7.9027099609375,-21.646118164062,13.948608398438
0.1135,11.225952148438,-21.485961914062,10.705444335938
0.114,14.589233398438,-20.845336914062,6.9017333984375
0.1145,17.552124023438,-19.724243164062,2.9779052734375
0.115,19.994506835938,-17.361938476562,-1.7867431640625
0.1155,20.995483398438,-15.119750976562,-4.9898681640625
0.116,21.235717773438,-12.317016601562,-8.3131103515625
0.1165,21.315795898438,-9.0338134765625,-11.436157226562
0.117,20.474975585938,-4.5093994140625,-15.199829101562
0.1175,18.953491210938,-0.3453369140625,-17.882446289062
0.118,16.951538085938,3.7786865234375,-19.884399414062
0.1185,14.749389648438,7.1820068359375,-21.205688476562
0.119,11.225952148438,10.545288085938,-21.125610351562
0.1195,7.4222412109375,14.068725585938,-21.005493164062
0.12,2.8577880859375,17.311889648438,-19.844360351562
0.1205,-2.5074462890625,19.754272460938,-17.241821289062
0.121,-5.7506103515625,20.835327148438,-15.359985351562
0.1215,-9.0738525390625,21.515991210938,-12.877563476562
0.122,-12.276977539062,21.395874023438,-9.7545166015625
0.1225,-15.840454101562,20.354858398438,-5.3902587890625
0.123,-18.523071289062,18.793334960938,-1.1861572265625
0.1235,-20.525024414062,16.511108398438,3.1380615234375
0.124,-21.325805664062,14.148803710938,6.2210693359375
0.1245,-21.325805664062,10.785522460938,9.6243896484375
0.125,-21.125610351562,7.3021240234375,12.947631835938
0.1255,-20.324829101562,3.0579833984375,16.431030273438
0.126,-18.242797851562,-1.6265869140625,18.993530273438
0.1265,-16.160766601562,-5.1900634765625,20.474975585938
0.127,-13.918579101562,-8.4732666015625,21.596069335938
0.1275,-10.275024414062,-11.836547851562,21.435913085938
0.128,-5.7105712890625,-15.400024414062,20.555053710938
0.1285,-1.1461181640625,-18.322875976562,19.073608398438
0.129,3.6986083984375,-20.484985351562,16.631225585938
0.1295,6.7816162109375,-21.285766601562,14.589233398438
0.13,10.224975585938,-21.485961914062,11.666381835938
0.1305,13.388061523438,-21.285766601562,8.5032958984375
0.131,16.711303710938,-20.044555664062,4.1390380859375
0.1315,19.233764648438,-17.962524414062,-0.5054931640625
0.132,20.795288085938,-15.840454101562,-4.0689697265625
0.1325,21.315795898438,-13.277954101562,-7.1920166015625
0.133,21.075561523438,-9.8345947265625,-10.395141601562
0.1335,20.515014648438,-5.8306884765625,-13.838500976562
0.134,19.594116210938,-1.8668212890625,-16.961547851562
0.1345,17.432006835938,2.7376708984375,-19.363891601562
0.135,15.229858398438,5.9808349609375,-20.444946289062
0.1355,12.467163085938,9.2640380859375,-21.165649414062
0.136,8.9837646484375,12.667358398438,-21.085571289062
0.1365,4.1790771484375,16.070678710938,-19.884399414062
0.137,-0.6256103515625,18.593139648438,-17.882446289062
0.1375,-4.6295166015625,20.434936523438,-15.920532226562
0.138,-7.7125244140625,21.075561523438,-13.718383789062
0.1385,-10.995727539062,21.035522460938,-10.555297851562
0.139,-14.198852539062,20.555053710938,-7.1119384765625
0.1395,-17.281860351562,19.233764648438,-2.8677978515625
0.14,-19.524047851562,16.871459960938,1.7366943359375
0.1405,-20.525024414062,14.789428710938,4.8197021484375
0.141,-21.005493164062,12.026733398438,8.0228271484375
0.1415,-20.805297851562,8.5833740234375,11.306030273438
0.142,-20.004516601562,4.4193115234375,14.709350585938
0.1425,-18.643188476562,0.2952880859375,17.552124023438
0.143,-16.681274414062,-3.9088134765625,19.794311523438
0.1435,-14.439086914062,-6.9117431640625,20.635131835938
0.144,-11.436157226562,-10.194946289062,20.915405273438
0.1445,-7.6724853515625,-13.718383789062,20.715209960938
0.145,-2.8677978515625,-16.921508789062,19.273803710938
0.1455,1.9769287109375,-19.123657226562,16.911499023438
0.146,5.2601318359375,-20.444946289062,15.229858398438
0.1465,8.5032958984375,-21.045532226562,12.787475585938
0.147,11.706420898438,-20.805297851562,9.6243896484375
0.1475,14.949584960938,-20.044555664062,5.7806396484375
0.148,17.792358398438,-18.563110351562,1.5765380859375
0.1485,19.874389648438,-16.200805664062,-2.7877197265625
0.149,20.394897460938,-13.958618164062,-5.5504150390625
0.1495,20.715209960938,-11.035766601562,-8.8336181640625
0.15,20.434936523438,-7.3121337890625,-12.317016601562
0.1505,19.594116210938,-3.3482666015625,-15.520141601562
0.151,17.792358398438,0.9759521484375,-17.922485351562
0.1515,15.950561523438,4.6195068359375,-19.804321289062
0.152,13.428100585938,7.7825927734375,-20.525024414062
0.1525,10.104858398438,11.025756835938,-20.525024414062
0.153,6.0609130859375,14.389038085938,-20.044555664062
0.1535,1.2962646484375,17.472045898438,-18.563110351562
0.154,-3.3082275390625,19.473999023438,-16.160766601562
0.1545,-6.1910400390625,20.354858398438,-14.359008789062
0.155,-9.5543212890625,20.795288085938,-11.796508789062
0.1555,-12.797485351562,20.434936523438,-8.2730712890625
0.156,-15.800415039062,19.433959960938,-4.4693603515625
0.1565,-18.322875976562,17.552124023438,-0.1451416015625
0.157,-20.124633789062,15.390014648438,3.8587646484375
0.1575,-20.484985351562,12.907592773438,6.6614990234375
0.158,-20.645141601562,9.7845458984375,9.9447021484375
0.1585,-20.164672851562,5.8206787109375,13.428100585938
0.159,-19.203735351562,1.7767333984375,16.631225585938
0.1595,-17.041625976562,-2.5875244140625,18.753295898438
0.16,-15.239868164062,-5.7105712890625,20.194702148438
0.1605,-12.637329101562,-8.9537353515625,20.835327148438
0.161,-8.8336181640625,-12.437133789062,20.555053710938
0.1615,-4.6695556640625,-15.520141601562,19.594116210938
0.162,0.2552490234375,-18.202758789062,17.712280273438
0.1625,4.4193115234375,-20.004516601562,15.630249023438
0.163,7.2620849609375,-20.484985351562,13.428100585938
0.1635,10.505249023438,-20.845336914062,10.865600585938
0.164,14.028686523438,-20.284790039062,6.9017333984375
0.1645,16.831420898438,-18.963500976562,2.8978271484375
0.165,19.033569335938,-16.881469726562,-1.3463134765625
0.1655,20.394897460938,-14.839477539062,-4.6695556640625
0.166,20.595092773438,-11.996704101562,-7.7525634765625
0.1665,20.474975585938,-8.4732666015625,-11.235961914062
0.167,19.794311523438,-4.7496337890625,-14.278930664062
0.1675,18.513061523438,-0.5054931640625,-17.321899414062
0.168,16.350952148438,3.7386474609375,-19.323852539062
0.1685,14.188842773438,6.5413818359375,-20.084594726562
0.169,11.546264648438,9.8245849609375,-20.645141601562
0.1695,7.0618896484375,13.548217773438,-20.164672851562
0.17,2.8978271484375,16.390991210938,-18.923461914062
0.1705,-1.7467041015625,18.633178710938,-16.801391601562
0.171,-5.4302978515625,20.234741210938,-14.999633789062
0.1715,-8.3131103515625,20.434936523438,-12.477172851562
0.172,-11.436157226562,20.474975585938,-9.6343994140625
0.1725,-14.799438476562,19.794311523438,-5.7506103515625
0.173,-17.562133789062,18.072631835938,-1.4263916015625
0.1735,-19.403930664062,15.950561523438,2.6175537109375
0.174,-20.284790039062,13.828491210938,5.4603271484375
0.1745,-20.525024414062,10.985717773438,8.6234130859375
0.175,-20.164672851562,6.9017333984375,12.387084960938
0.1755,-19.363891601562,3.3382568359375,15.189819335938
0.176,-17.722290039062,-0.9058837890625,17.752319335938
0.1765,-15.800415039062,-4.7896728515625,19.714233398438
0.177,-13.237915039062,-7.5523681640625,20.074584960938
0.1775,-10.555297851562,-10.675415039062,20.474975585938
0.178,-6.0709228515625,-14.238891601562,19.754272460938
