wavelength,x,y,z
0.0,4.8096923828125,14.379028320312,-18.573120117188
0.0005,-0.1551513671875,17.542114257812,-16.851440429688
0.001,-3.9188232421875,19.343872070312,-15.089721679688
0.0015,-6.4813232421875,19.864379882812,-13.608276367188
0.002,-9.2840576171875,20.224731445312,-11.486206054688
0.0025,-12.967651367188,19.423950195312,-7.1619873046875
0.003,-16.050659179688,18.382934570312,-3.1580810546875
0.0035,-18.573120117188,16.501098632812,1.0059814453125
0.004,-20.134643554688,14.739379882812,4.4893798828125
0.0045,-20.134643554688,12.296997070312,6.7716064453125
0.005,-20.174682617188,9.2139892578125,9.9747314453125
0.0055,-19.494018554688,4.9298095703125,13.658325195312
0.006,-18.292846679688,0.4854736328125,16.901489257812
0.0065,-16.330932617188,-3.3582763671875,18.823364257812
0.007,-14.569213867188,-6.0809326171875,19.824340820312
0.0075,-12.086791992188,-8.7635498046875,20.184692382812
0.008,-7.5223388671875,-12.286987304688,19.463989257812
0.0085,-3.3582763671875,-15.690307617188,18.302856445312
0.009,1.4063720703125,-18.252807617188,16.661254882812
0.0095,4.8497314453125,-19.734252929688,14.899536132812
0.01,7.3321533203125,-19.894409179688,12.777465820312
0.0105,10.054809570312,-20.134643554688,10.535278320312
0.011,13.898559570312,-19.213745117188,5.9307861328125
0.0115,16.941528320312,-17.852416992188,1.6466064453125
0.012,18.903442382812,-15.970581054688,-2.1571044921875
0.0125,19.984497070312,-14.088745117188,-5.2000732421875
0.013,19.984497070312,-11.526245117188,-7.6424560546875
0.0135,19.664184570312,-7.6824951171875,-11.205932617188
0.014,18.983520507812,-3.8787841796875,-14.328979492188
0.0145,17.622192382812,0.5655517578125,-17.331909179688
0.015,15.660278320312,4.1290283203125,-19.093627929688
0.0155,13.458129882812,6.6514892578125,-19.453979492188
0.016,11.055786132812,9.5743408203125,-19.614135742188
0.0165,6.0108642578125,13.458129882812,-18.773315429688
0.017,1.5665283203125,16.461059570312,-17.812377929688
0.0175,-2.5174560546875,18.543090820312,-16.010620117188
0.018,-5.6405029296875,19.944458007812,-14.489135742188
0.0185,-8.3231201171875,19.904418945312,-12.046752929688
0.019,-11.326049804688,19.784301757812,-9.1239013671875
0.0195,-14.929565429688,19.023559570312,-4.6795654296875
0.02,-17.972534179688,17.181762695312,-0.1551513671875
0.0205,-19.574096679688,15.339965820312,3.4483642578125
0.021,-20.214721679688,13.217895507812,6.0509033203125
0.0215,-20.374877929688,10.655395507812,8.7735595703125
0.022,-19.734252929688,5.9708251953125,12.897583007812
0.0225,-18.853393554688,2.0069580078125,15.940551757812
0.023,-17.291870117188,-2.1170654296875,18.463012695312
0.0235,-15.410034179688,-5.5604248046875,20.104614257812
0.024,-12.687377929688,-8.0428466796875,20.064575195312
0.0245,-9.6444091796875,-11.245971679688,20.224731445312
0.025,-4.6395263671875,-15.169799804688,19.063598632812
0.0255,0.4854736328125,-18.012573242188,17.301879882812
0.026,4.0089111328125,-19.614135742188,15.620239257812
0.0265,6.9718017578125,-20.575073242188,13.898559570312
0.027,9.7344970703125,-20.535034179688,11.215942382812
0.0275,13.378051757812,-19.814331054688,6.8917236328125
0.028,16.501098632812,-18.773315429688,3.0479736328125
0.0285,19.183715820312,-16.811401367188,-1.5965576171875
0.029,20.384887695312,-14.809448242188,-4.7196044921875
0.0295,20.464965820312,-12.246948242188,-7.3221435546875
0.03,20.464965820312,-9.4442138671875,-10.244995117188
0.0305,19.704223632812,-4.5994873046875,-14.248901367188
0.031,18.302856445312,-0.3153076171875,-17.291870117188
0.0315,16.501098632812,3.4083251953125,-19.133666992188
0.032,14.659301757812,6.4112548828125,-20.535034179688
0.0325,11.616333007812,9.1739501953125,-20.174682617188
0.033,7.4923095703125,12.817504882812,-19.614135742188
0.0335,3.0479736328125,16.140747070312,-18.773315429688
0.034,-2.0770263671875,18.783325195312,-16.651245117188
0.0345,-5.2401123046875,20.024536132812,-14.969604492188
0.035,-7.9627685546875,20.464965820312,-12.967651367188
0.0355,-10.645385742188,20.505004882812,-10.645385742188
0.036,-14.609252929688,19.343872070312,-5.5203857421875
0.0365,-17.612182617188,17.902465820312,-1.2362060546875
0.037,-19.574096679688,16.060668945312,2.6075439453125
0.0375,-20.535034179688,14.098754882812,5.4903564453125
0.038,-20.374877929688,11.215942382812,8.1329345703125
0.0385,-20.134643554688,7.7725830078125,11.496215820312
0.039,-19.373901367188,3.4483642578125,15.059692382812
0.0395,-17.772338867188,-1.1961669921875,17.982543945312
0.04,-15.730346679688,-4.5594482421875,19.423950195312
0.0405,-13.808471679688,-7.2420654296875,20.224731445312
0.041,-10.965698242188,-10.124877929688,20.104614257812
0.0415,-5.8406982421875,-13.808471679688,19.103637695312
0.042,-1.4764404296875,-16.811401367188,17.902465820312
0.0425,2.9678955078125,-19.053588867188,16.020629882812
0.043,5.8907470703125,-20.134643554688,14.338989257812
0.0435,8.6134033203125,-20.174682617188,11.816528320312
0.044,11.416137695312,-20.094604492188,9.1339111328125
0.0445,15.179809570312,-19.053588867188,4.5294189453125
0.045,18.062622070312,-17.171752929688,-0.1951904296875
0.0455,19.504028320312,-15.410034179688,-3.2781982421875
0.046,20.224731445312,-13.448120117188,-6.0408935546875
0.0465,20.064575195312,-10.565307617188,-8.6834716796875
0.047,19.504028320312,-6.2811279296875,-12.487182617188
0.0475,18.783325195312,-2.3172607421875,-15.650268554688
0.048,17.101684570312,1.9268798828125,-18.372924804688
0.0485,15.099731445312,5.0899658203125,-19.494018554688
0.049,12.817504882812,7.7325439453125,-19.894409179688
0.0495,9.6143798828125,10.895629882812,-19.894409179688
0.05,4.4493408203125,14.739379882812,-18.813354492188
0.0505,-0.3553466796875,17.622192382812,-17.171752929688
0.051,-3.8387451171875,19.343872070312,-15.570190429688
0.0515,-6.7215576171875,20.264770507812,-13.728393554688
0.052,-9.6043701171875,20.144653320312,-11.085815429688
0.0525,-12.967651367188,19.664184570312,-7.4022216796875
0.053,-16.370971679688,18.623168945312,-3.1580810546875
0.0535,-19.093627929688,16.621215820312,1.6466064453125
0.054,-20.134643554688,14.739379882812,4.4893798828125
0.0545,-20.575073242188,12.337036132812,7.2921142578125
0.055,-20.494995117188,9.2940673828125,10.214965820312
0.0555,-19.694213867188,4.5294189453125,14.258911132812
0.056,-18.453002929688,0.2852783203125,17.301879882812
0.0565,-16.731323242188,-3.7186279296875,19.504028320312
0.057,-14.689331054688,-6.6014404296875,20.505004882812
0.0575,-11.646362304688,-9.4842529296875,20.424926757812
0.058,-7.8826904296875,-12.887573242188,20.184692382812
0.0585,-2.8377685546875,-16.531127929688,18.903442382812
0.059,2.2872314453125,-19.173706054688,16.701293945312
0.0595,5.3302001953125,-20.374877929688,15.179809570312
0.06,8.2530517578125,-21.015502929688,13.097778320312
0.0605,11.255981445312,-20.735229492188,10.014770507812
0.061,14.939575195312,-19.774291992188,5.5303955078125
0.0615,18.062622070312,-18.372924804688,1.1260986328125
0.062,20.384887695312,-16.330932617188,-3.2381591796875
0.0625,20.945434570312,-14.128784179688,-5.9608154296875
0.063,21.065551757812,-11.245971679688,-8.9637451171875
0.0635,20.705200195312,-7.6024169921875,-12.286987304688
0.064,19.784301757812,-3.0379638671875,-15.970581054688
0.0645,17.982543945312,1.5665283203125,-18.733276367188
0.065,15.980590820312,5.0499267578125,-20.374877929688
0.0655,13.778442382812,8.0128173828125,-21.095581054688
0.066,10.214965820312,11.135864257812,-20.775268554688
0.0665,5.7305908203125,14.739379882812,-19.934448242188
0.067,0.8057861328125,18.062622070312,-18.613159179688
0.0675,-3.9588623046875,20.344848632812,-16.370971679688
0.068,-6.8016357421875,21.025512695312,-14.529174804688
0.0685,-9.7645263671875,21.385864257812,-12.126831054688
0.069,-13.007690429688,20.865356445312,-8.6033935546875
0.0695,-16.651245117188,19.704223632812,-3.8787841796875
0.07,-19.534057617188,17.742309570312,0.8858642578125
0.0705,-21.375854492188,15.700317382812,4.6495361328125
0.071,-21.696166992188,13.297973632812,7.3721923828125
0.0715,-21.536010742188,9.9747314453125,10.575317382812
0.072,-20.815307617188,5.7305908203125,14.098754882812
0.0725,-19.774291992188,1.2462158203125,17.622192382812
0.073,-17.692260742188,-3.4783935546875,20.024536132812
0.0735,-15.530151367188,-6.4412841796875,21.105590820312
0.074,-13.087768554688,-9.3240966796875,21.626098632812
0.0745,-8.9637451171875,-12.767456054688,20.985473632812
0.075,-3.9989013671875,-16.170776367188,19.704223632812
0.0755,0.9659423828125,-19.093627929688,17.942504882812
0.076,5.1700439453125,-21.055541992188,15.940551757812
0.0765,7.8526611328125,-21.375854492188,13.778442382812
0.077,10.815551757812,-21.455932617188,11.135864257812
0.0775,14.379028320312,-20.695190429688,7.0518798828125
0.078,17.742309570312,-19.293823242188,2.4073486328125
0.0785,20.224731445312,-17.171752929688,-2.2371826171875
0.079,21.385864257812,-15.089721679688,-5.4002685546875
0.0795,21.626098632812,-12.527221679688,-8.2030029296875
0.08,21.265747070312,-8.9237060546875,-11.526245117188
0.0805,20.344848632812,-4.5194091796875,-14.969604492188
0.081,19.063598632812,0.0050048828125,-18.212768554688
0.0815,16.941528320312,4.2091064453125,-20.374877929688
0.082,14.579223632812,7.0518798828125,-20.855346679688
0.0825,11.976684570312,9.9346923828125,-21.215698242188
0.083,7.3721923828125,13.698364257812,-20.535034179688
0.0835,2.5274658203125,17.061645507812,-19.213745117188
0.084,-2.2772216796875,19.504028320312,-17.171752929688
0.0845,-5.8406982421875,21.105590820312,-15.450073242188
0.085,-8.6033935546875,21.265747070312,-13.127807617188
0.0855,-11.646362304688,21.105590820312,-10.124877929688
0.086,-15.369995117188,20.224731445312,-5.7606201171875
0.0865,-18.573120117188,18.623168945312,-0.9959716796875
0.087,-20.775268554688,16.461059570312,3.4083251953125
0.0875,-21.455932617188,14.258911132812,6.2110595703125
0.088,-21.736206054688,11.496215820312,9.2540283203125
0.0885,-21.175659179688,7.2520751953125,12.977661132812
0.089,-20.214721679688,2.8878173828125,16.340942382812
0.0895,-18.493041992188,-1.5965576171875,19.143676757812
0.09,-16.531127929688,-5.5203857421875,21.105590820312
0.0905,-13.808471679688,-8.2830810546875,21.265747070312
0.091,-10.845581054688,-11.245971679688,21.345825195312
0.0915,-5.9608154296875,-15.089721679688,20.464965820312
0.092,-0.7156982421875,-18.412963867188,18.783325195312
0.0925,3.8087158203125,-20.454956054688,16.621215820312
0.093,6.8917236328125,-21.536010742188,14.859497070312
0.0935,9.8546142578125,-21.736206054688,12.296997070312
0.094,13.257934570312,-21.135620117188,8.4932861328125
0.0945,16.661254882812,-20.134643554688,4.2091064453125
0.095,19.784301757812,-18.212768554688,-0.7156982421875
0.0955,21.586059570312,-16.010620117188,-4.6395263671875
0.096,21.746215820312,-13.528198242188,-7.3621826171875
0.0965,21.866333007812,-10.565307617188,-10.405151367188
0.097,20.985473632812,-5.8807373046875,-14.449096679688
0.0975,19.904418945312,-1.3563232421875,-17.732299804688
0.098,17.902465820312,2.9278564453125,-19.974487304688
0.0985,15.900512695312,6.4112548828125,-21.536010742188
0.099,12.937622070312,9.2940673828125,-21.576049804688
0.0995,8.9737548828125,12.777465820312,-21.175659179688
0.1,4.3292236328125,16.300903320312,-20.254760742188
0.1005,-1.0760498046875,19.504028320312,-18.292846679688
0.101,-5.1199951171875,21.185668945312,-16.210815429688
0.1015,-7.9627685546875,21.746215820312,-14.128784179688
0.102,-10.925659179688,21.946411132812,-11.606323242188
0.1025,-14.889526367188,20.905395507812,-6.8016357421875
0.103,-18.092651367188,19.584106445312,-2.4373779296875
0.1035,-20.655151367188,17.502075195312,2.2471923828125
0.104,-22.136596679688,15.339965820312,5.7706298828125
0.1045,-22.056518554688,12.497192382812,8.4932861328125
0.105,-21.976440429688,9.0137939453125,11.896606445312
0.1055,-21.015502929688,4.3292236328125,15.660278320312
0.106,-19.534057617188,-0.5155029296875,19.063598632812
0.1065,-17.291870117188,-4.5194091796875,20.865356445312
0.107,-15.169799804688,-7.5623779296875,21.866333007812
0.1075,-12.246948242188,-10.525268554688,22.026489257812
0.108,-7.2420654296875,-14.409057617188,21.065551757812
0.1085,-2.7176513671875,-17.572143554688,19.824340820312
0.109,2.4874267578125,-20.294799804688,17.662231445312
0.1095,6.2510986328125,-21.776245117188,15.700317382812
0.11,8.9737548828125,-21.816284179688,13.137817382812
0.1105,11.936645507812,-21.936401367188,10.535278320312
0.111,16.020629882812,-20.735229492188,5.4503173828125
0.1115,19.223754882812,-18.933471679688,0.6055908203125
0.112,21.105590820312,-16.891479492188,-3.3983154296875
0.1125,22.106567382812,-14.689331054688,-6.5614013671875
0.113,21.906372070312,-11.646362304688,-9.4442138671875
0.1135,21.465942382812,-7.4022216796875,-13.167846679688
0.114,20.505004882812,-3.1981201171875,-16.491088867188
0.1145,18.823364257812,1.6065673828125,-19.574096679688
0.115,16.501098632812,5.4903564453125,-21.175659179688
0.1155,13.938598632812,8.2930908203125,-21.495971679688
0.116,11.135864257812,11.336059570312,-21.816284179688
0.1165,5.5303955078125,15.500122070312,-20.575073242188
0.117,0.7257080078125,18.543090820312,-18.973510742188
0.1175,-3.7186279296875,20.665161132812,-17.011596679688
0.118,-7.0819091796875,21.906372070312,-15.129760742188
0.1185,-10.044799804688,21.746215820312,-12.206909179688
0.119,-13.247924804688,21.425903320312,-8.9237060546875
0.1195,-17.011596679688,20.344848632812,-4.2391357421875
0.12,-20.174682617188,18.222778320312,1.0460205078125
0.1205,-21.656127929688,16.060668945312,4.6094970703125
0.121,-22.256713867188,13.618286132812,7.5323486328125
0.1215,-22.176635742188,10.735473632812,10.455200195312
0.122,-21.335815429688,5.6104736328125,14.739379882812
0.1225,-20.174682617188,1.3663330078125,17.862426757812
0.123,-18.332885742188,-3.1180419921875,20.464965820312
0.1235,-16.130737304688,-6.7615966796875,22.026489257812
0.124,-13.007690429688,-9.6444091796875,21.786254882812
0.1245,-9.6844482421875,-12.807495117188,21.826293945312
0.125,-4.1990966796875,-16.811401367188,20.505004882812
0.1255,1.2862548828125,-19.854370117188,18.382934570312
0.126,5.0899658203125,-21.455932617188,16.421020507812
0.1265,8.2530517578125,-22.336791992188,14.379028320312
0.127,11.215942382812,-22.136596679688,11.376098632812
0.1275,15.019653320312,-21.175659179688,6.8917236328125
0.128,18.302856445312,-20.014526367188,2.5274658203125
0.1285,21.065551757812,-17.772338867188,-2.4774169921875
0.129,22.066528320312,-15.530151367188,-5.7606201171875
0.1295,22.106567382812,-12.567260742188,-8.6434326171875
0.13,22.066528320312,-9.4442138671875,-11.686401367188
0.1305,21.025512695312,-4.3192138671875,-15.850463867188
0.131,19.383911132812,0.4053955078125,-18.893432617188
0.1315,17.301879882812,4.3292236328125,-20.815307617188
0.132,15.139770507812,7.6524658203125,-21.976440429688
0.1325,11.696411132812,10.615356445312,-21.656127929688
0.133,7.4122314453125,14.218872070312,-21.135620117188
0.1335,2.5675048828125,17.742309570312,-19.934448242188
0.134,-2.9178466796875,20.464965820312,-17.572143554688
0.1345,-6.2010498046875,21.626098632812,-15.570190429688
0.135,-9.2039794921875,22.066528320312,-13.247924804688
0.1355,-12.166870117188,21.906372070312,-10.445190429688
0.136,-16.210815429688,20.585083007812,-5.2000732421875
0.1365,-19.293823242188,18.903442382812,-0.5555419921875
0.137,-21.415893554688,16.781372070312,3.5684814453125
0.1375,-22.216674804688,14.539184570312,6.6915283203125
0.138,-21.976440429688,11.296020507812,9.6544189453125
0.1385,-21.656127929688,7.6524658203125,13.057739257812
0.139,-20.695190429688,2.8878173828125,16.821411132812
0.1395,-18.733276367188,-2.0770263671875,19.864379882812
0.14,-16.531127929688,-5.6004638671875,21.185668945312
0.1405,-14.288940429688,-8.6033935546875,22.066528320312
0.141,-10.885620117188,-11.566284179688,21.746215820312
0.1415,-5.6004638671875,-15.530151367188,20.505004882812
0.142,-0.8758544921875,-18.613159179688,19.143676757812
0.1425,3.9688720703125,-20.935424804688,16.941528320312
0.143,7.0518798828125,-21.776245117188,14.859497070312
0.1435,10.054809570312,-21.736206054688,12.136840820312
0.144,13.097778320312,-21.495971679688,8.9737548828125
0.1445,16.901489257812,-20.174682617188,4.0089111328125
0.145,19.824340820312,-18.052612304688,-0.9959716796875
0.1455,21.225708007812,-15.970581054688,-4.3992919921875
0.146,21.786254882812,-13.648315429688,-7.2420654296875
0.1465,21.385864257812,-10.485229492188,-10.004760742188
0.147,20.625122070312,-6.0008544921875,-13.808471679688
0.1475,19.704223632812,-1.7567138671875,-17.091674804688
0.148,17.782348632812,2.8077392578125,-19.734252929688
0.1485,15.500122070312,6.0509033203125,-20.735229492188
0.149,12.857543945312,8.8536376953125,-21.015502929688
0.1495,9.4542236328125,12.096801757812,-20.935424804688
0.15,4.1290283203125,15.940551757812,-19.614135742188
0.1505,-0.7156982421875,18.703247070312,-17.812377929688
0.151,-4.4793701171875,20.464965820312,-16.050659179688
0.1515,-7.3621826171875,21.185668945312,-14.128784179688
0.152,-10.244995117188,20.945434570312,-11.245971679688
0.1525,-13.648315429688,20.344848632812,-7.4022216796875
0.153,-17.051635742188,19.143676757812,-3.0379638671875
0.1535,-19.694213867188,16.981567382812,1.8468017578125
0.154,-20.655151367188,15.019653320312,4.7296142578125
0.1545,-21.015502929688,12.617309570312,7.5323486328125
0.155,-20.815307617188,9.4141845703125,10.455200195312
0.1555,-19.934448242188,4.6495361328125,14.338989257812
0.156,-18.653198242188,0.3653564453125,17.341918945312
0.1565,-16.931518554688,-3.5584716796875,19.584106445312
0.157,-14.849487304688,-6.5213623046875,20.505004882812
0.1575,-11.926635742188,-9.2840576171875,20.464965820312
0.158,-8.1229248046875,-12.687377929688,20.184692382812
0.1585,-3.0780029296875,-16.330932617188,18.943481445312
0.159,1.9268798828125,-18.853393554688,16.781372070312
0.1595,4.8897705078125,-20.094604492188,15.219848632812
0.16,7.7325439453125,-20.775268554688,13.297973632812
0.1605,10.655395507812,-20.494995117188,10.295043945312
0.161,14.218872070312,-19.614135742188,5.9307861328125
0.1615,17.301879882812,-18.252807617188,1.6866455078125
0.162,19.584106445312,-16.290893554688,-2.5574951171875
0.1625,20.184692382812,-14.168823242188,-5.1600341796875
0.163,20.304809570312,-11.526245117188,-8.0028076171875
0.1635,20.064575195312,-8.0428466796875,-11.245971679688
0.164,19.263793945312,-3.5985107421875,-14.889526367188
0.1645,17.622192382812,0.8057861328125,-17.652221679688
0.165,15.980590820312,4.1290283203125,-19.293823242188
0.1655,13.898559570312,6.9718017578125,-20.134643554688
0.166,10.695434570312,9.8546142578125,-19.894409179688
0.1665,6.3311767578125,13.418090820312,-19.253784179688
0.167,1.6065673828125,16.781372070312,-18.092651367188
0.1675,-2.9178466796875,19.023559570312,-16.090698242188
0.168,-5.6004638671875,19.864379882812,-14.449096679688
0.1685,-8.4832763671875,20.344848632812,-12.206909179688
0.169,-11.606323242188,19.984497070312,-9.0438232421875
0.1695,-15.169799804688,18.943481445312,-4.5994873046875
0.17,-17.972534179688,17.301879882812,-0.1551513671875
0.1705,-19.854370117188,15.460083007812,3.4483642578125
0.171,-20.334838867188,13.338012695312,6.0509033203125
0.1715,-20.254760742188,10.375122070312,8.9737548828125
0.172,-19.814331054688,6.3712158203125,12.497192382812
0.1725,-18.973510742188,2.0870361328125,16.020629882812
0.173,-17.171752929688,-2.3172607421875,18.543090820312
0.1735,-15.249877929688,-5.2401123046875,19.704223632812
0.174,-13.087768554688,-8.0428466796875,20.344848632812
0.1745,-9.3240966796875,-11.286010742188,19.944458007812
0.175,-4.6395263671875,-14.769409179688,18.903442382812
0.1755,0.0850830078125,-17.692260742188,17.341918945312
0.176,4.0889892578125,-19.734252929688,15.580200195312
0.1765,6.6915283203125,-20.214721679688,13.658325195312
0.177,9.5343017578125,-20.454956054688,11.215942382812
0.1775,13.057739257812,-19.894409179688,7.4122314453125
0.178,16.380981445312,-18.653198242188,3.0079345703125
