wavelength,x,y,z
0.0,-0.86083984375,-21.64111328125,22.32177734375
0.0005,4.46435546875,-24.48388671875,19.91943359375
0.001,10.27001953125,-26.00537109375,15.71533203125
0.0015,14.99462890625,-25.48486328125,10.51025390625
0.002,18.23779296875,-25.72509765625,7.70751953125
0.0025,21.64111328125,-23.84326171875,2.50244140625
0.003,24.16357421875,-21.92138671875,-2.06201171875
0.0035,25.56494140625,-18.71826171875,-6.74658203125
0.004,26.96630859375,-14.47412109375,-12.51220703125
0.0045,25.60498046875,-9.62939453125,-15.99560546875
0.005,25.52490234375,-6.18603515625,-19.51904296875
0.0055,23.08251953125,-1.38134765625,-21.84130859375
0.006,21.32080078125,3.78369140625,-25.20458984375
0.0065,16.95654296875,9.14892578125,-26.12548828125
0.007,12.23193359375,14.51416015625,-26.80615234375
0.0075,8.62841796875,17.43701171875,-26.12548828125
0.008,3.26318359375,21.12060546875,-24.44384765625
0.0085,-1.46142578125,23.00244140625,-21.76123046875
0.009,-6.70654296875,25.52490234375,-19.19873046875
0.0095,-12.59228515625,26.44580078125,-14.39404296875
0.01,-16.79638671875,25.52490234375,-9.26904296875
0.0105,-19.83935546875,25.64501953125,-6.38623046875
0.011,-22.88232421875,23.24267578125,-0.98095703125
0.0115,-25.32470703125,21.00048828125,3.86376953125
0.012,-26.08544921875,16.99658203125,8.62841796875
0.0125,-27.08642578125,12.71240234375,14.07373046875
0.013,-25.60498046875,8.14794921875,17.19677734375
0.0135,-25.12451171875,4.34423828125,20.64013671875
0.014,-22.36181640625,-0.62060546875,22.76220703125
0.0145,-20.43994140625,-5.90576171875,26.08544921875
0.015,-15.39501953125,-11.15087890625,26.24560546875
0.0155,-10.75048828125,-15.95556640625,26.36572265625
0.016,-7.42724609375,-18.55810546875,25.72509765625
0.0165,-1.50146484375,-22.08154296875,23.32275390625
0.017,3.18310546875,-23.88330078125,20.64013671875
0.0175,8.58837890625,-26.00537109375,17.31689453125
0.018,13.91357421875,-26.48583984375,12.71240234375
0.0185,17.83740234375,-25.32470703125,7.70751953125
0.019,20.80029296875,-25.16455078125,4.62451171875
0.0195,23.56298828125,-22.52197265625,-0.82080078125
0.02,26.12548828125,-20.19970703125,-5.78564453125
0.0205,26.12548828125,-15.55517578125,-10.51025390625
0.021,26.88623046875,-11.51123046875,-15.39501953125
0.0215,25.44482421875,-7.38720703125,-18.19775390625
0.022,24.40380859375,-2.94287109375,-21.64111328125
0.0225,21.68115234375,1.82177734375,-23.56298828125
0.023,19.15869140625,7.42724609375,-26.64599609375
0.0235,13.87353515625,12.43212890625,-26.36572265625
0.024,9.34912109375,16.83642578125,-26.24560546875
0.0245,6.22607421875,19.19873046875,-25.52490234375
0.025,0.14013671875,22.44189453125,-22.76220703125
0.0255,-4.66455078125,24.48388671875,-20.19970703125
0.026,-10.27001953125,25.84521484375,-15.87548828125
0.0265,-14.91455078125,26.24560546875,-11.83154296875
0.027,-18.51806640625,25.00439453125,-7.06689453125
0.0275,-21.32080078125,24.36376953125,-3.66357421875
0.028,-23.68310546875,21.72119140625,1.46142578125
0.0285,-26.24560546875,18.95849609375,6.82666015625
0.029,-25.64501953125,13.79345703125,11.47119140625
0.0295,-26.28564453125,10.10986328125,15.87548828125
0.03,-25.00439453125,6.38623046875,18.39794921875
0.0305,-23.48291015625,1.54150390625,21.80126953125
0.031,-20.84033203125,-3.18310546875,23.80322265625
0.0315,-17.59716796875,-9.02880859375,26.36572265625
0.032,-12.75244140625,-13.47314453125,25.96533203125
0.0325,-8.26806640625,-17.43701171875,25.40478515625
0.033,-4.90478515625,-19.71923828125,24.36376953125
0.0335,1.02099609375,-22.76220703125,21.52099609375
0.034,6.06591796875,-24.92431640625,18.91845703125
0.0345,11.67138671875,-25.36474609375,13.79345703125
0.035,15.63525390625,-25.92529296875,10.47021484375
0.0355,19.07861328125,-24.52392578125,5.74560546875
0.036,21.88134765625,-23.56298828125,1.94189453125
0.0365,24.04345703125,-20.88037109375,-3.06298828125
0.037,26.40576171875,-17.75732421875,-8.62841796875
0.0375,25.36474609375,-12.51220703125,-12.87255859375
0.038,25.84521484375,-9.06884765625,-16.83642578125
0.0385,24.44384765625,-5.38525390625,-19.19873046875
0.039,22.68212890625,-0.26025390625,-22.60205078125
0.0395,19.87939453125,4.66455078125,-24.64404296875
0.04,15.67529296875,10.55029296875,-26.28564453125
0.0405,11.43115234375,14.39404296875,-25.96533203125
0.041,7.02685546875,18.11767578125,-25.16455078125
0.0415,3.22314453125,20.19970703125,-23.68310546875
0.042,-2.30224609375,23.08251953125,-21.04052734375
0.0425,-7.78759765625,25.32470703125,-17.87744140625
0.043,-13.07275390625,25.00439453125,-12.43212890625
0.0435,-16.63623046875,25.56494140625,-9.46923828125
0.044,-19.79931640625,24.04345703125,-4.82470703125
0.0445,-22.40185546875,22.56201171875,-0.78076171875
0.045,-24.28369140625,19.75927734375,4.02392578125
0.0455,-26.08544921875,15.99560546875,9.66943359375
0.046,-25.00439453125,11.03076171875,13.63330078125
0.0465,-25.24462890625,7.66748046875,17.31689453125
0.047,-23.60302734375,3.98388671875,19.39892578125
0.0475,-21.76123046875,-1.22119140625,22.72216796875
0.048,-18.59814453125,-6.26611328125,24.60400390625
0.0485,-13.99365234375,-11.79150390625,25.48486328125
0.049,-10.51025390625,-15.15478515625,25.32470703125
0.0495,-5.82568359375,-18.59814453125,24.04345703125
0.05,-1.70166015625,-20.60009765625,22.08154296875
0.0505,3.34326171875,-23.04248046875,19.67919921875
0.051,9.14892578125,-25.04443359375,15.95556640625
0.0515,13.63330078125,-24.32373046875,10.83056640625
0.052,17.07666015625,-24.84423828125,7.98779296875
0.0525,19.87939453125,-23.20263671875,3.58349609375
0.053,22.52197265625,-21.52099609375,-0.86083984375
0.0535,24.08349609375,-18.55810546875,-5.38525390625
0.054,25.36474609375,-14.51416015625,-10.87060546875
0.0545,24.48388671875,-10.27001953125,-14.23388671875
0.055,24.36376953125,-6.74658203125,-17.67724609375
0.0555,22.52197265625,-2.94287109375,-19.71923828125
0.056,20.80029296875,1.94189453125,-22.80224609375
0.0565,17.11669921875,7.38720703125,-24.60400390625
0.057,12.43212890625,12.31201171875,-24.80419921875
0.0575,9.46923828125,15.39501953125,-25.00439453125
0.058,4.74462890625,18.51806640625,-23.32275390625
0.0585,0.50048828125,20.68017578125,-21.32080078125
0.059,-4.18408203125,22.92236328125,-18.95849609375
0.0595,-10.18994140625,24.60400390625,-14.79443359375
0.06,-14.07373046875,23.68310546875,-10.06982421875
0.0605,-17.35693359375,24.12353515625,-7.34716796875
0.061,-19.75927734375,22.28173828125,-3.10302734375
0.0615,-22.44189453125,20.56005859375,1.42138671875
0.062,-23.68310546875,17.15673828125,6.06591796875
0.0625,-24.60400390625,12.95263671875,11.31103515625
0.063,-24.04345703125,9.42919921875,14.31396484375
0.0635,-23.44287109375,5.54541015625,17.71728515625
0.064,-21.68115234375,1.78173828125,19.71923828125
0.0645,-19.91943359375,-3.06298828125,22.76220703125
0.065,-15.87548828125,-8.66845703125,24.20361328125
0.0655,-11.23095703125,-12.99267578125,23.84326171875
0.066,-8.62841796875,-15.95556640625,24.24365234375
0.0665,-3.54345703125,-18.79833984375,22.04150390625
0.067,0.82080078125,-21.12060546875,20.19970703125
0.0675,5.62548828125,-22.92236328125,17.31689453125
0.068,11.19091796875,-24.28369140625,13.15283203125
0.0685,14.71435546875,-23.32275390625,8.78857421875
0.069,18.07763671875,-23.56298828125,5.74560546875
0.0695,20.35986328125,-21.52099609375,1.42138671875
0.07,23.12255859375,-19.71923828125,-3.22314453125
0.0705,23.68310546875,-15.75537109375,-7.90771484375
0.071,24.28369140625,-11.63134765625,-12.67236328125
0.0715,23.92333984375,-8.66845703125,-15.39501953125
0.072,22.76220703125,-4.14404296875,-18.71826171875
0.0725,20.88037109375,-0.30029296875,-20.80029296875
0.073,18.55810546875,4.74462890625,-23.40283203125
0.0735,14.27392578125,10.06982421875,-24.52392578125
0.074,9.74951171875,13.99365234375,-23.76318359375
0.0745,7.10693359375,16.83642578125,-24.04345703125
0.075,1.86181640625,19.43896484375,-21.44091796875
0.0755,-2.62255859375,21.96142578125,-19.59912109375
0.076,-7.54736328125,23.00244140625,-15.83544921875
0.0765,-12.55224609375,24.08349609375,-11.91162109375
0.077,-15.67529296875,23.12255859375,-8.02783203125
0.0775,-18.91845703125,22.76220703125,-4.42431640625
0.078,-20.76025390625,20.60009765625,-0.42041015625
0.0785,-23.36279296875,18.43798828125,4.50439453125
0.079,-23.44287109375,14.07373046875,8.98876953125
0.0795,-23.68310546875,10.02978515625,13.31298828125
0.08,-23.56298828125,7.50732421875,15.79541015625
0.0805,-21.80126953125,2.70263671875,18.87841796875
0.081,-19.99951171875,-1.30126953125,21.08056640625
0.0815,-17.03662109375,-6.34619140625,23.00244140625
0.082,-13.15283203125,-11.07080078125,24.00341796875
0.0825,-8.74853515625,-14.51416015625,22.96240234375
0.083,-5.74560546875,-17.23681640625,22.72216796875
0.0835,-0.86083984375,-19.47900390625,20.11962890625
0.084,3.82373046875,-22.24169921875,18.39794921875
0.0845,8.66845703125,-22.52197265625,13.87353515625
0.085,13.07275390625,-23.40283203125,10.43017578125
0.0855,15.95556640625,-22.76220703125,7.06689453125
0.086,18.99853515625,-21.84130859375,3.06298828125
0.0865,20.88037109375,-19.71923828125,-0.98095703125
0.087,23.08251953125,-17.23681640625,-5.74560546875
0.0875,23.12255859375,-13.07275390625,-10.06982421875
0.088,23.00244140625,-9.18896484375,-13.87353515625
0.0885,22.92236328125,-6.82666015625,-16.27587890625
0.089,20.88037109375,-1.98193359375,-19.11865234375
0.0895,19.27880859375,2.26220703125,-21.76123046875
0.09,15.31494140625,7.34716796875,-22.72216796875
0.0905,11.99169921875,11.67138671875,-23.76318359375
0.091,7.94775390625,14.79443359375,-22.76220703125
0.0915,4.42431640625,17.59716796875,-22.08154296875
0.092,-0.18017578125,19.67919921875,-19.67919921875
0.0925,-5.14501953125,22.44189453125,-17.63720703125
0.093,-9.86962890625,22.32177734375,-12.87255859375
0.0935,-13.83349609375,22.92236328125,-9.54931640625
0.094,-16.39599609375,22.44189453125,-6.58642578125
0.0945,-19.31884765625,21.08056640625,-2.30224609375
0.095,-21.28076171875,18.91845703125,1.94189453125
0.0955,-22.76220703125,15.63525390625,6.74658203125
0.096,-23.04248046875,11.83154296875,10.87060546875
0.0965,-22.60205078125,7.98779296875,14.31396484375
0.097,-22.36181640625,5.34521484375,16.75634765625
0.0975,-20.31982421875,0.58056640625,19.51904296875
0.098,-18.51806640625,-4.14404296875,22.40185546875
0.0985,-13.83349609375,-8.98876953125,22.56201171875
0.099,-10.87060546875,-12.87255859375,23.48291015625
0.0995,-6.94677734375,-15.75537109375,22.44189453125
0.1,-2.70263671875,-18.55810546875,21.00048828125
0.1005,1.66162109375,-20.47998046875,18.71826171875
0.101,7.10693359375,-23.00244140625,15.87548828125
0.1015,11.31103515625,-22.60205078125,11.39111328125
0.102,15.19482421875,-22.92236328125,7.94775390625
0.1025,17.63720703125,-22.28173828125,4.86474609375
0.103,20.47998046875,-20.56005859375,0.26025390625
0.1035,22.44189453125,-18.19775390625,-4.22412109375
0.104,23.24267578125,-14.15380859375,-9.10888671875
0.1045,23.56298828125,-10.91064453125,-12.71240234375
0.105,22.76220703125,-6.90673828125,-15.99560546875
0.1055,21.84130859375,-3.58349609375,-18.51806640625
0.106,19.87939453125,1.14111328125,-21.04052734375
0.1065,17.15673828125,6.54638671875,-23.76318359375
0.107,12.23193359375,10.95068359375,-23.28271484375
0.1075,9.42919921875,14.47412109375,-23.96337890625
0.108,5.30517578125,17.15673828125,-22.52197265625
0.1085,0.62060546875,19.95947265625,-20.76025390625
0.109,-3.74365234375,21.80126953125,-18.31787109375
0.1095,-9.54931640625,23.64306640625,-14.47412109375
0.11,-13.11279296875,23.04248046875,-10.39013671875
0.1105,-16.87646484375,23.04248046875,-6.70654296875
0.111,-19.03857421875,21.84130859375,-3.38330078125
0.1115,-21.64111328125,19.91943359375,1.22119140625
0.112,-23.32275390625,16.91650390625,6.02587890625
0.1125,-23.40283203125,12.31201171875,10.63037109375
0.113,-23.68310546875,9.50927734375,13.91357421875
0.1135,-22.60205078125,5.34521484375,16.95654296875
0.114,-21.28076171875,1.58154296875,19.47900390625
0.1145,-19.15869140625,-2.86279296875,21.76123046875
0.115,-15.79541015625,-8.46826171875,24.00341796875
0.1155,-11.03076171875,-12.31201171875,23.08251953125
0.116,-8.06787109375,-15.75537109375,23.56298828125
0.1165,-3.78369140625,-18.07763671875,21.60107421875
0.117,0.90087890625,-20.76025390625,19.75927734375
0.1175,5.42529296875,-22.32177734375,16.91650390625
0.118,10.83056640625,-23.40283203125,12.63232421875
0.1185,14.11376953125,-23.04248046875,9.10888671875
0.119,17.67724609375,-22.64208984375,5.18505859375
0.1195,19.71923828125,-21.16064453125,1.66162109375
0.12,22.08154296875,-19.19873046875,-2.74267578125
0.1205,23.48291015625,-15.83544921875,-7.62744140625
0.121,23.04248046875,-11.27099609375,-11.83154296875
0.1215,23.48291015625,-8.82861328125,-14.79443359375
0.122,21.92138671875,-4.42431640625,-17.63720703125
0.1225,20.60009765625,-0.50048828125,-20.23974609375
0.123,18.11767578125,3.98388671875,-22.16162109375
0.1235,14.27392578125,9.54931640625,-23.88330078125
0.124,10.02978515625,12.91259765625,-23.04248046875
0.1245,6.82666015625,16.27587890625,-23.20263671875
0.125,2.74267578125,18.23779296875,-21.08056640625
0.1255,-1.90185546875,21.00048828125,-19.35888671875
0.126,-6.70654296875,22.36181640625,-15.99560546875
0.1265,-11.67138671875,22.88232421875,-11.59130859375
0.127,-14.59423828125,22.84228515625,-8.78857421875
0.1275,-17.95751953125,21.92138671875,-4.54443359375
0.128,-19.87939453125,20.43994140625,-1.14111328125
0.1285,-21.96142578125,18.23779296875,3.22314453125
0.129,-23.20263671875,14.47412109375,8.30810546875
0.1295,-22.56201171875,10.10986328125,12.11181640625
0.13,-23.08251953125,7.74755859375,15.07470703125
0.1305,-21.28076171875,3.42333984375,17.67724609375
0.131,-20.07958984375,-0.70068359375,20.56005859375
0.1315,-17.03662109375,-5.30517578125,22.08154296875
0.132,-13.19287109375,-10.55029296875,23.48291015625
0.1325,-9.34912109375,-13.59326171875,22.72216796875
0.133,-5.62548828125,-16.95654296875,22.28173828125
0.1335,-1.50146484375,-18.83837890625,20.11962890625
0.134,3.06298828125,-21.64111328125,18.47802734375
0.1345,8.18798828125,-22.52197265625,14.35400390625
0.135,12.59228515625,-22.76220703125,10.22998046875
0.1355,15.55517578125,-23.00244140625,7.66748046875
0.136,18.79833984375,-21.64111328125,3.02294921875
0.1365,20.96044921875,-19.95947265625,-0.94091796875
0.137,22.56201171875,-17.31689453125,-5.26513671875
0.1375,23.56298828125,-13.47314453125,-10.18994140625
0.138,22.76220703125,-9.22900390625,-13.63330078125
0.1385,23.04248046875,-6.46630859375,-16.71630859375
0.139,20.88037109375,-1.94189453125,-19.15869140625
0.1395,19.55908203125,2.62255859375,-22.28173828125
0.14,15.51513671875,7.38720703125,-23.00244140625
0.1405,11.71142578125,12.15185546875,-23.96337890625
0.141,8.22802734375,15.07470703125,-23.36279296875
0.1415,3.74365234375,18.39794921875,-22.20166015625
0.142,-0.62060546875,20.23974609375,-19.83935546875
0.1425,-5.46533203125,22.88232421875,-17.71728515625
0.143,-10.47021484375,23.28271484375,-13.19287109375
0.1435,-14.47412109375,23.04248046875,-9.06884765625
0.144,-17.31689453125,23.12255859375,-6.38623046875
0.1445,-20.15966796875,21.20068359375,-1.62158203125
0.145,-22.44189453125,19.19873046875,2.74267578125
0.1455,-23.32275390625,15.59521484375,7.18701171875
0.146,-24.04345703125,11.91162109375,11.83154296875
0.1465,-23.04248046875,7.82763671875,14.99462890625
0.147,-22.80224609375,4.54443359375,18.03759765625
0.1475,-20.39990234375,-0.10009765625,20.27978515625
0.148,-18.75830078125,-4.94482421875,23.40283203125
0.1485,-14.07373046875,-9.62939453125,23.40283203125
0.149,-10.31005859375,-13.87353515625,23.92333984375
0.1495,-7.02685546875,-16.47607421875,23.24267578125
0.15,-1.86181640625,-19.67919921875,21.28076171875
0.1505,2.42236328125,-21.48095703125,18.91845703125
0.151,7.66748046875,-23.56298828125,15.91552734375
0.1515,12.11181640625,-23.68310546875,11.67138671875
0.152,15.91552734375,-23.16259765625,7.42724609375
0.1525,18.55810546875,-23.00244140625,4.54443359375
0.153,21.20068359375,-20.84033203125,-0.30029296875
0.1535,23.56298828125,-18.63818359375,-4.94482421875
0.154,23.68310546875,-14.27392578125,-9.30908203125
0.1545,24.32373046875,-10.87060546875,-13.47314453125
0.155,23.20263671875,-6.98681640625,-16.35595703125
0.1555,22.36181640625,-3.06298828125,-19.47900390625
0.156,19.99951171875,1.42138671875,-21.48095703125
0.1565,17.51708984375,6.78662109375,-24.36376953125
0.157,12.67236328125,11.19091796875,-23.96337890625
0.1575,8.94873046875,15.07470703125,-24.08349609375
0.158,5.74560546875,17.47705078125,-23.32275390625
0.1585,0.38037109375,20.47998046875,-21.04052734375
0.159,-4.02392578125,22.44189453125,-18.71826171875
0.1595,-9.54931640625,23.76318359375,-14.59423828125
0.16,-13.43310546875,23.96337890625,-10.95068359375
0.1605,-17.03662109375,23.12255859375,-6.62646484375
0.161,-19.59912109375,22.44189453125,-3.42333984375
0.1615,-21.84130859375,20.19970703125,1.10107421875
0.162,-24.20361328125,17.51708984375,6.26611328125
0.1625,-23.68310546875,12.71240234375,10.55029296875
0.163,-24.24365234375,9.58935546875,14.39404296875
0.1635,-23.08251953125,5.78564453125,17.03662109375
0.164,-21.80126953125,1.42138671875,20.19970703125
0.1645,-19.51904296875,-2.98291015625,22.24169921875
0.165,-16.23583984375,-8.62841796875,24.60400390625
0.1655,-11.71142578125,-12.51220703125,24.00341796875
0.166,-7.86767578125,-16.27587890625,23.84326171875
0.1665,-4.18408203125,-18.55810546875,22.56201171875
0.167,0.98095703125,-21.40087890625,20.31982421875
0.1675,5.82568359375,-23.44287109375,17.63720703125
0.168,11.19091796875,-23.96337890625,12.83251953125
0.1685,14.75439453125,-24.28369140625,9.66943359375
0.169,18.39794921875,-23.32275390625,5.06494140625
0.1695,20.92041015625,-22.16162109375,1.34130859375
0.17,23.00244140625,-19.71923828125,-3.14306640625
0.1705,25.04443359375,-16.51611328125,-8.46826171875
0.171,24.08349609375,-11.55126953125,-12.55224609375
0.1715,24.64404296875,-8.58837890625,-16.15576171875
0.172,23.08251953125,-4.38427734375,-18.83837890625
0.1725,21.52099609375,0.38037109375,-21.96142578125
0.173,18.75830078125,4.90478515625,-23.72314453125
0.1735,14.67431640625,10.71044921875,-25.44482421875
0.174,10.51025390625,14.23388671875,-24.80419921875
0.1745,6.26611328125,18.03759765625,-24.36376953125
0.175,2.14208984375,20.11962890625,-22.40185546875
0.1755,-2.98291015625,22.84228515625,-20.11962890625
0.176,-8.18798828125,24.60400390625,-16.75634765625
0.1765,-13.31298828125,24.40380859375,-11.55126953125
0.177,-16.63623046875,24.68408203125,-8.66845703125
0.1775,-20.15966796875,23.20263671875,-3.70361328125
0.178,-22.40185546875,21.60107421875,0.30029296875
0.1785,-24.08349609375,18.87841796875,4.78466796875
0.179,-25.68505859375,15.03466796875,10.27001953125
0.1795,-24.48388671875,10.06982421875,14.11376953125
0.18,-24.76416015625,6.98681640625,17.59716796875
0.1805,-22.72216796875,2.42236328125,20.03955078125
0.181,-21.08056640625,-2.30224609375,23.12255859375
0.1815,-17.67724609375,-7.06689453125,24.52392578125
0.182,-13.23291015625,-12.59228515625,25.56494140625
0.1825,-9.30908203125,-15.75537109375,24.80419921875
0.183,-4.58447265625,-19.39892578125,23.72314453125
0.1835,-0.22021484375,-21.28076171875,21.36083984375
0.184,4.66455078125,-23.84326171875,19.11865234375
0.1845,10.18994140625,-25.08447265625,14.95458984375
0.185,14.75439453125,-24.52392578125,9.90966796875
0.1855,17.87744140625,-24.80419921875,7.06689453125
0.186,21.20068359375,-22.88232421875,1.94189453125
0.1865,23.56298828125,-21.00048828125,-2.38232421875
0.187,24.72412109375,-17.87744140625,-6.74658203125
0.1875,25.88525390625,-13.79345703125,-12.11181640625
0.188,24.56396484375,-9.14892578125,-15.51513671875
0.1885,24.52392578125,-5.74560546875,-18.91845703125
0.189,22.12158203125,-1.14111328125,-21.16064453125
0.1895,20.52001953125,3.66357421875,-24.32373046875
0.19,16.27587890625,8.70849609375,-25.04443359375
0.1905,11.75146484375,13.75341796875,-25.56494140625
0.191,8.30810546875,16.71630859375,-25.08447265625
