wavelength,x,y,z
0.0,4.5994873046875,14.729370117188,-18.903442382812
0.0005,0.0350341796875,17.291870117188,-17.261840820312
0.001,-3.8087158203125,19.293823242188,-15.540161132812
0.0015,-6.6915283203125,19.854370117188,-13.458129882812
0.002,-9.6944580078125,19.934448242188,-10.855590820312
0.0025,-13.297973632812,19.413940429688,-6.9317626953125
0.003,-16.380981445312,18.252807617188,-2.7677001953125
0.0035,-18.663208007812,16.370971679688,1.3563232421875
0.004,-20.024536132812,14.569213867188,4.4793701171875
0.0045,-20.464965820312,11.966674804688,7.5223388671875
0.005,-20.344848632812,8.3631591796875,11.005737304688
0.0055,-19.744262695312,4.5194091796875,14.208862304688
0.006,-18.583129882812,0.5555419921875,17.091674804688
0.0065,-16.821411132812,-3.4083251953125,19.253784179688
0.007,-14.659301757812,-6.2911376953125,19.974487304688
0.0075,-12.056762695312,-9.2540283203125,20.454956054688
0.008,-6.4112548828125,-13.017700195312,19.934448242188
0.0085,-3.0880126953125,-16.140747070312,18.613159179688
0.009,1.3963623046875,-18.262817382812,16.731323242188
0.0095,4.8397216796875,-19.904418945312,15.169799804688
0.01,7.8026123046875,-20.264770507812,12.687377929688
0.0105,10.965698242188,-20.064575195312,9.6043701171875
0.011,14.449096679688,-19.423950195312,5.7205810546875
0.0115,17.452026367188,-17.982543945312,1.3162841796875
0.012,19.494018554688,-16.020629882812,-2.6075439453125
0.0125,20.334838867188,-13.938598632812,-5.5303955078125
0.013,20.615112304688,-11.135864257812,-8.6534423828125
0.0135,20.294799804688,-7.0919189453125,-12.377075195312
0.014,19.574096679688,-3.2882080078125,-15.500122070312
0.0145,18.052612304688,0.6356201171875,-17.902465820312
0.015,16.411010742188,4.2791748046875,-19.904418945312
0.0155,13.768432617188,7.1619873046875,-20.264770507812
0.016,10.805541992188,11.526245117188,-20.384887695312
0.0165,6.2410888671875,13.968627929688,-19.824340820312
0.017,1.3963623046875,17.091674804688,-18.182739257812
0.0175,-2.7276611328125,18.933471679688,-16.340942382812
0.018,-5.8106689453125,20.134643554688,-14.619262695312
0.0185,-8.9337158203125,20.414916992188,-11.976684570312
0.019,-12.377075195312,19.854370117188,-8.2130126953125
0.0195,-15.540161132812,19.053588867188,-4.3692626953125
0.02,-18.302856445312,17.291870117188,0.0350341796875
0.0205,-20.184692382812,16.651245117188,3.7186279296875
0.021,-19.223754882812,12.927612304688,6.6014404296875
0.0215,-20.825317382812,10.044799804688,9.7244873046875
0.022,-20.304809570312,5.7205810546875,13.528198242188
0.0225,-19.343872070312,1.7567138671875,16.611206054688
0.023,-17.582153320312,-2.0069580078125,18.613159179688
0.0235,-15.900512695312,-5.3302001953125,20.294799804688
0.024,-13.097778320312,-8.3331298828125,20.535034179688
0.0245,-9.4141845703125,-11.696411132812,20.174682617188
0.025,-5.0899658203125,-14.979614257812,19.453979492188
0.0255,1.2762451171875,-17.822387695312,17.532104492188
0.026,5.1199951171875,-19.584106445312,15.690307617188
0.0265,6.7215576171875,-20.224731445312,13.688354492188
0.027,9.7244873046875,-19.223754882812,11.205932617188
0.0275,13.568237304688,-19.704223632812,6.7615966796875
0.028,16.411010742188,-18.583129882812,2.9178466796875
0.0285,18.733276367188,-16.861450195312,-1.1260986328125
0.029,20.414916992188,-14.899536132812,-4.4493408203125
0.0295,20.454956054688,-12.136840820312,-7.4122314453125
0.03,20.454956054688,-8.8536376953125,-10.735473632812
0.0305,19.974487304688,-4.8897705078125,-14.258911132812
0.031,18.773315429688,-0.7657470703125,-17.181762695312
0.0315,16.851440429688,2.9178466796875,-18.983520507812
0.032,14.969604492188,5.9207763671875,-20.144653320312
0.0325,12.166870117188,8.9237060546875,-20.545043945312
0.033,7.5623779296875,14.088745117188,-19.864379882812
0.0335,3.5584716796875,15.730346679688,-18.943481445312
0.034,-1.1661376953125,18.212768554688,-16.981567382812
0.0345,-4.7296142578125,19.854370117188,-15.259887695312
0.035,-7.6524658203125,19.974487304688,-12.777465820312
0.0355,-10.575317382812,20.174682617188,-8.9737548828125
0.036,-14.459106445312,19.373901367188,-5.7305908203125
0.0365,-17.381958007812,17.772338867188,-1.4464111328125
0.037,-19.303833007812,15.970581054688,2.2772216796875
0.0375,-20.585083007812,14.048706054688,5.5203857421875
0.038,-20.705200195312,11.125854492188,8.5233154296875
0.0385,-19.223754882812,7.2020263671875,12.206909179688
0.039,-19.864379882812,3.5184326171875,15.329956054688
0.0395,-18.463012695312,-0.7257080078125,18.052612304688
0.04,-16.541137695312,-4.3692626953125,19.894409179688
0.0405,-14.138793945312,-7.2520751953125,20.414916992188
0.041,-11.496215820312,-10.214965820312,20.815307617188
0.0415,-6.2510986328125,-14.298950195312,19.854370117188
0.042,-1.7667236328125,-17.061645507812,18.412963867188
0.0425,2.3973388671875,-19.103637695312,16.611206054688
0.043,5.8807373046875,-20.545043945312,14.849487304688
0.0435,9.0037841796875,-19.223754882812,11.806518554688
0.044,12.166870117188,-20.264770507812,8.6033935546875
0.0445,15.730346679688,-19.504028320312,4.4793701171875
0.045,18.533081054688,-17.582153320312,-0.1651611328125
0.0455,20.174682617188,-15.740356445312,-3.5684814453125
0.046,20.895385742188,-13.338012695312,-6.6915283203125
0.0465,21.055541992188,-10.455200195312,-9.6944580078125
0.047,21.776245117188,-5.8106689453125,-13.818481445312
0.0475,19.574096679688,-2.1270751953125,-15.380004882812
0.048,18.012573242188,1.9168701171875,-18.983520507812
0.0485,16.010620117188,5.4002685546875,-20.785278320312
0.049,13.007690429688,8.5633544921875,-20.785278320312
0.0495,9.8446044921875,11.766479492188,-20.945434570312
0.05,4.8397216796875,15.610229492188,-19.984497070312
0.0505,-0.2852783203125,18.332885742188,-16.661254882812
0.051,-2.5675048828125,19.974487304688,-16.100708007812
0.0515,-7.1719970703125,21.055541992188,-14.178833007812
0.052,-10.335083007812,20.855346679688,-11.095825195312
0.0525,-14.058715820312,20.134643554688,-6.8116455078125
0.053,-17.181762695312,19.093627929688,-2.8878173828125
0.0535,-19.664184570312,17.091674804688,1.6365966796875
0.054,-21.105590820312,15.049682617188,4.9998779296875
0.0545,-21.345825195312,12.086791992188,8.1629638671875
0.055,-21.425903320312,9.0838623046875,11.286010742188
0.0555,-20.665161132812,4.4393310546875,15.329956054688
0.056,-17.942504882812,0.1551513671875,18.052612304688
0.0565,-17.582153320312,-3.5684814453125,19.934448242188
0.057,-15.540161132812,-6.8516845703125,21.455932617188
0.0575,-12.096801757812,-9.9747314453125,21.215698242188
0.058,-8.0128173828125,-13.458129882812,20.815307617188
0.0585,-3.4483642578125,-16.861450195312,19.734252929688
0.059,1.7567138671875,-19.423950195312,17.452026367188
0.0595,5.1600341796875,-20.665161132812,15.570190429688
0.06,8.4432373046875,-21.225708007812,13.127807617188
0.0605,12.807495117188,-21.145629882812,10.164916992188
0.061,15.490112304688,-20.144653320312,5.4002685546875
0.0615,18.372924804688,-18.663208007812,1.1561279296875
0.062,20.414916992188,-16.741333007812,-2.8477783203125
0.0625,21.536010742188,-14.579223632812,-6.0509033203125
0.063,21.455932617188,-11.215942382812,-9.2940673828125
0.0635,21.335815429688,-7.7325439453125,-12.737426757812
0.064,20.655151367188,-3.5284423828125,-16.260864257812
0.0645,18.893432617188,0.9559326171875,-18.983520507812
0.065,16.891479492188,4.4793701171875,-20.464965820312
0.0655,14.609252929688,8.9637451171875,-21.505981445312
0.066,11.165893554688,10.845581054688,-21.345825195312
0.0665,6.0809326171875,14.769409179688,-20.424926757812
0.067,1.5965576171875,17.732299804688,-19.183715820312
0.0675,-3.0079345703125,20.014526367188,-17.021606445312
0.068,-6.2911376953125,21.095581054688,-15.059692382812
0.0685,-9.6944580078125,21.175659179688,-12.056762695312
0.069,-12.857543945312,21.015502929688,-8.9337158203125
0.0695,-16.621215820312,19.894409179688,-4.2091064453125
0.07,-19.423950195312,19.213745117188,0.5555419921875
0.0705,-21.145629882812,15.970581054688,4.0389404296875
0.071,-21.946411132812,13.568237304688,7.3221435546875
0.0715,-21.666137695312,10.204956054688,10.525268554688
0.072,-21.145629882812,5.9207763671875,14.248901367188
0.0725,-20.464965820312,1.9168701171875,17.411987304688
0.073,-18.503051757812,-1.2862548828125,20.014526367188
0.0735,-16.300903320312,-5.8907470703125,21.215698242188
0.074,-13.498168945312,-9.0538330078125,21.736206054688
0.0745,-10.014770507812,-12.337036132812,21.576049804688
0.075,-4.5294189453125,-16.300903320312,20.214721679688
0.0755,0.2752685546875,-18.943481445312,18.332885742188
0.076,4.1590576171875,-20.825317382812,16.491088867188
0.0765,7.5623779296875,-21.626098632812,14.208862304688
0.077,11.005737304688,-21.345825195312,10.885620117188
0.0775,14.328979492188,-20.825317382812,7.2020263671875
0.078,17.732299804688,-19.624145507812,2.7576904296875
0.0785,20.334838867188,-17.381958007812,-2.0069580078125
0.079,21.455932617188,-15.420043945312,-5.1700439453125
0.0795,22.136596679688,-12.537231445312,-8.5333251953125
0.08,21.816284179688,-9.0137939453125,-11.856567382812
0.0805,20.895385742188,-4.6094970703125,-15.580200195312
0.081,19.734252929688,-0.4854736328125,-18.422973632812
0.0815,17.852416992188,3.6785888671875,-20.665161132812
0.082,15.410034179688,7.0018310546875,-21.586059570312
0.0825,12.166870117188,10.325073242188,-21.666137695312
0.083,8.2030029296875,13.768432617188,-21.505981445312
0.0835,3.1580810546875,17.371948242188,-20.064575195312
0.084,-2.0069580078125,19.694213867188,-17.782348632812
0.0845,-5.3702392578125,21.135620117188,-15.980590820312
0.085,-8.6934814453125,23.057495117188,-13.498168945312
0.0855,-12.096801757812,21.375854492188,-9.9747314453125
0.086,-15.700317382812,21.776245117188,-5.6905517578125
0.0865,-18.903442382812,18.973510742188,-1.2061767578125
0.087,-21.145629882812,16.771362304688,3.3582763671875
0.0875,-21.946411132812,14.409057617188,6.4412841796875
0.088,-22.306762695312,11.326049804688,9.9246826171875
0.0885,-22.106567382812,7.4022216796875,13.488159179688
0.089,-21.145629882812,3.0379638671875,17.091674804688
0.0895,-19.343872070312,-1.3262939453125,19.614135742188
0.09,-17.542114257812,-5.0899658203125,21.576049804688
0.0905,-14.899536132812,-8.3331298828125,22.256713867188
0.091,-11.135864257812,-11.496215820312,21.976440429688
0.0915,-6.6915283203125,-15.219848632812,21.255737304688
0.092,-1.4464111328125,-18.463012695312,19.694213867188
0.0925,3.3182373046875,-20.705200195312,17.291870117188
0.093,6.5614013671875,-21.746215820312,15.329956054688
0.0935,9.9647216796875,-22.106567382812,12.527221679688
0.094,13.488159179688,-21.505981445312,8.6434326171875
0.0945,17.131713867188,-20.384887695312,4.2391357421875
0.095,19.774291992188,-18.623168945312,-0.3253173828125
0.0955,21.736206054688,-16.501098632812,-4.3692626953125
0.096,22.216674804688,-13.858520507812,-7.5723876953125
0.0965,22.376831054688,-10.415161132812,-11.055786132812
0.097,23.057495117188,-6.1309814453125,-14.739379882812
0.0975,20.815307617188,-1.8468017578125,-18.062622070312
0.098,18.733276367188,3.8387451171875,-20.264770507812
0.0985,17.932495117188,5.9207763671875,-20.505004882812
0.099,13.808471679688,9.1239013671875,-22.426879882812
0.0995,9.5643310546875,12.727416992188,-21.826293945312
0.1,6.4012451171875,16.290893554688,-20.825317382812
0.1005,-0.1251220703125,20.494995117188,-18.983520507812
0.101,-4.5694580078125,21.255737304688,-16.781372070312
0.1015,-6.4112548828125,21.816284179688,-14.459106445312
0.102,-11.095825195312,22.056518554688,-10.255004882812
0.1025,-14.819458007812,21.175659179688,-7.2921142578125
0.103,-18.222778320312,19.894409179688,-2.7677001953125
0.1035,-20.785278320312,17.812377929688,1.8367919921875
0.104,-22.266723632812,15.650268554688,5.4403076171875
0.1045,-22.587036132812,12.727416992188,8.6434326171875
0.105,-22.466918945312,9.0037841796875,12.286987304688
0.1055,-21.666137695312,4.7996826171875,15.810424804688
0.106,-20.384887695312,0.3553466796875,19.053588867188
0.1065,-18.262817382812,-4.0089111328125,21.175659179688
0.107,-16.140747070312,-7.2120361328125,22.096557617188
0.1075,-12.977661132812,-10.295043945312,22.536987304688
0.108,-8.3331298828125,-14.258911132812,23.057495117188
0.1085,-3.5284423828125,-17.462036132812,20.414916992188
0.109,1.4764404296875,-20.024536132812,18.252807617188
0.1095,5.6405029296875,-20.505004882812,16.290893554688
0.11,8.7235107421875,-22.106567382812,13.568237304688
0.1105,12.206909179688,-21.866333007812,10.445190429688
0.111,15.890502929688,-21.145629882812,5.9608154296875
0.1115,19.053588867188,-19.624145507812,2.5574951171875
0.112,21.255737304688,-17.341918945312,-2.9678955078125
0.1125,22.256713867188,-15.219848632812,-6.2911376953125
0.113,22.536987304688,-11.976684570312,-9.6544189453125
0.1135,22.176635742188,-7.7325439453125,-13.538208007812
0.114,21.415893554688,-3.7286376953125,-16.741333007812
0.1145,19.774291992188,0.7557373046875,-19.544067382812
0.115,17.652221679688,5.0399169921875,-21.505981445312
0.1155,14.729370117188,7.9627685546875,-22.026489257812
0.116,11.806518554688,11.205932617188,-22.306762695312
0.1165,6.6414794921875,15.329956054688,-21.425903320312
0.117,1.7567138671875,18.412963867188,-19.824340820312
0.1175,-2.8878173828125,20.454956054688,-17.622192382812
0.118,-6.4913330078125,21.896362304688,-15.820434570312
0.1185,-9.8946533203125,21.976440429688,-12.697387695312
0.119,-13.097778320312,21.536010742188,-9.2540283203125
0.1195,-16.701293945312,20.615112304688,-4.8897705078125
0.12,-19.704223632812,18.693237304688,0.1151123046875
0.1205,-20.505004882812,16.451049804688,4.1190185546875
0.121,-22.466918945312,14.008666992188,7.3621826171875
0.1215,-22.787231445312,10.885620117188,10.645385742188
0.122,-22.106567382812,6.0809326171875,14.809448242188
0.1225,-20.945434570312,1.9969482421875,17.892456054688
0.123,-18.983520507812,-2.0069580078125,20.214721679688
0.1235,-17.181762695312,-6.1309814453125,22.176635742188
0.124,-13.858520507812,-9.1339111328125,22.136596679688
0.1245,-10.535278320312,-12.457153320312,22.136596679688
0.125,-5.4503173828125,-16.340942382812,21.135620117188
0.1255,1.2762451171875,-19.263793945312,19.133666992188
0.126,4.1190185546875,-21.025512695312,16.971557617188
0.1265,7.4822998046875,-22.226684570312,14.809448242188
0.127,10.725463867188,-22.306762695312,11.806518554688
0.1275,14.729370117188,-21.305786132812,7.3221435546875
0.128,17.732299804688,-20.264770507812,3.3182373046875
0.1285,20.374877929688,-18.222778320312,-1.3262939453125
0.129,22.096557617188,-16.020629882812,-3.8487548828125
0.1295,22.296752929688,-12.897583007812,-8.2930908203125
0.13,22.336791992188,-9.8946533203125,-11.576293945312
0.1305,21.495971679688,-5.0899658203125,-15.540161132812
0.131,20.254760742188,-0.6456298828125,-18.463012695312
0.1315,18.252807617188,3.1580810546875,-20.464965820312
0.132,16.090698242188,6.6815185546875,-21.946411132812
0.1325,12.767456054688,9.8846435546875,-21.906372070312
0.133,8.4832763671875,13.488159179688,-21.385864257812
0.1335,3.9188232421875,16.691284179688,-20.464965820312
0.134,-1.2462158203125,19.534057617188,-18.142700195312
0.1345,-3.8487548828125,20.975463867188,-16.421020507812
0.135,-8.2130126953125,21.576049804688,-13.538208007812
0.1355,-11.296020507812,21.576049804688,-11.055786132812
0.136,-15.299926757812,20.535034179688,-6.1309814453125
0.1365,-18.302856445312,19.053588867188,-1.8868408203125
0.137,-20.424926757812,17.131713867188,2.2772216796875
0.1375,-21.746215820312,15.089721679688,5.8006591796875
0.138,-21.706176757812,11.886596679688,10.244995117188
0.1385,-20.505004882812,8.2430419921875,12.367065429688
0.139,-21.145629882812,3.9989013671875,15.850463867188
0.1395,-19.463989257812,-0.3653564453125,18.733276367188
0.14,-17.341918945312,-4.0489501953125,20.414916992188
0.1405,-15.179809570312,-7.1319580078125,21.375854492188
0.141,-12.216918945312,-10.214965820312,21.576049804688
0.1415,-7.0919189453125,-14.138793945312,20.615112304688
0.142,-2.7276611328125,-17.061645507812,19.333862304688
0.1425,1.9168701171875,-19.624145507812,17.291870117188
0.143,5.4803466796875,-21.025512695312,15.570190429688
0.1435,8.6834716796875,-20.825317382812,12.607299804688
0.144,11.566284179688,-20.905395507812,9.8846435546875
0.1445,15.410034179688,-20.024536132812,5.2801513671875
0.145,18.212768554688,-18.222778320312,0.7957763671875
0.1455,19.974487304688,-16.260864257812,-2.6475830078125
0.146,21.055541992188,-13.978637695312,-5.7706298828125
0.1465,21.055541992188,-10.975708007812,-7.6925048828125
0.147,20.454956054688,-6.8917236328125,-12.777465820312
0.1475,19.894409179688,-3.2882080078125,-15.860473632812
0.148,18.372924804688,0.9559326171875,-18.342895507812
0.1485,16.451049804688,4.4793701171875,-20.064575195312
0.149,13.688354492188,7.3621826171875,-20.384887695312
0.1495,10.885620117188,10.325073242188,-20.705200195312
0.15,5.8406982421875,14.529174804688,-19.704223632812
0.1505,1.1961669921875,17.131713867188,-18.142700195312
0.151,-2.6475830078125,19.173706054688,-16.260864257812
0.1515,-5.9307861328125,20.454956054688,-14.619262695312
0.152,-9.1339111328125,20.294799804688,-11.616333007812
0.1525,-12.377075195312,19.894409179688,-8.2930908203125
0.153,-15.700317382812,19.173706054688,-4.3292236328125
0.1535,-18.543090820312,17.251831054688,0.2752685546875
0.154,-19.984497070312,15.410034179688,3.6785888671875
0.1545,-20.545043945312,12.967651367188,6.6014404296875
0.155,-20.905395507812,10.084838867188,9.6043701171875
0.1555,-20.304809570312,5.4803466796875,13.768432617188
0.156,-17.942504882812,1.7166748046875,16.571166992188
0.1565,-17.742309570312,-2.0870361328125,18.813354492188
0.157,-15.780395507812,-5.4503173828125,20.454956054688
0.1575,-12.697387695312,-8.3731689453125,20.334838867188
0.158,-9.4942626953125,-11.696411132812,20.454956054688
0.1585,-4.6094970703125,-15.259887695312,19.494018554688
0.159,0.2752685546875,-18.302856445312,17.411987304688
0.1595,3.7186279296875,-19.544067382812,15.850463867188
0.16,6.9617919921875,-20.585083007812,13.808471679688
0.1605,9.9647216796875,-19.223754882812,10.845581054688
0.161,13.728393554688,-19.544067382812,6.5213623046875
0.1615,16.691284179688,-18.583129882812,2.6776123046875
0.162,19.013549804688,-16.821411132812,-1.6466064453125
0.1625,20.254760742188,-14.899536132812,-4.6895751953125
0.163,20.334838867188,-11.816528320312,-6.4112548828125
0.1635,21.776245117188,-8.8936767578125,-10.855590820312
0.164,19.974487304688,-4.4893798828125,-14.699340820312
0.1645,18.533081054688,-0.4053955078125,-17.421997070312
0.165,16.691284179688,2.9979248046875,-19.183715820312
0.1655,14.929565429688,6.4412841796875,-20.304809570312
0.166,11.686401367188,9.2840576171875,-19.223754882812
0.1665,7.3621826171875,12.967651367188,-20.144653320312
0.167,3.1180419921875,16.170776367188,-17.942504882812
0.1675,-1.7667236328125,18.693237304688,-16.941528320312
0.168,-4.9698486328125,19.894409179688,-15.139770507812
0.1685,-8.0128173828125,20.334838867188,-12.777465820312
0.169,-11.296020507812,20.294799804688,-9.9747314453125
0.1695,-14.979614257812,19.413940429688,-5.2100830078125
0.17,-17.742309570312,17.772338867188,-1.2462158203125
0.1705,-19.624145507812,15.930541992188,2.5174560546875
0.171,-20.745239257812,14.008666992188,5.8406982421875
0.1715,-20.665161132812,10.765502929688,8.8436279296875
0.172,-20.384887695312,7.0819091796875,12.286987304688
0.1725,-19.824340820312,3.1981201171875,15.690307617188
0.173,-18.102661132812,-0.0050048828125,18.252807617188
0.1735,-16.220825195312,-4.4493408203125,19.654174804688
0.174,-14.058715820312,-7.4122314453125,20.655151367188
0.1745,-10.855590820312,-10.655395507812,20.535034179688
0.175,-5.6505126953125,-14.178833007812,19.453979492188
0.1755,-1.4464111328125,-17.221801757812,18.092651367188
0.176,2.8377685546875,-19.263793945312,16.330932617188
0.1765,6.2010498046875,-20.224731445312,14.369018554688
0.177,9.2039794921875,-20.464965820312,11.366088867188
0.1775,12.327026367188,-20.104614257812,8.2830810546875
0.178,15.810424804688,-17.942504882812,3.9188232421875
