wavelength,x,y,z
0.0,4.294189453125,2.252197265625,-6.316162109375
0.0005,5.014892578125,1.251220703125,-6.396240234375
0.001,5.375244140625,0.570556640625,-6.356201171875
0.0015,5.135009765625,-0.310302734375,-5.715576171875
0.002,4.854736328125,-1.271240234375,-4.634521484375
0.0025,4.774658203125,-2.552490234375,-3.513427734375
0.003,4.654541015625,-3.713623046875,-2.432373046875
0.0035,4.614501953125,-4.674560546875,-1.591552734375
0.004,4.334228515625,-5.315185546875,-0.910888671875
0.0045,3.413330078125,-5.475341796875,0.130126953125
0.005,2.332275390625,-5.675537109375,1.331298828125
0.0055,1.091064453125,-5.835693359375,2.772705078125
0.006,0.250244140625,-6.115966796875,3.853759765625
0.0065,-0.470458984375,-6.436279296875,4.814697265625
0.007,-1.231201171875,-6.115966796875,5.335205078125
0.0075,-2.272216796875,-5.114990234375,5.575439453125
0.008,-3.553466796875,-3.993896484375,5.895751953125
0.0085,-4.554443359375,-2.872802734375,6.055908203125
0.009,-5.235107421875,-2.031982421875,6.176025390625
0.0095,-5.475341796875,-1.431396484375,6.015869140625
0.01,-5.275146484375,-0.510498046875,5.255126953125
0.0105,-5.114990234375,0.610595703125,4.334228515625
0.011,-5.034912109375,1.851806640625,3.253173828125
0.0115,-4.994873046875,2.972900390625,2.292236328125
0.012,-4.994873046875,3.933837890625,1.571533203125
0.0125,-4.514404296875,4.414306640625,0.810791015625
0.013,-3.593505859375,4.614501953125,-0.310302734375
0.0135,-2.592529296875,4.974853515625,-1.591552734375
0.014,-1.471435546875,5.175048828125,-2.912841796875
0.0145,-0.750732421875,5.575439453125,-3.993896484375
0.015,0.010009765625,5.735595703125,-4.834716796875
0.0155,0.930908203125,5.175048828125,-5.275146484375
0.016,2.052001953125,4.214111328125,-5.635498046875
0.0165,3.253173828125,3.052978515625,-5.915771484375
0.017,4.174072265625,1.971923828125,-6.115966796875
0.0175,4.814697265625,1.291259765625,-6.276123046875
0.018,4.934814453125,0.610595703125,-5.955810546875
0.0185,4.734619140625,-0.350341796875,-5.114990234375
0.019,4.614501953125,-1.471435546875,-4.194091796875
0.0195,4.574462890625,-2.712646484375,-3.153076171875
0.02,4.614501953125,-3.793701171875,-2.312255859375
0.0205,4.534423828125,-4.594482421875,-1.631591796875
0.021,3.933837890625,-4.954833984375,-0.790771484375
0.0215,3.012939453125,-5.195068359375,0.370361328125
0.022,1.931884765625,-5.515380859375,1.691650390625
0.0225,0.970947265625,-5.795654296875,2.932861328125
0.023,0.290283203125,-6.236083984375,3.973876953125
0.0235,-0.510498046875,-6.276123046875,4.734619140625
0.024,-1.431396484375,-5.515380859375,5.094970703125
0.0245,-2.592529296875,-4.634521484375,5.455322265625
0.025,-3.753662109375,-3.553466796875,5.735595703125
0.0255,-4.634521484375,-2.592529296875,5.895751953125
0.026,-5.074951171875,-1.951904296875,6.055908203125
0.0265,-5.114990234375,-1.191162109375,5.575439453125
0.027,-4.914794921875,-0.270263671875,4.734619140625
0.0275,-4.954833984375,1.010986328125,3.813720703125
0.028,-4.914794921875,2.252197265625,2.852783203125
0.0285,-4.994873046875,3.253173828125,2.052001953125
0.029,-4.794677734375,3.973876953125,1.331298828125
0.0295,-4.073974609375,4.334228515625,0.450439453125
0.03,-3.153076171875,4.654541015625,-0.830810546875
0.0305,-2.072021484375,5.014892578125,-2.192138671875
0.031,-1.231201171875,5.375244140625,-3.353271484375
0.0315,-0.630615234375,5.735595703125,-4.354248046875
0.032,0.330322265625,5.455322265625,-4.994873046875
0.0325,1.411376953125,4.534423828125,-5.315185546875
0.033,2.652587890625,3.533447265625,-5.755615234375
0.0335,3.733642578125,2.412353515625,-5.955810546875
0.034,4.494384765625,1.611572265625,-6.156005859375
0.0345,4.854736328125,0.930908203125,-6.075927734375
0.035,4.774658203125,0.130126953125,-5.435302734375
0.0355,4.614501953125,-0.990966796875,-4.514404296875
0.036,4.614501953125,-2.272216796875,-3.473388671875
0.0365,4.614501953125,-3.433349609375,-2.552490234375
0.037,4.614501953125,-4.394287109375,-1.831787109375
0.0375,4.214111328125,-4.914794921875,-1.071044921875
0.038,3.333251953125,-5.114990234375,0.050048828125
0.0385,2.292236328125,-5.475341796875,1.331298828125
0.039,1.211181640625,-5.755615234375,2.692626953125
0.0395,0.450439453125,-6.115966796875,3.773681640625
0.04,-0.310302734375,-6.356201171875,4.654541015625
0.0405,-1.231201171875,-5.835693359375,5.094970703125
0.041,-2.392333984375,-4.834716796875,5.415283203125
0.0415,-3.593505859375,-3.713623046875,5.735595703125
0.042,-4.514404296875,-2.592529296875,5.895751953125
0.0425,-5.155029296875,-1.911865234375,6.095947265625
0.043,-5.235107421875,-1.191162109375,5.735595703125
0.0435,-5.034912109375,-0.310302734375,4.934814453125
0.044,-4.994873046875,0.930908203125,3.973876953125
0.0445,-4.954833984375,2.212158203125,2.892822265625
0.045,-4.954833984375,3.253173828125,2.052001953125
0.0455,-4.834716796875,4.093994140625,1.331298828125
0.046,-4.234130859375,4.454345703125,0.490478515625
0.0465,-3.233154296875,4.614501953125,-0.710693359375
0.047,-2.192138671875,5.014892578125,-2.072021484375
0.0475,-1.191162109375,5.295166015625,-3.353271484375
0.048,-0.550537109375,5.695556640625,-4.394287109375
0.0485,0.330322265625,5.575439453125,-5.114990234375
0.049,1.331298828125,4.814697265625,-5.435302734375
0.0495,2.572509765625,3.693603515625,-5.835693359375
0.05,3.773681640625,2.532470703125,-6.035888671875
0.0505,4.614501953125,1.571533203125,-6.156005859375
0.051,5.054931640625,0.930908203125,-6.276123046875
0.0515,4.974853515625,0.170166015625,-5.715576171875
0.052,4.734619140625,-0.990966796875,-4.714599609375
0.0525,4.654541015625,-2.232177734375,-3.673583984375
0.053,4.614501953125,-3.473388671875,-2.552490234375
0.0535,4.614501953125,-4.474365234375,-1.791748046875
0.054,4.374267578125,-5.114990234375,-1.031005859375
0.0545,3.493408203125,-5.315185546875,0.010009765625
0.055,2.412353515625,-5.555419921875,1.291259765625
0.0555,1.211181640625,-5.835693359375,2.692626953125
0.056,0.330322265625,-6.156005859375,3.853759765625
0.0565,-0.390380859375,-6.476318359375,4.814697265625
0.057,-1.231201171875,-6.115966796875,5.335205078125
0.0575,-2.392333984375,-5.114990234375,5.615478515625
0.058,-3.633544921875,-3.873779296875,5.935791015625
0.0585,-4.674560546875,-2.672607421875,6.095947265625
0.059,-5.355224609375,-1.791748046875,6.176025390625
0.0595,-5.595458984375,-1.111083984375,6.015869140625
0.06,-5.355224609375,-0.310302734375,5.175048828125
0.0605,-5.155029296875,0.970947265625,4.134033203125
0.061,-5.074951171875,2.292236328125,2.892822265625
0.0615,-4.994873046875,3.493408203125,1.931884765625
0.062,-4.954833984375,4.374267578125,1.171142578125
0.0625,-4.394287109375,4.774658203125,0.370361328125
0.063,-3.353271484375,4.934814453125,-0.790771484375
0.0635,-2.192138671875,5.215087890625,-2.232177734375
0.064,-0.990966796875,5.455322265625,-3.593505859375
0.0645,-0.270263671875,5.735595703125,-4.674560546875
0.065,0.490478515625,5.775634765625,-5.475341796875
0.0655,1.491455078125,5.054931640625,-5.875732421875
0.066,2.852783203125,3.853759765625,-6.156005859375
0.0665,4.093994140625,2.572509765625,-6.356201171875
0.067,4.974853515625,1.411376953125,-6.436279296875
0.0675,5.455322265625,0.610595703125,-6.476318359375
0.068,5.455322265625,-0.230224609375,-5.955810546875
0.0685,5.094970703125,-1.271240234375,-4.914794921875
0.069,4.934814453125,-2.592529296875,-3.673583984375
0.0695,4.814697265625,-3.913818359375,-2.432373046875
0.07,4.734619140625,-4.954833984375,-1.471435546875
0.0705,4.494384765625,-5.715576171875,-0.750732421875
0.071,3.653564453125,-5.835693359375,0.290283203125
0.0715,2.372314453125,-5.955810546875,1.571533203125
0.072,0.970947265625,-6.196044921875,3.173095703125
0.0725,-0.190185546875,-6.396240234375,4.454345703125
0.073,-0.870849609375,-6.636474609375,5.375244140625
0.0735,-1.631591796875,-6.396240234375,5.975830078125
0.074,-2.792724609375,-5.235107421875,6.216064453125
0.0745,-4.154052734375,-3.873779296875,6.456298828125
0.075,-5.275146484375,-2.512451171875,6.536376953125
0.0755,-5.955810546875,-1.431396484375,6.496337890625
0.076,-6.196044921875,-0.710693359375,6.336181640625
0.0765,-5.915771484375,0.250244140625,5.495361328125
0.077,-5.515380859375,1.411376953125,4.214111328125
0.0775,-5.355224609375,2.852783203125,2.852783203125
0.078,-5.155029296875,4.134033203125,1.611572265625
0.0785,-4.954833984375,4.974853515625,0.730712890625
0.079,-4.514404296875,5.455322265625,0.010009765625
0.0795,-3.393310546875,5.495361328125,-1.191162109375
0.08,-1.951904296875,5.615478515625,-2.672607421875
0.0805,-0.630615234375,5.735595703125,-4.194091796875
0.081,0.370361328125,5.895751953125,-5.275146484375
0.0815,0.970947265625,6.015869140625,-6.115966796875
0.082,1.931884765625,5.375244140625,-6.516357421875
0.0825,3.253173828125,3.973876953125,-6.676513671875
0.083,4.534423828125,2.572509765625,-6.836669921875
0.0835,5.495361328125,1.251220703125,-6.756591796875
0.084,5.975830078125,0.290283203125,-6.676513671875
0.0845,6.015869140625,-0.510498046875,-6.316162109375
0.085,5.575439453125,-1.471435546875,-5.195068359375
0.0855,5.215087890625,-2.832763671875,-3.793701171875
0.086,4.974853515625,-4.234130859375,-2.392333984375
0.0865,4.774658203125,-5.315185546875,-1.271240234375
0.087,4.534423828125,-6.075927734375,-0.510498046875
0.0875,3.813720703125,-6.276123046875,0.450439453125
0.088,2.492431640625,-6.276123046875,1.611572265625
0.0885,1.010986328125,-6.436279296875,3.213134765625
0.089,-0.390380859375,-6.516357421875,4.614501953125
0.0895,-1.151123046875,-6.676513671875,5.575439453125
0.09,-1.751708984375,-6.596435546875,6.256103515625
0.0905,-2.752685546875,-5.675537109375,6.536376953125
0.091,-4.073974609375,-4.194091796875,6.656494140625
0.0915,-5.315185546875,-2.792724609375,6.736572265625
0.092,-6.115966796875,-1.551513671875,6.696533203125
0.0925,-6.436279296875,-0.750732421875,6.536376953125
0.093,-6.276123046875,0.130126953125,5.935791015625
0.0935,-5.795654296875,1.211181640625,4.694580078125
0.094,-5.515380859375,2.532470703125,3.293212890625
0.0945,-5.275146484375,3.933837890625,1.931884765625
0.095,-5.114990234375,4.934814453125,0.930908203125
0.0955,-4.794677734375,5.535400390625,0.170166015625
0.096,-3.833740234375,5.695556640625,-0.830810546875
0.0965,-2.432373046875,5.655517578125,-2.232177734375
0.097,-0.990966796875,5.815673828125,-3.833740234375
0.0975,0.210205078125,5.895751953125,-5.074951171875
0.098,0.890869140625,6.095947265625,-5.955810546875
0.0985,1.611572265625,5.775634765625,-6.476318359375
0.099,2.772705078125,4.614501953125,-6.676513671875
0.0995,4.093994140625,3.173095703125,-6.876708984375
0.1,5.215087890625,1.771728515625,-6.876708984375
0.1005,5.895751953125,0.610595703125,-6.756591796875
0.101,6.095947265625,-0.190185546875,-6.636474609375
0.1015,5.775634765625,-1.031005859375,-5.755615234375
0.102,5.375244140625,-2.272216796875,-4.394287109375
0.1025,5.094970703125,-3.673583984375,-2.992919921875
0.103,4.854736328125,-4.954833984375,-1.711669921875
0.1035,4.694580078125,-5.795654296875,-0.830810546875
0.104,4.214111328125,-6.316162109375,0.050048828125
0.1045,3.133056640625,-6.396240234375,1.051025390625
0.105,1.651611328125,-6.396240234375,2.532470703125
0.1055,0.170166015625,-6.556396484375,4.093994140625
0.106,-0.830810546875,-6.596435546875,5.215087890625
0.1065,-1.431396484375,-6.756591796875,6.055908203125
0.107,-2.272216796875,-6.156005859375,6.416259765625
0.1075,-3.553466796875,-4.834716796875,6.576416015625
0.108,-4.834716796875,-3.393310546875,6.736572265625
0.1085,-5.795654296875,-2.072021484375,6.696533203125
0.109,-6.356201171875,-1.111083984375,6.656494140625
0.1095,-6.396240234375,-0.350341796875,6.296142578125
0.11,-5.995849609375,0.650634765625,5.255126953125
0.1105,-5.635498046875,1.931884765625,3.893798828125
0.111,-5.435302734375,3.413330078125,2.452392578125
0.1115,-5.195068359375,4.574462890625,1.291259765625
0.112,-4.994873046875,5.375244140625,0.490478515625
0.1125,-4.314208984375,5.615478515625,-0.430419921875
0.113,-3.072998046875,5.655517578125,-1.631591796875
0.1135,-1.671630859375,5.815673828125,-3.193115234375
0.114,-0.270263671875,5.935791015625,-4.674560546875
0.1145,0.610595703125,6.095947265625,-5.715576171875
0.115,1.291259765625,6.095947265625,-6.396240234375
0.1155,2.292236328125,5.175048828125,-6.676513671875
0.116,3.693603515625,3.693603515625,-6.876708984375
0.1165,4.934814453125,2.252197265625,-6.996826171875
0.117,5.775634765625,0.970947265625,-6.916748046875
0.1175,6.176025390625,0.130126953125,-6.796630859375
0.118,6.015869140625,-0.790771484375,-6.156005859375
0.1185,5.575439453125,-1.831787109375,-4.914794921875
0.119,5.255126953125,-3.233154296875,-3.553466796875
0.1195,5.014892578125,-4.634521484375,-2.072021484375
0.12,4.814697265625,-5.635498046875,-1.071044921875
0.1205,4.494384765625,-6.356201171875,-0.310302734375
0.121,3.533447265625,-6.436279296875,0.730712890625
0.1215,2.052001953125,-6.436279296875,2.052001953125
0.122,0.610595703125,-6.516357421875,3.733642578125
0.1225,-0.630615234375,-6.556396484375,4.974853515625
0.123,-1.311279296875,-6.716552734375,5.895751953125
0.1235,-1.991943359375,-6.436279296875,6.416259765625
0.124,-3.153076171875,-5.275146484375,6.536376953125
0.1245,-4.474365234375,-3.833740234375,6.696533203125
0.125,-5.595458984375,-2.432373046875,6.736572265625
0.1255,-6.236083984375,-1.311279296875,6.656494140625
0.126,-6.396240234375,-0.590576171875,6.456298828125
0.1265,-6.115966796875,0.330322265625,5.655517578125
0.127,-5.635498046875,1.451416015625,4.334228515625
0.1275,-5.395263671875,2.852783203125,2.932861328125
0.128,-5.155029296875,4.093994140625,1.691650390625
0.1285,-4.994873046875,4.934814453125,0.770751953125
0.129,-4.554443359375,5.455322265625,0.010009765625
0.1295,-3.553466796875,5.495361328125,-1.031005859375
0.13,-2.192138671875,5.615478515625,-2.392333984375
0.1305,-0.790771484375,5.735595703125,-3.953857421875
0.131,0.250244140625,5.895751953125,-5.034912109375
0.1315,0.890869140625,6.055908203125,-5.915771484375
0.132,1.651611328125,5.575439453125,-6.356201171875
0.1325,2.852783203125,4.334228515625,-6.476318359375
0.133,4.134033203125,3.012939453125,-6.716552734375
0.1335,5.135009765625,1.651611328125,-6.716552734375
0.134,5.735595703125,0.690673828125,-6.676513671875
0.1345,5.855712890625,0.010009765625,-6.396240234375
0.135,5.495361328125,-0.990966796875,-5.515380859375
0.1355,5.135009765625,-2.192138671875,-4.234130859375
0.136,4.974853515625,-3.593505859375,-2.872802734375
0.1365,4.814697265625,-4.794677734375,-1.791748046875
0.137,4.654541015625,-5.635498046875,-0.990966796875
0.1375,4.093994140625,-6.035888671875,-0.230224609375
0.138,3.012939453125,-6.035888671875,0.970947265625
0.1385,1.611572265625,-6.196044921875,2.492431640625
0.139,0.290283203125,-6.356201171875,3.893798828125
0.1395,-0.630615234375,-6.516357421875,4.974853515625
0.14,-1.231201171875,-6.636474609375,5.735595703125
0.1405,-2.072021484375,-5.915771484375,6.055908203125
0.141,-3.353271484375,-4.674560546875,6.256103515625
0.1415,-4.554443359375,-3.353271484375,6.416259765625
0.142,-5.475341796875,-2.112060546875,6.416259765625
0.1425,-5.955810546875,-1.311279296875,6.416259765625
0.143,-5.915771484375,-0.630615234375,6.015869140625
0.1435,-5.555419921875,0.410400390625,4.974853515625
0.144,-5.315185546875,1.651611328125,3.773681640625
0.1445,-5.155029296875,2.932861328125,2.492431640625
0.145,-5.074951171875,4.013916015625,1.531494140625
0.1455,-4.914794921875,4.774658203125,0.810791015625
0.146,-4.154052734375,5.054931640625,0.010009765625
0.1465,-2.992919921875,5.135009765625,-1.271240234375
0.147,-1.791748046875,5.415283203125,-2.672607421875
0.1475,-0.670654296875,5.535400390625,-3.993896484375
0.148,0.130126953125,5.815673828125,-4.994873046875
0.1485,0.770751953125,5.735595703125,-5.635498046875
0.149,1.771728515625,4.854736328125,-5.915771484375
0.1495,3.052978515625,3.693603515625,-6.156005859375
0.15,4.134033203125,2.492431640625,-6.356201171875
0.1505,4.974853515625,1.411376953125,-6.396240234375
0.151,5.375244140625,0.730712890625,-6.396240234375
0.1515,5.255126953125,0.010009765625,-5.835693359375
0.152,4.934814453125,-1.111083984375,-4.834716796875
0.1525,4.814697265625,-2.312255859375,-3.713623046875
0.153,4.654541015625,-3.593505859375,-2.592529296875
0.1535,4.614501953125,-4.634521484375,-1.751708984375
0.154,4.454345703125,-5.275146484375,-0.990966796875
0.1545,3.653564453125,-5.435302734375,-0.190185546875
0.155,2.532470703125,-5.635498046875,1.131103515625
0.1555,1.291259765625,-5.875732421875,2.572509765625
0.156,0.330322265625,-6.115966796875,3.773681640625
0.1565,-0.310302734375,-6.436279296875,4.734619140625
0.157,-1.111083984375,-6.236083984375,5.255126953125
0.1575,-2.112060546875,-5.315185546875,5.535400390625
0.158,-3.353271484375,-4.234130859375,5.895751953125
0.1585,-4.434326171875,-3.072998046875,6.055908203125
0.159,-5.155029296875,-2.112060546875,6.216064453125
0.1595,-5.475341796875,-1.471435546875,6.095947265625
0.16,-5.315185546875,-0.670654296875,5.455322265625
0.1605,-5.114990234375,0.370361328125,4.494384765625
0.161,-5.074951171875,1.611572265625,3.413330078125
0.1615,-5.034912109375,2.812744140625,2.412353515625
0.162,-4.994873046875,3.853759765625,1.651611328125
0.1625,-4.634521484375,4.414306640625,0.930908203125
0.163,-3.793701171875,4.614501953125,-0.150146484375
0.1635,-2.752685546875,4.974853515625,-1.391357421875
0.164,-1.591552734375,5.175048828125,-2.832763671875
0.1645,-0.830810546875,5.535400390625,-3.913818359375
0.165,-0.190185546875,5.775634765625,-4.834716796875
0.1655,0.770751953125,5.375244140625,-5.275146484375
0.166,1.931884765625,4.374267578125,-5.635498046875
0.1665,3.133056640625,3.213134765625,-5.915771484375
0.167,4.134033203125,2.132080078125,-6.115966796875
0.1675,4.814697265625,1.371337890625,-6.276123046875
0.168,4.974853515625,0.690673828125,-6.035888671875
0.1685,4.774658203125,-0.310302734375,-5.235107421875
0.169,4.654541015625,-1.351318359375,-4.354248046875
0.1695,4.614501953125,-2.672607421875,-3.273193359375
0.17,4.614501953125,-3.713623046875,-2.352294921875
0.1705,4.614501953125,-4.594482421875,-1.671630859375
0.171,4.053955078125,-4.994873046875,-0.910888671875
0.1715,3.133056640625,-5.195068359375,0.250244140625
0.172,2.052001953125,-5.515380859375,1.571533203125
0.1725,1.051025390625,-5.795654296875,2.852783203125
0.173,0.330322265625,-6.156005859375,3.893798828125
0.1735,-0.390380859375,-6.276123046875,4.694580078125
0.174,-1.311279296875,-5.635498046875,5.054931640625
0.1745,-2.472412109375,-4.754638671875,5.415283203125
0.175,-3.673583984375,-3.593505859375,5.735595703125
0.1755,-4.514404296875,-2.632568359375,5.895751953125
0.176,-5.074951171875,-1.991943359375,6.055908203125
0.1765,-5.114990234375,-1.311279296875,5.655517578125
0.177,-4.954833984375,-0.470458984375,4.814697265625
0.1775,-4.954833984375,0.770751953125,3.933837890625
0.178,-4.914794921875,2.052001953125,2.972900390625
0.1785,-4.954833984375,3.093017578125,2.172119140625
0.179,-4.834716796875,3.853759765625,1.531494140625
0.1795,-4.194091796875,4.214111328125,0.650634765625
0.18,-3.273193359375,4.534423828125,-0.590576171875
0.1805,-2.272216796875,4.934814453125,-1.911865234375
0.181,-1.391357421875,5.255126953125,-3.113037109375
0.1815,-0.790771484375,5.695556640625,-4.154052734375
0.182,0.130126953125,5.575439453125,-4.834716796875
0.1825,1.171142578125,4.814697265625,-5.195068359375
0.183,2.372314453125,3.813720703125,-5.635498046875
0.1835,3.533447265625,2.732666015625,-5.875732421875
0.184,4.334228515625,1.851806640625,-6.115966796875
0.1845,4.734619140625,1.131103515625,-6.115966796875
0.185,4.654541015625,0.370361328125,-5.595458984375
0.1855,4.574462890625,-0.710693359375,-4.754638671875
0.186,4.614501953125,-1.911865234375,-3.793701171875
0.1865,4.614501953125,-3.113037109375,-2.832763671875
0.187,4.654541015625,-4.114013671875,-2.112060546875
0.1875,4.414306640625,-4.714599609375,-1.351318359375
0.188,3.573486328125,-4.994873046875,-0.430419921875
