wavelength,x,y,z
0.0,-2.001953125,2.8427734375,-1.3212890625
0.0005,-1.361328125,3.123046875,-2.2421875
0.001,-1.0009765625,3.2431640625,-2.7626953125
0.0015,-0.6005859375,3.1630859375,-3.123046875
0.002,-0.080078125,2.9228515625,-3.2431640625
0.0025,0.7607421875,2.2822265625,-3.443359375
0.003,1.5615234375,1.681640625,-3.6435546875
0.0035,2.2021484375,1.201171875,-3.8037109375
0.004,2.5625,0.880859375,-3.84375
0.0045,2.6826171875,0.5205078125,-3.603515625
0.005,2.72265625,0.0,-3.0830078125
0.0055,2.8427734375,-0.80078125,-2.5625
0.006,2.962890625,-1.6015625,-1.8818359375
0.0065,3.1630859375,-2.2421875,-1.44140625
0.007,3.0830078125,-2.6025390625,-1.0009765625
0.0075,2.8427734375,-2.802734375,-0.6005859375
0.008,2.2421875,-2.9228515625,0.16015625
0.0085,1.6416015625,-3.203125,1.0009765625
0.009,1.0810546875,-3.443359375,1.841796875
0.0095,0.6806640625,-3.6435546875,2.3623046875
0.01,0.2802734375,-3.443359375,2.6025390625
0.0105,-0.3203125,-3.04296875,2.8427734375
0.011,-1.201171875,-2.3623046875,3.04296875
0.0115,-2.0419921875,-1.76171875,3.2431640625
0.012,-2.6025390625,-1.3212890625,3.4033203125
0.0125,-2.9228515625,-0.9609375,3.3232421875
0.013,-3.0029296875,-0.5205078125,3.0029296875
0.0135,-3.04296875,0.2001953125,2.3623046875
0.014,-3.203125,0.9609375,1.76171875
0.0145,-3.36328125,1.841796875,1.12109375
0.015,-3.4833984375,2.3623046875,0.6806640625
0.0155,-3.2431640625,2.6025390625,0.240234375
0.016,-2.8828125,2.72265625,-0.3203125
0.0165,-2.1220703125,2.8427734375,-1.28125
0.017,-1.4814453125,3.123046875,-2.1220703125
0.0175,-1.0009765625,3.283203125,-2.8427734375
0.018,-0.640625,3.4033203125,-3.203125
0.0185,-0.1201171875,3.04296875,-3.36328125
0.019,0.640625,2.4423828125,-3.5234375
0.0195,1.521484375,1.841796875,-3.7236328125
0.02,2.2822265625,1.2412109375,-3.8837890625
0.0205,2.6826171875,0.8408203125,-3.923828125
0.021,2.8427734375,0.48046875,-3.7236328125
0.0215,2.8427734375,0.0400390625,-3.283203125
0.022,2.8427734375,-0.7607421875,-2.5625
0.0225,3.0029296875,-1.521484375,-1.9619140625
0.023,3.1630859375,-2.2822265625,-1.361328125
0.0235,3.1630859375,-2.642578125,-1.041015625
0.024,2.8427734375,-2.8427734375,-0.6005859375
0.0245,2.40234375,-2.962890625,0.0400390625
0.025,1.76171875,-3.203125,0.9208984375
0.0255,1.0810546875,-3.4033203125,1.76171875
0.026,0.640625,-3.5234375,2.322265625
0.0265,0.3203125,-3.5234375,2.6826171875
0.027,-0.2802734375,-3.1630859375,2.8427734375
0.0275,-1.041015625,-2.482421875,2.962890625
0.028,-1.841796875,-1.921875,3.1630859375
0.0285,-2.5625,-1.361328125,3.36328125
0.029,-2.8828125,-1.041015625,3.36328125
0.0295,-3.0029296875,-0.6005859375,3.0830078125
0.03,-3.0830078125,-0.080078125,2.642578125
0.0305,-3.1630859375,0.7607421875,1.921875
0.031,-3.283203125,1.5615234375,1.28125
0.0315,-3.4833984375,2.2421875,0.7607421875
0.032,-3.4033203125,2.6025390625,0.3603515625
0.0325,-3.04296875,2.6826171875,-0.16015625
0.033,-2.40234375,2.8427734375,-0.9609375
0.0335,-1.76171875,3.0830078125,-1.8818359375
0.034,-1.1611328125,3.4033203125,-2.642578125
0.0345,-0.720703125,3.443359375,-3.1630859375
0.035,-0.3203125,3.283203125,-3.4033203125
0.0355,0.3603515625,2.802734375,-3.5634765625
0.036,1.3212890625,1.9619140625,-3.7236328125
0.0365,2.0419921875,1.4013671875,-3.8837890625
0.037,2.6826171875,0.9208984375,-4.00390625
0.0375,2.8828125,0.6005859375,-3.8837890625
0.038,2.8828125,0.1201171875,-3.4033203125
0.0385,2.9228515625,-0.6005859375,-2.8427734375
0.039,3.0029296875,-1.361328125,-2.1220703125
0.0395,3.1630859375,-2.1220703125,-1.4814453125
0.04,3.1630859375,-2.6025390625,-1.0810546875
0.0405,3.04296875,-2.9228515625,-0.6806640625
0.041,2.5625,-3.0029296875,-0.16015625
0.0415,1.76171875,-3.1630859375,0.7607421875
0.042,1.201171875,-3.283203125,1.5615234375
0.0425,0.6806640625,-3.5234375,2.2421875
0.043,0.3603515625,-3.5634765625,2.642578125
0.0435,-0.16015625,-3.203125,2.7626953125
0.044,-0.80078125,-2.642578125,2.9228515625
0.0445,-1.681640625,-1.9619140625,3.123046875
0.045,-2.3623046875,-1.44140625,3.283203125
0.0455,-2.8427734375,-1.041015625,3.3232421875
0.046,-3.0029296875,-0.720703125,3.203125
0.0465,-3.04296875,-0.2802734375,2.7626953125
0.047,-3.04296875,0.48046875,2.08203125
0.0475,-3.203125,1.201171875,1.521484375
0.048,-3.36328125,2.0419921875,0.9208984375
0.0485,-3.36328125,2.3623046875,0.560546875
0.049,-3.123046875,2.5625,0.0400390625
0.0495,-2.72265625,2.7626953125,-0.6005859375
0.05,-1.9619140625,2.962890625,-1.44140625
0.0505,-1.4013671875,3.1630859375,-2.2822265625
0.051,-0.9208984375,3.36328125,-2.8828125
0.0515,-0.6005859375,3.36328125,-3.203125
0.052,0.0400390625,2.962890625,-3.36328125
0.0525,0.80078125,2.3623046875,-3.5634765625
0.053,1.681640625,1.7216796875,-3.8037109375
0.0535,2.40234375,1.201171875,-4.00390625
0.054,2.6826171875,0.8408203125,-3.923828125
0.0545,2.8427734375,0.4404296875,-3.7236328125
0.055,2.8828125,-0.2001953125,-3.203125
0.0555,2.9228515625,-1.0009765625,-2.4423828125
0.056,3.123046875,-1.76171875,-1.8818359375
0.0565,3.283203125,-2.5224609375,-1.3212890625
0.057,3.1630859375,-2.802734375,-1.0009765625
0.0575,2.72265625,-2.962890625,-0.4404296875
0.058,2.2021484375,-3.0830078125,0.3603515625
0.0585,1.44140625,-3.283203125,1.28125
0.059,0.9208984375,-3.4833984375,2.0419921875
0.0595,0.48046875,-3.5634765625,2.5224609375
0.06,0.1201171875,-3.4033203125,2.7626953125
0.0605,-0.560546875,-2.8828125,2.8828125
0.061,-1.44140625,-2.2021484375,3.04296875
0.0615,-2.162109375,-1.6015625,3.203125
0.062,-2.72265625,-1.1611328125,3.36328125
0.0625,-2.8828125,-0.8408203125,3.203125
0.063,-2.962890625,-0.400390625,2.8427734375
0.0635,-3.0029296875,0.240234375,2.2822265625
0.064,-3.0830078125,1.0009765625,1.6015625
0.0645,-3.203125,1.681640625,1.0810546875
0.065,-3.3232421875,2.2421875,0.6005859375
0.0655,-3.203125,2.482421875,0.240234375
0.066,-2.7626953125,2.6025390625,-0.3203125
0.0665,-2.162109375,2.802734375,-1.0810546875
0.067,-1.5615234375,3.04296875,-1.9619140625
0.0675,-1.0810546875,3.283203125,-2.6025390625
0.068,-0.720703125,3.283203125,-2.962890625
0.0685,-0.3203125,3.0830078125,-3.203125
0.069,0.4404296875,2.6025390625,-3.443359375
0.0695,1.28125,1.921875,-3.603515625
0.07,1.9619140625,1.44140625,-3.84375
0.0705,2.5224609375,1.0009765625,-3.923828125
0.071,2.72265625,0.6806640625,-3.84375
0.0715,2.7626953125,0.2001953125,-3.36328125
0.072,2.8427734375,-0.5205078125,-2.8427734375
0.0725,3.0029296875,-1.361328125,-2.1220703125
0.073,3.1630859375,-2.1220703125,-1.6416015625
0.0735,3.1630859375,-2.5625,-1.2412109375
0.074,3.04296875,-2.802734375,-0.80078125
0.0745,2.5224609375,-2.9228515625,-0.080078125
0.075,1.841796875,-3.123046875,0.80078125
0.0755,1.201171875,-3.36328125,1.6416015625
0.076,0.80078125,-3.603515625,2.2822265625
0.0765,0.4404296875,-3.5234375,2.5625
0.077,-0.16015625,-3.1630859375,2.7626953125
0.0775,-1.0009765625,-2.5625,3.0029296875
0.078,-1.8818359375,-1.841796875,3.1630859375
0.0785,-2.5224609375,-1.4013671875,3.3232421875
0.079,-2.8427734375,-1.0009765625,3.3232421875
0.0795,-2.962890625,-0.640625,3.123046875
0.08,-2.962890625,0.0,2.5224609375
0.0805,-3.0830078125,0.6806640625,1.8818359375
0.081,-3.203125,1.521484375,1.2412109375
0.0815,-3.4033203125,2.162109375,0.720703125
0.082,-3.2431640625,2.4423828125,0.400390625
0.0825,-2.9228515625,2.6025390625,-0.16015625
0.083,-2.3623046875,2.802734375,-0.8408203125
0.0835,-1.6416015625,3.0029296875,-1.76171875
0.084,-1.1611328125,3.203125,-2.482421875
0.0845,-0.7607421875,3.3232421875,-2.962890625
0.085,-0.400390625,3.1630859375,-3.203125
0.0855,0.240234375,2.6826171875,-3.3232421875
0.086,1.0810546875,2.08203125,-3.5634765625
0.0865,1.921875,1.44140625,-3.7236328125
0.087,2.40234375,1.041015625,-3.8837890625
0.0875,2.642578125,0.6806640625,-3.763671875
0.088,2.7626953125,0.3203125,-3.4833984375
0.0885,2.802734375,-0.400390625,-2.9228515625
0.089,2.8828125,-1.1611328125,-2.2822265625
0.0895,3.04296875,-1.8818359375,-1.76171875
0.09,3.203125,-2.482421875,-1.28125
0.0905,3.04296875,-2.6826171875,-0.9208984375
0.091,2.6025390625,-2.8427734375,-0.3203125
0.0915,2.08203125,-3.04296875,0.4404296875
0.092,1.4013671875,-3.2431640625,1.3212890625
0.0925,0.9609375,-3.4833984375,2.0419921875
0.093,0.560546875,-3.5634765625,2.4423828125
0.0935,0.1201171875,-3.36328125,2.6826171875
0.094,-0.640625,-2.7626953125,2.8427734375
0.0945,-1.44140625,-2.2021484375,3.0830078125
0.095,-2.2822265625,-1.6015625,3.3232421875
0.0955,-2.72265625,-1.2412109375,3.4033203125
0.096,-2.8828125,-0.8408203125,3.203125
0.0965,-2.962890625,-0.400390625,2.802734375
0.097,-3.0830078125,0.3203125,2.2021484375
0.0975,-3.203125,1.1611328125,1.44140625
0.098,-3.36328125,1.921875,1.0009765625
0.0985,-3.4033203125,2.40234375,0.560546875
0.099,-3.1630859375,2.5625,0.16015625
0.0995,-2.6025390625,2.6826171875,-0.560546875
0.1,-2.001953125,2.962890625,-1.4013671875
0.1005,-1.3212890625,3.203125,-2.2822265625
0.101,-0.9609375,3.36328125,-2.8828125
0.1015,-0.5205078125,3.2431640625,-3.203125
0.102,0.0,2.962890625,-3.36328125
0.1025,0.880859375,2.2421875,-3.5234375
0.103,1.6416015625,1.6416015625,-3.7236328125
0.1035,2.322265625,1.12109375,-3.8837890625
0.104,2.6826171875,0.80078125,-3.8837890625
0.1045,2.72265625,0.3603515625,-3.603515625
0.105,2.7626953125,-0.240234375,-3.0830078125
0.1055,2.8828125,-0.9609375,-2.5224609375
0.106,3.04296875,-1.76171875,-1.8017578125
0.1065,3.1630859375,-2.322265625,-1.361328125
0.107,3.0830078125,-2.642578125,-0.9609375
0.1075,2.802734375,-2.8427734375,-0.5205078125
0.108,2.162109375,-2.9228515625,0.2802734375
0.1085,1.5615234375,-3.1630859375,1.12109375
0.109,0.9609375,-3.36328125,1.921875
0.1095,0.6005859375,-3.5634765625,2.40234375
0.11,0.2001953125,-3.36328125,2.6025390625
0.1105,-0.400390625,-2.9228515625,2.802734375
0.111,-1.2412109375,-2.2822265625,2.962890625
0.1115,-2.001953125,-1.7216796875,3.1630859375
0.112,-2.5625,-1.3212890625,3.3232421875
0.1125,-2.8427734375,-1.0009765625,3.203125
0.113,-2.9228515625,-0.640625,2.9228515625
0.1135,-2.9228515625,0.0400390625,2.2822265625
0.114,-3.0830078125,0.80078125,1.8017578125
0.1145,-3.203125,1.6015625,1.201171875
0.115,-3.36328125,2.162109375,0.7607421875
0.1155,-3.203125,2.40234375,0.3203125
0.116,-2.8828125,2.6025390625,-0.2001953125
0.1165,-2.2421875,2.7626953125,-1.0009765625
0.117,-1.6416015625,3.0029296875,-1.8017578125
0.1175,-1.1611328125,3.203125,-2.5224609375
0.118,-0.80078125,3.3232421875,-2.962890625
0.1185,-0.3603515625,3.0830078125,-3.1630859375
0.119,0.3603515625,2.5625,-3.3232421875
0.1195,1.201171875,2.001953125,-3.5634765625
0.12,1.9619140625,1.44140625,-3.8037109375
0.1205,2.40234375,1.041015625,-3.8837890625
0.121,2.6025390625,0.640625,-3.7236328125
0.1215,2.6826171875,0.2001953125,-3.4033203125
0.122,2.72265625,-0.5205078125,-2.72265625
0.1225,2.8828125,-1.2412109375,-2.162109375
0.123,3.123046875,-1.9619140625,-1.6416015625
0.1235,3.1630859375,-2.4423828125,-1.2412109375
0.124,2.9228515625,-2.642578125,-0.80078125
0.1245,2.482421875,-2.8427734375,-0.16015625
0.125,1.8818359375,-3.0830078125,0.6806640625
0.1255,1.2412109375,-3.283203125,1.521484375
0.126,0.8408203125,-3.4833984375,2.08203125
0.1265,0.48046875,-3.4833984375,2.482421875
0.127,-0.080078125,-3.1630859375,2.6826171875
0.1275,-0.8408203125,-2.5224609375,2.802734375
0.128,-1.6416015625,-1.9619140625,3.04296875
0.1285,-2.322265625,-1.521484375,3.2431640625
0.129,-2.642578125,-1.201171875,3.2431640625
0.1295,-2.7626953125,-0.80078125,2.9228515625
0.13,-2.8828125,-0.240234375,2.5625
0.1305,-2.962890625,0.48046875,1.921875
0.131,-3.0830078125,1.28125,1.4013671875
0.1315,-3.2431640625,1.921875,0.9609375
0.132,-3.203125,2.2421875,0.5205078125
0.1325,-2.9228515625,2.40234375,0.080078125
0.133,-2.40234375,2.6025390625,-0.640625
0.1335,-1.8818359375,2.8427734375,-1.4013671875
0.134,-1.3212890625,3.123046875,-2.2421875
0.1345,-1.0009765625,3.203125,-2.6826171875
0.135,-0.6005859375,3.123046875,-2.962890625
0.1355,0.0,2.802734375,-3.203125
0.136,0.80078125,2.162109375,-3.36328125
0.1365,1.521484375,1.6416015625,-3.603515625
0.137,2.08203125,1.201171875,-3.763671875
0.1375,2.40234375,0.9208984375,-3.8037109375
0.138,2.5224609375,0.5205078125,-3.4833984375
0.1385,2.6025390625,-0.080078125,-2.962890625
0.139,2.802734375,-0.80078125,-2.482421875
0.1395,2.962890625,-1.5615234375,-1.921875
0.14,3.123046875,-2.08203125,-1.521484375
0.1405,3.0029296875,-2.482421875,-1.041015625
0.141,2.72265625,-2.642578125,-0.6005859375
0.1415,2.08203125,-2.8427734375,0.240234375
0.142,1.6015625,-3.123046875,1.041015625
0.1425,1.12109375,-3.4033203125,1.76171875
0.143,0.7607421875,-3.5234375,2.2421875
0.1435,0.240234375,-3.2431640625,2.482421875
0.144,-0.400390625,-2.8427734375,2.6826171875
0.1445,-1.28125,-2.2822265625,2.9228515625
0.145,-1.9619140625,-1.8017578125,3.1630859375
0.1455,-2.482421875,-1.44140625,3.2431640625
0.146,-2.72265625,-1.0009765625,3.1630859375
0.1465,-2.8427734375,-0.5205078125,2.802734375
0.147,-2.8828125,0.240234375,2.2021484375
0.1475,-3.0830078125,0.9609375,1.6416015625
0.148,-3.283203125,1.76171875,1.12109375
0.1485,-3.283203125,2.162109375,0.720703125
0.149,-3.0830078125,2.40234375,0.240234375
0.1495,-2.642578125,2.6025390625,-0.400390625
0.15,-1.9619140625,2.8427734375,-1.28125
0.1505,-1.44140625,3.0830078125,-2.08203125
0.151,-1.0009765625,3.2431640625,-2.6826171875
0.1515,-0.6806640625,3.2431640625,-3.04296875
0.152,-0.080078125,2.8427734375,-3.203125
0.1525,0.6806640625,2.2421875,-3.36328125
0.153,1.44140625,1.6416015625,-3.603515625
0.1535,2.162109375,1.28125,-3.8037109375
0.154,2.40234375,0.9609375,-3.8037109375
0.1545,2.6025390625,0.5205078125,-3.5634765625
0.155,2.6826171875,0.0,-3.0830078125
0.1555,2.72265625,-0.720703125,-2.482421875
0.156,2.8828125,-1.44140625,-1.9619140625
0.1565,3.0830078125,-2.1220703125,-1.4814453125
0.157,3.04296875,-2.482421875,-1.12109375
0.1575,2.6826171875,-2.6025390625,-0.6005859375
0.158,2.2421875,-2.8427734375,0.080078125
0.1585,1.6015625,-3.0830078125,0.9208984375
0.159,1.12109375,-3.283203125,1.6416015625
0.1595,0.7607421875,-3.4033203125,2.162109375
0.16,0.3603515625,-3.36328125,2.482421875
0.1605,-0.2001953125,-2.962890625,2.642578125
0.161,-1.0009765625,-2.40234375,2.8427734375
0.1615,-1.76171875,-1.8818359375,3.0830078125
0.162,-2.40234375,-1.44140625,3.283203125
0.1625,-2.642578125,-1.1611328125,3.2431640625
0.163,-2.802734375,-0.640625,2.9228515625
0.1635,-2.8828125,0.0,2.482421875
0.164,-3.04296875,0.720703125,1.841796875
0.1645,-3.203125,1.4814453125,1.28125
0.165,-3.36328125,2.0419921875,0.880859375
0.1655,-3.2431640625,2.40234375,0.4404296875
0.166,-2.8427734375,2.5625,-0.16015625
0.1665,-2.2421875,2.7626953125,-1.0009765625
0.167,-1.6416015625,3.04296875,-1.8017578125
0.1675,-1.1611328125,3.283203125,-2.5625
0.168,-0.80078125,3.3232421875,-2.9228515625
0.1685,-0.3203125,3.0029296875,-3.203125
0.169,0.400390625,2.5224609375,-3.4033203125
0.1695,1.28125,1.8818359375,-3.5634765625
0.17,1.9619140625,1.4013671875,-3.8037109375
0.1705,2.482421875,0.9609375,-3.84375
0.171,2.642578125,0.6806640625,-3.7236328125
0.1715,2.6826171875,0.1201171875,-3.203125
0.172,2.72265625,-0.6005859375,-2.642578125
0.1725,2.8828125,-1.3212890625,-2.0419921875
0.173,3.0830078125,-2.0419921875,-1.5615234375
0.1735,3.04296875,-2.40234375,-1.1611328125
0.174,2.8427734375,-2.642578125,-0.720703125
0.1745,2.3623046875,-2.8427734375,-0.1201171875
0.175,1.7216796875,-2.962890625,0.7607421875
0.1755,1.201171875,-3.203125,1.5615234375
0.176,0.7607421875,-3.4033203125,2.162109375
0.1765,0.48046875,-3.4833984375,2.4423828125
0.177,-0.16015625,-3.0830078125,2.6025390625
0.1775,-0.8408203125,-2.5224609375,2.8427734375
0.178,-1.681640625,-1.8818359375,3.04296875
0.1785,-2.2822265625,-1.4814453125,3.203125
0.179,-2.6025390625,-1.1611328125,3.203125
0.1795,-2.8427734375,-0.80078125,3.04296875
0.18,-2.8828125,-0.2001953125,2.5625
0.1805,-2.962890625,0.560546875,1.921875
0.181,-3.1630859375,1.28125,1.44140625
0.1815,-3.36328125,2.001953125,0.9208984375
0.182,-3.283203125,2.2822265625,0.560546875
0.1825,-2.962890625,2.5224609375,0.0
0.183,-2.482421875,2.72265625,-0.6806640625
0.1835,-1.8017578125,2.962890625,-1.6015625
0.184,-1.28125,3.203125,-2.322265625
0.1845,-0.9208984375,3.3232421875,-2.8828125
0.185,-0.5205078125,3.203125,-3.203125
0.1855,0.2001953125,2.7626953125,-3.36328125
0.186,1.0009765625,2.162109375,-3.5634765625
0.1865,1.841796875,1.521484375,-3.8037109375
0.187,2.4423828125,1.12109375,-3.9638671875
0.1875,2.642578125,0.7607421875,-3.84375
0.188,2.7626953125,0.3203125,-3.5234375
0.1885,2.8427734375,-0.3603515625,-2.9228515625
0.189,2.9228515625,-1.201171875,-2.2021484375
0.1895,3.123046875,-1.9619140625,-1.681640625
0.19,3.203125,-2.5224609375,-1.2412109375
0.1905,3.04296875,-2.72265625,-0.8408203125
0.191,2.5224609375,-2.8427734375,-0.240234375
0.1915,1.921875,-3.0830078125,0.640625
0.192,1.28125,-3.283203125,1.5615234375
0.1925,0.80078125,-3.5634765625,2.162109375
0.193,0.4404296875,-3.5234375,2.5224609375
0.1935,0.0,-3.2431640625,2.72265625
0.194,-0.8408203125,-2.6025390625,2.8828125
0.1945,-1.6416015625,-1.9619140625,3.0830078125
0.195,-2.3623046875,-1.44140625,3.2431640625
0.1955,-2.8427734375,-1.0810546875,3.3232421875
0.196,-2.9228515625,-0.720703125,3.123046875
0.1965,-2.9228515625,-0.2802734375,2.642578125
0.197,-3.04296875,0.48046875,2.0419921875
0.1975,-3.1630859375,1.28125,1.4013671875
0.198,-3.36328125,1.9619140625,0.9208984375
0.1985,-3.283203125,2.40234375,0.48046875
0.199,-3.123046875,2.6025390625,0.080078125
0.1995,-2.5224609375,2.72265625,-0.640625
0.2,-2.001953125,2.8427734375,-1.4013671875
0.2005,-1.28125,3.1630859375,-2.322265625
0.201,-0.9208984375,3.3232421875,-2.9228515625
0.2015,-0.5205078125,3.283203125,-3.203125
0.202,0.0400390625,2.9228515625,-3.36328125
0.2025,0.8408203125,2.2822265625,-3.5634765625
0.203,1.7216796875,1.6015625,-3.763671875
0.2035,2.3623046875,1.201171875,-3.923828125
0.204,2.72265625,0.80078125,-3.8837890625
0.2045,2.8427734375,0.4404296875,-3.6435546875
0.205,2.8427734375,-0.2001953125,-3.0830078125
0.2055,2.962890625,-1.0009765625,-2.482421875
0.206,3.0830078125,-1.8017578125,-1.8017578125
0.2065,3.2431640625,-2.4423828125,-1.3212890625
0.207,3.123046875,-2.72265625,-0.9208984375
0.2075,2.802734375,-2.8828125,-0.4404296875
0.208,2.08203125,-3.1630859375,0.3203125
0.2085,1.44140625,-3.283203125,1.2412109375
0.209,0.9208984375,-3.5234375,1.9619140625
0.2095,0.560546875,-3.603515625,2.5224609375
0.21,0.1201171875,-3.36328125,2.72265625
0.2105,-0.560546875,-2.8828125,2.8427734375
0.211,-1.44140625,-2.2421875,3.123046875
0.2115,-2.2421875,-1.6015625,3.283203125
0.212,-2.7626953125,-1.201171875,3.4033203125
0.2125,-2.962890625,-0.8408203125,3.2431640625
0.213,-3.04296875,-0.400390625,2.9228515625
0.2135,-3.04296875,0.3203125,2.2421875
0.214,-3.1630859375,1.0810546875,1.6015625
0.2145,-3.36328125,1.921875,1.0009765625
0.215,-3.443359375,2.4423828125,0.6005859375
0.2155,-3.203125,2.5625,0.16015625
0.216,-2.72265625,2.72265625,-0.5205078125
0.2165,-2.08203125,2.8828125,-1.28125
0.217,-1.521484375,3.0029296875,-2.2021484375
0.2175,-0.9609375,3.3232421875,-2.8828125
0.218,-0.560546875,3.36328125,-3.2431640625
0.2185,-0.1201171875,3.04296875,-3.4033203125
0.219,0.6806640625,2.40234375,-3.5634765625
0.2195,1.5615234375,1.8017578125,-3.763671875
0.22,2.3623046875,1.201171875,-3.9638671875
0.2205,2.7626953125,0.80078125,-4.00390625
0.221,2.8828125,0.4404296875,-3.7236328125
0.2215,2.9228515625,0.0,-3.3232421875
0.222,2.962890625,-0.8408203125,-2.5625
0.2225,3.04296875,-1.6416015625,-1.8818359375
0.223,3.2431640625,-2.40234375,-1.361328125
0.2235,3.2431640625,-2.802734375,-1.0009765625
0.224,2.9228515625,-2.962890625,-0.5205078125
0.2245,2.2822265625,-3.0830078125,0.2001953125
0.225,1.5615234375,-3.36328125,1.12109375
0.2255,0.9609375,-3.4833984375,1.9619140625
0.226,0.6005859375,-3.5634765625,2.482421875
0.2265,0.16015625,-3.4833984375,2.7626953125
0.227,-0.400390625,-3.0830078125,2.9228515625
0.2275,-1.28125,-2.322265625,3.04296875
0.228,-2.0419921875,-1.76171875,3.2431640625
