wavelength,x,y,z
0.0,17.181762695312,0.9659423828125,-17.331909179688
0.0005,15.420043945312,3.8887939453125,-18.573120117188
0.001,13.297973632812,6.8516845703125,-19.494018554688
0.0015,9.9346923828125,9.8546142578125,-19.293823242188
0.002,5.4903564453125,13.378051757812,-18.573120117188
0.0025,1.2462158203125,16.060668945312,-17.211791992188
0.003,-2.8377685546875,17.982543945312,-15.329956054688
0.0035,-5.6004638671875,18.743286132812,-13.488159179688
0.004,-8.6834716796875,19.103637695312,-10.925659179688
0.0045,-12.086791992188,18.823364257812,-7.4022216796875
0.005,-15.289916992188,17.902465820312,-3.3983154296875
0.0055,-17.652221679688,16.140747070312,0.7657470703125
0.006,-19.213745117188,14.379028320312,4.0089111328125
0.0065,-19.894409179688,12.136840820312,6.8917236328125
0.007,-19.934448242188,8.9737548828125,10.094848632812
0.0075,-19.574096679688,5.1300048828125,13.458129882812
0.008,-18.693237304688,1.4063720703125,16.340942382812
0.0085,-16.891479492188,-2.5574951171875,18.503051757812
0.009,-14.929565429688,-5.4002685546875,19.343872070312
0.0095,-12.487182617188,-8.3231201171875,19.944458007812
0.01,-8.6033935546875,-11.686401367188,19.664184570312
0.0105,-4.0389404296875,-14.889526367188,18.543090820312
0.011,0.4053955078125,-17.251831054688,16.701293945312
0.0115,4.0089111328125,-18.933471679688,15.019653320312
0.012,6.8516845703125,-19.413940429688,12.817504882812
0.0125,9.9747314453125,-19.494018554688,9.9346923828125
0.013,13.578247070312,-18.973510742188,6.0509033203125
0.0135,16.661254882812,-17.772338867188,1.8067626953125
0.014,18.783325195312,-15.850463867188,-2.3172607421875
0.0145,19.904418945312,-13.928588867188,-5.2801513671875
0.015,20.464965820312,-11.406127929688,-8.3631591796875
0.0155,20.344848632812,-7.7225341796875,-11.806518554688
0.016,19.704223632812,-3.9989013671875,-14.889526367188
0.0165,18.262817382812,0.0050048828125,-17.411987304688
0.017,16.421020507812,3.7286376953125,-19.373901367188
0.0175,14.058715820312,6.5313720703125,-19.894409179688
0.018,11.255981445312,9.5343017578125,-20.174682617188
0.0185,6.7716064453125,13.297973632812,-19.614135742188
0.019,2.2471923828125,16.260864257812,-18.292846679688
0.0195,-2.1170654296875,18.222778320312,-16.170776367188
0.02,-5.4002685546875,19.504028320312,-14.489135742188
0.0205,-8.3631591796875,19.864379882812,-11.966674804688
0.021,-11.726440429688,19.544067382812,-8.4832763671875
0.0215,-15.049682617188,18.903442382812,-4.5994873046875
0.022,-17.892456054688,17.221801757812,-0.1951904296875
0.0225,-19.814331054688,15.179809570312,3.8087158203125
0.023,-20.454956054688,12.937622070312,6.6114501953125
0.0235,-20.895385742188,10.214965820312,9.7745361328125
0.024,-20.535034179688,6.0509033203125,13.538208007812
0.0245,-19.734252929688,2.2471923828125,16.501098632812
0.025,-17.892456054688,-1.7567138671875,18.543090820312
0.0255,-16.090698242188,-5.2000732421875,20.344848632812
0.026,-13.408081054688,-8.0028076171875,20.545043945312
0.0265,-10.004760742188,-11.205932617188,20.464965820312
0.027,-5.4803466796875,-14.649291992188,19.704223632812
0.0275,-0.6356201171875,-17.532104492188,17.902465820312
0.028,3.5284423828125,-19.213745117188,15.740356445312
0.0285,6.4512939453125,-20.014526367188,13.778442382812
0.029,9.6143798828125,-20.374877929688,11.135864257812
0.0295,13.378051757812,-19.694213867188,6.8516845703125
0.03,16.340942382812,-18.733276367188,3.0880126953125
0.0305,18.823364257812,-16.851440429688,-1.2762451171875
0.031,20.545043945312,-14.849487304688,-4.9998779296875
0.0315,20.785278320312,-12.246948242188,-7.7625732421875
0.032,21.065551757812,-9.2440185546875,-11.005737304688
0.0325,20.505004882812,-5.0799560546875,-14.649291992188
0.033,19.383911132812,-1.0360107421875,-17.532104492188
0.0335,17.261840820312,2.8077392578125,-19.253784179688
0.034,15.299926757812,6.0509033203125,-20.535034179688
0.0345,12.457153320312,9.0538330078125,-20.815307617188
0.035,8.0928955078125,12.657348632812,-20.294799804688
0.0355,3.8887939453125,15.620239257812,-19.373901367188
0.036,-0.9959716796875,18.222778320312,-17.331909179688
0.0365,-4.7996826171875,19.824340820312,-15.249877929688
0.037,-7.6024169921875,20.104614257812,-12.967651367188
0.0375,-10.685424804688,20.424926757812,-10.325073242188
0.038,-14.729370117188,19.544067382812,-5.6004638671875
0.0385,-17.532104492188,18.182739257812,-1.4764404296875
0.039,-19.534057617188,16.180786132812,2.5274658203125
0.0395,-21.015502929688,14.138793945312,5.9307861328125
0.04,-21.135620117188,11.296020507812,8.9337158203125
0.0405,-21.135620117188,7.6925048828125,12.497192382812
0.041,-20.494995117188,3.7686767578125,15.740356445312
0.0415,-18.973510742188,-0.5955810546875,18.503051757812
0.042,-16.851440429688,-4.2391357421875,20.144653320312
0.0425,-14.609252929688,-7.1219482421875,20.825317382812
0.043,-11.846557617188,-10.124877929688,21.225708007812
0.0435,-6.6014404296875,-14.128784179688,20.304809570312
0.044,-2.3973388671875,-16.891479492188,18.903442382812
0.0445,2.2071533203125,-18.973510742188,16.821411132812
0.045,5.7706298828125,-20.494995117188,14.859497070312
0.0455,8.7735595703125,-20.414916992188,12.016723632812
0.046,12.016723632812,-20.414916992188,8.9737548828125
0.0465,15.740356445312,-19.614135742188,4.4893798828125
0.047,18.623168945312,-17.732299804688,-0.2752685546875
0.0475,20.344848632812,-15.690307617188,-3.9188232421875
0.048,21.305786132812,-13.448120117188,-7.0819091796875
0.0485,21.465942382812,-10.605346679688,-10.084838867188
0.049,21.105590820312,-6.2811279296875,-14.088745117188
0.0495,20.304809570312,-2.6375732421875,-16.811401367188
0.05,18.503051757812,1.6466064453125,-19.293823242188
0.0505,16.380981445312,5.3702392578125,-20.855346679688
0.051,13.418090820312,8.2530517578125,-21.015502929688
0.0515,10.415161132812,11.376098632812,-21.295776367188
0.052,5.0499267578125,15.420043945312,-20.214721679688
0.0525,0.3653564453125,18.102661132812,-18.372924804688
0.053,-3.6385498046875,19.744262695312,-16.330932617188
0.0535,-7.0819091796875,20.985473632812,-14.288940429688
0.054,-10.285034179688,20.785278320312,-11.125854492188
0.0545,-13.968627929688,20.344848632812,-7.0819091796875
0.055,-17.211791992188,19.383911132812,-3.0379638671875
0.0555,-19.894409179688,17.261840820312,1.8067626953125
0.056,-21.295776367188,15.059692382812,5.3302001953125
0.0565,-21.816284179688,12.337036132812,8.4932861328125
0.057,-21.976440429688,9.3341064453125,11.616333007812
0.0575,-21.335815429688,4.4893798828125,15.780395507812
0.058,-20.014526367188,0.5655517578125,18.463012695312
0.0585,-17.972534179688,-3.3582763671875,20.424926757812
0.059,-16.010620117188,-6.8416748046875,21.906372070312
0.0595,-12.527221679688,-9.9647216796875,21.626098632812
0.06,-8.7235107421875,-13.328002929688,21.465942382812
0.0605,-3.7186279296875,-16.931518554688,20.264770507812
0.061,1.5665283203125,-19.413940429688,17.822387695312
0.0615,5.0899658203125,-20.655151367188,15.740356445312
0.062,8.3731689453125,-21.415893554688,13.378051757812
0.0625,11.616333007812,-21.295776367188,10.174926757812
0.063,15.620239257812,-20.294799804688,5.2901611328125
0.0635,18.543090820312,-18.933471679688,1.1260986328125
0.064,20.745239257812,-16.691284179688,-3.2781982421875
0.0645,21.826293945312,-14.449096679688,-6.6014404296875
0.065,21.946411132812,-11.286010742188,-9.8846435546875
0.0655,21.906372070312,-8.0828857421875,-13.007690429688
0.066,21.105590820312,-3.5584716796875,-16.691284179688
0.0665,19.263793945312,0.9659423828125,-19.373901367188
0.067,17.061645507812,4.5294189453125,-20.735229492188
0.0675,14.819458007812,7.8126220703125,-21.856323242188
0.068,11.255981445312,10.935668945312,-21.576049804688
0.0685,6.5313720703125,14.739379882812,-20.815307617188
0.069,2.0870361328125,17.702270507812,-19.614135742188
0.0695,-2.9578857421875,19.984497070312,-17.131713867188
0.07,-6.2811279296875,20.985473632812,-15.009643554688
0.0705,-9.5643310546875,21.265747070312,-12.206909179688
0.071,-12.927612304688,21.105590820312,-9.0037841796875
0.0715,-16.691284179688,19.984497070312,-4.0789794921875
0.072,-19.494018554688,18.062622070312,0.6055908203125
0.0725,-21.255737304688,15.900512695312,4.4493408203125
0.073,-22.216674804688,13.538208007812,7.6925048828125
0.0735,-22.176635742188,10.054809570312,11.015747070312
0.074,-21.856323242188,6.1710205078125,14.699340820312
0.0745,-21.055541992188,2.1270751953125,17.902465820312
0.075,-18.973510742188,-2.5574951171875,20.424926757812
0.0755,-16.651245117188,-5.9207763671875,21.586059570312
0.076,-14.088745117188,-9.0838623046875,22.346801757812
0.0765,-10.405151367188,-12.367065429688,22.066528320312
0.077,-4.9998779296875,-16.290893554688,20.785278320312
0.0775,-0.3153076171875,-18.933471679688,19.063598632812
0.078,4.2891845703125,-20.935424804688,16.741333007812
0.0785,7.5323486328125,-21.656127929688,14.419067382812
0.079,11.015747070312,-21.616088867188,11.095825195312
0.0795,14.579223632812,-21.215698242188,7.2921142578125
0.08,18.062622070312,-19.974487304688,2.6075439453125
0.0805,20.705200195312,-17.692260742188,-2.2772216796875
0.081,22.066528320312,-15.530151367188,-5.7606201171875
0.0815,22.787231445312,-12.887573242188,-9.1239013671875
0.082,22.546997070312,-9.2039794921875,-12.487182617188
0.0825,21.906372070312,-4.7196044921875,-16.210815429688
0.083,20.665161132812,-0.6756591796875,-19.093627929688
0.0835,18.463012695312,3.8487548828125,-21.415893554688
0.084,15.900512695312,7.0919189453125,-22.216674804688
0.0845,12.777465820312,10.415161132812,-22.536987304688
0.085,8.6134033203125,14.098754882812,-22.256713867188
0.0855,3.2481689453125,17.742309570312,-20.775268554688
0.086,-1.8367919921875,20.024536132812,-18.533081054688
0.0865,-5.7205810546875,21.706176757812,-16.330932617188
0.087,-9.0037841796875,22.266723632812,-13.768432617188
0.0875,-12.567260742188,21.946411132812,-10.044799804688
0.088,-16.370971679688,21.185668945312,-5.6805419921875
0.0885,-19.574096679688,19.584106445312,-0.9959716796875
0.089,-21.936401367188,17.101684570312,3.8487548828125
0.0895,-22.897338867188,14.699340820312,7.1719970703125
0.09,-23.417846679688,11.576293945312,10.775512695312
0.0905,-23.097534179688,7.5323486328125,14.499145507812
0.091,-22.176635742188,3.0479736328125,18.102661132812
0.0915,-20.334838867188,-1.3963623046875,20.625122070312
0.092,-18.092651367188,-5.6405029296875,22.667114257812
0.0925,-15.249877929688,-8.8035888671875,23.147583007812
0.093,-11.606323242188,-12.206909179688,23.067504882812
0.0935,-6.8817138671875,-16.010620117188,22.386840820312
0.094,-1.5565185546875,-19.293823242188,20.545043945312
0.0945,3.5684814453125,-21.295776367188,17.782348632812
0.095,7.0919189453125,-22.416870117188,15.580200195312
0.0955,10.575317382812,-22.777221679688,12.657348632812
0.096,14.258911132812,-22.096557617188,8.4532470703125
0.0965,17.822387695312,-21.135620117188,3.9688720703125
0.097,20.785278320312,-19.093627929688,-0.9959716796875
0.0975,22.867309570312,-16.611206054688,-5.4803466796875
0.098,23.307739257812,-13.808471679688,-8.6434326171875
0.0985,23.547973632812,-10.445190429688,-12.166870117188
0.099,22.947387695312,-6.1209716796875,-15.930541992188
0.0995,21.826293945312,-1.7567138671875,-19.173706054688
0.1,19.423950195312,2.8077392578125,-21.215698242188
0.1005,17.141723632812,6.5313720703125,-22.857299804688
0.101,14.098754882812,9.7745361328125,-23.097534179688
0.1015,9.9346923828125,13.297973632812,-22.617065429688
0.102,5.1300048828125,16.821411132812,-21.656127929688
0.1025,-0.1951904296875,19.864379882812,-19.654174804688
0.103,-4.8397216796875,21.626098632812,-17.011596679688
0.1035,-8.0028076171875,22.146606445312,-14.609252929688
0.104,-11.486206054688,22.426879882812,-11.606323242188
0.1045,-15.369995117188,21.505981445312,-7.0018310546875
0.105,-18.533081054688,20.224731445312,-2.6375732421875
0.1055,-21.015502929688,17.982543945312,2.0870361328125
0.106,-22.777221679688,15.660278320312,6.0909423828125
0.1065,-23.017456054688,12.737426757812,9.2540283203125
0.107,-23.057495117188,9.1339111328125,12.817504882812
0.1075,-22.336791992188,4.7696533203125,16.501098632812
0.108,-21.095581054688,0.3653564453125,19.584106445312
0.1085,-18.573120117188,-3.9188232421875,21.465942382812
0.109,-16.330932617188,-7.1619873046875,22.466918945312
0.1095,-13.328002929688,-10.405151367188,22.907348632812
0.11,-8.6033935546875,-14.168823242188,22.106567382812
0.1105,-3.9588623046875,-17.291870117188,20.825317382812
0.111,1.1661376953125,-19.854370117188,18.583129882812
0.1115,5.4503173828125,-21.536010742188,16.300903320312
0.112,8.4132080078125,-21.736206054688,13.618286132812
0.1125,11.776489257812,-21.936401367188,10.615356445312
0.113,15.780395507812,-21.095581054688,5.8907470703125
0.1135,18.863403320312,-19.534057617188,1.2862548828125
0.114,21.025512695312,-17.171752929688,-3.0379638671875
0.1145,22.426879882812,-15.009643554688,-6.5614013671875
0.115,22.667114257812,-12.006713867188,-9.7645263671875
0.1155,22.466918945312,-8.0028076171875,-13.528198242188
0.116,21.706176757812,-4.0389404296875,-16.771362304688
0.1165,20.104614257812,0.4854736328125,-19.574096679688
0.117,17.782348632812,4.6094970703125,-21.495971679688
0.1175,15.099731445312,7.6124267578125,-21.936401367188
0.118,12.216918945312,10.855590820312,-22.456909179688
0.1185,6.8917236328125,15.059692382812,-21.495971679688
0.119,2.2471923828125,17.942504882812,-20.014526367188
0.1195,-2.4373779296875,20.024536132812,-17.732299804688
0.12,-6.2811279296875,21.626098632812,-15.690307617188
0.1205,-9.4442138671875,21.626098632812,-12.767456054688
0.121,-12.967651367188,21.465942382812,-9.2039794921875
0.1215,-16.691284179688,20.665161132812,-4.8397216796875
0.122,-19.814331054688,18.703247070312,0.2452392578125
0.1225,-21.656127929688,16.421020507812,4.3292236328125
0.123,-22.577026367188,14.018676757812,7.5723876953125
0.1235,-22.937377929688,10.895629882812,10.975708007812
0.124,-22.456909179688,6.2110595703125,15.259887695312
0.1245,-21.495971679688,2.3272705078125,18.142700195312
0.125,-19.574096679688,-2.0770263671875,20.585083007812
0.1255,-17.371948242188,-6.0809326171875,22.426879882812
0.126,-14.208862304688,-9.1239013671875,22.426879882812
0.1265,-10.925659179688,-12.447143554688,22.667114257812
0.127,-5.4803466796875,-16.531127929688,21.505981445312
0.1275,-0.3153076171875,-19.333862304688,19.463989257812
0.128,3.9688720703125,-21.015502929688,17.101684570312
0.1285,7.5323486328125,-22.176635742188,14.899536132812
0.129,10.855590820312,-22.136596679688,11.656372070312
0.1295,14.779418945312,-21.455932617188,7.1719970703125
0.13,18.022583007812,-20.374877929688,3.0880126953125
0.1305,20.785278320312,-18.172729492188,-1.9569091796875
0.131,22.426879882812,-15.770385742188,-5.8006591796875
0.1315,22.747192382812,-12.967651367188,-8.9637451171875
0.132,23.027465820312,-9.8446044921875,-12.206909179688
0.1325,22.226684570312,-4.8797607421875,-16.370971679688
0.133,20.785278320312,-0.7957763671875,-19.093627929688
0.1335,18.543090820312,3.3282470703125,-20.935424804688
0.134,16.380981445312,7.0118408203125,-22.496948242188
0.1345,12.817504882812,10.094848632812,-22.256713867188
0.135,8.6534423828125,13.738403320312,-21.896362304688
0.1355,4.0089111328125,17.141723632812,-20.855346679688
0.136,-1.3963623046875,19.744262695312,-18.412963867188
0.1365,-5.2401123046875,21.065551757812,-16.130737304688
0.137,-8.4031982421875,21.626098632812,-13.688354492188
0.1375,-11.566284179688,21.746215820312,-10.725463867188
0.138,-15.850463867188,20.665161132812,-5.6004638671875
0.1385,-18.733276367188,19.223754882812,-1.4364013671875
0.139,-20.815307617188,17.061645507812,2.8477783203125
0.1395,-22.216674804688,14.819458007812,6.4512939453125
0.14,-22.216674804688,11.616333007812,9.5743408203125
0.1405,-22.296752929688,8.2930908203125,13.017700195312
0.141,-21.536010742188,3.8487548828125,16.661254882812
0.1415,-19.854370117188,-0.6356201171875,19.383911132812
0.142,-17.532104492188,-4.3192138671875,20.825317382812
0.1425,-15.410034179688,-7.5223388671875,21.986450195312
0.143,-12.206909179688,-10.525268554688,21.946411132812
0.1435,-7.0819091796875,-14.529174804688,21.065551757812
0.144,-2.8778076171875,-17.331909179688,19.824340820312
0.1445,2.0870361328125,-19.654174804688,17.462036132812
0.145,5.6905517578125,-20.895385742188,15.339965820312
0.1455,8.7735595703125,-21.015502929688,12.537231445312
0.146,12.016723632812,-21.095581054688,9.5743408203125
0.1465,15.980590820312,-20.054565429688,4.7296142578125
0.147,18.743286132812,-18.212768554688,0.1651611328125
0.1475,20.464965820312,-16.170776367188,-3.5584716796875
0.148,21.586059570312,-14.008666992188,-6.8016357421875
0.1485,21.546020507812,-10.885620117188,-9.8045654296875
0.149,21.305786132812,-6.8416748046875,-13.608276367188
0.1495,20.625122070312,-3.1580810546875,-16.571166992188
0.15,18.743286132812,1.2462158203125,-19.093627929688
0.1505,16.541137695312,4.7696533203125,-20.494995117188
0.151,14.018676757812,7.7325439453125,-20.975463867188
0.1515,11.015747070312,10.815551757812,-21.215698242188
0.152,5.5704345703125,14.859497070312,-20.054565429688
0.1525,1.2061767578125,17.421997070312,-18.453002929688
0.153,-2.9178466796875,19.223754882812,-16.531127929688
0.1535,-6.3211669921875,20.464965820312,-14.569213867188
0.154,-9.4041748046875,20.344848632812,-11.486206054688
0.1545,-12.887573242188,20.104614257812,-7.8826904296875
0.155,-16.330932617188,19.263793945312,-3.7186279296875
0.1555,-18.933471679688,17.141723632812,0.9259033203125
0.156,-20.334838867188,15.179809570312,4.2891845703125
0.1565,-21.135620117188,12.817504882812,7.3721923828125
0.157,-21.215698242188,9.9346923828125,10.375122070312
0.1575,-20.695190429688,5.3302001953125,14.419067382812
0.158,-19.694213867188,1.6065673828125,17.141723632812
0.1585,-17.932495117188,-2.3172607421875,19.223754882812
0.159,-15.970581054688,-5.6405029296875,20.585083007812
0.1595,-12.887573242188,-8.5233154296875,20.625122070312
0.16,-9.6043701171875,-11.806518554688,20.745239257812
0.1605,-4.5194091796875,-15.530151367188,19.584106445312
0.161,0.3253173828125,-17.932495117188,17.381958007812
0.1615,3.7686767578125,-19.333862304688,15.580200195312
0.162,6.9317626953125,-20.214721679688,13.578247070312
0.1625,9.9346923828125,-20.054565429688,10.535278320312
0.163,13.818481445312,-19.453979492188,6.2110595703125
0.1635,16.701293945312,-18.372924804688,2.3272705078125
0.164,18.983520507812,-16.370971679688,-1.9569091796875
0.1645,20.144653320312,-14.369018554688,-4.9998779296875
0.165,20.464965820312,-11.766479492188,-8.1229248046875
0.1655,20.625122070312,-8.7235107421875,-11.045776367188
0.166,20.024536132812,-4.3592529296875,-14.729370117188
0.1665,18.463012695312,-0.4754638671875,-17.171752929688
0.167,16.701293945312,3.0079345703125,-18.853393554688
0.1675,14.779418945312,6.0909423828125,-20.054565429688
0.168,11.616333007812,8.8936767578125,-19.894409179688
0.1685,7.4923095703125,12.497192382812,-19.534057617188
0.169,3.2481689453125,15.540161132812,-18.573120117188
0.1695,-1.3963623046875,17.662231445312,-16.370971679688
0.17,-4.4393310546875,18.863403320312,-14.609252929688
0.1705,-7.4022216796875,19.383911132812,-12.447143554688
0.171,-10.485229492188,19.343872070312,-9.4842529296875
0.1715,-14.168823242188,18.583129882812,-5.0799560546875
0.172,-16.811401367188,17.141723632812,-1.1160888671875
0.1725,-18.653198242188,15.339965820312,2.5274658203125
0.173,-19.654174804688,13.418090820312,5.4102783203125
0.1735,-19.814331054688,10.575317382812,8.3331298828125
0.174,-19.774291992188,7.0919189453125,11.776489257812
0.1745,-19.293823242188,3.4083251953125,14.979614257812
0.175,-17.612182617188,-0.6356201171875,17.261840820312
0.1755,-15.890502929688,-3.6785888671875,18.583129882812
0.176,-13.928588867188,-6.5213623046875,19.544067382812
0.1765,-10.885620117188,-9.4041748046875,19.504028320312
0.177,-6.1209716796875,-13.127807617188,18.703247070312
0.1775,-2.0770263671875,-15.770385742188,17.421997070312
0.178,1.9669189453125,-17.612182617188,15.620239257812
