wavelength,x,y,z
0.0,-2.8828125,2.962890625,-0.6005859375
0.0005,-2.482421875,3.1630859375,-1.28125
0.001,-1.921875,3.5234375,-2.1220703125
0.0015,-1.2412109375,3.4833984375,-2.802734375
0.002,-0.7607421875,3.2431640625,-2.8828125
0.0025,-0.2802734375,3.0830078125,-3.203125
0.003,0.2802734375,2.8427734375,-3.5234375
0.0035,1.041015625,2.162109375,-3.5634765625
0.004,1.76171875,1.6416015625,-3.763671875
0.0045,2.322265625,0.9208984375,-3.5634765625
0.005,2.5625,0.3203125,-3.283203125
0.0055,2.8427734375,-0.16015625,-3.04296875
0.006,3.123046875,-0.80078125,-2.72265625
0.0065,3.3232421875,-1.6015625,-2.1220703125
0.007,3.283203125,-2.2822265625,-1.4814453125
0.0075,3.04296875,-2.6025390625,-0.9208984375
0.008,2.962890625,-3.0830078125,-0.400390625
0.0085,2.6826171875,-3.4033203125,0.1201171875
0.009,2.162109375,-3.603515625,0.880859375
0.0095,1.681640625,-3.923828125,1.6015625
0.01,1.041015625,-3.8037109375,2.2021484375
0.0105,0.6005859375,-3.5634765625,2.3623046875
0.011,0.1201171875,-3.4033203125,2.642578125
0.0115,-0.48046875,-3.1630859375,2.962890625
0.012,-1.28125,-2.4423828125,3.04296875
0.0125,-1.8818359375,-1.9619140625,3.1630859375
0.013,-2.322265625,-1.3212890625,2.962890625
0.0135,-2.642578125,-0.720703125,2.802734375
0.014,-2.9228515625,-0.240234375,2.5224609375
0.0145,-3.203125,0.4404296875,2.1220703125
0.015,-3.4033203125,1.2412109375,1.5615234375
0.0155,-3.283203125,1.841796875,0.9208984375
0.016,-3.0830078125,2.08203125,0.4404296875
0.0165,-3.0830078125,2.5625,0.0
0.017,-2.7626953125,2.8828125,-0.6806640625
0.0175,-2.2021484375,3.04296875,-1.44140625
0.018,-1.7216796875,3.3232421875,-2.08203125
0.0185,-1.1611328125,3.203125,-2.5625
0.019,-0.720703125,3.04296875,-2.72265625
0.0195,-0.2001953125,2.8427734375,-3.04296875
0.02,0.4404296875,2.5224609375,-3.36328125
0.0205,1.201171875,1.921875,-3.5234375
0.021,1.76171875,1.361328125,-3.4833984375
0.0215,2.08203125,0.7607421875,-3.203125
0.022,2.5224609375,0.2802734375,-3.1630859375
0.0225,2.72265625,-0.3203125,-2.8427734375
0.023,2.9228515625,-0.9609375,-2.40234375
0.0235,3.1630859375,-1.681640625,-1.9619140625
0.024,3.04296875,-2.2822265625,-1.28125
0.0245,2.8427734375,-2.6025390625,-0.8408203125
0.025,2.7626953125,-3.0029296875,-0.3203125
0.0255,2.4423828125,-3.4033203125,0.3603515625
0.026,1.841796875,-3.5234375,1.1611328125
0.0265,1.4013671875,-3.6435546875,1.6416015625
0.027,0.880859375,-3.5634765625,2.0419921875
0.0275,0.48046875,-3.4033203125,2.3623046875
0.028,-0.080078125,-3.0830078125,2.5625
0.0285,-0.80078125,-2.72265625,2.8427734375
0.029,-1.521484375,-2.2021484375,3.04296875
0.0295,-1.9619140625,-1.5615234375,2.8828125
0.03,-2.2822265625,-1.041015625,2.6826171875
0.0305,-2.72265625,-0.5205078125,2.5625
0.031,-2.962890625,0.080078125,2.2421875
0.0315,-3.0830078125,0.80078125,1.7216796875
0.032,-3.2431640625,1.4013671875,1.28125
0.0325,-3.123046875,1.8818359375,0.6005859375
0.033,-3.0029296875,2.2021484375,0.240234375
0.0335,-2.802734375,2.5224609375,-0.3603515625
0.034,-2.4423828125,3.0029296875,-1.041015625
0.0345,-1.8017578125,3.1630859375,-1.841796875
0.035,-1.4013671875,3.1630859375,-2.2021484375
0.0355,-0.9208984375,3.0029296875,-2.5224609375
0.036,-0.5205078125,3.0029296875,-2.8828125
0.0365,0.16015625,2.5625,-3.123046875
0.037,0.8408203125,2.1220703125,-3.36328125
0.0375,1.521484375,1.6416015625,-3.5234375
0.038,1.9619140625,0.9609375,-3.283203125
0.0385,2.2421875,0.48046875,-3.0830078125
0.039,2.642578125,-0.0400390625,-2.9228515625
0.0395,2.9228515625,-0.7607421875,-2.6025390625
0.04,3.0830078125,-1.521484375,-1.9619140625
0.0405,3.04296875,-2.0419921875,-1.5615234375
0.041,2.9228515625,-2.5224609375,-0.9208984375
0.0415,2.8427734375,-2.9228515625,-0.5205078125
0.042,2.482421875,-3.203125,0.16015625
0.0425,2.0419921875,-3.5634765625,0.9609375
0.043,1.4814453125,-3.7236328125,1.681640625
0.0435,1.041015625,-3.5634765625,1.9619140625
0.044,0.6005859375,-3.36328125,2.2421875
0.0445,0.080078125,-3.283203125,2.6025390625
0.045,-0.6806640625,-2.802734375,2.8427734375
0.0455,-1.4013671875,-2.2021484375,3.0029296875
0.046,-1.9619140625,-1.76171875,3.04296875
0.0465,-2.3623046875,-1.12109375,2.7626953125
0.047,-2.6025390625,-0.640625,2.642578125
0.0475,-2.9228515625,0.0,2.322265625
0.048,-3.2431640625,0.7607421875,1.921875
0.0485,-3.3232421875,1.5615234375,1.2412109375
0.049,-3.1630859375,1.841796875,0.7607421875
0.0495,-3.04296875,2.2421875,0.16015625
0.05,-2.9228515625,2.6826171875,-0.3203125
0.0505,-2.40234375,2.962890625,-1.041015625
0.051,-1.9619140625,3.203125,-1.8017578125
0.0515,-1.4013671875,3.3232421875,-2.4423828125
0.052,-0.9609375,3.0830078125,-2.6025390625
0.0525,-0.48046875,2.9228515625,-2.8427734375
0.053,0.080078125,2.72265625,-3.203125
0.0535,0.880859375,2.2421875,-3.4833984375
0.054,1.5615234375,1.5615234375,-3.4833984375
0.0545,1.921875,1.0810546875,-3.36328125
0.055,2.3623046875,0.4404296875,-3.1630859375
0.0555,2.642578125,0.0,-2.962890625
0.056,2.8427734375,-0.640625,-2.5625
0.0565,3.1630859375,-1.4814453125,-2.2021484375
0.057,3.1630859375,-2.2021484375,-1.4814453125
0.0575,2.8828125,-2.482421875,-1.0009765625
0.058,2.802734375,-2.802734375,-0.5205078125
0.0585,2.642578125,-3.2431640625,0.0400390625
0.059,2.08203125,-3.4833984375,0.880859375
0.0595,1.5615234375,-3.68359375,1.5615234375
0.06,1.12109375,-3.6435546875,1.9619140625
0.0605,0.640625,-3.4833984375,2.2421875
0.061,0.16015625,-3.283203125,2.482421875
0.0615,-0.4404296875,-2.9228515625,2.72265625
0.062,-1.2412109375,-2.482421875,3.04296875
0.0625,-1.921875,-1.8017578125,3.04296875
0.063,-2.1220703125,-1.3212890625,2.802734375
0.0635,-2.5625,-0.7607421875,2.642578125
0.064,-2.8828125,-0.2802734375,2.482421875
0.0645,-3.04296875,0.4404296875,1.921875
0.065,-3.283203125,1.1611328125,1.4814453125
0.0655,-3.283203125,1.76171875,0.8408203125
0.066,-3.04296875,2.0419921875,0.400390625
0.0665,-2.8828125,2.4423828125,-0.080078125
0.067,-2.6826171875,2.8427734375,-0.6806640625
0.0675,-2.1220703125,3.123046875,-1.4814453125
0.068,-1.6015625,3.203125,-2.1220703125
0.0685,-1.1611328125,3.0830078125,-2.40234375
0.069,-0.6806640625,3.0029296875,-2.72265625
0.0695,-0.2001953125,2.8427734375,-3.0029296875
0.07,0.48046875,2.3623046875,-3.203125
0.0705,1.1611328125,1.9619140625,-3.4833984375
0.071,1.841796875,1.28125,-3.443359375
0.0715,2.0419921875,0.7607421875,-3.1630859375
0.072,2.40234375,0.240234375,-3.04296875
0.0725,2.72265625,-0.3603515625,-2.8828125
0.073,2.9228515625,-1.0810546875,-2.322265625
0.0735,3.04296875,-1.76171875,-1.841796875
0.074,3.0029296875,-2.2021484375,-1.2412109375
0.0745,2.8427734375,-2.5625,-0.80078125
0.075,2.6826171875,-2.8828125,-0.2802734375
0.0755,2.3623046875,-3.203125,0.3603515625
0.076,1.921875,-3.5634765625,1.12109375
0.0765,1.28125,-3.603515625,1.76171875
0.077,0.9208984375,-3.4033203125,1.921875
0.0775,0.48046875,-3.36328125,2.2822265625
0.078,-0.080078125,-3.123046875,2.5625
0.0785,-0.80078125,-2.5625,2.72265625
0.079,-1.44140625,-2.2021484375,2.962890625
0.0795,-2.001953125,-1.5615234375,2.8828125
0.08,-2.2421875,-1.041015625,2.642578125
0.0805,-2.6025390625,-0.6005859375,2.5224609375
0.081,-2.8828125,0.0,2.2421875
0.0815,-3.203125,0.80078125,1.681640625
0.082,-3.1630859375,1.4013671875,1.1611328125
0.0825,-3.04296875,1.8017578125,0.640625
0.083,-3.0029296875,2.2421875,0.2001953125
0.0835,-2.7626953125,2.5625,-0.3603515625
0.084,-2.2822265625,2.8427734375,-1.041015625
0.0845,-1.921875,3.1630859375,-1.76171875
0.085,-1.3212890625,3.1630859375,-2.2822265625
0.0855,-0.9609375,2.9228515625,-2.4423828125
0.086,-0.48046875,2.8427734375,-2.802734375
0.0865,0.1201171875,2.642578125,-3.1630859375
0.087,0.9208984375,2.0419921875,-3.3232421875
0.0875,1.521484375,1.5615234375,-3.4033203125
0.088,1.9619140625,0.9609375,-3.2431640625
0.0885,2.2822265625,0.400390625,-3.0830078125
0.089,2.5625,-0.1201171875,-2.8828125
0.0895,2.8427734375,-0.80078125,-2.5625
0.09,3.123046875,-1.5615234375,-2.0419921875
0.0905,3.04296875,-2.08203125,-1.4013671875
0.091,2.8427734375,-2.40234375,-0.9609375
0.0915,2.802734375,-2.8828125,-0.48046875
0.092,2.5224609375,-3.203125,0.2001953125
0.0925,1.921875,-3.4833984375,0.9609375
0.093,1.5615234375,-3.68359375,1.5615234375
0.0935,0.9609375,-3.603515625,2.0419921875
0.094,0.6005859375,-3.36328125,2.2421875
0.0945,0.0,-3.1630859375,2.5224609375
0.095,-0.6806640625,-2.8427734375,2.8427734375
0.0955,-1.521484375,-2.2021484375,3.04296875
0.096,-2.001953125,-1.6416015625,3.0029296875
0.0965,-2.322265625,-1.1611328125,2.72265625
0.097,-2.72265625,-0.640625,2.6826171875
0.0975,-2.962890625,0.0,2.2822265625
0.098,-3.203125,0.80078125,1.76171875
0.0985,-3.4033203125,1.5615234375,1.28125
0.099,-3.203125,2.0419921875,0.6005859375
0.0995,-2.962890625,2.2822265625,0.2001953125
0.1,-2.8828125,2.72265625,-0.3603515625
0.1005,-2.4423828125,3.123046875,-1.1611328125
0.101,-1.8017578125,3.283203125,-2.001953125
0.1015,-1.361328125,3.3232421875,-2.40234375
0.102,-0.8408203125,3.1630859375,-2.7626953125
0.1025,-0.400390625,3.04296875,-3.04296875
0.103,0.240234375,2.6025390625,-3.203125
0.1035,1.0009765625,2.162109375,-3.5634765625
0.104,1.841796875,1.521484375,-3.7236328125
0.1045,2.2021484375,0.8408203125,-3.4833984375
0.105,2.4423828125,0.3203125,-3.203125
0.1055,2.802734375,-0.2001953125,-3.0830078125
0.106,3.0830078125,-0.9208984375,-2.5625
0.1065,3.2431640625,-1.7216796875,-1.9619140625
0.107,3.283203125,-2.322265625,-1.4013671875
0.1075,3.123046875,-2.7626953125,-0.80078125
0.108,2.8427734375,-3.04296875,-0.3203125
0.1085,2.5224609375,-3.4033203125,0.3203125
0.109,2.0419921875,-3.8037109375,1.201171875
0.1095,1.361328125,-3.923828125,2.0419921875
0.11,0.9208984375,-3.7236328125,2.2421875
0.1105,0.400390625,-3.5634765625,2.5224609375
0.111,-0.080078125,-3.4033203125,2.8427734375
0.1115,-0.8408203125,-2.8427734375,3.0029296875
0.112,-1.6015625,-2.2822265625,3.203125
0.1125,-2.322265625,-1.681640625,3.2431640625
0.113,-2.6025390625,-1.041015625,2.962890625
0.1135,-2.8828125,-0.6005859375,2.642578125
0.114,-3.203125,0.080078125,2.482421875
0.1145,-3.4033203125,0.9609375,1.8818359375
0.115,-3.5634765625,1.76171875,1.1611328125
0.1155,-3.36328125,2.2021484375,0.640625
0.116,-3.203125,2.6025390625,0.080078125
0.1165,-2.962890625,2.8828125,-0.4404296875
0.117,-2.482421875,3.1630859375,-1.1611328125
0.1175,-1.9619140625,3.4833984375,-1.9619140625
0.118,-1.2412109375,3.5634765625,-2.7626953125
0.1185,-0.80078125,3.2431640625,-2.8828125
0.119,-0.3203125,3.0830078125,-3.1630859375
0.1195,0.2001953125,2.8828125,-3.4833984375
0.12,1.041015625,2.2421875,-3.603515625
0.1205,1.76171875,1.5615234375,-3.7236328125
0.121,2.322265625,0.9609375,-3.68359375
0.1215,2.6025390625,0.2802734375,-3.36328125
0.122,2.8427734375,-0.16015625,-3.0830078125
0.1225,3.1630859375,-0.80078125,-2.7626953125
0.123,3.4033203125,-1.6416015625,-2.2021484375
0.1235,3.443359375,-2.4423828125,-1.44140625
0.124,3.1630859375,-2.72265625,-0.9208984375
0.1245,3.0029296875,-3.1630859375,-0.3603515625
0.125,2.802734375,-3.5234375,0.2001953125
0.1255,2.162109375,-3.68359375,1.0009765625
0.126,1.6416015625,-3.9638671875,1.8017578125
0.1265,0.9609375,-4.00390625,2.482421875
0.127,0.5205078125,-3.68359375,2.5625
0.1275,0.0,-3.443359375,2.802734375
0.128,-0.640625,-3.203125,3.123046875
0.1285,-1.4814453125,-2.5224609375,3.2431640625
0.129,-2.2421875,-1.8818359375,3.3232421875
0.1295,-2.6025390625,-1.28125,3.0830078125
0.13,-2.9228515625,-0.640625,2.8427734375
0.1305,-3.1630859375,-0.080078125,2.5224609375
0.131,-3.36328125,0.640625,2.08203125
0.1315,-3.6435546875,1.521484375,1.521484375
0.132,-3.5634765625,2.2822265625,0.7607421875
0.1325,-3.203125,2.4423828125,0.240234375
0.133,-3.1630859375,2.8828125,-0.2802734375
0.1335,-2.802734375,3.203125,-0.9208984375
0.134,-2.08203125,3.36328125,-1.8017578125
0.1345,-1.6015625,3.603515625,-2.5224609375
0.135,-0.9609375,3.5234375,-3.0029296875
0.1355,-0.5205078125,3.203125,-3.1630859375
0.136,0.0,2.9228515625,-3.36328125
0.1365,0.720703125,2.5625,-3.7236328125
0.137,1.5615234375,1.8818359375,-3.8837890625
0.1375,2.2421875,1.12109375,-3.84375
0.138,2.5224609375,0.560546875,-3.443359375
0.1385,2.9228515625,0.0,-3.283203125
0.139,3.123046875,-0.6005859375,-2.9228515625
0.1395,3.283203125,-1.361328125,-2.3623046875
0.14,3.5234375,-2.2021484375,-1.8017578125
0.1405,3.4033203125,-2.8427734375,-1.0009765625
0.141,3.04296875,-3.04296875,-0.5205078125
0.1415,2.8828125,-3.443359375,0.0400390625
0.142,2.482421875,-3.8037109375,0.7607421875
0.1425,1.7216796875,-3.9638671875,1.7216796875
0.143,1.2412109375,-4.0439453125,2.2822265625
0.1435,0.6005859375,-3.8837890625,2.642578125
0.144,0.16015625,-3.6435546875,2.8427734375
0.1445,-0.4404296875,-3.2431640625,3.04296875
0.145,-1.28125,-2.72265625,3.283203125
0.1455,-2.162109375,-2.08203125,3.443359375
0.146,-2.6826171875,-1.3212890625,3.3232421875
0.1465,-2.8427734375,-0.720703125,2.9228515625
0.147,-3.2431640625,-0.2001953125,2.802734375
0.1475,-3.4033203125,0.5205078125,2.2822265625
0.148,-3.5634765625,1.4013671875,1.5615234375
0.1485,-3.68359375,2.08203125,1.0009765625
0.149,-3.5234375,2.6826171875,0.2802734375
0.1495,-3.1630859375,2.8427734375,-0.16015625
0.15,-2.8828125,3.1630859375,-0.80078125
0.1505,-2.40234375,3.5634765625,-1.681640625
0.151,-1.5615234375,3.7236328125,-2.6025390625
0.1515,-1.0810546875,3.6435546875,-2.962890625
0.152,-0.5205078125,3.36328125,-3.2431640625
0.1525,0.0,3.203125,-3.5634765625
0.153,0.6806640625,2.6025390625,-3.7236328125
0.1535,1.4814453125,1.9619140625,-3.923828125
0.154,2.322265625,1.3212890625,-4.00390625
0.1545,2.7626953125,0.6005859375,-3.7236328125
0.155,2.8828125,0.0400390625,-3.283203125
0.1555,3.283203125,-0.5205078125,-3.1630859375
0.156,3.5234375,-1.361328125,-2.5224609375
0.1565,3.603515625,-2.2822265625,-1.7216796875
0.157,3.5234375,-2.8828125,-1.1611328125
0.1575,3.3232421875,-3.36328125,-0.48046875
0.158,3.0029296875,-3.5634765625,0.0400390625
0.1585,2.5224609375,-3.8837890625,0.7607421875
0.159,1.921875,-4.2041015625,1.7216796875
0.1595,1.12109375,-4.32421875,2.6025390625
0.16,0.6005859375,-4.0439453125,2.802734375
0.1605,0.080078125,-3.8037109375,3.04296875
0.161,-0.5205078125,-3.5634765625,3.36328125
0.1615,-1.361328125,-2.8427734375,3.4033203125
0.162,-2.2021484375,-2.1220703125,3.5634765625
0.1625,-2.8828125,-1.361328125,3.5634765625
0.163,-3.203125,-0.6806640625,3.1630859375
0.1635,-3.283203125,-0.1201171875,2.802734375
0.164,-3.6435546875,0.5205078125,2.482421875
0.1645,-3.84375,1.521484375,1.76171875
0.165,-3.8837890625,2.4423828125,0.880859375
0.1655,-3.603515625,2.7626953125,0.2802734375
0.166,-3.4033203125,3.1630859375,-0.3203125
0.1665,-3.0830078125,3.443359375,-0.880859375
0.167,-2.4423828125,3.6435546875,-1.681640625
0.1675,-1.8017578125,3.8837890625,-2.5625
0.168,-1.0009765625,3.9638671875,-3.36328125
0.1685,-0.48046875,3.5234375,-3.4833984375
0.169,0.0,3.203125,-3.6435546875
0.1695,0.6005859375,2.9228515625,-4.00390625
0.17,1.521484375,2.162109375,-4.00390625
0.1705,2.3623046875,1.4013671875,-4.083984375
0.171,2.8427734375,0.6806640625,-3.8837890625
0.1715,3.1630859375,0.0,-3.5634765625
0.172,3.2431640625,-0.5205078125,-3.123046875
0.1725,3.5234375,-1.2412109375,-2.72265625
0.173,3.7236328125,-2.1220703125,-2.001953125
0.1735,3.68359375,-3.0029296875,-1.1611328125
0.174,3.283203125,-3.203125,-0.6005859375
0.1745,3.1630859375,-3.603515625,0.0
0.175,2.802734375,-3.8837890625,0.6005859375
0.1755,2.0419921875,-4.00390625,1.44140625
0.176,1.4814453125,-4.2841796875,2.2021484375
0.1765,0.6806640625,-4.244140625,2.8427734375
0.177,0.240234375,-3.84375,2.9228515625
0.1775,-0.2802734375,-3.5634765625,3.04296875
0.178,-0.9208984375,-3.203125,3.4033203125
0.1785,-1.76171875,-2.3623046875,3.443359375
0.179,-2.5224609375,-1.681640625,3.4833984375
0.1795,-2.8427734375,-1.0009765625,3.1630859375
0.18,-3.203125,-0.400390625,2.9228515625
0.1805,-3.283203125,0.1201171875,2.5224609375
0.181,-3.5634765625,0.8408203125,2.0419921875
0.1815,-3.7236328125,1.7216796875,1.4013671875
0.182,-3.6435546875,2.4423828125,0.640625
0.1825,-3.2431640625,2.5625,0.1201171875
0.183,-3.1630859375,3.04296875,-0.400390625
0.1835,-2.802734375,3.3232421875,-1.0009765625
0.184,-2.08203125,3.4833984375,-1.8818359375
0.1845,-1.5615234375,3.6435546875,-2.5625
0.185,-0.9208984375,3.4833984375,-3.0830078125
0.1855,-0.5205078125,3.203125,-3.203125
0.186,0.0400390625,2.9228515625,-3.36328125
0.1865,0.6806640625,2.6025390625,-3.68359375
0.187,1.5615234375,1.921875,-3.8037109375
0.1875,2.2421875,1.201171875,-3.7236328125
0.188,2.482421875,0.6005859375,-3.4033203125
0.1885,2.9228515625,0.0400390625,-3.283203125
0.189,3.04296875,-0.5205078125,-2.9228515625
0.1895,3.2431640625,-1.28125,-2.40234375
0.19,3.4833984375,-2.08203125,-1.8017578125
0.1905,3.3232421875,-2.72265625,-1.041015625
0.191,3.04296875,-2.9228515625,-0.6005859375
0.1915,2.9228515625,-3.36328125,-0.0400390625
0.192,2.5224609375,-3.7236328125,0.640625
0.1925,1.76171875,-3.8837890625,1.521484375
0.193,1.28125,-4.00390625,2.08203125
0.1935,0.640625,-3.84375,2.482421875
0.194,0.2802734375,-3.603515625,2.7626953125
0.1945,-0.3203125,-3.203125,2.8828125
0.195,-1.12109375,-2.7626953125,3.203125
0.1955,-1.9619140625,-2.1220703125,3.36328125
0.196,-2.5224609375,-1.361328125,3.203125
0.1965,-2.72265625,-0.8408203125,2.8427734375
0.197,-3.1630859375,-0.3203125,2.802734375
0.1975,-3.36328125,0.400390625,2.2822265625
0.198,-3.4833984375,1.28125,1.6015625
0.1985,-3.5634765625,1.921875,1.0810546875
0.199,-3.4033203125,2.5224609375,0.3603515625
0.1995,-3.1630859375,2.72265625,-0.080078125
0.2,-2.8828125,3.04296875,-0.6806640625
0.2005,-2.40234375,3.4033203125,-1.5615234375
0.201,-1.6015625,3.5634765625,-2.4423828125
0.2015,-1.1611328125,3.4833984375,-2.8427734375
0.202,-0.6005859375,3.283203125,-3.0830078125
0.2025,-0.1201171875,3.1630859375,-3.443359375
0.203,0.6005859375,2.6025390625,-3.5634765625
0.2035,1.4013671875,2.0419921875,-3.8037109375
0.204,2.162109375,1.4013671875,-3.8837890625
0.2045,2.6025390625,0.6005859375,-3.603515625
0.205,2.7626953125,0.1201171875,-3.203125
0.2055,3.1630859375,-0.48046875,-3.0830078125
0.206,3.36328125,-1.28125,-2.5224609375
0.2065,3.4833984375,-2.2021484375,-1.76171875
0.207,3.36328125,-2.6826171875,-1.1611328125
0.2075,3.203125,-3.1630859375,-0.5205078125
0.208,3.0029296875,-3.443359375,-0.0400390625
0.2085,2.482421875,-3.7236328125,0.640625
0.209,1.921875,-4.083984375,1.521484375
0.2095,1.1611328125,-4.1640625,2.3623046875
0.21,0.6806640625,-3.8837890625,2.5625
0.2105,0.2001953125,-3.5634765625,2.7626953125
0.211,-0.3203125,-3.4833984375,3.123046875
0.2115,-1.1611328125,-2.72265625,3.203125
0.212,-1.9619140625,-2.08203125,3.36328125
0.2125,-2.5625,-1.4814453125,3.3232421875
0.213,-2.9228515625,-0.80078125,3.04296875
0.2135,-3.04296875,-0.3203125,2.6826171875
0.214,-3.36328125,0.3203125,2.40234375
0.2145,-3.603515625,1.201171875,1.76171875
0.215,-3.603515625,2.0419921875,1.0009765625
0.2155,-3.36328125,2.3623046875,0.48046875
0.216,-3.203125,2.7626953125,-0.1201171875
0.2165,-3.0029296875,3.0830078125,-0.640625
0.217,-2.3623046875,3.203125,-1.4013671875
0.2175,-1.921875,3.5234375,-2.2021484375
0.218,-1.1611328125,3.603515625,-2.8828125
0.2185,-0.720703125,3.3232421875,-3.04296875
0.219,-0.240234375,3.04296875,-3.203125
0.2195,0.2802734375,2.8828125,-3.5634765625
0.22,1.12109375,2.2021484375,-3.68359375
0.2205,1.921875,1.521484375,-3.7236328125
0.221,2.322265625,0.9208984375,-3.5634765625
0.2215,2.6826171875,0.2802734375,-3.36328125
0.222,2.8828125,-0.2001953125,-3.0830078125
0.2225,3.123046875,-0.8408203125,-2.642578125
0.223,3.36328125,-1.6416015625,-2.162109375
0.2235,3.36328125,-2.482421875,-1.361328125
0.224,3.123046875,-2.6826171875,-0.880859375
0.2245,2.9228515625,-3.1630859375,-0.3603515625
0.225,2.802734375,-3.5634765625,0.16015625
0.2255,2.0419921875,-3.68359375,0.9609375
0.226,1.6015625,-3.8837890625,1.76171875
0.2265,0.9609375,-3.84375,2.2822265625
0.227,0.5205078125,-3.6435546875,2.5224609375
0.2275,0.0400390625,-3.36328125,2.6826171875
0.228,-0.560546875,-3.0830078125,3.0029296875
