wavelength,x,y,z
0.0,25.710083007812,-22.016479492188,-3.7186279296875
0.0005,27.191528320312,-18.453002929688,-8.8836669921875
0.001,26.831176757812,-13.328002929688,-13.648315429688
0.0015,26.791137695312,-10.244995117188,-16.811401367188
0.002,25.109497070312,-5.0799560546875,-20.174682617188
0.0025,23.347778320312,-0.5555419921875,-22.937377929688
0.003,20.224731445312,4.8497314453125,-25.099487304688
0.0035,16.220825195312,10.735473632812,-26.941284179688
0.004,10.695434570312,14.859497070312,-25.619995117188
0.0045,7.2520751953125,18.663208007812,-25.940307617188
0.005,2.0469970703125,21.225708007812,-23.377807617188
0.0055,-3.5584716796875,24.468872070312,-21.215698242188
0.006,-8.6033935546875,25.830200195312,-17.572143554688
0.0065,-14.248901367188,26.911254882812,-13.087768554688
0.007,-17.211791992188,26.230590820312,-9.5242919921875
0.0075,-21.335815429688,25.589965820312,-4.7596435546875
0.008,-23.497924804688,23.588012695312,-0.5955810546875
0.0085,-25.940307617188,20.825317382812,4.6495361328125
0.009,-27.061401367188,16.941528320312,9.7344970703125
0.0095,-26.260620117188,11.616333007812,14.258911132812
0.01,-26.460815429688,8.9337158203125,17.221801757812
0.0105,-24.338745117188,3.7686767578125,20.224731445312
0.011,-22.536987304688,-1.1160888671875,23.267700195312
0.0115,-19.013549804688,-6.2410888671875,24.829223632812
0.012,-14.849487304688,-11.886596679688,26.350708007812
0.0125,-9.8846435546875,-15.450073242188,24.909301757812
0.013,-6.0408935546875,-19.253784179688,24.909301757812
0.0135,-0.9158935546875,-21.495971679688,22.066528320312
0.014,4.5294189453125,-24.659057617188,19.984497070312
0.0145,9.7344970703125,-25.579956054688,15.820434570312
0.015,14.859497070312,-26.140502929688,11.336059570312
0.0155,17.662231445312,-25.980346679688,8.3731689453125
0.016,21.626098632812,-24.859252929688,3.3282470703125
0.0165,23.828247070312,-22.777221679688,-1.1561279296875
0.017,25.750122070312,-19.894409179688,-5.9608154296875
0.0175,26.711059570312,-15.850463867188,-11.045776367188
0.018,25.710083007812,-10.645385742188,-15.129760742188
0.0185,25.910278320312,-8.0028076171875,-18.052612304688
0.019,23.427856445312,-2.6776123046875,-20.855346679688
0.0195,21.706176757812,2.3272705078125,-24.058471679688
0.02,17.421997070312,7.4923095703125,-24.859252929688
0.0205,13.217895507812,12.817504882812,-26.100463867188
0.021,8.8135986328125,16.220825195312,-25.019409179688
0.0215,4.3292236328125,19.864379882812,-24.298706054688
0.022,-0.7957763671875,22.106567382812,-21.495971679688
0.0225,-6.0809326171875,25.069458007812,-19.293823242188
0.023,-11.286010742188,25.589965820312,-14.729370117188
0.0235,-15.650268554688,25.670043945312,-10.405151367188
0.024,-18.693237304688,25.830200195312,-7.6424560546875
0.0245,-22.256713867188,23.948364257812,-2.2772216796875
0.025,-24.498901367188,21.546020507812,2.5274658203125
0.0255,-25.820190429688,18.262817382812,7.0518798828125
0.026,-26.701049804688,14.138793945312,12.216918945312
0.0265,-25.339721679688,9.3341064453125,15.660278320312
0.027,-25.459838867188,6.2510986328125,18.863403320312
0.0275,-22.737182617188,0.7657470703125,21.626098632812
0.028,-20.775268554688,-4.3992919921875,24.789184570312
0.0285,-16.010620117188,-9.2039794921875,24.789184570312
0.029,-11.806518554688,-14.369018554688,25.750122070312
0.0295,-7.7625732421875,-17.331909179688,24.669067382812
0.03,-2.5174560546875,-20.975463867188,23.107543945312
0.0305,2.6475830078125,-23.137573242188,20.304809570312
0.031,8.1729736328125,-25.780151367188,17.462036132812
0.0315,12.817504882812,-25.780151367188,12.977661132812
0.032,17.141723632812,-25.740112304688,8.6534423828125
0.0325,19.984497070312,-25.619995117188,5.7305908203125
0.033,23.267700195312,-23.417846679688,0.2452392578125
0.0335,25.429809570312,-20.815307617188,-4.7996826171875
0.034,26.070434570312,-16.691284179688,-9.3641357421875
0.0345,26.711059570312,-12.807495117188,-13.968627929688
0.035,25.309692382812,-8.2030029296875,-17.211791992188
0.0355,24.629028320312,-4.5194091796875,-20.214721679688
0.036,21.866333007812,0.8458251953125,-22.737182617188
0.0365,19.263793945312,6.4112548828125,-25.700073242188
0.037,14.018676757812,11.015747070312,-25.059448242188
0.0375,9.9747314453125,15.660278320312,-25.619995117188
0.038,6.2110595703125,18.503051757812,-24.739135742188
0.0385,0.4854736328125,21.906372070312,-22.496948242188
0.039,-4.4393310546875,23.908325195312,-19.734252929688
0.0395,-10.204956054688,25.950317382812,-16.130737304688
0.04,-14.168823242188,25.790161132812,-12.126831054688
0.0405,-18.252807617188,25.469848632812,-7.7625732421875
0.041,-20.855346679688,24.829223632812,-4.5194091796875
0.0415,-23.738159179688,22.426879882812,0.9659423828125
0.042,-26.020385742188,19.504028320312,6.1309814453125
0.0425,-25.780151367188,14.859497070312,10.535278320312
0.043,-26.420776367188,11.376098632812,14.699340820312
0.0435,-25.059448242188,7.0518798828125,17.702270507812
0.044,-23.778198242188,2.7276611328125,20.785278320312
0.0445,-21.095581054688,-2.3572998046875,23.067504882812
0.045,-17.932495117188,-8.1229248046875,25.630004882812
0.0455,-12.767456054688,-12.327026367188,24.669067382812
0.046,-8.8436279296875,-16.571166992188,24.989379882812
0.0465,-4.9598388671875,-19.053588867188,23.668090820312
0.047,0.9259033203125,-22.416870117188,21.305786132812
0.0475,5.9708251953125,-24.418823242188,18.342895507812
0.048,11.536254882812,-25.619995117188,14.058715820312
0.0485,15.059692382812,-25.780151367188,10.735473632812
0.049,19.063598632812,-25.259643554688,6.2510986328125
0.0495,21.425903320312,-24.258666992188,2.6075439453125
0.05,24.148559570312,-21.576049804688,-2.5574951171875
0.0505,26.270629882812,-18.372924804688,-7.9627685546875
0.051,25.309692382812,-13.448120117188,-11.926635742188
0.0515,26.070434570312,-10.285034179688,-15.890502929688
0.052,24.428833007812,-6.0809326171875,-18.453002929688
0.0525,22.907348632812,-1.3563232421875,-21.696166992188
0.053,19.904418945312,3.8087158203125,-23.738159179688
0.0535,16.060668945312,9.5343017578125,-25.579956054688
0.054,11.336059570312,13.418090820312,-24.819213867188
0.0545,7.3721923828125,17.421997070312,-24.819213867188
0.055,3.3282470703125,19.664184570312,-23.057495117188
0.0555,-2.3973388671875,22.907348632812,-20.775268554688
0.056,-7.6024169921875,24.789184570312,-17.492065429688
0.0565,-12.687377929688,25.109497070312,-12.887573242188
0.057,-16.090698242188,25.589965820312,-10.044799804688
0.0575,-19.654174804688,24.629028320312,-5.2801513671875
0.058,-22.216674804688,23.187622070312,-1.4364013671875
0.0585,-24.378784179688,20.424926757812,3.6085205078125
0.059,-26.140502929688,16.941528320312,8.8536376953125
0.0595,-25.019409179688,11.816528320312,12.857543945312
0.06,-25.499877929688,8.8936767578125,16.340942382812
0.0605,-23.858276367188,4.7296142578125,18.823364257812
0.061,-22.136596679688,-0.5155029296875,22.306762695312
0.0615,-18.853393554688,-5.4002685546875,23.788208007812
0.062,-14.609252929688,-11.085815429688,25.229614257812
0.0625,-10.405151367188,-14.409057617188,24.388793945312
0.063,-6.0408935546875,-18.332885742188,24.028442382812
0.0635,-1.5565185546875,-20.535034179688,21.786254882812
0.064,3.7686767578125,-23.457885742188,19.584106445312
0.0645,9.3341064453125,-25.099487304688,15.660278320312
0.065,13.818481445312,-24.939331054688,11.055786132812
0.0655,17.101684570312,-25.780151367188,8.4132080078125
0.066,20.464965820312,-24.018432617188,3.5684814453125
0.0665,23.067504882812,-22.336791992188,-0.7156982421875
0.067,24.709106445312,-19.293823242188,-5.4403076171875
0.0675,26.070434570312,-15.530151367188,-10.565307617188
0.068,24.829223632812,-10.725463867188,-14.248901367188
0.0685,25.109497070312,-7.5623779296875,-17.652221679688
0.069,22.947387695312,-3.1981201171875,-19.814331054688
0.0695,21.185668945312,1.9268798828125,-23.217651367188
0.07,17.061645507812,7.0518798828125,-24.098510742188
0.0705,12.657348632812,12.296997070312,-24.939331054688
0.071,9.0938720703125,15.380004882812,-24.498901367188
0.0715,4.2891845703125,18.983520507812,-23.377807617188
0.072,-0.4754638671875,21.265747070312,-21.015502929688
0.0725,-5.2000732421875,23.668090820312,-18.773315429688
0.073,-10.805541992188,24.989379882812,-14.609252929688
0.0735,-14.609252929688,24.468872070312,-10.084838867188
0.074,-17.972534179688,25.109497070312,-7.6024169921875
0.0745,-20.855346679688,23.027465820312,-2.6776123046875
0.075,-23.457885742188,21.265747070312,1.8067626953125
0.0755,-24.458862304688,17.702270507812,6.4112548828125
0.076,-25.379760742188,13.818481445312,11.255981445312
0.0765,-24.498901367188,9.6944580078125,14.459106445312
0.077,-24.258666992188,6.0909423828125,17.902465820312
0.0775,-22.096557617188,1.8067626953125,19.984497070312
0.078,-20.214721679688,-3.3182373046875,23.147583007812
0.0785,-15.850463867188,-8.3631591796875,23.828247070312
0.079,-11.245971679688,-13.087768554688,23.908325195312
0.0795,-8.4031982421875,-15.970581054688,23.988403320312
0.08,-3.0379638671875,-19.253784179688,21.906372070312
0.0805,1.6466064453125,-21.696166992188,19.864379882812
0.081,6.5714111328125,-23.618041992188,16.941528320312
0.0815,11.536254882812,-24.859252929688,13.017700195312
0.082,15.299926757812,-24.058471679688,8.8135986328125
0.0825,18.583129882812,-24.498901367188,6.0108642578125
0.083,21.105590820312,-22.416870117188,1.3262939453125
0.0835,23.868286132812,-20.374877929688,-3.5584716796875
0.084,24.148559570312,-16.531127929688,-7.6424560546875
0.0845,24.989379882812,-12.527221679688,-12.607299804688
0.085,24.188598632812,-9.0838623046875,-15.209838867188
0.0855,23.387817382812,-4.8397216796875,-18.653198242188
0.086,21.225708007812,-0.5155029296875,-20.855346679688
0.0865,18.863403320312,4.5694580078125,-23.457885742188
0.087,14.338989257812,9.7344970703125,-24.098510742188
0.0875,9.7344970703125,13.898559570312,-23.698120117188
0.088,7.0518798828125,16.821411132812,-24.018432617188
0.0885,1.3663330078125,19.864379882812,-21.455932617188
0.089,-3.3182373046875,22.426879882812,-19.413940429688
0.0895,-8.3231201171875,23.748168945312,-15.690307617188
0.09,-12.847534179688,24.789184570312,-12.327026367188
0.0905,-16.290893554688,23.988403320312,-8.2030029296875
0.091,-19.534057617188,23.948364257812,-4.8397216796875
0.0915,-21.976440429688,21.465942382812,0.0450439453125
0.092,-24.498901367188,19.263793945312,4.8096923828125
0.0925,-24.298706054688,14.819458007812,9.0938720703125
0.093,-24.779174804688,11.015747070312,13.458129882812
0.0935,-24.338745117188,7.8927001953125,16.100708007812
0.094,-22.777221679688,2.9278564453125,19.504028320312
0.0945,-20.535034179688,-1.5965576171875,21.786254882812
0.095,-17.331909179688,-6.7615966796875,23.668090820312
0.0955,-13.127807617188,-11.406127929688,24.148559570312
0.096,-8.5233154296875,-15.289916992188,23.427856445312
0.0965,-5.4403076171875,-18.092651367188,23.107543945312
0.097,0.4854736328125,-21.095581054688,20.344848632812
0.0975,5.2901611328125,-23.658081054688,18.142700195312
0.098,10.335083007812,-23.978393554688,13.578247070312
0.0985,14.218872070312,-24.899291992188,10.655395507812
0.099,17.702270507812,-24.098510742188,6.5313720703125
0.0995,20.745239257812,-23.417846679688,2.6876220703125
0.1,22.907348632812,-20.775268554688,-2.1571044921875
0.1005,25.109497070312,-18.012573242188,-7.0819091796875
0.101,24.468872070312,-13.408081054688,-11.245971679688
0.1015,24.629028320312,-9.6444091796875,-15.089721679688
0.102,24.068481445312,-6.6815185546875,-17.492065429688
0.1025,22.066528320312,-1.2762451171875,-20.855346679688
0.103,19.584106445312,3.3682861328125,-23.057495117188
0.1035,15.420043945312,8.6134033203125,-24.058471679688
0.104,11.616333007812,12.777465820312,-24.458862304688
0.1045,7.0518798828125,16.380981445312,-23.537963867188
0.105,3.4884033203125,18.983520507812,-22.577026367188
0.1055,-2.0770263671875,21.706176757812,-19.894409179688
0.106,-7.2020263671875,24.228637695312,-17.331909179688
0.1065,-11.806518554688,23.868286132812,-12.487182617188
0.107,-15.450073242188,24.789184570312,-9.7244873046875
0.1075,-18.573120117188,23.748168945312,-5.6805419921875
0.108,-21.495971679688,22.466918945312,-1.4364013671875
0.1085,-23.377807617188,19.704223632812,3.2481689453125
0.109,-24.939331054688,16.421020507812,8.1329345703125
0.1095,-24.338745117188,12.056762695312,11.936645507812
0.11,-24.218627929688,8.2930908203125,15.660278320312
0.1105,-23.337768554688,5.2501220703125,17.782348632812
0.111,-21.295776367188,-0.1551513671875,21.025512695312
0.1115,-18.493041992188,-5.1199951171875,23.187622070312
0.112,-13.888549804688,-9.8045654296875,23.307739257812
0.1125,-10.645385742188,-13.648315429688,23.908325195312
0.113,-6.0408935546875,-17.011596679688,22.627075195312
0.1135,-1.9168701171875,-19.574096679688,21.145629882812
0.114,2.9278564453125,-21.816284179688,18.703247070312
0.1145,8.5733642578125,-24.058471679688,15.420043945312
0.115,12.377075195312,-23.337768554688,10.935668945312
0.1155,16.180786132812,-24.298706054688,8.1729736328125
0.116,18.703247070312,-23.097534179688,4.4893798828125
0.1165,21.706176757812,-21.536010742188,-0.1551513671875
0.117,23.187622070312,-18.733276367188,-4.5194091796875
0.1175,24.148559570312,-14.889526367188,-9.3240966796875
0.118,23.828247070312,-11.286010742188,-12.647338867188
0.1185,23.507934570312,-7.4022216796875,-16.170776367188
0.119,22.266723632812,-4.1190185546875,-18.252807617188
0.1195,20.304809570312,0.8858642578125,-21.215698242188
0.12,17.021606445312,6.0909423828125,-23.137573242188
0.1205,12.296997070312,10.495239257812,-22.897338867188
0.121,9.5343017578125,13.978637695312,-23.658081054688
0.1215,5.0899658203125,16.941528320312,-22.136596679688
0.122,0.4854736328125,19.864379882812,-20.494995117188
0.1225,-3.9188232421875,21.786254882812,-18.132690429688
0.123,-9.3641357421875,23.588012695312,-14.529174804688
0.1235,-12.847534179688,23.067504882812,-10.645385742188
0.124,-16.651245117188,23.628051757812,-7.4022216796875
0.1245,-18.933471679688,22.426879882812,-3.9989013671875
0.125,-21.896362304688,20.585083007812,0.9259033203125
0.1255,-23.217651367188,17.542114257812,5.3302001953125
0.126,-23.578002929688,13.378051757812,9.8546142578125
0.1265,-23.898315429688,10.535278320312,13.097778320312
0.127,-22.977416992188,6.2110595703125,16.501098632812
0.1275,-21.776245117188,2.5675048828125,18.903442382812
0.128,-19.654174804688,-2.3172607421875,21.586059570312
0.1285,-16.010620117188,-7.7225341796875,23.347778320312
0.129,-11.245971679688,-11.726440429688,22.506958007812
0.1295,-8.5233154296875,-15.369995117188,23.467895507812
0.13,-3.5584716796875,-18.092651367188,21.305786132812
0.1305,1.2462158203125,-21.135620117188,19.704223632812
0.131,5.8907470703125,-22.617065429688,16.621215820312
0.1315,11.135864257812,-24.058471679688,12.857543945312
0.132,14.419067382812,-23.618041992188,9.2540283203125
0.1325,18.382934570312,-23.858276367188,5.4903564453125
0.133,20.665161132812,-22.056518554688,1.4464111328125
0.1335,23.347778320312,-20.054565429688,-3.3182373046875
0.134,24.188598632812,-16.370971679688,-7.8826904296875
0.1345,24.188598632812,-11.846557617188,-12.447143554688
0.135,24.468872070312,-9.2440185546875,-15.329956054688
0.1355,22.907348632812,-4.3192138671875,-18.653198242188
0.136,21.265747070312,0.0450439453125,-21.415893554688
0.1365,18.342895507812,4.8897705078125,-23.297729492188
0.137,14.298950195312,10.214965820312,-24.659057617188
0.1375,9.4542236328125,14.098754882812,-23.578002929688
0.138,6.1710205078125,17.662231445312,-23.898315429688
0.1385,0.8858642578125,20.304809570312,-21.295776367188
0.139,-4.1990966796875,23.307739257812,-19.373901367188
0.1395,-8.9237060546875,23.948364257812,-15.369995117188
0.14,-13.808471679688,24.869262695312,-11.526245117188
0.1405,-16.931518554688,24.468872070312,-8.0828857421875
0.141,-20.695190429688,23.748168945312,-3.5184326171875
0.1415,-22.857299804688,21.425903320312,1.0059814453125
0.142,-25.019409179688,18.863403320312,5.7706298828125
0.1425,-25.259643554688,14.699340820312,10.255004882812
0.143,-24.779174804688,9.9747314453125,14.459106445312
0.1435,-24.939331054688,7.3721923828125,17.261840820312
0.144,-22.577026367188,1.8468017578125,20.464965820312
0.1445,-20.775268554688,-2.8377685546875,23.107543945312
0.145,-16.811401367188,-7.6424560546875,23.988403320312
0.1455,-12.847534179688,-12.607299804688,25.029418945312
0.146,-8.0828857421875,-16.010620117188,23.668090820312
0.1465,-4.1590576171875,-19.373901367188,23.187622070312
0.147,1.2862548828125,-21.776245117188,20.264770507812
0.1475,6.4112548828125,-24.538940429688,18.062622070312
0.148,11.015747070312,-24.378784179688,13.378051757812
0.1485,15.420043945312,-25.019409179688,9.6544189453125
0.149,18.382934570312,-24.619018554688,6.3712158203125
0.1495,21.786254882812,-23.257690429688,1.5264892578125
0.15,23.708129882812,-20.775268554688,-2.9979248046875
0.1505,25.309692382812,-17.572143554688,-7.7225341796875
0.151,25.309692382812,-13.448120117188,-11.966674804688
0.1515,24.508911132812,-9.0037841796875,-15.610229492188
0.152,24.348754882812,-6.1610107421875,-18.292846679688
0.1525,21.786254882812,-0.7957763671875,-21.135620117188
0.153,19.784301757812,4.0089111328125,-23.858276367188
0.1535,15.059692382812,8.7735595703125,-23.898315429688
0.154,11.336059570312,13.297973632812,-24.659057617188
0.1545,7.2120361328125,16.501098632812,-23.778198242188
0.155,2.6876220703125,19.704223632812,-22.456909179688
0.1555,-2.3172607421875,21.826293945312,-19.774291992188
0.156,-7.4022216796875,24.308715820312,-17.171752929688
0.1565,-11.726440429688,24.068481445312,-12.727416992188
0.157,-15.730346679688,24.348754882812,-9.0438232421875
0.1575,-18.573120117188,24.068481445312,-6.0408935546875
0.158,-21.656127929688,22.266723632812,-1.1561279296875
0.1585,-23.698120117188,19.784301757812,3.5284423828125
0.159,-24.378784179688,16.060668945312,7.9327392578125
0.1595,-24.859252929688,12.417114257812,12.096801757812
0.16,-23.978393554688,8.2130126953125,15.420043945312
0.1605,-23.537963867188,4.8897705078125,18.302856445312
0.161,-21.175659179688,-0.2352294921875,20.985473632812
0.1615,-18.853393554688,-5.3201904296875,23.668090820312
0.162,-14.048706054688,-9.6444091796875,23.227661132812
0.1625,-10.445190429688,-13.848510742188,23.908325195312
0.163,-6.6014404296875,-16.851440429688,23.067504882812
0.1635,-1.3563232421875,-20.174682617188,21.265747070312
0.164,3.2081298828125,-22.136596679688,18.743286132812
0.1645,8.6934814453125,-24.178588867188,15.380004882812
0.165,12.657348632812,-24.058471679688,11.456176757812
0.1655,16.661254882812,-24.178588867188,7.5323486328125
0.166,19.343872070312,-23.698120117188,4.4893798828125
0.1665,22.346801757812,-21.656127929688,-0.6756591796875
0.167,24.348754882812,-18.973510742188,-5.4403076171875
0.1675,24.348754882812,-14.609252929688,-9.7645263671875
0.168,24.989379882812,-11.446166992188,-13.648315429688
0.1685,23.948364257812,-7.1619873046875,-16.931518554688
0.169,22.907348632812,-3.2381591796875,-19.854370117188
0.1695,20.464965820312,1.7667236328125,-22.296752929688
0.17,17.261840820312,7.4122314453125,-24.699096679688
0.1705,12.216918945312,11.536254882812,-23.778198242188
0.171,8.7735595703125,15.660278320312,-24.498901367188
0.1715,4.5694580078125,18.382934570312,-23.057495117188
0.172,-0.9959716796875,21.786254882812,-21.015502929688
0.1725,-5.5203857421875,23.427856445312,-18.212768554688
0.173,-11.085815429688,24.869262695312,-14.128784179688
0.1735,-14.689331054688,24.629028320312,-10.485229492188
0.174,-18.733276367188,24.428833007812,-6.1610107421875
0.1745,-21.135620117188,23.227661132812,-2.5574951171875
0.175,-23.858276367188,20.865356445312,2.5274658203125
0.1755,-25.459838867188,17.622192382812,7.4923095703125
0.176,-24.899291992188,12.737426757812,11.816528320312
0.1765,-25.379760742188,9.8546142578125,15.259887695312
0.177,-23.978393554688,5.1300048828125,18.503051757812
0.1775,-22.456909179688,0.6055908203125,21.465942382812
0.178,-19.694213867188,-4.1590576171875,23.427856445312
