wavelength,x,y,z
0.0,8.5633544921875,10.605346679688,-18.623168945312
0.0005,4.1190185546875,14.369018554688,-18.142700195312
0.001,-0.1651611328125,17.291870117188,-17.061645507812
0.0015,-3.0079345703125,19.053588867188,-16.180786132812
0.002,-5.7305908203125,19.373901367188,-14.018676757812
0.0025,-8.7735595703125,18.092651367188,-9.8946533203125
0.003,-12.136840820312,17.492065429688,-6.1309814453125
0.0035,-15.780395507812,17.091674804688,-2.1270751953125
0.004,-18.623168945312,15.890502929688,1.9168701171875
0.0045,-19.624145507812,14.248901367188,4.4393310546875
0.005,-19.263793945312,11.245971679688,7.0819091796875
0.0055,-18.583129882812,7.4822998046875,10.204956054688
0.006,-18.342895507812,3.6385498046875,13.808471679688
0.0065,-17.782348632812,-0.1651611328125,16.971557617188
0.007,-17.061645507812,-3.2081298828125,19.413940429688
0.0075,-15.179809570312,-5.8507080078125,20.174682617188
0.008,-11.095825195312,-8.6134033203125,18.933471679688
0.0085,-7.2120361328125,-11.856567382812,18.372924804688
0.009,-2.7276611328125,-15.580200195312,17.892456054688
0.0095,1.4364013671875,-18.262817382812,17.932495117188
0.01,3.9588623046875,-19.383911132812,15.490112304688
0.0105,6.6815185546875,-19.183715820312,12.767456054688
0.011,10.044799804688,-17.982543945312,8.4432373046875
0.0115,13.448120117188,-17.381958007812,4.5194091796875
0.012,16.811401367188,-16.781372070312,0.7156982421875
0.0125,19.253784179688,-15.660278320312,-2.8878173828125
0.013,19.694213867188,-13.458129882812,-5.4102783203125
0.0135,18.893432617188,-9.8946533203125,-8.2930908203125
0.014,18.372924804688,-6.2911376953125,-11.296020507812
0.0145,18.252807617188,-2.5274658203125,-15.099731445312
0.015,17.411987304688,1.3162841796875,-18.022583007812
0.0155,16.370971679688,3.9588623046875,-19.744262695312
0.016,13.888549804688,6.6815185546875,-19.944458007812
0.0165,9.3240966796875,9.9246826171875,-18.703247070312
0.017,5.4002685546875,13.207885742188,-18.222778320312
0.0175,1.1561279296875,16.611206054688,-17.582153320312
0.018,-2.6475830078125,19.013549804688,-16.461059570312
0.0185,-5.0899658203125,19.453979492188,-14.659301757812
0.019,-7.9727783203125,18.693237304688,-11.255981445312
0.0195,-11.376098632812,17.852416992188,-7.1719970703125
0.02,-15.059692382812,17.251831054688,-3.0079345703125
0.0205,-18.062622070312,16.250854492188,0.9559326171875
0.021,-19.904418945312,15.009643554688,3.9588623046875
0.0215,-19.904418945312,12.286987304688,6.6414794921875
0.022,-18.943481445312,8.1629638671875,9.8446044921875
0.0225,-18.583129882812,4.7196044921875,12.927612304688
0.023,-18.302856445312,0.8758544921875,16.571166992188
0.0235,-17.421997070312,-2.9278564453125,19.494018554688
0.024,-15.820434570312,-5.4102783203125,20.334838867188
0.0245,-12.657348632812,-8.0528564453125,19.894409179688
0.025,-8.0528564453125,-11.496215820312,18.893432617188
0.0255,-3.6885986328125,-15.019653320312,18.212768554688
0.026,0.4754638671875,-17.902465820312,17.211791992188
0.0265,3.7586669921875,-19.904418945312,16.170776367188
0.027,6.3612060546875,-19.744262695312,13.608276367188
0.0275,9.5242919921875,-18.543090820312,9.4442138671875
0.028,12.767456054688,-17.982543945312,5.8006591796875
0.0285,16.491088867188,-17.301879882812,1.5565185546875
0.029,19.253784179688,-16.020629882812,-2.4473876953125
0.0295,20.214721679688,-14.379028320312,-5.0499267578125
0.03,19.854370117188,-11.255981445312,-7.8126220703125
0.0305,18.893432617188,-6.9317626953125,-11.255981445312
0.031,18.573120117188,-3.3682861328125,-14.539184570312
0.0315,18.132690429688,0.5155029296875,-17.622192382812
0.032,17.131713867188,3.8787841796875,-20.304809570312
0.0325,14.729370117188,7.6824951171875,-20.424926757812
0.033,10.805541992188,9.3240966796875,-19.544067382812
0.0335,6.6014404296875,12.767456054688,-18.943481445312
0.034,1.9569091796875,16.370971679688,-18.142700195312
0.0345,-1.9669189453125,18.853393554688,-16.941528320312
0.035,-4.7696533203125,20.174682617188,-15.660278320312
0.0355,-7.5723876953125,19.654174804688,-12.577270507812
0.036,-11.055786132812,18.292846679688,-7.8927001953125
0.0365,-14.379028320312,17.852416992188,-4.2891845703125
0.037,-17.862426757812,17.011596679688,1.2762451171875
0.0375,-20.304809570312,15.650268554688,3.7186279296875
0.038,-19.223754882812,13.247924804688,6.3211669921875
0.0385,-19.904418945312,9.6444091796875,9.2440185546875
0.039,-17.942504882812,5.5604248046875,12.767456054688
0.0395,-18.783325195312,1.5965576171875,16.330932617188
0.04,-17.982543945312,-2.0870361328125,19.133666992188
0.0405,-16.901489257812,-3.8487548828125,21.175659179688
0.041,-13.818481445312,-7.7725830078125,20.775268554688
0.0415,-9.1739501953125,-11.055786132812,19.494018554688
0.042,-5.2100830078125,-14.419067382812,19.053588867188
0.0425,-0.4454345703125,-17.902465820312,18.052612304688
0.043,3.3582763671875,-20.104614257812,16.691284179688
0.0435,5.9207763671875,-19.223754882812,14.729370117188
0.044,10.244995117188,-19.744262695312,11.205932617188
0.0445,12.647338867188,-18.543090820312,6.5213623046875
0.045,16.090698242188,-17.902465820312,2.5174560546875
0.0455,19.133666992188,-16.821411132812,-1.4864501953125
0.046,21.055541992188,-15.420043945312,-4.8497314453125
0.0465,20.615112304688,-12.296997070312,-7.5323486328125
0.047,19.734252929688,-8.1729736328125,-10.775512695312
0.0475,19.333862304688,-4.5294189453125,-14.178833007812
0.048,18.813354492188,-0.3253173828125,-17.742309570312
0.0485,17.612182617188,3.3582763671875,-20.224731445312
0.049,15.970581054688,6.0809326171875,-21.345825195312
0.0495,12.447143554688,8.9237060546875,-20.705200195312
0.05,7.3221435546875,12.567260742188,-19.383911132812
0.0505,3.3983154296875,15.850463867188,-18.943481445312
0.051,-1.1260986328125,18.893432617188,-17.822387695312
0.0515,-4.6094970703125,20.815307617188,-16.461059570312
0.052,-7.1719970703125,20.334838867188,-13.618286132812
0.0525,-10.375122070312,19.333862304688,-9.6143798828125
0.053,-12.817504882812,18.533081054688,-5.2100830078125
0.0535,-17.702270507812,17.612182617188,-0.8458251953125
0.054,-20.224731445312,16.330932617188,2.9578857421875
0.0545,-21.505981445312,14.449096679688,6.0008544921875
0.055,-20.745239257812,10.925659179688,8.8035888671875
0.0555,-19.904418945312,7.6824951171875,12.327026367188
0.056,-19.504028320312,2.8377685546875,15.730346679688
0.0565,-18.863403320312,-0.0050048828125,19.133666992188
0.057,-17.502075195312,-4.8096923828125,21.415893554688
0.0575,-15.019653320312,-7.3321533203125,21.495971679688
0.058,-11.175903320312,-10.335083007812,20.735229492188
0.0585,-6.0509033203125,-14.178833007812,19.614135742188
0.059,-1.5665283203125,-17.542114257812,18.693237304688
0.0595,2.3973388671875,-20.024536132812,17.532104492188
0.06,5.6805419921875,-21.505981445312,15.970581054688
0.0605,8.4432373046875,-20.424926757812,12.327026367188
0.061,11.966674804688,-19.263793945312,7.8826904296875
0.0615,15.610229492188,-18.743286132812,5.1199951171875
0.062,19.173706054688,-17.582153320312,-0.8057861328125
0.0625,21.175659179688,-16.180786132812,-4.2491455078125
0.063,21.576049804688,-13.618286132812,-7.1319580078125
0.0635,20.695190429688,-9.8546142578125,-10.134887695312
0.064,19.894409179688,-5.2100830078125,-13.858520507812
0.0645,19.453979492188,-1.4063720703125,-17.301879882812
0.065,18.533081054688,2.5174560546875,-20.304809570312
0.0655,17.131713867188,5.8006591796875,-22.266723632812
0.066,13.488159179688,8.5633544921875,-21.425903320312
0.0665,9.2440185546875,11.846557617188,-20.545043945312
0.067,4.5194091796875,15.730346679688,-19.904418945312
0.0675,-0.4854736328125,19.093627929688,-18.543090820312
0.068,-3.8887939453125,20.975463867188,-17.261840820312
0.0685,-6.9718017578125,21.696166992188,-15.139770507812
0.069,-10.134887695312,20.414916992188,-10.935668945312
0.0695,-13.818481445312,20.494995117188,-6.2110595703125
0.07,-17.542114257812,18.573120117188,-2.0069580078125
0.0705,-20.705200195312,17.251831054688,2.5174560546875
0.071,-22.306762695312,15.490112304688,5.7606201171875
0.0715,-21.906372070312,12.046752929688,8.7635498046875
0.072,-21.025512695312,8.0428466796875,11.966674804688
0.0725,-20.384887695312,3.6385498046875,15.810424804688
0.073,-19.544067382812,-0.7257080078125,19.293823242188
0.0735,-18.342895507812,-4.3292236328125,23.057495117188
0.074,-16.621215820312,-7.4122314453125,23.097534179688
0.0745,-12.136840820312,-10.375122070312,21.736206054688
0.075,-7.3721923828125,-13.858520507812,20.575073242188
0.0755,-2.8077392578125,-17.622192382812,19.974487304688
0.076,2.2371826171875,-20.705200195312,18.332885742188
0.0765,5.4803466796875,-22.106567382812,16.771362304688
0.077,8.4432373046875,-21.826293945312,13.768432617188
0.0775,11.846557617188,-20.545043945312,9.2440185546875
0.078,15.650268554688,-19.423950195312,4.4793701171875
0.0785,19.293823242188,-18.543090820312,1.2762451171875
0.079,21.896362304688,-17.021606445312,-4.0089111328125
0.0795,22.777221679688,-14.819458007812,-7.1719970703125
0.08,23.057495117188,-10.655395507812,-8.9737548828125
0.0805,20.815307617188,-6.4512939453125,-13.498168945312
0.081,20.414916992188,-2.2872314453125,-17.341918945312
0.0815,19.253784179688,2.2371826171875,-20.665161132812
0.082,17.732299804688,5.5203857421875,-22.426879882812
0.0825,15.169799804688,8.4432373046875,-22.907348632812
0.083,10.405151367188,11.646362304688,-21.505981445312
0.0835,5.4002685546875,16.651245117188,-20.264770507812
0.084,0.8758544921875,18.813354492188,-19.463989257812
0.0845,-3.5684814453125,21.415893554688,-17.982543945312
0.085,-6.6114501953125,22.296752929688,-16.020629882812
0.0855,-9.6544189453125,21.255737304688,-12.176879882812
0.086,-13.097778320312,20.094604492188,-7.7725830078125
0.0865,-16.981567382812,19.133666992188,-3.0880126953125
0.087,-20.384887695312,17.772338867188,1.6766357421875
0.0875,-22.306762695312,16.130737304688,5.0399169921875
0.088,-22.707153320312,13.488159179688,8.1629638671875
0.0885,-21.425903320312,9.0438232421875,11.326049804688
0.089,-19.223754882812,4.8397216796875,14.689331054688
0.0895,-20.064575195312,0.7957763671875,18.292846679688
0.09,-18.943481445312,-3.5284423828125,21.455932617188
0.0905,-17.141723632812,-6.4913330078125,22.737182617188
0.091,-13.738403320312,-9.2940673828125,22.176635742188
0.0915,-9.1339111328125,-12.617309570312,21.095581054688
0.092,-4.0889892578125,-16.461059570312,19.974487304688
0.0925,0.6756591796875,-19.584106445312,18.693237304688
0.093,4.2391357421875,-21.626098632812,17.371948242188
0.0935,7.2821044921875,-22.026489257812,15.049682617188
0.094,10.525268554688,-19.223754882812,10.485229492188
0.0945,13.888549804688,-19.624145507812,7.6824951171875
0.095,17.732299804688,-18.903442382812,1.9168701171875
0.0955,20.815307617188,-17.381958007812,-2.7276611328125
0.096,22.056518554688,-15.540161132812,-5.6505126953125
0.0965,21.856323242188,-12.337036132812,-8.6934814453125
0.097,20.775268554688,-7.9327392578125,-11.936645507812
0.0975,20.094604492188,-3.8087158203125,-15.540161132812
0.098,19.413940429688,0.2752685546875,-18.863403320312
0.0985,18.332885742188,4.1190185546875,-21.626098632812
0.099,16.210815429688,7.0018310546875,-22.466918945312
0.0995,11.966674804688,9.9647216796875,-21.265747070312
0.1,7.6024169921875,13.368041992188,-20.464965820312
0.1005,2.6776123046875,17.291870117188,-19.704223632812
0.101,-2.0469970703125,20.174682617188,-18.142700195312
0.1015,-5.0499267578125,21.576049804688,-16.821411132812
0.102,-8.0528564453125,21.536010742188,-13.978637695312
0.1025,-11.616333007812,19.974487304688,-9.0538330078125
0.103,-15.099731445312,19.133666992188,-4.8897705078125
0.1035,-18.863403320312,18.292846679688,-0.5255126953125
0.104,-21.666137695312,16.771362304688,5.1199951171875
0.1045,-22.306762695312,14.529174804688,6.7215576171875
0.105,-21.626098632812,10.685424804688,9.9246826171875
0.1055,-20.745239257812,6.4813232421875,13.247924804688
0.106,-20.264770507812,2.1571044921875,17.171752929688
0.1065,-17.942504882812,-2.0870361328125,20.334838867188
0.107,-17.982543945312,-5.4102783203125,22.456909179688
0.1075,-14.098754882812,-8.3331298828125,22.817260742188
0.108,-8.9737548828125,-11.696411132812,21.255737304688
0.1085,-5.9708251953125,-15.059692382812,20.454956054688
0.109,-1.0460205078125,-18.863403320312,19.494018554688
0.1095,3.5584716796875,-21.505981445312,17.892456054688
0.11,7.6824951171875,-22.146606445312,15.970581054688
0.1105,9.5643310546875,-21.546020507812,12.407104492188
0.111,13.287963867188,-20.184692382812,7.5223388671875
0.1115,16.931518554688,-19.263793945312,3.0379638671875
0.112,20.294799804688,-18.102661132812,-1.4063720703125
0.1125,22.577026367188,-16.501098632812,-5.2100830078125
0.113,22.577026367188,-13.538208007812,-8.2130126953125
0.1135,21.495971679688,-9.0137939453125,-11.656372070312
0.114,20.735229492188,-3.8487548828125,-14.819458007812
0.1145,20.254760742188,-0.7257080078125,-18.743286132812
0.115,18.853393554688,3.6385498046875,-21.666137695312
0.1155,17.131713867188,6.5213623046875,-22.947387695312
0.116,13.768432617188,9.5643310546875,-22.667114257812
0.1165,8.3231201171875,13.287963867188,-21.105590820312
0.117,3.9188232421875,16.691284179688,-20.224731445312
0.1175,-0.8458251953125,19.974487304688,-19.063598632812
0.118,-4.8897705078125,22.216674804688,-17.542114257812
0.1185,-6.4112548828125,22.056518554688,-14.899536132812
0.119,-10.975708007812,20.935424804688,-10.615356445312
0.1195,-14.619262695312,19.854370117188,-6.1710205078125
0.12,-18.463012695312,18.853393554688,-1.3663330078125
0.1205,-21.385864257812,17.331909179688,2.9979248046875
0.121,-22.827270507812,15.530151367188,6.2410888671875
0.1215,-22.466918945312,12.126831054688,9.2440185546875
0.122,-21.225708007812,7.2821044921875,12.927612304688
0.1225,-20.585083007812,3.4783935546875,16.170776367188
0.123,-19.944458007812,-0.8057861328125,19.694213867188
0.1235,-18.583129882812,-4.8497314453125,22.496948242188
0.124,-16.180786132812,-7.5723876953125,22.857299804688
0.1245,-12.296997070312,-10.575317382812,22.056518554688
0.125,-7.2520751953125,-14.258911132812,20.815307617188
0.1255,-2.3272705078125,-17.902465820312,19.814331054688
0.126,2.0369873046875,-20.545043945312,18.372924804688
0.1265,5.5203857421875,-22.346801757812,16.931518554688
0.127,8.4031982421875,-20.505004882812,13.728393554688
0.1275,11.966674804688,-20.344848632812,8.8035888671875
0.128,16.651245117188,-19.584106445312,4.9598388671875
0.1285,19.173706054688,-18.583129882812,0.2752685546875
0.129,23.057495117188,-16.981567382812,-3.9288330078125
0.1295,22.376831054688,-14.659301757812,-6.7716064453125
0.13,23.057495117188,-11.015747070312,-9.8546142578125
0.1305,20.735229492188,-6.2911376953125,-13.578247070312
0.131,20.174682617188,-2.3272705078125,-17.061645507812
0.1315,19.293823242188,1.7166748046875,-20.144653320312
0.132,18.052612304688,5.3602294921875,-22.587036132812
0.1325,14.849487304688,8.1229248046875,-22.306762695312
0.133,10.365112304688,11.406127929688,-21.185668945312
0.1335,5.9207763671875,15.009643554688,-19.223754882812
0.134,0.8758544921875,18.693237304688,-19.383911132812
0.1345,-3.2481689453125,21.055541992188,-16.661254882812
0.135,-6.2510986328125,21.976440429688,-16.140747070312
0.1355,-9.3741455078125,21.215698242188,-12.537231445312
0.136,-13.177856445312,19.814331054688,-7.4122314453125
0.1365,-16.701293945312,19.173706054688,-3.3682861328125
0.137,-20.144653320312,18.012573242188,1.1961669921875
0.1375,-22.426879882812,16.330932617188,5.0399169921875
0.138,-22.306762695312,13.287963867188,7.9227294921875
0.1385,-21.505981445312,9.2440185546875,11.286010742188
0.139,-20.825317382812,4.9197998046875,14.889526367188
0.1395,-20.224731445312,0.5955810546875,18.693237304688
0.14,-18.943481445312,-3.3682861328125,21.375854492188
0.1405,-17.502075195312,-6.5714111328125,23.137573242188
0.141,-13.778442382812,-9.4542236328125,22.416870117188
0.1415,-8.5733642578125,-13.137817382812,20.975463867188
0.142,-4.3692626953125,-16.621215820312,20.414916992188
0.1425,0.7557373046875,-20.064575195312,19.093627929688
0.143,4.6395263671875,-22.106567382812,17.492065429688
0.1435,7.4022216796875,-22.106567382812,14.849487304688
0.144,10.765502929688,-21.105590820312,10.845581054688
0.1445,14.729370117188,-19.864379882812,5.8807373046875
0.145,18.372924804688,-18.943481445312,1.4364013671875
0.1455,21.255737304688,-17.662231445312,-2.7677001953125
0.146,22.897338867188,-15.740356445312,-6.2110595703125
0.1465,22.136596679688,-12.096801757812,-9.1339111328125
0.147,21.135620117188,-7.5723876953125,-12.737426757812
0.1475,20.655151367188,-3.6485595703125,-16.180786132812
0.148,19.854370117188,0.7957763671875,-19.824340820312
0.1485,18.332885742188,4.5994873046875,-22.146606445312
0.149,16.130737304688,7.4022216796875,-22.827270507812
0.1495,12.166870117188,10.525268554688,-21.986450195312
0.15,6.6815185546875,14.369018554688,-20.545043945312
0.1505,2.3973388671875,17.732299804688,-19.864379882812
0.151,-2.1671142578125,20.615112304688,-18.543090820312
0.1515,-5.7706298828125,22.256713867188,-16.901489257812
0.152,-8.4932861328125,21.415893554688,-13.458129882812
0.1525,-11.936645507812,20.294799804688,-9.0538330078125
0.153,-15.740356445312,19.413940429688,-4.5694580078125
0.1535,-19.383911132812,18.212768554688,0.1951904296875
0.154,-21.666137695312,16.691284179688,3.8787841796875
0.1545,-22.506958007812,14.449096679688,7.0018310546875
0.155,-21.626098632812,10.645385742188,9.9246826171875
0.1555,-20.625122070312,5.9608154296875,13.648315429688
0.156,-20.184692382812,2.1571044921875,17.051635742188
0.1565,-19.303833007812,-1.9669189453125,20.294799804688
0.157,-17.862426757812,-5.4503173828125,22.416870117188
0.1575,-14.779418945312,-8.0928955078125,22.016479492188
0.158,-10.735473632812,-11.255981445312,21.135620117188
0.1585,-5.6505126953125,-15.099731445312,20.134643554688
0.159,-0.8858642578125,-18.463012695312,18.933471679688
0.1595,2.8377685546875,-20.705200195312,17.732299804688
0.16,6.0809326171875,-20.505004882812,15.970581054688
0.1605,10.244995117188,-20.585083007812,12.006713867188
0.161,12.527221679688,-19.423950195312,7.4822998046875
0.1615,16.210815429688,-18.903442382812,3.4383544921875
0.162,19.494018554688,-17.662231445312,-1.0460205078125
0.1625,21.375854492188,-16.140747070312,-4.3692626953125
0.163,21.375854492188,-13.338012695312,-7.2120361328125
0.1635,20.535034179688,-9.4942626953125,-10.214965820312
0.164,19.854370117188,-5.0899658203125,-13.978637695312
0.1645,19.333862304688,-1.2061767578125,-17.341918945312
0.165,18.412963867188,2.5174560546875,-20.144653320312
0.1655,16.971557617188,5.6405029296875,-21.946411132812
0.166,13.207885742188,8.3631591796875,-20.865356445312
0.1665,8.8436279296875,11.686401367188,-20.024536132812
0.167,4.4793701171875,15.450073242188,-19.584106445312
0.1675,-0.3653564453125,18.693237304688,-18.302856445312
0.168,-3.6085205078125,20.454956054688,-17.061645507812
0.1685,-6.4512939453125,20.895385742188,-14.779418945312
0.169,-9.6544189453125,19.774291992188,-10.775512695312
0.1695,-13.418090820312,18.733276367188,-6.1309814453125
0.17,-17.061645507812,18.172729492188,-2.0069580078125
0.1705,-19.944458007812,16.931518554688,2.0369873046875
0.171,-21.465942382812,15.249877929688,5.2000732421875
0.1715,-20.785278320312,11.806518554688,7.9627685546875
0.172,-20.104614257812,7.9227294921875,11.205932617188
0.1725,-19.784301757812,3.7987060546875,15.049682617188
0.173,-19.063598632812,-0.4053955078125,18.533081054688
0.1735,-17.982543945312,-3.7686767578125,20.775268554688
0.174,-16.180786132812,-6.5714111328125,21.896362304688
0.1745,-11.896606445312,-9.6143798828125,20.735229492188
0.175,-7.1719970703125,-13.177856445312,19.694213867188
0.1755,-2.8878173828125,-16.821411132812,19.173706054688
0.176,1.6766357421875,-19.704223632812,17.892456054688
0.1765,4.7596435546875,-21.025512695312,16.370971679688
0.177,7.6024169921875,-19.223754882812,13.247924804688
0.1775,11.005737304688,-19.544067382812,9.0838623046875
0.178,14.849487304688,-18.703247070312,4.5194091796875
