wavelength,x,y,z
0.0,-10.41015625,20.4599609375,-10.6103515625
0.0005,-13.8134765625,19.859375,-6.7666015625
0.001,-17.216796875,18.8583984375,-2.5625
0.0015,-19.8994140625,16.7763671875,2.0419921875
0.002,-20.900390625,14.8544921875,5.1650390625
0.0025,-21.140625,12.01171875,8.2080078125
0.003,-20.900390625,8.7685546875,11.1708984375
0.0035,-20.1796875,4.244140625,15.0146484375
0.004,-18.8984375,0.1201171875,17.857421875
0.0045,-17.216796875,-3.8037109375,20.0595703125
0.005,-15.0947265625,-6.9267578125,21.140625
0.0055,-11.6513671875,-9.9697265625,20.7802734375
0.006,-7.7275390625,-13.3330078125,20.419921875
0.0065,-2.7626953125,-16.896484375,19.21875
0.007,2.162109375,-19.37890625,17.0966796875
0.0075,5.1650390625,-20.5400390625,15.4150390625
0.008,8.2080078125,-21.0205078125,13.0927734375
0.0085,11.3310546875,-20.580078125,9.7294921875
0.009,15.0546875,-19.7392578125,5.365234375
0.0095,18.017578125,-18.5380859375,1.12109375
0.01,20.33984375,-16.416015625,-3.1630859375
0.0105,21.060546875,-14.25390625,-5.9658203125
0.011,20.98046875,-11.05078125,-9.0888671875
0.0115,20.740234375,-7.52734375,-12.33203125
0.012,19.9794921875,-3.283203125,-15.8955078125
0.0125,18.2978515625,1.12109375,-18.578125
0.013,16.49609375,4.5244140625,-20.2998046875
0.0135,14.2138671875,7.5673828125,-21.0205078125
0.014,10.5302734375,10.6904296875,-20.5400390625
0.0145,5.8857421875,14.333984375,-19.8193359375
0.015,1.28125,17.537109375,-18.578125
0.0155,-3.283203125,19.859375,-16.6962890625
0.016,-6.1259765625,20.580078125,-14.734375
0.0165,-9.1689453125,20.6201171875,-12.01171875
0.017,-12.4521484375,20.2197265625,-8.48828125
0.0175,-16.0556640625,19.21875,-4.083984375
0.018,-18.8583984375,17.6171875,0.4404296875
0.0185,-20.740234375,15.6953125,4.083984375
0.019,-21.2607421875,13.2529296875,7.046875
0.0195,-21.140625,9.849609375,10.2099609375
0.02,-20.580078125,5.8857421875,13.7333984375
0.0205,-19.859375,1.8017578125,17.13671875
0.021,-17.9775390625,-2.6025390625,19.69921875
0.0215,-16.015625,-5.685546875,20.8603515625
0.022,-13.4130859375,-8.728515625,21.30078125
0.0225,-9.2890625,-12.2119140625,20.7802734375
0.023,-4.4443359375,-15.8154296875,19.69921875
0.0235,0.3603515625,-18.73828125,18.017578125
0.024,4.484375,-20.7001953125,16.255859375
0.0245,7.3671875,-21.140625,14.0537109375
0.025,10.5302734375,-21.0205078125,10.9306640625
0.0255,14.09375,-20.5,6.9267578125
0.026,17.6171875,-19.2587890625,2.482421875
0.0265,20.1796875,-17.296875,-2.08203125
0.027,21.5009765625,-15.3349609375,-5.3251953125
0.0275,21.5810546875,-12.5322265625,-8.3681640625
0.028,21.380859375,-8.6484375,-11.8916015625
0.0285,20.66015625,-4.5244140625,-15.375
0.029,19.4990234375,-0.2001953125,-18.498046875
0.0295,17.537109375,4.1240234375,-20.900390625
0.03,15.0546875,7.126953125,-21.4609375
0.0305,12.01171875,10.2099609375,-21.5810546875
0.031,7.287109375,14.09375,-20.8603515625
0.0315,2.6025390625,17.4970703125,-19.6591796875
0.032,-2.2822265625,19.859375,-17.4970703125
0.0325,-5.92578125,21.380859375,-15.7353515625
0.033,-8.8486328125,21.4609375,-13.0126953125
0.0335,-12.2119140625,20.98046875,-9.5693359375
0.034,-15.7353515625,20.2197265625,-5.3251953125
0.0345,-18.978515625,18.6982421875,-0.6806640625
0.035,-21.140625,16.6162109375,3.763671875
0.0355,-21.9013671875,14.2138671875,6.6865234375
0.036,-21.9814453125,11.130859375,9.849609375
0.0365,-21.4609375,6.8466796875,13.5732421875
0.037,-20.5400390625,2.72265625,16.896484375
0.0375,-18.8984375,-1.6015625,19.4990234375
0.038,-17.0166015625,-5.4453125,21.5810546875
0.0385,-14.25390625,-8.2880859375,21.62109375
0.039,-10.8505859375,-11.4111328125,21.4208984375
0.0395,-6.005859375,-15.0947265625,20.5400390625
0.04,-0.9208984375,-18.3779296875,18.9384765625
0.0405,3.5234375,-20.3798828125,16.7763671875
0.041,6.56640625,-21.3408203125,14.9345703125
0.0415,9.609375,-21.4609375,12.091796875
0.042,13.0927734375,-20.6201171875,8.1279296875
0.0425,16.3759765625,-19.7392578125,4.083984375
0.043,19.0986328125,-18.09765625,-0.3603515625
0.0435,21.2607421875,-15.9755859375,-4.3642578125
0.044,21.380859375,-13.3330078125,-7.1669921875
0.0445,21.380859375,-10.25,-10.2900390625
0.045,20.740234375,-5.8857421875,-14.0537109375
0.0455,19.859375,-1.8017578125,-17.2568359375
0.046,17.8974609375,2.40234375,-19.4990234375
0.0465,16.1357421875,5.765625,-21.1005859375
0.047,13.1328125,8.6484375,-21.1806640625
0.0475,9.0888671875,12.1318359375,-20.6201171875
0.048,4.724609375,15.455078125,-19.779296875
0.0485,-0.3203125,18.41796875,-18.017578125
0.049,-4.32421875,20.33984375,-16.095703125
0.0495,-7.126953125,20.7001953125,-14.0537109375
0.05,-10.1298828125,20.8203125,-11.291015625
0.0505,-13.9736328125,20.0595703125,-6.806640625
0.051,-17.2568359375,19.0185546875,-2.6025390625
0.0515,-19.5390625,17.1767578125,1.4814453125
0.052,-21.220703125,15.294921875,5.044921875
0.0525,-21.220703125,12.33203125,7.84765625
0.053,-21.140625,8.80859375,11.37109375
0.0535,-20.5,4.724609375,14.814453125
0.054,-19.37890625,0.3203125,18.1376953125
0.0545,-17.376953125,-3.7236328125,20.1796875
0.055,-15.1748046875,-6.56640625,21.060546875
0.0555,-12.4521484375,-9.609375,21.3408203125
0.056,-7.4873046875,-13.61328125,20.4599609375
0.0565,-3.1630859375,-16.6962890625,19.3388671875
0.057,1.6015625,-19.21875,17.45703125
0.0575,5.28515625,-21.0205078125,15.6953125
0.058,8.1279296875,-20.8603515625,13.052734375
0.0585,11.2109375,-20.8203125,10.1298828125
0.059,15.3349609375,-20.01953125,5.5654296875
0.0595,18.3779296875,-18.578125,1.12109375
0.06,20.3798828125,-16.6962890625,-2.8427734375
0.0605,21.4609375,-14.6142578125,-6.0458984375
0.061,21.3408203125,-11.53125,-8.96875
0.0615,20.98046875,-7.3271484375,-12.8525390625
0.062,20.2998046875,-3.5634765625,-16.015625
0.0625,18.818359375,0.9208984375,-18.9384765625
0.063,16.7763671875,4.8046875,-20.900390625
0.0635,14.0537109375,7.6875,-21.0205078125
0.064,11.0908203125,10.7705078125,-21.1806640625
0.0645,5.765625,14.8544921875,-20.1796875
0.065,1.12109375,17.857421875,-18.658203125
0.0655,-3.04296875,19.779296875,-16.8564453125
0.066,-6.40625,21.140625,-15.0947265625
0.0665,-9.2890625,20.8203125,-12.0517578125
0.067,-12.6923828125,20.419921875,-8.4482421875
0.0675,-16.2158203125,19.6591796875,-4.2841796875
0.068,-19.1787109375,17.8173828125,0.5205078125
0.0685,-20.9404296875,15.8154296875,4.1240234375
0.069,-21.30078125,13.29296875,7.0869140625
0.0695,-21.3408203125,10.330078125,10.0498046875
0.07,-20.7001953125,5.60546875,14.1337890625
0.0705,-19.6591796875,1.6416015625,17.13671875
0.071,-17.9775390625,-2.40234375,19.4990234375
0.0715,-16.2158203125,-5.92578125,21.2607421875
0.072,-12.97265625,-8.7685546875,20.9404296875
0.0725,-9.5693359375,-12.01171875,20.8203125
0.073,-4.6044921875,-15.775390625,19.859375
0.0735,0.48046875,-18.658203125,17.857421875
0.074,4.1240234375,-20.2197265625,16.1357421875
0.0745,7.2470703125,-21.0205078125,14.09375
0.075,10.08984375,-20.900390625,11.2109375
0.0755,13.93359375,-20.0595703125,6.7265625
0.076,17.0966796875,-19.138671875,2.802734375
0.0765,19.6591796875,-17.3369140625,-1.5615234375
0.077,21.1005859375,-15.3349609375,-4.884765625
0.0775,21.0205078125,-12.3720703125,-7.767578125
0.078,21.1005859375,-9.2490234375,-10.890625
0.0785,20.33984375,-4.96484375,-14.89453125
0.079,19.05859375,-0.4404296875,-17.8173828125
0.0795,17.2568359375,3.3232421875,-19.69921875
0.08,15.294921875,6.5263671875,-21.1005859375
0.0805,12.01171875,9.44921875,-20.8203125
0.081,7.447265625,13.2529296875,-20.1796875
0.0815,3.1630859375,16.49609375,-19.3388671875
0.082,-1.76171875,19.1787109375,-17.296875
0.0825,-5.044921875,20.4599609375,-15.615234375
0.083,-8.087890625,20.66015625,-13.0126953125
0.0835,-10.970703125,20.66015625,-10.2900390625
0.084,-15.0947265625,19.69921875,-5.4453125
0.0845,-18.09765625,18.2578125,-1.1611328125
0.085,-20.1396484375,16.49609375,2.72265625
0.0855,-21.30078125,14.3740234375,5.8857421875
0.086,-21.0205078125,11.2109375,8.9287109375
0.0865,-20.7802734375,7.3271484375,12.2919921875
0.087,-20.2998046875,3.36328125,15.935546875
0.0875,-18.6181640625,-1.1611328125,18.8583984375
0.088,-16.65625,-4.64453125,20.4599609375
0.0885,-14.2939453125,-7.6474609375,21.1005859375
0.089,-11.2109375,-10.6103515625,21.060546875
0.0895,-5.8056640625,-14.734375,19.8994140625
0.09,-1.44140625,-17.6171875,18.6982421875
0.0905,3.1630859375,-19.5791015625,16.7763671875
0.091,6.24609375,-21.0205078125,14.9345703125
0.0915,9.2490234375,-20.7802734375,11.8515625
0.092,12.4521484375,-20.5,8.6484375
0.0925,16.17578125,-19.619140625,4.1240234375
0.093,19.138671875,-17.77734375,-0.6005859375
0.0935,20.66015625,-15.8955078125,-3.8837890625
0.094,21.220703125,-13.533203125,-6.9267578125
0.0945,21.1005859375,-10.41015625,-9.9697265625
0.095,20.4599609375,-5.845703125,-13.8134765625
0.0955,19.69921875,-1.9619140625,-16.9765625
0.096,18.0576171875,2.40234375,-19.5390625
0.0965,15.935546875,5.7255859375,-20.900390625
0.097,12.8525390625,8.6884765625,-20.8603515625
0.0975,9.369140625,11.931640625,-20.8603515625
0.098,4.32421875,15.9755859375,-19.5791015625
0.0985,-0.640625,18.6982421875,-17.6572265625
0.099,-4.1640625,20.2197265625,-16.17578125
0.0995,-7.287109375,21.060546875,-14.1337890625
0.1,-10.330078125,20.580078125,-10.810546875
0.1005,-13.9736328125,19.9794921875,-6.7666015625
0.101,-17.2568359375,18.9384765625,-2.6025390625
0.1015,-19.8994140625,16.9365234375,1.9619140625
0.102,-20.98046875,14.8544921875,4.9248046875
0.1025,-21.3408203125,12.1318359375,8.0078125
0.103,-21.0205078125,8.9287109375,11.0908203125
0.1035,-20.2998046875,4.3642578125,14.974609375
0.104,-18.9384765625,0.16015625,17.857421875
0.1045,-17.2568359375,-3.603515625,19.9794921875
0.105,-15.294921875,-6.7666015625,21.1005859375
0.1055,-11.8115234375,-9.6494140625,20.7001953125
0.106,-7.8076171875,-13.373046875,20.259765625
0.1065,-3.0830078125,-16.65625,19.21875
0.107,1.921875,-19.138671875,17.0166015625
0.1075,4.96484375,-20.3798828125,15.4150390625
0.108,7.9677734375,-20.8203125,13.1328125
0.1085,11.0107421875,-20.419921875,9.8896484375
0.109,14.734375,-19.5390625,5.4453125
0.1095,17.7373046875,-18.337890625,1.28125
0.11,20.01953125,-16.416015625,-2.9228515625
0.1105,20.7802734375,-14.173828125,-5.60546875
0.111,20.6201171875,-11.2109375,-8.6484375
0.1115,20.3798828125,-7.7275390625,-11.8916015625
0.112,19.779296875,-3.5634765625,-15.4951171875
0.1125,18.09765625,0.880859375,-18.2177734375
0.113,16.3759765625,4.2041015625,-19.8193359375
0.1135,14.013671875,7.1669921875,-20.580078125
0.114,10.5703125,10.169921875,-20.2197265625
0.1145,6.1259765625,13.93359375,-19.458984375
0.115,1.521484375,17.056640625,-18.2978515625
0.1155,-2.9228515625,19.298828125,-16.3759765625
0.116,-5.765625,20.1396484375,-14.6142578125
0.1165,-8.80859375,20.2197265625,-11.8916015625
0.117,-12.0517578125,19.859375,-8.6083984375
0.1175,-15.615234375,18.8984375,-4.244140625
0.118,-18.2578125,17.3369140625,0.16015625
0.1185,-20.1796875,15.53515625,3.68359375
0.119,-20.6201171875,13.1328125,6.5263671875
0.1195,-20.5,9.9296875,9.609375
0.12,-20.01953125,5.92578125,13.0927734375
0.1205,-19.298828125,2.001953125,16.4560546875
0.121,-17.6572265625,-2.322265625,18.9384765625
0.1215,-15.6953125,-5.4052734375,20.099609375
0.122,-13.1328125,-8.0478515625,20.66015625
0.1225,-9.4892578125,-11.5712890625,20.259765625
0.123,-4.484375,-15.134765625,19.05859375
0.1235,0.1201171875,-17.9375,17.537109375
0.124,3.923828125,-19.8994140625,15.85546875
0.1245,6.7666015625,-20.3798828125,13.8134765625
0.125,9.8095703125,-20.259765625,10.810546875
0.1255,13.29296875,-19.939453125,7.0068359375
0.126,16.576171875,-18.73828125,2.8427734375
0.1265,19.05859375,-16.896484375,-1.6015625
0.127,20.33984375,-14.9345703125,-4.564453125
0.1275,20.7001953125,-12.33203125,-7.5673828125
0.128,20.3798828125,-8.80859375,-10.7705078125
0.1285,19.69921875,-4.6845703125,-14.25390625
0.129,18.5380859375,-0.640625,-17.1767578125
0.1295,16.7763671875,3.2431640625,-19.5791015625
0.13,14.7744140625,6.166015625,-20.3798828125
0.1305,11.8115234375,9.12890625,-20.3798828125
0.131,7.607421875,12.8125,-19.8994140625
0.1315,2.8828125,16.2158203125,-18.73828125
0.132,-1.6416015625,18.5380859375,-16.81640625
0.1325,-4.8447265625,20.0595703125,-15.3349609375
0.133,-7.8076171875,20.3798828125,-12.892578125
0.1335,-10.73046875,20.01953125,-9.5693359375
0.134,-14.494140625,19.1787109375,-5.765625
0.1345,-17.4970703125,17.9375,-1.361328125
0.135,-19.779296875,16.015625,2.8427734375
0.1355,-20.4599609375,13.93359375,5.60546875
0.136,-20.6201171875,11.05078125,8.6083984375
0.1365,-20.2197265625,7.1669921875,12.171875
0.137,-19.4990234375,3.123046875,15.4150390625
0.1375,-18.09765625,-1.12109375,17.9375
0.138,-16.576171875,-4.4443359375,19.9794921875
0.1385,-14.09375,-7.1669921875,20.33984375
0.139,-10.6103515625,-10.2099609375,20.0595703125
0.1395,-6.2060546875,-13.7333984375,19.37890625
0.14,-1.4814453125,-16.9365234375,18.0576171875
0.1405,2.8427734375,-18.978515625,16.095703125
0.141,5.685546875,-19.939453125,14.3740234375
0.1415,8.48828125,-20.3798828125,11.8916015625
0.142,12.01171875,-19.37890625,8.2080078125
0.1425,15.2548828125,-18.7783203125,4.2841796875
0.143,17.9375,-17.3369140625,0.1201171875
0.1435,19.8994140625,-15.4951171875,-3.5634765625
0.144,20.1396484375,-13.0927734375,-6.2861328125
0.1445,20.099609375,-10.169921875,-9.2490234375
0.145,19.5791015625,-6.3662109375,-12.8525390625
0.1455,18.8984375,-2.2822265625,-16.095703125
0.146,17.0166015625,1.841796875,-18.2578125
0.1465,15.4951171875,4.96484375,-19.69921875
0.147,12.892578125,7.84765625,-20.099609375
0.1475,8.888671875,11.291015625,-19.5791015625
0.148,4.64453125,14.494140625,-18.7783203125
0.1485,0.1201171875,17.4169921875,-17.296875
0.149,-4.00390625,19.21875,-15.6953125
0.1495,-6.40625,19.6591796875,-13.4130859375
0.15,-9.44921875,19.8193359375,-10.9306640625
0.1505,-12.97265625,19.138671875,-6.8466796875
0.151,-16.095703125,18.09765625,-2.8828125
0.1515,-18.4580078125,16.416015625,1.12109375
0.152,-19.9794921875,14.6943359375,4.32421875
0.1525,-20.01953125,12.01171875,7.0869140625
0.153,-19.8994140625,8.4482421875,10.330078125
0.1535,-19.37890625,4.724609375,13.7333984375
0.154,-18.2578125,0.6005859375,16.7763671875
0.1545,-16.65625,-3.203125,18.9384765625
0.155,-14.654296875,-5.845703125,19.6591796875
0.1555,-12.0517578125,-8.6884765625,19.9794921875
0.156,-7.447265625,-12.4521484375,19.21875
0.1565,-3.123046875,-15.455078125,18.09765625
0.157,1.201171875,-17.4970703125,16.4560546875
0.1575,4.484375,-19.458984375,15.0546875
0.158,7.20703125,-19.37890625,12.6123046875
0.1585,9.9296875,-19.3388671875,9.849609375
0.159,13.61328125,-18.7783203125,5.845703125
0.1595,16.576171875,-17.537109375,1.681640625
0.16,18.658203125,-15.7353515625,-2.0419921875
0.1605,19.37890625,-14.0537109375,-4.8447265625
0.161,19.619140625,-11.2509765625,-7.6474609375
0.1615,19.2587890625,-7.4072265625,-11.291015625
0.162,18.8583984375,-3.763671875,-14.2138671875
0.1625,17.4169921875,0.1201171875,-16.81640625
0.163,15.8955078125,3.7236328125,-18.8984375
0.1635,13.4130859375,6.2861328125,-19.0986328125
0.164,10.7705078125,9.048828125,-19.298828125
0.1645,6.0458984375,12.892578125,-18.5380859375
0.165,1.76171875,15.8955078125,-17.45703125
0.1655,-2.0419921875,17.7373046875,-15.8955078125
0.166,-4.8447265625,19.05859375,-14.2939453125
0.1665,-7.7275390625,19.05859375,-11.7314453125
0.167,-10.970703125,18.6181640625,-8.328125
0.1675,-14.09375,18.177734375,-4.7646484375
0.168,-17.0166015625,16.65625,-0.6005859375
0.1685,-18.578125,15.0146484375,2.8828125
0.169,-19.1787109375,12.7724609375,5.4853515625
0.1695,-19.37890625,10.169921875,8.4482421875
0.17,-19.0986328125,6.005859375,12.091796875
0.1705,-18.337890625,2.322265625,15.0947265625
0.171,-16.7763671875,-1.361328125,17.2568359375
0.1715,-15.455078125,-4.4443359375,19.05859375
0.172,-12.6923828125,-7.046875,19.05859375
0.1725,-9.369140625,-10.25,18.8984375
0.173,-5.0849609375,-13.693359375,18.2177734375
0.1735,-0.4404296875,-16.416015625,16.736328125
0.174,2.962890625,-18.2578125,15.1748046875
0.1745,5.6455078125,-18.9384765625,13.4130859375
0.175,8.328125,-19.1787109375,11.0908203125
0.1755,12.1318359375,-18.5380859375,6.88671875
0.176,15.0947265625,-17.77734375,3.3232421875
0.1765,17.296875,-16.3759765625,-0.4404296875
0.177,19.0185546875,-14.6943359375,-3.6435546875
0.1775,19.0185546875,-12.2119140625,-6.40625
0.178,19.138671875,-9.1689453125,-9.2890625
0.1785,18.818359375,-5.1650390625,-12.8125
0.179,17.77734375,-1.28125,-15.8955078125
0.1795,16.17578125,2.40234375,-17.77734375
0.18,14.3740234375,5.0849609375,-19.0185546875
0.1805,11.8515625,7.8076171875,-19.37890625
0.181,7.3671875,11.6513671875,-18.578125
0.1815,3.443359375,14.57421875,-17.9375
0.182,-0.80078125,17.2568359375,-16.3359375
0.1825,-4.1640625,18.8583984375,-14.7744140625
0.183,-6.806640625,18.9384765625,-12.4921875
0.1835,-9.6494140625,19.05859375,-10.0498046875
0.184,-13.533203125,18.5380859375,-5.60546875
0.1845,-16.5361328125,17.216796875,-1.6416015625
0.185,-18.41796875,15.6552734375,1.921875
0.1855,-19.7392578125,13.693359375,4.724609375
0.186,-19.458984375,11.0107421875,7.607421875
0.1865,-19.3388671875,7.287109375,11.2509765625
0.187,-18.978515625,3.6435546875,14.3740234375
0.1875,-17.6572265625,-0.5205078125,17.296875
0.188,-15.8154296875,-3.84375,19.0986328125
0.1885,-13.6533203125,-6.4462890625,19.4990234375
0.189,-10.9306640625,-9.5693359375,19.8193359375
0.1895,-5.8056640625,-13.4931640625,18.8984375
0.19,-1.5615234375,-16.5361328125,17.5771484375
0.1905,2.40234375,-18.578125,15.9755859375
0.191,5.60546875,-19.8193359375,14.3740234375
0.1915,8.568359375,-19.5390625,11.4912109375
0.192,11.7314453125,-19.21875,8.2880859375
0.1925,15.21484375,-18.7783203125,4.4443359375
0.193,18.0576171875,-17.13671875,-0.400390625
0.1935,19.69921875,-15.53515625,-3.7236328125
0.194,20.3798828125,-12.97265625,-6.4462890625
0.1945,20.2197265625,-10.1298828125,-9.1689453125
0.195,19.6591796875,-5.765625,-13.212890625
0.1955,18.9384765625,-1.9619140625,-16.17578125
0.196,17.1767578125,1.9619140625,-18.5380859375
0.1965,15.455078125,5.4052734375,-19.8994140625
0.197,12.3720703125,8.2080078125,-19.939453125
0.1975,9.0888671875,11.291015625,-20.0595703125
0.198,4.083984375,15.1748046875,-18.9384765625
0.1985,-0.7607421875,17.8974609375,-17.0166015625
0.199,-3.9638671875,19.4189453125,-15.4951171875
0.1995,-7.046875,20.1796875,-13.61328125
0.2,-9.8896484375,19.859375,-10.810546875
0.2005,-13.533203125,19.1787109375,-6.40625
0.201,-16.65625,18.2978515625,-2.2822265625
0.2015,-18.978515625,16.416015625,1.76171875
0.202,-20.33984375,14.5341796875,4.9248046875
0.2025,-20.3798828125,11.6513671875,7.8076171875
0.203,-20.3798828125,8.7685546875,10.810546875
0.2035,-19.69921875,4.2841796875,14.654296875
0.204,-18.41796875,0.080078125,17.5771484375
0.2045,-16.736328125,-3.5234375,19.3388671875
0.205,-14.89453125,-6.56640625,20.6201171875
0.2055,-11.4111328125,-9.2490234375,20.1396484375
0.206,-7.20703125,-12.8125,19.5791015625
0.2065,-2.72265625,-16.0556640625,18.6181640625
0.207,2.0419921875,-18.658203125,16.5361328125
0.2075,4.8447265625,-19.939453125,14.89453125
0.208,7.927734375,-20.1796875,12.4521484375
0.2085,10.7705078125,-20.01953125,9.7294921875
0.209,14.57421875,-18.978515625,5.2451171875
0.2095,17.296875,-17.9375,1.0009765625
0.21,19.4990234375,-15.9755859375,-2.8427734375
0.2105,20.33984375,-13.93359375,-5.7255859375
0.211,20.2998046875,-10.7705078125,-8.728515625
0.2115,19.859375,-7.3671875,-11.8515625
0.212,19.458984375,-3.283203125,-15.3349609375
0.2125,17.77734375,1.12109375,-18.09765625
0.213,15.8955078125,4.2041015625,-19.8193359375
0.2135,13.7734375,7.4072265625,-20.2197265625
0.214,10.5302734375,10.330078125,-20.0595703125
0.2145,5.365234375,13.93359375,-19.21875
0.215,1.28125,17.0166015625,-18.017578125
0.2155,-3.203125,19.0986328125,-16.2158203125
0.216,-5.9658203125,20.0595703125,-14.333984375
0.2165,-9.0087890625,19.9794921875,-11.4111328125
0.217,-12.1318359375,19.6591796875,-8.3681640625
0.2175,-15.8154296875,18.8984375,-3.8037109375
