wavelength,x,y,z
0.0,3.453369140625,-5.675537109375,0.290283203125
0.0005,2.252197265625,-5.915771484375,1.611572265625
0.001,1.051025390625,-6.276123046875,3.093017578125
0.0015,0.050048828125,-6.396240234375,4.214111328125
0.002,-0.670654296875,-6.556396484375,5.135009765625
0.0025,-1.591552734375,-6.075927734375,5.695556640625
0.003,-2.912841796875,-4.914794921875,6.055908203125
0.0035,-4.154052734375,-3.753662109375,6.416259765625
0.004,-5.195068359375,-2.512451171875,6.496337890625
0.0045,-5.795654296875,-1.511474609375,6.416259765625
0.005,-5.955810546875,-0.750732421875,6.095947265625
0.0055,-5.755615234375,0.330322265625,5.255126953125
0.006,-5.555419921875,1.571533203125,4.093994140625
0.0065,-5.475341796875,2.932861328125,2.852783203125
0.007,-5.235107421875,4.053955078125,1.731689453125
0.0075,-4.994873046875,4.854736328125,0.850830078125
0.008,-4.314208984375,5.215087890625,0.010009765625
0.0085,-3.153076171875,5.295166015625,-1.311279296875
0.009,-1.911865234375,5.575439453125,-2.752685546875
0.0095,-0.670654296875,5.735595703125,-4.194091796875
0.01,0.290283203125,5.855712890625,-5.155029296875
0.0105,0.970947265625,5.895751953125,-5.915771484375
0.011,2.052001953125,4.974853515625,-6.276123046875
0.0115,3.453369140625,3.693603515625,-6.556396484375
0.012,4.614501953125,2.412353515625,-6.836669921875
0.0125,5.415283203125,1.211181640625,-6.716552734375
0.013,5.815673828125,0.330322265625,-6.636474609375
0.0135,5.775634765625,-0.630615234375,-6.035888671875
0.014,5.455322265625,-1.751708984375,-4.914794921875
0.0145,5.295166015625,-3.032958984375,-3.713623046875
0.015,5.094970703125,-4.354248046875,-2.392333984375
0.0155,4.814697265625,-5.315185546875,-1.311279296875
0.016,4.494384765625,-5.995849609375,-0.510498046875
0.0165,3.533447265625,-6.196044921875,0.570556640625
0.017,2.172119140625,-6.276123046875,1.891845703125
0.0175,0.850830078125,-6.556396484375,3.413330078125
0.018,-0.390380859375,-6.516357421875,4.654541015625
0.0185,-1.071044921875,-6.596435546875,5.535400390625
0.019,-1.831787109375,-6.356201171875,6.095947265625
0.0195,-3.072998046875,-5.195068359375,6.416259765625
0.02,-4.354248046875,-3.913818359375,6.696533203125
0.0205,-5.435302734375,-2.592529296875,6.776611328125
0.021,-6.115966796875,-1.471435546875,6.616455078125
0.0215,-6.356201171875,-0.630615234375,6.416259765625
0.022,-6.115966796875,0.330322265625,5.615478515625
0.0225,-5.755615234375,1.571533203125,4.374267578125
0.023,-5.635498046875,2.852783203125,3.173095703125
0.0235,-5.395263671875,4.093994140625,1.891845703125
0.024,-5.074951171875,4.974853515625,0.890869140625
0.0245,-4.554443359375,5.415283203125,0.050048828125
0.025,-3.513427734375,5.535400390625,-1.111083984375
0.0255,-2.192138671875,5.655517578125,-2.552490234375
0.026,-0.830810546875,5.895751953125,-4.033935546875
0.0265,0.250244140625,5.935791015625,-5.074951171875
0.027,0.930908203125,6.055908203125,-5.915771484375
0.0275,1.851806640625,5.415283203125,-6.396240234375
0.028,3.133056640625,4.134033203125,-6.596435546875
0.0285,4.334228515625,2.892822265625,-6.876708984375
0.029,5.335205078125,1.571533203125,-6.916748046875
0.0295,5.855712890625,0.570556640625,-6.716552734375
0.03,5.975830078125,-0.350341796875,-6.396240234375
0.0305,5.695556640625,-1.311279296875,-5.435302734375
0.031,5.415283203125,-2.552490234375,-4.154052734375
0.0315,5.255126953125,-3.953857421875,-2.872802734375
0.032,4.934814453125,-5.074951171875,-1.711669921875
0.0325,4.654541015625,-5.915771484375,-0.790771484375
0.033,3.893798828125,-6.236083984375,0.210205078125
0.0335,2.732666015625,-6.316162109375,1.331298828125
0.034,1.411376953125,-6.436279296875,2.852783203125
0.0345,0.130126953125,-6.556396484375,4.294189453125
0.035,-0.830810546875,-6.596435546875,5.215087890625
0.0355,-1.471435546875,-6.556396484375,5.935791015625
0.036,-2.552490234375,-5.755615234375,6.336181640625
0.0365,-3.873779296875,-4.434326171875,6.576416015625
0.037,-5.074951171875,-3.153076171875,6.776611328125
0.0375,-5.835693359375,-1.951904296875,6.696533203125
0.038,-6.276123046875,-0.990966796875,6.536376953125
0.0385,-6.276123046875,-0.190185546875,6.015869140625
0.039,-5.915771484375,0.970947265625,4.894775390625
0.0395,-5.715576171875,2.252197265625,3.693603515625
0.04,-5.515380859375,3.613525390625,2.412353515625
0.0405,-5.195068359375,4.614501953125,1.251220703125
0.041,-4.874755859375,5.295166015625,0.450439453125
0.0415,-3.993896484375,5.495361328125,-0.630615234375
0.042,-2.712646484375,5.655517578125,-1.911865234375
0.0425,-1.431396484375,5.895751953125,-3.433349609375
0.043,-0.230224609375,5.935791015625,-4.714599609375
0.0435,0.610595703125,6.055908203125,-5.635498046875
0.044,1.331298828125,5.815673828125,-6.236083984375
0.0445,2.572509765625,4.734619140625,-6.556396484375
0.045,3.893798828125,3.413330078125,-6.836669921875
0.0455,5.094970703125,2.052001953125,-6.996826171875
0.046,5.735595703125,0.930908203125,-6.836669921875
0.0465,6.055908203125,0.090087890625,-6.676513671875
0.047,5.855712890625,-0.950927734375,-5.875732421875
0.0475,5.575439453125,-2.192138671875,-4.634521484375
0.048,5.415283203125,-3.553466796875,-3.393310546875
0.0485,5.135009765625,-4.834716796875,-2.112060546875
0.049,4.814697265625,-5.755615234375,-1.031005859375
0.0495,4.334228515625,-6.276123046875,-0.270263671875
0.05,3.213134765625,-6.316162109375,0.970947265625
0.0505,1.851806640625,-6.436279296875,2.412353515625
0.051,0.490478515625,-6.596435546875,3.973876953125
0.0515,-0.670654296875,-6.596435546875,5.054931640625
0.052,-1.311279296875,-6.716552734375,5.855712890625
0.0525,-2.192138671875,-6.115966796875,6.336181640625
0.053,-3.553466796875,-4.794677734375,6.576416015625
0.0535,-4.794677734375,-3.553466796875,6.776611328125
0.054,-5.755615234375,-2.272216796875,6.816650390625
0.0545,-6.276123046875,-1.151123046875,6.576416015625
0.055,-6.356201171875,-0.390380859375,6.256103515625
0.0555,-6.035888671875,0.690673828125,5.255126953125
0.056,-5.755615234375,1.931884765625,4.013916015625
0.0565,-5.595458984375,3.253173828125,2.732666015625
0.057,-5.275146484375,4.334228515625,1.571533203125
0.0575,-4.994873046875,5.094970703125,0.610595703125
0.058,-4.274169921875,5.455322265625,-0.310302734375
0.0585,-3.072998046875,5.535400390625,-1.431396484375
0.059,-1.831787109375,5.735595703125,-2.872802734375
0.0595,-0.590576171875,5.815673828125,-4.274169921875
0.06,0.450439453125,5.895751953125,-5.235107421875
0.0605,1.051025390625,5.895751953125,-5.915771484375
0.061,2.011962890625,5.135009765625,-6.316162109375
0.0615,3.333251953125,3.853759765625,-6.556396484375
0.062,4.534423828125,2.612548828125,-6.796630859375
0.0625,5.335205078125,1.411376953125,-6.716552734375
0.063,5.775634765625,0.490478515625,-6.636474609375
0.0635,5.775634765625,-0.430419921875,-6.115966796875
0.064,5.455322265625,-1.431396484375,-5.114990234375
0.0645,5.255126953125,-2.672607421875,-4.033935546875
0.065,5.094970703125,-3.993896484375,-2.752685546875
0.0655,4.814697265625,-5.074951171875,-1.631591796875
0.066,4.534423828125,-5.755615234375,-0.830810546875
0.0665,3.773681640625,-5.995849609375,0.170166015625
0.067,2.532470703125,-6.115966796875,1.411376953125
0.0675,1.331298828125,-6.396240234375,2.892822265625
0.068,0.130126953125,-6.396240234375,4.134033203125
0.0685,-0.710693359375,-6.556396484375,5.094970703125
0.069,-1.431396484375,-6.436279296875,5.735595703125
0.0695,-2.512451171875,-5.475341796875,6.095947265625
0.07,-3.793701171875,-4.354248046875,6.416259765625
0.0705,-4.914794921875,-3.072998046875,6.576416015625
0.071,-5.635498046875,-1.951904296875,6.496337890625
0.0715,-6.035888671875,-1.151123046875,6.416259765625
0.072,-5.915771484375,-0.310302734375,5.735595703125
0.0725,-5.635498046875,0.850830078125,4.614501953125
0.073,-5.515380859375,2.052001953125,3.573486328125
0.0735,-5.315185546875,3.333251953125,2.372314453125
0.074,-5.114990234375,4.334228515625,1.411376953125
0.0745,-4.714599609375,4.934814453125,0.610595703125
0.075,-3.833740234375,5.094970703125,-0.470458984375
0.0755,-2.672607421875,5.255126953125,-1.671630859375
0.076,-1.471435546875,5.575439453125,-3.153076171875
0.0765,-0.510498046875,5.615478515625,-4.234130859375
0.077,0.290283203125,5.855712890625,-5.155029296875
0.0775,1.091064453125,5.495361328125,-5.715576171875
0.078,2.252197265625,4.454345703125,-5.995849609375
0.0785,3.453369140625,3.373291015625,-6.356201171875
0.079,4.494384765625,2.172119140625,-6.436279296875
0.0795,5.135009765625,1.211181640625,-6.436279296875
0.08,5.375244140625,0.450439453125,-6.236083984375
0.0805,5.255126953125,-0.550537109375,-5.515380859375
0.081,5.054931640625,-1.591552734375,-4.594482421875
0.0815,4.974853515625,-2.872802734375,-3.553466796875
0.082,4.814697265625,-3.953857421875,-2.432373046875
0.0825,4.614501953125,-4.834716796875,-1.591552734375
0.083,4.174072265625,-5.315185546875,-0.790771484375
0.0835,3.213134765625,-5.515380859375,0.370361328125
0.084,2.252197265625,-5.835693359375,1.571533203125
0.0845,1.051025390625,-6.035888671875,2.972900390625
0.085,0.170166015625,-6.236083984375,4.013916015625
0.0855,-0.590576171875,-6.396240234375,4.854736328125
0.086,-1.431396484375,-5.915771484375,5.335205078125
0.0865,-2.592529296875,-4.914794921875,5.735595703125
0.087,-3.793701171875,-3.913818359375,6.055908203125
0.0875,-4.674560546875,-2.832763671875,6.135986328125
0.088,-5.315185546875,-1.951904296875,6.216064453125
0.0885,-5.475341796875,-1.231201171875,5.895751953125
0.089,-5.315185546875,-0.350341796875,5.094970703125
0.0895,-5.275146484375,0.770751953125,4.334228515625
0.09,-5.235107421875,2.052001953125,3.293212890625
0.0905,-5.114990234375,3.173095703125,2.252197265625
0.091,-4.994873046875,4.013916015625,1.531494140625
0.0915,-4.354248046875,4.454345703125,0.650634765625
0.092,-3.473388671875,4.694580078125,-0.510498046875
0.0925,-2.512451171875,5.094970703125,-1.791748046875
0.093,-1.431396484375,5.335205078125,-3.072998046875
0.0935,-0.670654296875,5.615478515625,-4.114013671875
0.094,0.130126953125,5.655517578125,-4.834716796875
0.0945,1.131103515625,5.014892578125,-5.315185546875
0.095,2.292236328125,4.093994140625,-5.755615234375
0.0955,3.493408203125,3.052978515625,-6.115966796875
0.096,4.334228515625,1.931884765625,-6.156005859375
0.0965,4.854736328125,1.211181640625,-6.276123046875
0.097,4.974853515625,0.410400390625,-5.795654296875
0.0975,4.814697265625,-0.630615234375,-5.074951171875
0.098,4.854736328125,-1.711669921875,-4.234130859375
0.0985,4.774658203125,-2.912841796875,-3.193115234375
0.099,4.694580078125,-3.993896484375,-2.272216796875
0.0995,4.494384765625,-4.714599609375,-1.471435546875
0.1,3.813720703125,-5.074951171875,-0.590576171875
0.1005,2.852783203125,-5.355224609375,0.610595703125
0.101,1.851806640625,-5.755615234375,1.931884765625
0.1015,0.890869140625,-5.955810546875,3.133056640625
0.102,0.250244140625,-6.276123046875,4.134033203125
0.1025,-0.670654296875,-6.115966796875,4.774658203125
0.103,-1.751708984375,-5.315185546875,5.135009765625
0.1035,-2.872802734375,-4.474365234375,5.615478515625
0.104,-3.993896484375,-3.353271484375,5.895751953125
0.1045,-4.754638671875,-2.472412109375,5.975830078125
0.105,-5.114990234375,-1.751708984375,5.895751953125
0.1055,-5.114990234375,-0.990966796875,5.375244140625
0.106,-5.034912109375,0.090087890625,4.614501953125
0.1065,-5.114990234375,1.251220703125,3.813720703125
0.107,-5.034912109375,2.412353515625,2.852783203125
0.1075,-4.994873046875,3.373291015625,2.011962890625
0.108,-4.594482421875,3.933837890625,1.251220703125
0.1085,-3.873779296875,4.294189453125,0.290283203125
0.109,-3.072998046875,4.694580078125,-0.950927734375
0.1095,-2.031982421875,5.054931640625,-2.232177734375
0.11,-1.231201171875,5.335205078125,-3.313232421875
0.1105,-0.590576171875,5.615478515625,-4.234130859375
0.111,0.450439453125,5.255126953125,-4.834716796875
0.1115,1.571533203125,4.494384765625,-5.275146484375
0.112,2.692626953125,3.573486328125,-5.755615234375
0.1125,3.693603515625,2.492431640625,-5.995849609375
0.113,4.454345703125,1.691650390625,-6.156005859375
0.1135,4.694580078125,0.930908203125,-5.995849609375
0.114,4.694580078125,0.130126953125,-5.315185546875
0.1145,4.734619140625,-0.990966796875,-4.674560546875
0.115,4.774658203125,-2.192138671875,-3.713623046875
0.1155,4.694580078125,-3.273193359375,-2.792724609375
0.116,4.654541015625,-4.234130859375,-2.031982421875
0.1165,4.134033203125,-4.714599609375,-1.191162109375
0.117,3.293212890625,-5.074951171875,0.010009765625
0.1175,2.412353515625,-5.515380859375,1.251220703125
0.118,1.411376953125,-5.795654296875,2.492431640625
0.1185,0.650634765625,-6.156005859375,3.573486328125
0.119,-0.190185546875,-6.236083984375,4.414306640625
0.1195,-1.151123046875,-5.675537109375,4.854736328125
0.12,-2.312255859375,-4.834716796875,5.375244140625
0.1205,-3.553466796875,-3.873779296875,5.735595703125
0.121,-4.434326171875,-2.872802734375,5.895751953125
0.1215,-5.034912109375,-2.112060546875,6.015869140625
0.122,-5.114990234375,-1.311279296875,5.655517578125
0.1225,-5.034912109375,-0.350341796875,4.854736328125
0.123,-5.114990234375,0.850830078125,4.134033203125
0.1235,-5.114990234375,2.052001953125,3.133056640625
0.124,-5.034912109375,3.133056640625,2.252197265625
0.1245,-4.834716796875,3.893798828125,1.451416015625
0.125,-4.154052734375,4.214111328125,0.610595703125
0.1255,-3.273193359375,4.574462890625,-0.630615234375
0.126,-2.312255859375,5.054931640625,-1.991943359375
0.1265,-1.351318359375,5.295166015625,-3.153076171875
0.127,-0.670654296875,5.655517578125,-4.154052734375
0.1275,0.290283203125,5.415283203125,-4.834716796875
0.128,1.371337890625,4.614501953125,-5.275146484375
0.1285,2.572509765625,3.693603515625,-5.755615234375
0.129,3.693603515625,2.572509765625,-6.035888671875
0.1295,4.494384765625,1.611572265625,-6.156005859375
0.13,4.854736328125,0.970947265625,-6.115966796875
0.1305,4.854736328125,0.090087890625,-5.515380859375
0.131,4.774658203125,-0.990966796875,-4.674560546875
0.1315,4.814697265625,-2.232177734375,-3.793701171875
0.132,4.734619140625,-3.393310546875,-2.752685546875
0.1325,4.654541015625,-4.354248046875,-1.911865234375
0.133,4.254150390625,-4.954833984375,-1.111083984375
0.1335,3.373291015625,-5.195068359375,0.010009765625
0.134,2.412353515625,-5.555419921875,1.251220703125
0.1345,1.331298828125,-5.915771484375,2.572509765625
0.135,0.490478515625,-6.115966796875,3.693603515625
0.1355,-0.270263671875,-6.356201171875,4.614501953125
0.136,-1.231201171875,-5.835693359375,5.094970703125
0.1365,-2.432373046875,-4.914794921875,5.495361328125
0.137,-3.673583984375,-3.873779296875,5.895751953125
0.1375,-4.594482421875,-2.832763671875,6.055908203125
0.138,-5.235107421875,-1.911865234375,6.095947265625
0.1385,-5.395263671875,-1.151123046875,5.815673828125
0.139,-5.235107421875,-0.230224609375,5.054931640625
0.1395,-5.155029296875,0.970947265625,4.134033203125
0.14,-5.195068359375,2.212158203125,3.133056640625
0.1405,-5.034912109375,3.333251953125,2.092041015625
0.141,-4.914794921875,4.134033203125,1.331298828125
0.1415,-4.234130859375,4.494384765625,0.490478515625
0.142,-3.273193359375,4.734619140625,-0.710693359375
0.1425,-2.272216796875,5.135009765625,-2.072021484375
0.143,-1.231201171875,5.375244140625,-3.353271484375
0.1435,-0.510498046875,5.615478515625,-4.354248046875
0.144,0.330322265625,5.615478515625,-5.114990234375
0.1445,1.411376953125,4.854736328125,-5.475341796875
0.145,2.652587890625,3.813720703125,-5.915771484375
0.1455,3.853759765625,2.652587890625,-6.276123046875
0.146,4.654541015625,1.611572265625,-6.276123046875
0.1465,5.135009765625,0.890869140625,-6.276123046875
0.147,5.135009765625,0.050048828125,-5.755615234375
0.1475,4.974853515625,-1.071044921875,-4.834716796875
0.148,4.974853515625,-2.272216796875,-3.873779296875
0.1485,4.854736328125,-3.553466796875,-2.752685546875
0.149,4.694580078125,-4.554443359375,-1.791748046875
0.1495,4.454345703125,-5.235107421875,-1.031005859375
0.15,3.573486328125,-5.475341796875,0.010009765625
0.1505,2.492431640625,-5.715576171875,1.291259765625
0.151,1.331298828125,-6.075927734375,2.732666015625
0.1515,0.290283203125,-6.236083984375,3.893798828125
0.152,-0.470458984375,-6.516357421875,4.854736328125
0.1525,-1.271240234375,-6.156005859375,5.415283203125
0.153,-2.552490234375,-5.114990234375,5.775634765625
0.1535,-3.833740234375,-4.033935546875,6.176025390625
0.154,-4.874755859375,-2.792724609375,6.376220703125
0.1545,-5.595458984375,-1.751708984375,6.336181640625
0.155,-5.835693359375,-0.990966796875,6.135986328125
0.1555,-5.675537109375,0.010009765625,5.375244140625
0.156,-5.475341796875,1.211181640625,4.294189453125
0.1565,-5.435302734375,2.532470703125,3.173095703125
0.157,-5.235107421875,3.693603515625,2.011962890625
0.1575,-5.074951171875,4.614501953125,1.131103515625
0.158,-4.474365234375,5.054931640625,0.250244140625
0.1585,-3.393310546875,5.175048828125,-0.990966796875
0.159,-2.192138671875,5.455322265625,-2.432373046875
0.1595,-0.950927734375,5.735595703125,-3.873779296875
0.16,0.050048828125,5.815673828125,-4.874755859375
0.1605,0.730712890625,5.895751953125,-5.715576171875
0.161,1.771728515625,5.094970703125,-6.115966796875
0.1615,3.173095703125,3.813720703125,-6.476318359375
0.162,4.414306640625,2.572509765625,-6.716552734375
0.1625,5.255126953125,1.331298828125,-6.716552734375
0.163,5.735595703125,0.450439453125,-6.596435546875
0.1635,5.735595703125,-0.510498046875,-6.115966796875
0.164,5.455322265625,-1.591552734375,-4.994873046875
0.1645,5.255126953125,-2.872802734375,-3.793701171875
0.165,5.094970703125,-4.234130859375,-2.512451171875
0.1655,4.814697265625,-5.235107421875,-1.391357421875
0.166,4.494384765625,-5.915771484375,-0.590576171875
0.1665,3.613525390625,-6.115966796875,0.490478515625
0.167,2.252197265625,-6.236083984375,1.851806640625
0.1675,0.970947265625,-6.436279296875,3.333251953125
0.168,-0.350341796875,-6.476318359375,4.614501953125
0.1685,-1.031005859375,-6.636474609375,5.495361328125
0.169,-1.791748046875,-6.396240234375,6.095947265625
0.1695,-2.992919921875,-5.275146484375,6.376220703125
0.17,-4.314208984375,-3.913818359375,6.656494140625
0.1705,-5.435302734375,-2.592529296875,6.776611328125
0.171,-6.075927734375,-1.431396484375,6.576416015625
0.1715,-6.356201171875,-0.670654296875,6.416259765625
0.172,-6.115966796875,0.330322265625,5.615478515625
0.1725,-5.755615234375,1.531494140625,4.374267578125
0.173,-5.635498046875,2.852783203125,3.173095703125
0.1735,-5.395263671875,4.093994140625,1.891845703125
0.174,-5.074951171875,4.974853515625,0.890869140625
0.1745,-4.554443359375,5.495361328125,0.050048828125
0.175,-3.553466796875,5.575439453125,-1.071044921875
0.1755,-2.192138671875,5.695556640625,-2.432373046875
0.176,-0.910888671875,5.895751953125,-3.993896484375
0.1765,0.250244140625,5.855712890625,-5.074951171875
0.177,0.890869140625,5.975830078125,-5.915771484375
0.1775,1.731689453125,5.455322265625,-6.396240234375
0.178,3.052978515625,4.214111328125,-6.596435546875
0.1785,4.294189453125,2.972900390625,-6.916748046875
0.179,5.335205078125,1.611572265625,-6.916748046875
0.1795,5.895751953125,0.610595703125,-6.756591796875
0.18,6.055908203125,-0.310302734375,-6.436279296875
0.1805,5.735595703125,-1.271240234375,-5.515380859375
0.181,5.415283203125,-2.512451171875,-4.274169921875
0.1815,5.255126953125,-3.913818359375,-2.952880859375
0.182,4.974853515625,-5.034912109375,-1.791748046875
0.1825,4.654541015625,-5.835693359375,-0.830810546875
0.183,4.013916015625,-6.236083984375,0.130126953125
0.1835,2.852783203125,-6.276123046875,1.291259765625
0.184,1.491455078125,-6.436279296875,2.732666015625
0.1845,0.170166015625,-6.596435546875,4.214111328125
0.185,-0.790771484375,-6.636474609375,5.175048828125
0.1855,-1.511474609375,-6.676513671875,5.935791015625
0.186,-2.472412109375,-5.835693359375,6.376220703125
0.1865,-3.833740234375,-4.514404296875,6.576416015625
0.187,-4.994873046875,-3.193115234375,6.816650390625
0.1875,-5.875732421875,-1.951904296875,6.736572265625
0.188,-6.356201171875,-0.990966796875,6.616455078125
