wavelength,x,y,z
0.0,-1.111083984375,-6.716552734375,5.615478515625
0.0005,-1.791748046875,-6.476318359375,6.135986328125
0.001,-2.912841796875,-5.435302734375,6.416259765625
0.0015,-4.314208984375,-4.154052734375,6.656494140625
0.002,-5.475341796875,-2.792724609375,6.936767578125
0.0025,-6.236083984375,-1.591552734375,6.776611328125
0.003,-6.396240234375,-0.710693359375,6.496337890625
0.0035,-6.236083984375,0.250244140625,5.775634765625
0.004,-5.835693359375,1.331298828125,4.574462890625
0.0045,-5.675537109375,2.692626953125,3.333251953125
0.005,-5.515380859375,3.973876953125,2.092041015625
0.0055,-5.155029296875,4.934814453125,1.091064453125
0.006,-4.634521484375,5.415283203125,0.250244140625
0.0065,-3.633544921875,5.495361328125,-0.910888671875
0.007,-2.272216796875,5.535400390625,-2.152099609375
0.0075,-1.071044921875,5.895751953125,-3.713623046875
0.008,0.090087890625,5.935791015625,-4.874755859375
0.0085,0.770751953125,5.975830078125,-5.675537109375
0.009,1.571533203125,5.495361328125,-6.115966796875
0.0095,2.732666015625,4.334228515625,-6.396240234375
0.01,4.013916015625,3.173095703125,-6.716552734375
0.0105,5.094970703125,1.931884765625,-6.916748046875
0.011,5.695556640625,0.890869140625,-6.716552734375
0.0115,5.815673828125,0.090087890625,-6.436279296875
0.012,5.615478515625,-0.910888671875,-5.635498046875
0.0125,5.295166015625,-1.991943359375,-4.514404296875
0.013,5.255126953125,-3.353271484375,-3.353271484375
0.0135,5.054931640625,-4.594482421875,-2.232177734375
0.014,4.774658203125,-5.435302734375,-1.271240234375
0.0145,4.134033203125,-5.875732421875,-0.390380859375
0.015,3.093017578125,-5.955810546875,0.730712890625
0.0155,1.891845703125,-6.156005859375,2.092041015625
0.016,0.650634765625,-6.436279296875,3.573486328125
0.0165,-0.390380859375,-6.556396484375,4.654541015625
0.017,-1.071044921875,-6.596435546875,5.415283203125
0.0175,-1.951904296875,-6.035888671875,5.815673828125
0.018,-3.193115234375,-4.834716796875,6.095947265625
0.0185,-4.474365234375,-3.713623046875,6.536376953125
0.019,-5.435302734375,-2.472412109375,6.656494140625
0.0195,-5.955810546875,-1.551513671875,6.576416015625
0.02,-6.035888671875,-0.710693359375,6.095947265625
0.0205,-5.755615234375,0.330322265625,5.215087890625
0.021,-5.595458984375,1.451416015625,4.134033203125
0.0215,-5.555419921875,2.892822265625,3.012939453125
0.022,-5.355224609375,4.093994140625,1.931884765625
0.0225,-5.034912109375,4.774658203125,1.010986328125
0.023,-4.274169921875,5.094970703125,0.130126953125
0.0235,-3.153076171875,5.175048828125,-1.151123046875
0.024,-1.951904296875,5.535400390625,-2.592529296875
0.0245,-0.790771484375,5.735595703125,-3.913818359375
0.025,0.090087890625,5.855712890625,-4.954833984375
0.0255,0.770751953125,5.695556640625,-5.595458984375
0.026,1.851806640625,4.894775390625,-5.915771484375
0.0265,3.052978515625,3.813720703125,-6.276123046875
0.027,4.334228515625,2.612548828125,-6.596435546875
0.0275,5.135009765625,1.531494140625,-6.636474609375
0.028,5.495361328125,0.650634765625,-6.436279296875
0.0285,5.415283203125,-0.230224609375,-5.915771484375
0.029,5.135009765625,-1.271240234375,-4.914794921875
0.0295,5.094970703125,-2.472412109375,-3.873779296875
0.03,5.014892578125,-3.793701171875,-2.752685546875
0.0305,4.814697265625,-4.794677734375,-1.791748046875
0.031,4.414306640625,-5.395263671875,-0.990966796875
0.0315,3.533447265625,-5.595458984375,0.010009765625
0.032,2.492431640625,-5.715576171875,1.131103515625
0.0325,1.291259765625,-6.115966796875,2.612548828125
0.033,0.330322265625,-6.276123046875,3.853759765625
0.0335,-0.550537109375,-6.436279296875,4.734619140625
0.034,-1.271240234375,-6.115966796875,5.255126953125
0.0345,-2.312255859375,-5.155029296875,5.575439453125
0.035,-3.553466796875,-4.194091796875,6.015869140625
0.0355,-4.634521484375,-3.113037109375,6.296142578125
0.036,-5.315185546875,-2.112060546875,6.296142578125
0.0365,-5.555419921875,-1.391357421875,6.095947265625
0.037,-5.475341796875,-0.590576171875,5.495361328125
0.0375,-5.275146484375,0.450439453125,4.614501953125
0.038,-5.315185546875,1.731689453125,3.693603515625
0.0385,-5.235107421875,2.892822265625,2.692626953125
0.039,-5.074951171875,3.853759765625,1.771728515625
0.0395,-4.634521484375,4.374267578125,0.970947265625
0.04,-3.753662109375,4.614501953125,0.010009765625
0.0405,-2.832763671875,4.854736328125,-1.231201171875
0.041,-1.791748046875,5.255126953125,-2.592529296875
0.0415,-0.950927734375,5.495361328125,-3.753662109375
0.042,-0.270263671875,5.735595703125,-4.554443359375
0.0425,0.730712890625,5.295166015625,-5.114990234375
0.043,1.851806640625,4.454345703125,-5.475341796875
0.0435,3.093017578125,3.493408203125,-6.035888671875
0.044,4.093994140625,2.492431640625,-6.276123046875
0.0445,4.734619140625,1.571533203125,-6.316162109375
0.045,4.974853515625,0.850830078125,-6.115966796875
0.0455,4.934814453125,0.010009765625,-5.435302734375
0.046,4.854736328125,-1.111083984375,-4.674560546875
0.0465,4.934814453125,-2.392333984375,-3.753662109375
0.047,4.814697265625,-3.553466796875,-2.752685546875
0.0475,4.654541015625,-4.354248046875,-1.951904296875
0.048,4.134033203125,-4.874755859375,-1.151123046875
0.0485,3.253173828125,-5.155029296875,0.010009765625
0.049,2.372314453125,-5.635498046875,1.251220703125
0.0495,1.331298828125,-5.955810546875,2.532470703125
0.05,0.570556640625,-6.156005859375,3.613525390625
0.0505,-0.270263671875,-6.276123046875,4.374267578125
0.051,-1.231201171875,-5.675537109375,4.854736328125
0.0515,-2.312255859375,-4.834716796875,5.295166015625
0.052,-3.553466796875,-3.913818359375,5.815673828125
0.0525,-4.474365234375,-2.912841796875,5.975830078125
0.053,-4.994873046875,-2.112060546875,6.055908203125
0.0535,-5.155029296875,-1.351318359375,5.695556640625
0.054,-5.034912109375,-0.510498046875,5.014892578125
0.0545,-5.114990234375,0.650634765625,4.294189453125
0.055,-5.155029296875,1.931884765625,3.333251953125
0.0555,-5.114990234375,2.932861328125,2.492431640625
0.056,-4.874755859375,3.693603515625,1.691650390625
0.0565,-4.234130859375,4.093994140625,0.810791015625
0.057,-3.353271484375,4.334228515625,-0.310302734375
0.0575,-2.552490234375,4.894775390625,-1.631591796875
0.058,-1.631591796875,5.255126953125,-2.832763671875
0.0585,-0.910888671875,5.535400390625,-3.833740234375
0.059,0.010009765625,5.455322265625,-4.514404296875
0.0595,1.010986328125,4.774658203125,-4.994873046875
0.06,2.172119140625,3.973876953125,-5.515380859375
0.0605,3.373291015625,3.012939453125,-5.955810546875
0.061,4.174072265625,2.052001953125,-6.115966796875
0.0615,4.614501953125,1.331298828125,-6.115966796875
0.062,4.734619140625,0.570556640625,-5.715576171875
0.0625,4.654541015625,-0.510498046875,-4.994873046875
0.063,4.814697265625,-1.631591796875,-4.194091796875
0.0635,4.814697265625,-2.872802734375,-3.273193359375
0.064,4.734619140625,-3.833740234375,-2.432373046875
0.0645,4.454345703125,-4.554443359375,-1.631591796875
0.065,3.653564453125,-4.874755859375,-0.630615234375
0.0655,2.812744140625,-5.315185546875,0.530517578125
0.066,1.851806640625,-5.715576171875,1.931884765625
0.0665,0.970947265625,-6.035888671875,3.052978515625
0.067,0.290283203125,-6.276123046875,3.973876953125
0.0675,-0.670654296875,-5.915771484375,4.534423828125
0.068,-1.751708984375,-5.155029296875,4.974853515625
0.0685,-2.992919921875,-4.314208984375,5.575439453125
0.069,-4.073974609375,-3.273193359375,5.895751953125
0.0695,-4.794677734375,-2.432373046875,6.015869140625
0.07,-5.074951171875,-1.671630859375,5.855712890625
0.0705,-5.074951171875,-0.830810546875,5.255126953125
0.071,-5.034912109375,0.210205078125,4.534423828125
0.0715,-5.155029296875,1.491455078125,3.693603515625
0.072,-5.155029296875,2.652587890625,2.732666015625
0.0725,-4.994873046875,3.493408203125,1.931884765625
0.073,-4.514404296875,3.973876953125,1.091064453125
0.0735,-3.673583984375,4.214111328125,0.050048828125
0.074,-2.832763671875,4.814697265625,-1.271240234375
0.0745,-1.871826171875,5.215087890625,-2.592529296875
0.075,-1.071044921875,5.495361328125,-3.633544921875
0.0755,-0.350341796875,5.575439453125,-4.434326171875
0.076,0.690673828125,5.054931640625,-4.954833984375
0.0765,1.891845703125,4.174072265625,-5.395263671875
0.077,3.173095703125,3.173095703125,-5.915771484375
0.0775,4.134033203125,2.212158203125,-6.115966796875
0.078,4.654541015625,1.411376953125,-6.156005859375
0.0785,4.814697265625,0.650634765625,-5.835693359375
0.079,4.734619140625,-0.390380859375,-5.114990234375
0.0795,4.814697265625,-1.471435546875,-4.354248046875
0.08,4.854736328125,-2.752685546875,-3.353271484375
0.0805,4.774658203125,-3.873779296875,-2.432373046875
0.081,4.534423828125,-4.634521484375,-1.671630859375
0.0815,3.853759765625,-4.994873046875,-0.790771484375
0.082,2.892822265625,-5.155029296875,0.410400390625
0.0825,1.931884765625,-5.715576171875,1.851806640625
0.083,0.970947265625,-6.035888671875,3.052978515625
0.0835,0.250244140625,-6.276123046875,4.013916015625
0.084,-0.630615234375,-6.115966796875,4.694580078125
0.0845,-1.671630859375,-5.315185546875,5.094970703125
0.085,-2.912841796875,-4.434326171875,5.615478515625
0.0855,-4.114013671875,-3.393310546875,6.015869140625
0.086,-4.874755859375,-2.392333984375,6.095947265625
0.0865,-5.235107421875,-1.631591796875,6.015869140625
0.087,-5.275146484375,-0.830810546875,5.495361328125
0.0875,-5.114990234375,0.210205078125,4.614501953125
0.088,-5.235107421875,1.451416015625,3.773681640625
0.0885,-5.235107421875,2.692626953125,2.772705078125
0.089,-5.074951171875,3.693603515625,1.851806640625
0.0895,-4.674560546875,4.214111328125,1.010986328125
0.09,-3.793701171875,4.494384765625,0.050048828125
0.0905,-2.832763671875,4.814697265625,-1.271240234375
0.091,-1.791748046875,5.255126953125,-2.632568359375
0.0915,-0.910888671875,5.575439453125,-3.833740234375
0.092,-0.190185546875,5.735595703125,-4.674560546875
0.0925,0.810791015625,5.255126953125,-5.195068359375
0.093,1.971923828125,4.294189453125,-5.595458984375
0.0935,3.333251953125,3.253173828125,-6.115966796875
0.094,4.374267578125,2.212158203125,-6.396240234375
0.0945,4.974853515625,1.251220703125,-6.396240234375
0.095,5.135009765625,0.530517578125,-6.115966796875
0.0955,5.054931640625,-0.510498046875,-5.315185546875
0.096,4.934814453125,-1.631591796875,-4.354248046875
0.0965,4.974853515625,-3.072998046875,-3.313232421875
0.097,4.854736328125,-4.194091796875,-2.272216796875
0.0975,4.614501953125,-5.034912109375,-1.471435546875
0.098,3.973876953125,-5.315185546875,-0.630615234375
0.0985,2.932861328125,-5.475341796875,0.610595703125
0.099,1.851806640625,-5.835693359375,2.011962890625
0.0995,0.770751953125,-6.156005859375,3.413330078125
0.1,-0.150146484375,-6.356201171875,4.374267578125
0.1005,-0.870849609375,-6.316162109375,5.094970703125
0.101,-1.911865234375,-5.515380859375,5.455322265625
0.1015,-3.193115234375,-4.434326171875,5.895751953125
0.102,-4.434326171875,-3.273193359375,6.336181640625
0.1025,-5.275146484375,-2.272216796875,6.416259765625
0.103,-5.715576171875,-1.431396484375,6.296142578125
0.1035,-5.675537109375,-0.630615234375,5.735595703125
0.104,-5.435302734375,0.490478515625,4.814697265625
0.1045,-5.395263671875,1.651611328125,3.773681640625
0.105,-5.395263671875,3.052978515625,2.612548828125
0.1055,-5.195068359375,4.093994140625,1.611572265625
0.106,-4.794677734375,4.774658203125,0.810791015625
0.1065,-3.913818359375,4.974853515625,-0.230224609375
0.107,-2.752685546875,5.094970703125,-1.431396484375
0.1075,-1.631591796875,5.535400390625,-2.992919921875
0.108,-0.590576171875,5.775634765625,-4.234130859375
0.1085,0.250244140625,5.895751953125,-5.155029296875
0.109,1.091064453125,5.575439453125,-5.715576171875
0.1095,2.292236328125,4.494384765625,-6.075927734375
0.11,3.653564453125,3.293212890625,-6.436279296875
0.1105,4.814697265625,2.092041015625,-6.756591796875
0.111,5.455322265625,1.051025390625,-6.716552734375
0.1115,5.695556640625,0.250244140625,-6.436279296875
0.112,5.535400390625,-0.790771484375,-5.715576171875
0.1125,5.255126953125,-1.991943359375,-4.514404296875
0.113,5.215087890625,-3.473388671875,-3.353271484375
0.1135,5.054931640625,-4.714599609375,-2.192138671875
0.114,4.814697265625,-5.515380859375,-1.231201171875
0.1145,4.134033203125,-5.915771484375,-0.310302734375
0.115,3.012939453125,-6.035888671875,0.930908203125
0.1155,1.691650390625,-6.236083984375,2.372314453125
0.116,0.450439453125,-6.476318359375,3.893798828125
0.1165,-0.590576171875,-6.596435546875,4.974853515625
0.117,-1.271240234375,-6.556396484375,5.695556640625
0.1175,-2.232177734375,-5.835693359375,6.095947265625
0.118,-3.553466796875,-4.514404296875,6.336181640625
0.1185,-4.874755859375,-3.273193359375,6.696533203125
0.119,-5.835693359375,-2.072021484375,6.776611328125
0.1195,-6.276123046875,-1.151123046875,6.616455078125
0.12,-6.276123046875,-0.270263671875,6.095947265625
0.1205,-5.915771484375,0.810791015625,5.054931640625
0.121,-5.635498046875,2.052001953125,3.813720703125
0.1215,-5.595458984375,3.493408203125,2.492431640625
0.122,-5.355224609375,4.614501953125,1.411376953125
0.1225,-4.914794921875,5.295166015625,0.530517578125
0.123,-4.073974609375,5.495361328125,-0.470458984375
0.1235,-2.712646484375,5.495361328125,-1.671630859375
0.124,-1.471435546875,5.815673828125,-3.233154296875
0.1245,-0.310302734375,5.975830078125,-4.634521484375
0.125,0.610595703125,6.055908203125,-5.555419921875
0.1255,1.291259765625,5.815673828125,-6.156005859375
0.126,2.412353515625,4.814697265625,-6.436279296875
0.1265,3.773681640625,3.493408203125,-6.716552734375
0.127,5.054931640625,2.212158203125,-6.996826171875
0.1275,5.775634765625,1.010986328125,-6.956787109375
0.128,6.055908203125,0.170166015625,-6.716552734375
0.1285,5.895751953125,-0.910888671875,-6.035888671875
0.129,5.495361328125,-1.991943359375,-4.834716796875
0.1295,5.335205078125,-3.353271484375,-3.593505859375
0.13,5.215087890625,-4.634521484375,-2.312255859375
0.1305,4.934814453125,-5.635498046875,-1.271240234375
0.131,4.414306640625,-6.156005859375,-0.390380859375
0.1315,3.373291015625,-6.276123046875,0.690673828125
0.132,1.971923828125,-6.236083984375,1.971923828125
0.1325,0.690673828125,-6.556396484375,3.653564453125
0.133,-0.470458984375,-6.676513671875,4.814697265625
0.1335,-1.191162109375,-6.716552734375,5.655517578125
0.134,-1.951904296875,-6.276123046875,6.095947265625
0.1345,-3.193115234375,-5.074951171875,6.336181640625
0.135,-4.514404296875,-3.833740234375,6.696533203125
0.1355,-5.635498046875,-2.552490234375,6.896728515625
0.136,-6.236083984375,-1.431396484375,6.696533203125
0.1365,-6.356201171875,-0.630615234375,6.376220703125
0.137,-6.115966796875,0.330322265625,5.575439453125
0.1375,-5.755615234375,1.451416015625,4.334228515625
0.138,-5.715576171875,2.932861328125,3.093017578125
0.1385,-5.475341796875,4.174072265625,1.931884765625
0.139,-5.155029296875,5.054931640625,0.970947265625
0.1395,-4.514404296875,5.455322265625,0.090087890625
0.14,-3.393310546875,5.495361328125,-1.071044921875
0.1405,-2.112060546875,5.695556640625,-2.472412109375
0.141,-0.830810546875,5.935791015625,-4.033935546875
0.1415,0.210205078125,6.055908203125,-5.114990234375
0.142,0.930908203125,6.055908203125,-5.915771484375
0.1425,1.851806640625,5.415283203125,-6.316162109375
0.143,3.173095703125,4.093994140625,-6.556396484375
0.1435,4.494384765625,2.852783203125,-6.916748046875
0.144,5.455322265625,1.571533203125,-7.036865234375
0.1445,5.975830078125,0.530517578125,-6.876708984375
0.145,6.015869140625,-0.390380859375,-6.436279296875
0.1455,5.695556640625,-1.431396484375,-5.435302734375
0.146,5.455322265625,-2.632568359375,-4.194091796875
0.1465,5.375244140625,-4.154052734375,-2.872802734375
0.147,5.135009765625,-5.315185546875,-1.671630859375
0.1475,4.734619140625,-6.035888671875,-0.790771484375
0.148,3.853759765625,-6.276123046875,0.290283203125
0.1485,2.572509765625,-6.356201171875,1.531494140625
0.149,1.251220703125,-6.596435546875,3.133056640625
0.1495,0.010009765625,-6.756591796875,4.534423828125
0.15,-0.990966796875,-6.796630859375,5.535400390625
0.1505,-1.671630859375,-6.556396484375,6.135986328125
0.151,-2.832763671875,-5.595458984375,6.416259765625
0.1515,-4.154052734375,-4.194091796875,6.696533203125
0.152,-5.475341796875,-2.912841796875,7.016845703125
0.1525,-6.236083984375,-1.751708984375,6.896728515625
0.153,-6.556396484375,-0.790771484375,6.656494140625
0.1535,-6.396240234375,0.170166015625,5.935791015625
0.154,-5.995849609375,1.371337890625,4.694580078125
0.1545,-5.755615234375,2.692626953125,3.413330078125
0.155,-5.635498046875,4.093994140625,2.132080078125
0.1555,-5.275146484375,5.094970703125,1.010986328125
0.156,-4.754638671875,5.575439453125,0.170166015625
0.1565,-3.713623046875,5.695556640625,-0.950927734375
0.157,-2.312255859375,5.655517578125,-2.232177734375
0.1575,-0.990966796875,5.975830078125,-3.833740234375
0.158,0.170166015625,6.055908203125,-5.074951171875
0.1585,0.930908203125,6.055908203125,-5.875732421875
0.159,1.651611328125,5.615478515625,-6.316162109375
0.1595,2.892822265625,4.414306640625,-6.556396484375
0.16,4.174072265625,3.133056640625,-6.796630859375
0.1605,5.335205078125,1.851806640625,-7.076904296875
0.161,5.895751953125,0.650634765625,-6.836669921875
0.1615,6.015869140625,-0.270263671875,-6.556396484375
0.162,5.775634765625,-1.071044921875,-5.715576171875
0.1625,5.415283203125,-2.192138671875,-4.514404296875
0.163,5.295166015625,-3.553466796875,-3.273193359375
0.1635,5.094970703125,-4.834716796875,-2.112060546875
0.164,4.774658203125,-5.635498046875,-1.111083984375
0.1645,4.134033203125,-6.075927734375,-0.310302734375
0.165,3.052978515625,-6.115966796875,0.850830078125
0.1655,1.771728515625,-6.236083984375,2.212158203125
0.166,0.530517578125,-6.476318359375,3.733642578125
0.1665,-0.590576171875,-6.516357421875,4.814697265625
0.167,-1.191162109375,-6.596435546875,5.575439453125
0.1675,-1.991943359375,-6.035888671875,5.935791015625
0.168,-3.193115234375,-4.834716796875,6.135986328125
0.1685,-4.474365234375,-3.713623046875,6.536376953125
0.169,-5.475341796875,-2.552490234375,6.696533203125
0.1695,-6.035888671875,-1.591552734375,6.536376953125
0.17,-6.115966796875,-0.710693359375,6.216064453125
0.1705,-5.835693359375,0.290283203125,5.375244140625
0.171,-5.595458984375,1.331298828125,4.294189453125
0.1715,-5.555419921875,2.732666015625,3.173095703125
0.172,-5.395263671875,3.893798828125,2.052001953125
0.1725,-5.114990234375,4.734619140625,1.131103515625
0.173,-4.434326171875,5.094970703125,0.250244140625
0.1735,-3.313232421875,5.135009765625,-0.910888671875
0.174,-2.192138671875,5.495361328125,-2.272216796875
0.1745,-0.990966796875,5.735595703125,-3.753662109375
0.175,-0.150146484375,5.895751953125,-4.754638671875
0.1755,0.610595703125,5.855712890625,-5.475341796875
0.176,1.611572265625,5.135009765625,-5.875732421875
0.1765,2.852783203125,3.973876953125,-6.196044921875
0.177,4.134033203125,2.852783203125,-6.596435546875
0.1775,5.014892578125,1.691650390625,-6.716552734375
0.178,5.495361328125,0.850830078125,-6.596435546875
0.1785,5.495361328125,0.050048828125,-6.115966796875
0.179,5.255126953125,-1.031005859375,-5.155029296875
0.1795,5.175048828125,-2.232177734375,-4.154052734375
0.18,5.094970703125,-3.593505859375,-2.992919921875
0.1805,4.934814453125,-4.634521484375,-1.991943359375
0.181,4.534423828125,-5.315185546875,-1.151123046875
0.1815,3.773681640625,-5.595458984375,-0.270263671875
0.182,2.612548828125,-5.715576171875,1.010986328125
0.1825,1.491455078125,-6.115966796875,2.492431640625
0.183,0.450439453125,-6.276123046875,3.733642578125
0.1835,-0.390380859375,-6.436279296875,4.694580078125
0.184,-1.151123046875,-6.236083984375,5.295166015625
0.1845,-2.232177734375,-5.395263671875,5.575439453125
0.185,-3.473388671875,-4.354248046875,6.015869140625
0.1855,-4.634521484375,-3.233154296875,6.336181640625
0.186,-5.315185546875,-2.192138671875,6.336181640625
0.1865,-5.675537109375,-1.351318359375,6.216064453125
0.187,-5.595458984375,-0.590576171875,5.615478515625
0.1875,-5.315185546875,0.490478515625,4.694580078125
0.188,-5.315185546875,1.731689453125,3.733642578125
