wavelength,x,y,z
0.0,4.093994140625,-6.276123046875,0.090087890625
0.0005,2.812744140625,-6.396240234375,1.291259765625
0.001,1.331298828125,-6.596435546875,2.932861328125
0.0015,0.010009765625,-6.876708984375,4.334228515625
0.002,-0.910888671875,-6.836669921875,5.415283203125
0.0025,-1.591552734375,-6.716552734375,6.095947265625
0.003,-2.632568359375,-5.835693359375,6.456298828125
0.0035,-4.114013671875,-4.434326171875,6.776611328125
0.004,-5.435302734375,-3.072998046875,7.056884765625
0.0045,-6.276123046875,-1.791748046875,7.016845703125
0.005,-6.596435546875,-0.910888671875,6.736572265625
0.0055,-6.476318359375,0.010009765625,6.176025390625
0.006,-6.156005859375,1.131103515625,5.054931640625
0.0065,-5.915771484375,2.492431640625,3.773681640625
0.007,-5.755615234375,3.893798828125,2.412353515625
0.0075,-5.475341796875,4.894775390625,1.291259765625
0.008,-4.994873046875,5.415283203125,0.530517578125
0.0085,-4.114013671875,5.535400390625,-0.510498046875
0.009,-2.712646484375,5.655517578125,-1.911865234375
0.0095,-1.471435546875,5.815673828125,-3.553466796875
0.01,-0.190185546875,6.095947265625,-4.834716796875
0.0105,0.650634765625,6.216064453125,-5.755615234375
0.011,1.451416015625,5.935791015625,-6.396240234375
0.0115,2.692626953125,4.814697265625,-6.716552734375
0.012,4.134033203125,3.453369140625,-7.076904296875
0.0125,5.415283203125,1.971923828125,-7.237060546875
0.013,6.095947265625,0.850830078125,-7.076904296875
0.0135,6.256103515625,0.010009765625,-6.796630859375
0.014,6.095947265625,-0.990966796875,-6.035888671875
0.0145,5.775634765625,-2.232177734375,-4.794677734375
0.015,5.615478515625,-3.673583984375,-3.513427734375
0.0155,5.415283203125,-4.994873046875,-2.192138671875
0.016,5.014892578125,-5.795654296875,-1.191162109375
0.0165,4.414306640625,-6.276123046875,-0.310302734375
0.017,3.333251953125,-6.396240234375,0.810791015625
0.0175,1.771728515625,-6.556396484375,2.412353515625
0.018,0.450439453125,-6.716552734375,4.013916015625
0.0185,-0.670654296875,-6.796630859375,5.135009765625
0.019,-1.311279296875,-6.836669921875,5.975830078125
0.0195,-2.272216796875,-6.236083984375,6.416259765625
0.02,-3.673583984375,-4.954833984375,6.696533203125
0.0205,-5.034912109375,-3.553466796875,7.056884765625
0.021,-6.115966796875,-2.192138671875,7.056884765625
0.0215,-6.556396484375,-1.151123046875,6.896728515625
0.022,-6.556396484375,-0.350341796875,6.456298828125
0.0225,-6.316162109375,0.730712890625,5.495361328125
0.023,-6.075927734375,2.052001953125,4.134033203125
0.0235,-5.915771484375,3.533447265625,2.852783203125
0.024,-5.595458984375,4.654541015625,1.611572265625
0.0245,-5.155029296875,5.335205078125,0.770751953125
0.025,-4.394287109375,5.575439453125,-0.230224609375
0.0255,-3.193115234375,5.695556640625,-1.351318359375
0.026,-1.791748046875,5.895751953125,-2.992919921875
0.0265,-0.470458984375,6.055908203125,-4.514404296875
0.027,0.490478515625,6.135986328125,-5.475341796875
0.0275,1.131103515625,6.095947265625,-6.196044921875
0.028,2.252197265625,5.215087890625,-6.556396484375
0.0285,3.693603515625,3.853759765625,-6.876708984375
0.029,4.974853515625,2.492431640625,-7.116943359375
0.0295,5.815673828125,1.211181640625,-7.076904296875
0.03,6.176025390625,0.330322265625,-6.876708984375
0.0305,6.095947265625,-0.630615234375,-6.316162109375
0.031,5.735595703125,-1.631591796875,-5.275146484375
0.0315,5.575439453125,-2.952880859375,-3.993896484375
0.032,5.415283203125,-4.434326171875,-2.672607421875
0.0325,5.094970703125,-5.395263671875,-1.591552734375
0.033,4.614501953125,-5.955810546875,-0.790771484375
0.0335,3.693603515625,-6.115966796875,0.290283203125
0.034,2.492431640625,-6.196044921875,1.531494140625
0.0345,1.131103515625,-6.436279296875,3.093017578125
0.035,0.010009765625,-6.556396484375,4.454345703125
0.0355,-0.870849609375,-6.716552734375,5.295166015625
0.036,-1.591552734375,-6.476318359375,5.935791015625
0.0365,-2.712646484375,-5.515380859375,6.256103515625
0.037,-4.114013671875,-4.234130859375,6.576416015625
0.0375,-5.315185546875,-2.912841796875,6.776611328125
0.038,-6.035888671875,-1.791748046875,6.736572265625
0.0385,-6.276123046875,-1.031005859375,6.536376953125
0.039,-6.115966796875,-0.230224609375,5.895751953125
0.0395,-5.875732421875,0.970947265625,4.854736328125
0.04,-5.755615234375,2.332275390625,3.693603515625
0.0405,-5.635498046875,3.653564453125,2.492431640625
0.041,-5.315185546875,4.494384765625,1.451416015625
0.0415,-4.954833984375,5.054931640625,0.770751953125
0.042,-3.953857421875,5.255126953125,-0.390380859375
0.0425,-2.712646484375,5.455322265625,-1.751708984375
0.043,-1.431396484375,5.775634765625,-3.353271484375
0.0435,-0.390380859375,5.935791015625,-4.514404296875
0.044,0.370361328125,6.135986328125,-5.435302734375
0.0445,1.291259765625,5.695556640625,-5.995849609375
0.045,2.532470703125,4.574462890625,-6.356201171875
0.0455,3.933837890625,3.333251953125,-6.756591796875
0.046,5.094970703125,2.052001953125,-6.916748046875
0.0465,5.695556640625,1.010986328125,-6.876708984375
0.047,5.815673828125,0.290283203125,-6.556396484375
0.0475,5.615478515625,-0.790771484375,-5.755615234375
0.048,5.455322265625,-1.951904296875,-4.674560546875
0.0485,5.415283203125,-3.393310546875,-3.393310546875
0.049,5.175048828125,-4.634521484375,-2.272216796875
0.0495,4.854736328125,-5.275146484375,-1.351318359375
0.05,4.214111328125,-5.715576171875,-0.590576171875
0.0505,3.173095703125,-5.835693359375,0.610595703125
0.051,1.931884765625,-6.115966796875,2.092041015625
0.0515,0.610595703125,-6.356201171875,3.573486328125
0.052,-0.270263671875,-6.556396484375,4.614501953125
0.0525,-0.990966796875,-6.556396484375,5.375244140625
0.053,-1.951904296875,-5.915771484375,5.775634765625
0.0535,-3.233154296875,-4.754638671875,6.135986328125
0.054,-4.554443359375,-3.513427734375,6.496337890625
0.0545,-5.435302734375,-2.312255859375,6.536376953125
0.055,-5.875732421875,-1.511474609375,6.456298828125
0.0555,-5.915771484375,-0.790771484375,6.055908203125
0.056,-5.635498046875,0.250244140625,5.215087890625
0.0565,-5.515380859375,1.411376953125,4.174072265625
0.057,-5.475341796875,2.732666015625,3.052978515625
0.0575,-5.275146484375,3.853759765625,2.011962890625
0.058,-4.994873046875,4.494384765625,1.251220703125
0.0585,-4.354248046875,4.774658203125,0.370361328125
0.059,-3.273193359375,4.974853515625,-0.790771484375
0.0595,-2.192138671875,5.375244140625,-2.232177734375
0.06,-1.111083984375,5.615478515625,-3.553466796875
0.0605,-0.350341796875,5.855712890625,-4.554443359375
0.061,0.490478515625,5.815673828125,-5.275146484375
0.0615,1.571533203125,5.054931640625,-5.715576171875
0.062,2.852783203125,3.973876953125,-6.115966796875
0.0625,4.093994140625,2.812744140625,-6.436279296875
0.063,4.934814453125,1.731689453125,-6.556396484375
0.0635,5.295166015625,1.010986328125,-6.516357421875
0.064,5.295166015625,0.250244140625,-6.035888671875
0.0645,5.175048828125,-0.830810546875,-5.275146484375
0.065,5.175048828125,-2.112060546875,-4.234130859375
0.0655,5.135009765625,-3.433349609375,-3.233154296875
0.066,4.934814453125,-4.314208984375,-2.272216796875
0.0665,4.614501953125,-4.954833984375,-1.471435546875
0.067,3.853759765625,-5.235107421875,-0.630615234375
0.0675,2.852783203125,-5.515380859375,0.690673828125
0.068,1.731689453125,-5.915771484375,2.212158203125
0.0685,0.770751953125,-6.196044921875,3.373291015625
0.069,0.090087890625,-6.516357421875,4.334228515625
0.0695,-0.830810546875,-6.276123046875,4.974853515625
0.07,-1.951904296875,-5.435302734375,5.415283203125
0.0705,-3.273193359375,-4.434326171875,5.895751953125
0.071,-4.394287109375,-3.273193359375,6.176025390625
0.0715,-5.114990234375,-2.392333984375,6.296142578125
0.072,-5.435302734375,-1.631591796875,6.176025390625
0.0725,-5.435302734375,-0.990966796875,5.615478515625
0.073,-5.355224609375,0.170166015625,4.854736328125
0.0735,-5.435302734375,1.411376953125,3.853759765625
0.074,-5.315185546875,2.692626953125,2.892822265625
0.0745,-5.195068359375,3.573486328125,2.052001953125
0.075,-4.794677734375,4.134033203125,1.291259765625
0.0755,-3.953857421875,4.454345703125,0.330322265625
0.076,-3.072998046875,4.854736328125,-1.031005859375
0.0765,-1.991943359375,5.255126953125,-2.432373046875
0.077,-1.191162109375,5.615478515625,-3.553466796875
0.0775,-0.510498046875,5.775634765625,-4.474365234375
0.078,0.570556640625,5.415283203125,-5.074951171875
0.0785,1.771728515625,4.494384765625,-5.555419921875
0.079,3.133056640625,3.453369140625,-6.035888671875
0.0795,4.134033203125,2.412353515625,-6.276123046875
0.08,4.774658203125,1.571533203125,-6.396240234375
0.0805,4.974853515625,0.890869140625,-6.156005859375
0.081,4.934814453125,0.010009765625,-5.515380859375
0.0815,4.974853515625,-1.151123046875,-4.754638671875
0.082,5.014892578125,-2.472412109375,-3.753662109375
0.0825,4.934814453125,-3.553466796875,-2.832763671875
0.083,4.814697265625,-4.354248046875,-2.072021484375
0.0835,4.214111328125,-4.794677734375,-1.271240234375
0.084,3.333251953125,-5.155029296875,-0.150146484375
0.0845,2.372314453125,-5.635498046875,1.291259765625
0.085,1.411376953125,-5.955810546875,2.572509765625
0.0855,0.650634765625,-6.356201171875,3.693603515625
0.086,-0.190185546875,-6.356201171875,4.494384765625
0.0865,-1.271240234375,-5.755615234375,4.974853515625
0.087,-2.512451171875,-4.834716796875,5.495361328125
0.0875,-3.793701171875,-3.793701171875,5.935791015625
0.088,-4.674560546875,-2.792724609375,6.135986328125
0.0885,-5.155029296875,-2.112060546875,6.216064453125
0.089,-5.275146484375,-1.351318359375,5.815673828125
0.0895,-5.155029296875,-0.470458984375,5.094970703125
0.09,-5.315185546875,0.890869140625,4.294189453125
0.0905,-5.355224609375,2.172119140625,3.333251953125
0.091,-5.235107421875,3.173095703125,2.412353515625
0.0915,-4.994873046875,3.853759765625,1.691650390625
0.092,-4.314208984375,4.214111328125,0.770751953125
0.0925,-3.473388671875,4.614501953125,-0.470458984375
0.093,-2.432373046875,5.094970703125,-1.911865234375
0.0935,-1.551513671875,5.455322265625,-3.113037109375
0.094,-0.830810546875,5.775634765625,-4.114013671875
0.0945,0.170166015625,5.615478515625,-4.834716796875
0.095,1.331298828125,4.814697265625,-5.355224609375
0.0955,2.692626953125,3.813720703125,-5.875732421875
0.096,3.853759765625,2.692626953125,-6.236083984375
0.0965,4.654541015625,1.731689453125,-6.396240234375
0.097,4.974853515625,1.051025390625,-6.316162109375
0.0975,4.974853515625,0.170166015625,-5.795654296875
0.098,4.974853515625,-0.870849609375,-4.994873046875
0.0985,5.054931640625,-2.192138671875,-3.993896484375
0.099,4.974853515625,-3.393310546875,-2.992919921875
0.0995,4.854736328125,-4.274169921875,-2.192138671875
0.1,4.414306640625,-4.834716796875,-1.391357421875
0.1005,3.533447265625,-5.114990234375,-0.350341796875
0.101,2.572509765625,-5.515380859375,1.051025390625
0.1015,1.491455078125,-5.915771484375,2.492431640625
0.102,0.650634765625,-6.276123046875,3.573486328125
0.1025,0.010009765625,-6.436279296875,4.494384765625
0.103,-1.111083984375,-5.915771484375,5.014892578125
0.1035,-2.312255859375,-4.994873046875,5.495361328125
0.104,-3.713623046875,-3.873779296875,5.975830078125
0.1045,-4.674560546875,-2.872802734375,6.135986328125
0.105,-5.275146484375,-2.072021484375,6.256103515625
0.1055,-5.475341796875,-1.391357421875,5.935791015625
0.106,-5.315185546875,-0.430419921875,5.255126953125
0.1065,-5.315185546875,0.810791015625,4.414306640625
0.107,-5.395263671875,2.172119140625,3.333251953125
0.1075,-5.275146484375,3.253173828125,2.412353515625
0.108,-5.074951171875,3.973876953125,1.611572265625
0.1085,-4.434326171875,4.374267578125,0.770751953125
0.109,-3.473388671875,4.654541015625,-0.470458984375
0.1095,-2.512451171875,5.135009765625,-1.871826171875
0.11,-1.431396484375,5.455322265625,-3.193115234375
0.1105,-0.710693359375,5.775634765625,-4.234130859375
0.111,0.210205078125,5.735595703125,-5.034912109375
0.1115,1.291259765625,4.974853515625,-5.515380859375
0.112,2.692626953125,3.933837890625,-6.035888671875
0.1125,3.973876953125,2.692626953125,-6.396240234375
0.113,4.814697265625,1.651611328125,-6.476318359375
0.1135,5.175048828125,0.930908203125,-6.436279296875
0.114,5.255126953125,0.130126953125,-5.955810546875
0.1145,5.094970703125,-1.031005859375,-5.074951171875
0.115,5.175048828125,-2.312255859375,-4.033935546875
0.1155,5.094970703125,-3.673583984375,-2.912841796875
0.116,4.934814453125,-4.554443359375,-1.951904296875
0.1165,4.534423828125,-5.155029296875,-1.231201171875
0.117,3.653564453125,-5.395263671875,-0.230224609375
0.1175,2.532470703125,-5.715576171875,1.211181640625
0.118,1.331298828125,-6.115966796875,2.732666015625
0.1185,0.410400390625,-6.356201171875,3.893798828125
0.119,-0.390380859375,-6.556396484375,4.814697265625
0.1195,-1.271240234375,-6.115966796875,5.415283203125
0.12,-2.592529296875,-5.114990234375,5.775634765625
0.1205,-3.913818359375,-3.913818359375,6.256103515625
0.121,-5.074951171875,-2.712646484375,6.416259765625
0.1215,-5.715576171875,-1.871826171875,6.416259765625
0.122,-5.835693359375,-1.031005859375,6.176025390625
0.1225,-5.635498046875,0.010009765625,5.415283203125
0.123,-5.515380859375,1.131103515625,4.334228515625
0.1235,-5.515380859375,2.532470703125,3.173095703125
0.124,-5.395263671875,3.693603515625,2.172119140625
0.1245,-5.114990234375,4.454345703125,1.291259765625
0.125,-4.514404296875,4.814697265625,0.490478515625
0.1255,-3.473388671875,4.974853515625,-0.710693359375
0.126,-2.272216796875,5.375244140625,-2.152099609375
0.1265,-1.111083984375,5.695556640625,-3.633544921875
0.127,-0.310302734375,5.895751953125,-4.674560546875
0.1275,0.530517578125,5.895751953125,-5.475341796875
0.128,1.571533203125,5.175048828125,-5.915771484375
0.1285,3.052978515625,3.933837890625,-6.396240234375
0.129,4.414306640625,2.612548828125,-6.756591796875
0.1295,5.255126953125,1.411376953125,-6.796630859375
0.13,5.735595703125,0.650634765625,-6.716552734375
0.1305,5.735595703125,-0.270263671875,-6.236083984375
0.131,5.495361328125,-1.351318359375,-5.155029296875
0.1315,5.415283203125,-2.672607421875,-4.033935546875
0.132,5.295166015625,-4.154052734375,-2.792724609375
0.1325,5.094970703125,-5.114990234375,-1.751708984375
0.133,4.654541015625,-5.755615234375,-0.950927734375
0.1335,3.773681640625,-5.915771484375,0.130126953125
0.134,2.492431640625,-6.075927734375,1.491455078125
0.1345,1.091064453125,-6.396240234375,3.133056640625
0.135,0.010009765625,-6.556396484375,4.414306640625
0.1355,-0.790771484375,-6.716552734375,5.335205078125
0.136,-1.631591796875,-6.396240234375,5.975830078125
0.1365,-2.912841796875,-5.315185546875,6.296142578125
0.137,-4.354248046875,-3.993896484375,6.656494140625
0.1375,-5.635498046875,-2.672607421875,6.856689453125
0.138,-6.196044921875,-1.551513671875,6.776611328125
0.1385,-6.396240234375,-0.710693359375,6.496337890625
0.139,-6.196044921875,0.290283203125,5.735595703125
0.1395,-5.915771484375,1.571533203125,4.494384765625
0.14,-5.795654296875,3.012939453125,3.173095703125
0.1405,-5.635498046875,4.294189453125,1.931884765625
0.141,-5.195068359375,5.054931640625,0.970947265625
0.1415,-4.634521484375,5.415283203125,0.170166015625
0.142,-3.513427734375,5.495361328125,-0.990966796875
0.1425,-2.112060546875,5.735595703125,-2.512451171875
0.143,-0.790771484375,5.935791015625,-4.154052734375
0.1435,0.250244140625,6.095947265625,-5.195068359375
0.144,0.930908203125,6.135986328125,-6.035888671875
0.1445,1.931884765625,5.415283203125,-6.476318359375
0.145,3.333251953125,4.053955078125,-6.796630859375
0.1455,4.694580078125,2.652587890625,-7.116943359375
0.146,5.735595703125,1.331298828125,-7.116943359375
0.1465,6.216064453125,0.370361328125,-6.956787109375
0.147,6.216064453125,-0.550537109375,-6.476318359375
0.1475,5.895751953125,-1.591552734375,-5.435302734375
0.148,5.655517578125,-2.952880859375,-4.114013671875
0.1485,5.495361328125,-4.434326171875,-2.712646484375
0.149,5.175048828125,-5.475341796875,-1.591552734375
0.1495,4.734619140625,-6.115966796875,-0.670654296875
0.15,3.893798828125,-6.356201171875,0.290283203125
0.1505,2.572509765625,-6.356201171875,1.531494140625
0.151,1.131103515625,-6.556396484375,3.173095703125
0.1515,-0.270263671875,-6.716552734375,4.614501953125
0.152,-1.031005859375,-6.756591796875,5.575439453125
0.1525,-1.791748046875,-6.676513671875,6.216064453125
0.153,-2.872802734375,-5.755615234375,6.536376953125
0.1535,-4.314208984375,-4.274169921875,6.816650390625
0.154,-5.595458984375,-2.872802734375,7.056884765625
0.1545,-6.356201171875,-1.631591796875,6.936767578125
0.155,-6.596435546875,-0.790771484375,6.696533203125
0.1555,-6.436279296875,0.130126953125,6.055908203125
0.156,-6.115966796875,1.291259765625,4.894775390625
0.1565,-5.875732421875,2.652587890625,3.573486328125
0.157,-5.715576171875,4.013916015625,2.252197265625
0.1575,-5.395263671875,4.974853515625,1.211181640625
0.158,-4.874755859375,5.415283203125,0.410400390625
0.1585,-3.913818359375,5.575439453125,-0.630615234375
0.159,-2.592529296875,5.655517578125,-1.951904296875
0.1595,-1.271240234375,5.935791015625,-3.593505859375
0.16,0.010009765625,6.095947265625,-4.874755859375
0.1605,0.690673828125,6.135986328125,-5.755615234375
0.161,1.531494140625,5.815673828125,-6.356201171875
0.1615,2.772705078125,4.694580078125,-6.676513671875
0.162,4.174072265625,3.333251953125,-6.996826171875
0.1625,5.415283203125,1.931884765625,-7.197021484375
0.163,6.095947265625,0.770751953125,-7.076904296875
0.1635,6.256103515625,0.010009765625,-6.796630859375
0.164,6.015869140625,-0.990966796875,-6.035888671875
0.1645,5.735595703125,-2.232177734375,-4.794677734375
0.165,5.615478515625,-3.713623046875,-3.473388671875
0.1655,5.415283203125,-4.994873046875,-2.152099609375
0.166,4.974853515625,-5.795654296875,-1.151123046875
0.1665,4.414306640625,-6.236083984375,-0.350341796875
0.167,3.253173828125,-6.316162109375,0.850830078125
0.1675,1.851806640625,-6.476318359375,2.412353515625
0.168,0.450439453125,-6.716552734375,4.013916015625
0.1685,-0.630615234375,-6.836669921875,5.175048828125
0.169,-1.311279296875,-6.876708984375,5.975830078125
0.1695,-2.312255859375,-6.276123046875,6.416259765625
0.17,-3.713623046875,-4.874755859375,6.696533203125
0.1705,-5.114990234375,-3.473388671875,7.056884765625
0.171,-6.115966796875,-2.112060546875,7.056884765625
0.1715,-6.596435546875,-1.111083984375,6.896728515625
0.172,-6.596435546875,-0.310302734375,6.416259765625
0.1725,-6.316162109375,0.850830078125,5.415283203125
0.173,-6.075927734375,2.212158203125,4.093994140625
0.1735,-5.915771484375,3.693603515625,2.732666015625
0.174,-5.635498046875,4.814697265625,1.531494140625
0.1745,-5.155029296875,5.455322265625,0.610595703125
0.175,-4.354248046875,5.735595703125,-0.390380859375
0.1755,-3.032958984375,5.775634765625,-1.631591796875
0.176,-1.631591796875,6.015869140625,-3.273193359375
0.1765,-0.310302734375,6.135986328125,-4.794677734375
0.177,0.650634765625,6.216064453125,-5.755615234375
0.1775,1.371337890625,6.055908203125,-6.476318359375
0.178,2.532470703125,5.094970703125,-6.796630859375
0.1785,4.013916015625,3.653564453125,-7.076904296875
0.179,5.335205078125,2.212158203125,-7.317138671875
0.1795,6.095947265625,0.890869140625,-7.197021484375
0.18,6.376220703125,0.010009765625,-6.916748046875
0.1805,6.216064453125,-0.950927734375,-6.276123046875
0.181,5.855712890625,-2.072021484375,-5.034912109375
0.1815,5.615478515625,-3.513427734375,-3.713623046875
0.182,5.415283203125,-4.874755859375,-2.272216796875
0.1825,5.014892578125,-5.755615234375,-1.231201171875
0.183,4.494384765625,-6.276123046875,-0.390380859375
0.1835,3.493408203125,-6.356201171875,0.650634765625
0.184,2.052001953125,-6.396240234375,2.052001953125
0.1845,0.690673828125,-6.676513671875,3.653564453125
0.185,-0.590576171875,-6.716552734375,4.934814453125
0.1855,-1.271240234375,-6.836669921875,5.735595703125
0.186,-1.991943359375,-6.396240234375,6.296142578125
0.1865,-3.193115234375,-5.275146484375,6.536376953125
0.187,-4.554443359375,-3.913818359375,6.776611328125
0.1875,-5.715576171875,-2.552490234375,6.936767578125
0.188,-6.316162109375,-1.431396484375,6.776611328125
