wavelength,x,y,z
0.0,-1.8768310546875,-16.210815429688,17.622192382812
0.0005,2.0469970703125,-18.453002929688,16.180786132812
0.001,5.0499267578125,-19.734252929688,14.739379882812
0.0015,7.8126220703125,-20.014526367188,12.497192382812
0.002,11.175903320312,-19.894409179688,9.2139892578125
0.0025,14.539184570312,-19.133666992188,5.2901611328125
0.003,17.622192382812,-17.692260742188,0.8858642578125
0.0035,19.504028320312,-16.010620117188,-2.6776123046875
0.004,19.984497070312,-13.848510742188,-5.2801513671875
0.0045,20.344848632812,-11.245971679688,-8.2030029296875
0.005,19.864379882812,-6.8016357421875,-12.206909179688
0.0055,18.903442382812,-2.9578857421875,-15.129760742188
0.006,17.582153320312,0.8858642578125,-17.572143554688
0.0065,15.820434570312,4.2491455078125,-19.213745117188
0.007,13.097778320312,7.0518798828125,-19.373901367188
0.0075,9.6143798828125,10.415161132812,-19.333862304688
0.008,5.1300048828125,13.978637695312,-18.573120117188
0.0085,0.3253173828125,17.021606445312,-17.051635742188
0.009,-3.1981201171875,18.743286132812,-15.530151367188
0.0095,-5.8807373046875,19.544067382812,-13.928588867188
0.01,-8.7635498046875,19.984497070312,-11.686401367188
0.0105,-12.527221679688,19.383911132812,-7.5223388671875
0.011,-15.450073242188,18.422973632812,-3.7186279296875
0.0115,-18.212768554688,16.941528320312,0.4053955078125
0.012,-19.694213867188,15.099731445312,3.6485595703125
0.0125,-19.854370117188,12.737426757812,6.1710205078125
0.013,-20.054565429688,9.9346923828125,9.1739501953125
0.0135,-19.494018554688,5.5704345703125,12.977661132812
0.014,-18.332885742188,1.4864501953125,15.940551757812
0.0145,-16.731323242188,-2.0770263671875,17.862426757812
0.015,-15.009643554688,-4.9598388671875,19.063598632812
0.0155,-12.327026367188,-7.8426513671875,19.343872070312
0.016,-7.9627685546875,-11.606323242188,18.863403320312
0.0165,-3.8387451171875,-14.609252929688,17.902465820312
0.017,0.6856689453125,-17.452026367188,16.501098632812
0.0175,3.8887939453125,-18.893432617188,14.979614257812
0.018,6.4112548828125,-19.253784179688,13.057739257812
0.0185,9.2139892578125,-19.734252929688,10.935668945312
0.019,13.177856445312,-18.933471679688,6.3712158203125
0.0195,16.060668945312,-17.692260742188,2.4073486328125
0.02,18.262817382812,-16.370971679688,-1.1561279296875
0.0205,19.383911132812,-14.529174804688,-3.9989013671875
0.021,19.504028320312,-12.006713867188,-6.6414794921875
0.0215,19.504028320312,-8.6033935546875,-10.124877929688
0.022,18.863403320312,-4.8397216796875,-13.247924804688
0.0225,17.742309570312,-0.7156982421875,-16.210815429688
0.023,15.980590820312,2.6876220703125,-17.852416992188
0.0235,13.938598632812,5.4102783203125,-18.533081054688
0.024,11.456176757812,8.2930908203125,-19.093627929688
0.0245,6.3311767578125,12.417114257812,-18.212768554688
0.025,2.1671142578125,15.299926757812,-17.131713867188
0.0255,-1.5965576171875,17.582153320312,-15.890502929688
0.026,-4.5994873046875,18.943481445312,-14.489135742188
0.0265,-7.2020263671875,19.143676757812,-12.246948242188
0.027,-10.244995117188,19.263793945312,-9.6043701171875
0.0275,-13.888549804688,18.543090820312,-5.4403076171875
0.028,-16.931518554688,17.101684570312,-1.0760498046875
0.0285,-18.653198242188,15.620239257812,2.1270751953125
0.029,-19.413940429688,13.698364257812,4.8096923828125
0.0295,-19.654174804688,11.175903320312,7.5323486328125
0.03,-19.293823242188,6.8516845703125,11.536254882812
0.0305,-18.533081054688,3.2882080078125,14.338989257812
0.031,-17.371948242188,-0.5955810546875,17.021606445312
0.0315,-15.530151367188,-3.8387451171875,18.543090820312
0.032,-13.087768554688,-6.5213623046875,18.703247070312
0.0325,-10.164916992188,-9.6844482421875,19.063598632812
0.033,-5.1600341796875,-13.568237304688,18.222778320312
0.0335,-0.5555419921875,-16.491088867188,16.661254882812
0.034,2.7276611328125,-18.212768554688,15.299926757812
0.0345,5.5704345703125,-19.293823242188,13.858520507812
0.035,8.3331298828125,-19.494018554688,11.416137695312
0.0355,11.856567382812,-19.053588867188,7.7325439453125
0.036,15.019653320312,-18.252807617188,3.9688720703125
0.0365,17.782348632812,-16.771362304688,-0.3153076171875
0.037,19.103637695312,-15.049682617188,-3.1981201171875
0.0375,19.463989257812,-12.727416992188,-5.8006591796875
0.038,19.784301757812,-10.244995117188,-8.6834716796875
0.0385,19.183715820312,-5.6004638671875,-12.767456054688
0.039,18.062622070312,-1.7166748046875,-15.530151367188
0.0395,16.701293945312,1.7667236328125,-17.572143554688
0.04,14.859497070312,4.8497314453125,-18.933471679688
0.0405,11.896606445312,7.6925048828125,-18.933471679688
0.041,7.9327392578125,11.336059570312,-18.733276367188
0.0415,3.6485595703125,14.739379882812,-17.972534179688
0.042,-1.1561279296875,17.582153320312,-16.330932617188
0.0425,-3.9989013671875,18.823364257812,-14.889526367188
0.043,-6.7215576171875,19.504028320312,-13.087768554688
0.0435,-9.5643310546875,19.784301757812,-10.765502929688
0.044,-13.488159179688,18.903442382812,-6.1209716796875
0.0445,-16.491088867188,17.742309570312,-2.1170654296875
0.045,-18.773315429688,16.260864257812,1.6466064453125
0.0455,-19.814331054688,14.338989257812,4.4893798828125
0.046,-19.894409179688,11.536254882812,7.3321533203125
0.0465,-19.974487304688,8.4532470703125,10.535278320312
0.047,-19.253784179688,4.1290283203125,14.138793945312
0.0475,-17.892456054688,-0.1551513671875,17.061645507812
0.048,-16.170776367188,-3.2781982421875,18.543090820312
0.0485,-14.288940429688,-6.2811279296875,19.624145507812
0.049,-11.245971679688,-9.2840576171875,19.584106445312
0.0495,-6.1610107421875,-13.167846679688,18.703247070312
0.05,-1.8768310546875,-16.290893554688,17.662231445312
0.0505,2.4473876953125,-18.693237304688,16.100708007812
0.051,5.2501220703125,-19.694213867188,14.459106445312
0.0515,8.1329345703125,-19.974487304688,12.136840820312
0.052,11.175903320312,-20.054565429688,9.3741455078125
0.0525,14.859497070312,-19.013549804688,4.8096923828125
0.053,17.862426757812,-17.411987304688,0.4053955078125
0.0535,19.504028320312,-15.850463867188,-2.7977294921875
0.054,20.224731445312,-13.808471679688,-5.5604248046875
0.0545,20.144653320312,-10.845581054688,-8.4031982421875
0.055,19.704223632812,-6.7615966796875,-12.126831054688
0.0555,18.943481445312,-2.9178466796875,-15.129760742188
0.056,17.542114257812,1.2462158203125,-17.932495117188
0.0565,15.420043945312,4.3292236328125,-18.933471679688
0.057,12.977661132812,7.2120361328125,-19.534057617188
0.0575,9.7344970703125,10.535278320312,-19.614135742188
0.058,4.4893798828125,14.419067382812,-18.453002929688
0.0585,0.0450439453125,17.301879882812,-17.051635742188
0.059,-3.4783935546875,19.103637695312,-15.650268554688
0.0595,-6.2811279296875,19.904418945312,-13.928588867188
0.06,-9.2840576171875,19.984497070312,-11.165893554688
0.0605,-12.567260742188,19.664184570312,-7.7625732421875
0.061,-15.930541992188,18.583129882812,-3.5184326171875
0.0615,-18.733276367188,16.781372070312,1.0460205078125
0.062,-19.854370117188,14.979614257812,3.8887939453125
0.0625,-20.374877929688,12.697387695312,6.6915283203125
0.063,-20.374877929688,9.7344970703125,9.6544189453125
0.0635,-19.654174804688,5.0899658203125,13.578247070312
0.064,-18.533081054688,1.2462158203125,16.380981445312
0.0645,-17.051635742188,-2.5574951171875,18.623168945312
0.065,-14.889526367188,-5.6405029296875,19.504028320312
0.0655,-11.926635742188,-8.5233154296875,19.664184570312
0.066,-8.2030029296875,-12.086791992188,19.544067382812
0.0665,-3.1580810546875,-15.650268554688,18.222778320312
0.067,1.5264892578125,-18.252807617188,16.501098632812
0.0675,4.4893798828125,-19.534057617188,15.059692382812
0.068,7.3321533203125,-20.254760742188,13.177856445312
0.0685,10.375122070312,-20.174682617188,10.295043945312
0.069,14.018676757812,-19.413940429688,6.0909423828125
0.0695,17.061645507812,-18.252807617188,1.9669189453125
0.07,19.504028320312,-16.531127929688,-2.1971435546875
0.0705,20.184692382812,-14.449096679688,-4.8397216796875
0.071,20.464965820312,-11.766479492188,-7.8426513671875
0.0715,20.344848632812,-8.4432373046875,-11.085815429688
0.072,19.504028320312,-4.0389404296875,-14.649291992188
0.0725,18.062622070312,0.2052001953125,-17.411987304688
0.073,16.421020507812,3.4884033203125,-19.173706054688
0.0735,14.098754882812,6.5313720703125,-19.894409179688
0.074,10.695434570312,9.7344970703125,-19.734252929688
0.0745,6.2510986328125,13.458129882812,-19.173706054688
0.075,1.5665283203125,16.781372070312,-17.972534179688
0.0755,-2.8778076171875,19.063598632812,-16.170776367188
0.076,-5.5203857421875,19.864379882812,-14.529174804688
0.0765,-8.4432373046875,20.424926757812,-12.367065429688
0.077,-11.686401367188,20.184692382812,-9.0838623046875
0.0775,-15.249877929688,19.143676757812,-4.6395263671875
0.078,-18.252807617188,17.622192382812,-0.3153076171875
0.0785,-20.174682617188,15.940551757812,3.2481689453125
0.079,-20.655151367188,13.698364257812,5.9307861328125
0.0795,-20.695190429688,10.615356445312,9.0538330078125
0.08,-20.294799804688,6.6915283203125,12.657348632812
0.0805,-19.373901367188,2.4874267578125,15.980590820312
0.081,-17.732299804688,-1.7967529296875,18.503051757812
0.0815,-15.810424804688,-4.7596435546875,19.664184570312
0.082,-13.448120117188,-7.7225341796875,20.344848632812
0.0825,-9.5643310546875,-11.205932617188,19.984497070312
0.083,-4.7596435546875,-14.769409179688,18.903442382812
0.0835,-0.1551513671875,-17.772338867188,17.542114257812
0.084,3.8487548828125,-19.734252929688,15.860473632812
0.0845,6.4913330078125,-20.254760742188,13.978637695312
0.085,9.6143798828125,-20.615112304688,11.456176757812
0.0855,13.137817382812,-20.174682617188,7.6524658203125
0.086,16.461059570312,-18.973510742188,3.2882080078125
0.0865,19.183715820312,-17.291870117188,-1.0760498046875
0.087,20.505004882812,-15.410034179688,-4.1590576171875
0.0875,20.905395507812,-13.007690429688,-7.0018310546875
0.088,20.785278320312,-9.6844482421875,-10.285034179688
0.0885,20.104614257812,-5.4403076171875,-13.808471679688
0.089,18.983520507812,-1.3162841796875,-16.931518554688
0.0895,17.261840820312,2.8077392578125,-19.173706054688
0.09,14.899536132812,5.7305908203125,-19.814331054688
0.0905,12.256958007812,8.8536376953125,-20.374877929688
0.091,7.6925048828125,12.777465820312,-19.854370117188
0.0915,2.9678955078125,16.020629882812,-18.573120117188
0.092,-1.5965576171875,18.703247070312,-17.011596679688
0.0925,-5.0399169921875,20.304809570312,-15.410034179688
0.093,-7.7225341796875,20.585083007812,-13.207885742188
0.0935,-10.845581054688,20.665161132812,-10.445190429688
0.094,-14.609252929688,19.904418945312,-6.1209716796875
0.0945,-17.892456054688,18.543090820312,-1.5965576171875
0.095,-20.214721679688,16.661254882812,2.5274658203125
0.0955,-21.055541992188,14.579223632812,5.4102783203125
0.096,-21.415893554688,11.856567382812,8.4532470703125
0.0965,-21.095581054688,7.8526611328125,12.176879882812
0.097,-20.134643554688,3.6485595703125,15.380004882812
0.0975,-18.733276367188,-0.5955810546875,18.302856445312
0.098,-16.851440429688,-4.3592529296875,20.184692382812
0.0985,-14.248901367188,-7.1619873046875,20.464965820312
0.099,-11.245971679688,-10.285034179688,20.705200195312
0.0995,-6.1610107421875,-14.288940429688,19.864379882812
0.1,-1.2762451171875,-17.452026367188,18.262817382812
0.1005,3.0079345703125,-19.614135742188,16.581176757812
0.101,6.0509033203125,-20.815307617188,14.899536132812
0.1015,8.9737548828125,-21.015502929688,12.457153320312
0.102,12.337036132812,-20.695190429688,8.9337158203125
0.1025,15.780395507812,-19.774291992188,4.7696533203125
0.103,18.903442382812,-18.172729492188,0.1251220703125
0.1035,20.825317382812,-16.290893554688,-3.6385498046875
0.104,21.145629882812,-13.968627929688,-6.2811279296875
0.1045,21.425903320312,-11.165893554688,-9.3240966796875
0.105,20.785278320312,-6.6815185546875,-13.368041992188
0.1055,19.704223632812,-2.5174560546875,-16.330932617188
0.106,18.142700195312,1.5665283203125,-18.773315429688
0.1065,16.140747070312,5.0899658203125,-20.374877929688
0.107,13.257934570312,8.0128173828125,-20.494995117188
0.1075,9.6143798828125,11.496215820312,-20.374877929688
0.108,4.8096923828125,15.139770507812,-19.494018554688
0.1085,-0.2752685546875,18.382934570312,-17.812377929688
0.109,-4.0389404296875,20.104614257812,-16.050659179688
0.1095,-6.8016357421875,20.785278320312,-14.248901367188
0.11,-9.8846435546875,21.145629882812,-11.766479492188
0.1105,-13.648315429688,20.424926757812,-7.4422607421875
0.111,-16.811401367188,19.263793945312,-3.3582763671875
0.1115,-19.614135742188,17.622192382812,1.1260986328125
0.112,-21.175659179688,15.580200195312,4.6094970703125
0.1125,-21.255737304688,12.897583007812,7.3721923828125
0.113,-21.495971679688,9.8546142578125,10.535278320312
0.1135,-20.735229492188,5.2100830078125,14.539184570312
0.114,-19.453979492188,0.8458251953125,17.622192382812
0.1145,-17.612182617188,-3.0379638671875,19.664184570312
0.115,-15.570190429688,-6.1610107421875,20.785278320312
0.1155,-12.487182617188,-9.2840576171875,20.985473632812
0.116,-7.8426513671875,-13.247924804688,20.344848632812
0.1165,-3.2381591796875,-16.451049804688,19.223754882812
0.117,1.7266845703125,-19.453979492188,17.542114257812
0.1175,5.2901611328125,-20.975463867188,15.700317382812
0.118,8.0928955078125,-21.215698242188,13.418090820312
0.1185,11.215942382812,-21.616088867188,10.935668945312
0.119,15.380004882812,-20.615112304688,5.8907470703125
0.1195,18.543090820312,-19.133666992188,1.4063720703125
0.12,20.825317382812,-17.452026367188,-2.5574951171875
0.1205,22.026489257812,-15.249877929688,-5.8006591796875
0.121,21.906372070312,-12.206909179688,-8.8836669921875
0.1215,21.826293945312,-8.3231201171875,-12.647338867188
0.122,20.905395507812,-3.9989013671875,-16.010620117188
0.1225,19.383911132812,0.7257080078125,-19.213745117188
0.123,17.141723632812,4.5294189453125,-20.815307617188
0.1235,14.659301757812,7.6124267578125,-21.375854492188
0.124,11.536254882812,10.935668945312,-21.696166992188
0.1245,5.7305908203125,15.380004882812,-20.535034179688
0.125,1.0860595703125,18.342895507812,-19.093627929688
0.1255,-3.3983154296875,20.825317382812,-17.371948242188
0.126,-6.8817138671875,22.026489257812,-15.410034179688
0.1265,-9.9647216796875,21.906372070312,-12.487182617188
0.127,-13.207885742188,21.906372070312,-9.4442138671875
0.1275,-17.171752929688,20.705200195312,-4.4393310546875
0.128,-20.494995117188,18.703247070312,0.7657470703125
0.1285,-22.056518554688,16.701293945312,4.3292236328125
0.129,-22.857299804688,14.218872070312,7.4522705078125
0.1295,-22.737182617188,11.015747070312,10.655395507812
0.13,-22.096557617188,6.1309814453125,14.939575195312
0.1305,-20.855346679688,2.0469970703125,17.822387695312
0.131,-19.213745117188,-2.5574951171875,20.665161132812
0.1315,-16.691284179688,-6.2811279296875,21.946411132812
0.132,-13.528198242188,-9.2840576171875,21.906372070312
0.1325,-10.124877929688,-12.767456054688,22.066528320312
0.133,-4.1590576171875,-16.971557617188,20.505004882812
0.1335,1.0460205078125,-19.974487304688,18.623168945312
0.134,4.8497314453125,-21.656127929688,16.781372070312
0.1345,8.1729736328125,-22.617065429688,14.739379882812
0.135,11.496215820312,-22.416870117188,11.376098632812
0.1355,15.099731445312,-21.696166992188,7.3721923828125
0.136,18.543090820312,-20.494995117188,2.8477783203125
0.1365,21.505981445312,-18.332885742188,-2.2772216796875
0.137,22.506958007812,-16.090698242188,-5.5203857421875
0.1375,22.787231445312,-13.207885742188,-8.6033935546875
0.138,22.707153320312,-10.124877929688,-11.606323242188
0.1385,21.746215820312,-4.8397216796875,-15.970581054688
0.139,20.144653320312,-0.5155029296875,-18.773315429688
0.1395,18.302856445312,3.5684814453125,-20.895385742188
0.14,15.860473632812,7.0919189453125,-22.096557617188
0.1405,12.136840820312,10.375122070312,-21.736206054688
0.141,8.0128173828125,14.098754882812,-21.455932617188
0.1415,2.7677001953125,17.782348632812,-20.014526367188
0.142,-2.6375732421875,20.625122070312,-17.932495117188
0.1425,-5.9207763671875,21.746215820312,-16.010620117188
0.143,-9.0438232421875,22.426879882812,-13.808471679688
0.1435,-12.206909179688,22.266723632812,-10.725463867188
0.144,-16.330932617188,21.025512695312,-5.6405029296875
0.1445,-19.453979492188,19.584106445312,-1.1961669921875
0.145,-21.936401367188,17.582153320312,3.2081298828125
0.1455,-22.737182617188,15.219848632812,6.4112548828125
0.146,-22.697143554688,11.976684570312,9.6143798828125
0.1465,-22.496948242188,8.6134033203125,12.937622070312
0.147,-21.495971679688,3.5284423828125,16.821411132812
0.1475,-19.614135742188,-1.2762451171875,19.864379882812
0.148,-17.532104492188,-4.7996826171875,21.305786132812
0.1485,-15.169799804688,-8.0828857421875,22.306762695312
0.149,-11.286010742188,-11.486206054688,21.906372070312
0.1495,-6.1209716796875,-15.530151367188,20.985473632812
0.15,-1.3162841796875,-18.733276367188,19.584106445312
0.1505,3.7686767578125,-21.295776367188,17.542114257812
0.151,6.8917236328125,-22.096557617188,15.420043945312
0.1515,10.054809570312,-22.456909179688,12.737426757812
0.152,13.297973632812,-22.296752929688,9.6143798828125
0.1525,17.341918945312,-20.895385742188,4.3292236328125
0.153,20.424926757812,-19.093627929688,-0.5955810546875
0.1535,22.266723632812,-17.051635742188,-4.2391357421875
0.154,22.867309570312,-14.609252929688,-7.3621826171875
0.1545,22.667114257812,-11.045776367188,-10.605346679688
0.155,22.146606445312,-6.8416748046875,-14.409057617188
0.1555,21.065551757812,-2.4373779296875,-17.732299804688
0.156,19.143676757812,2.4473876953125,-20.575073242188
0.1565,16.621215820312,5.8507080078125,-21.536010742188
0.157,13.898559570312,9.1339111328125,-22.176635742188
0.1575,9.8946533203125,12.777465820312,-21.936401367188
0.158,4.2091064453125,16.821411132812,-20.494995117188
0.1585,-0.7557373046875,19.864379882812,-18.933471679688
0.159,-4.9998779296875,21.866333007812,-16.931518554688
0.1595,-8.0028076171875,22.426879882812,-14.769409179688
0.16,-11.486206054688,22.386840820312,-11.526245117188
0.1605,-14.889526367188,21.906372070312,-7.8426513671875
0.161,-18.573120117188,20.464965820312,-2.8778076171875
0.1615,-21.495971679688,18.262817382812,2.1671142578125
0.162,-22.697143554688,16.060668945312,5.4903564453125
0.1625,-23.217651367188,13.378051757812,8.6934814453125
0.163,-22.937377929688,9.6143798828125,12.136840820312
0.1635,-21.936401367188,4.7696533203125,16.060668945312
0.164,-20.494995117188,0.4454345703125,19.103637695312
0.1645,-18.573120117188,-4.0389404296875,21.586059570312
0.165,-15.850463867188,-7.2821044921875,22.146606445312
0.1655,-12.647338867188,-10.565307617188,22.346801757812
0.166,-8.2030029296875,-14.449096679688,21.866333007812
0.1665,-2.5975341796875,-18.132690429688,20.184692382812
0.167,2.4073486328125,-20.815307617188,18.182739257812
0.1675,6.0108642578125,-22.296752929688,16.340942382812
0.168,9.1339111328125,-22.777221679688,13.938598632812
0.1685,12.617309570312,-22.496948242188,10.455200195312
0.169,16.340942382812,-21.616088867188,5.9708251953125
0.1695,19.704223632812,-19.974487304688,1.2462158203125
0.17,22.226684570312,-17.812377929688,-3.4783935546875
0.1705,22.747192382812,-15.410034179688,-6.4012451171875
0.171,23.067504882812,-12.327026367188,-9.6844482421875
0.1715,22.587036132812,-8.3231201171875,-13.328002929688
0.172,21.465942382812,-3.5584716796875,-16.931518554688
0.1725,19.664184570312,0.9659423828125,-19.694213867188
0.173,17.702270507812,4.8497314453125,-21.656127929688
0.1735,14.819458007812,8.0928955078125,-22.016479492188
0.174,11.215942382812,11.496215820312,-21.896362304688
0.1745,6.3712158203125,15.380004882812,-21.095581054688
0.175,0.9659423828125,18.743286132812,-19.413940429688
0.1755,-3.7987060546875,21.065551757812,-17.331909179688
0.176,-6.7215576171875,21.906372070312,-15.410034179688
0.1765,-9.8446044921875,22.266723632812,-12.927612304688
0.177,-13.328002929688,21.786254882812,-9.2840576171875
0.1775,-16.851440429688,20.625122070312,-4.6395263671875
0.178,-19.934448242188,18.903442382812,0.1251220703125
