wavelength,x,y,z
0.0,19.343872070312,-14.088745117188,-4.3592529296875
0.0005,19.704223632812,-11.366088867188,-7.4822998046875
0.001,19.784301757812,-8.4031982421875,-10.565307617188
0.0015,19.263793945312,-4.4393310546875,-14.128784179688
0.002,17.822387695312,-0.4354248046875,-16.611206054688
0.0025,15.980590820312,3.0079345703125,-18.172729492188
0.003,13.898559570312,6.2110595703125,-19.333862304688
0.0035,10.855590820312,9.1339111328125,-19.373901367188
0.004,6.8516845703125,12.657348632812,-18.973510742188
0.0045,2.8878173828125,15.660278320312,-18.172729492188
0.005,-1.4764404296875,17.662231445312,-16.370971679688
0.0055,-4.4393310546875,18.663208007812,-14.369018554688
0.006,-7.5623779296875,19.223754882812,-12.086791992188
0.0065,-10.605346679688,19.263793945312,-9.2840576171875
0.007,-14.128784179688,18.543090820312,-5.1600341796875
0.0075,-16.731323242188,17.141723632812,-1.4364013671875
0.008,-18.533081054688,15.299926757812,2.2471923828125
0.0085,-19.293823242188,13.097778320312,5.2501220703125
0.009,-19.494018554688,10.214965820312,8.2930908203125
0.0095,-19.453979492188,6.7315673828125,11.656372070312
0.01,-18.933471679688,3.1280517578125,14.859497070312
0.0105,-17.251831054688,-0.8358154296875,17.141723632812
0.011,-15.249877929688,-3.9989013671875,18.422973632812
0.0115,-13.087768554688,-7.0819091796875,19.343872070312
0.012,-9.9647216796875,-10.164916992188,19.343872070312
0.0125,-5.5203857421875,-13.648315429688,18.583129882812
0.013,-1.5965576171875,-16.370971679688,17.421997070312
0.0135,2.5274658203125,-18.252807617188,15.620239257812
0.014,5.4503173828125,-19.013549804688,13.738403320312
0.0145,8.6134033203125,-19.373901367188,11.135864257812
0.015,11.896606445312,-19.253784179688,7.9327392578125
0.0155,15.099731445312,-18.453002929688,4.0889892578125
0.016,17.542114257812,-16.691284179688,0.0050048828125
0.0165,18.863403320312,-14.849487304688,-3.1981201171875
0.017,19.584106445312,-12.487182617188,-6.2811279296875
0.0175,19.664184570312,-9.3641357421875,-9.4842529296875
0.018,19.303833007812,-5.5203857421875,-12.967651367188
0.0185,18.543090820312,-1.8768310546875,-15.890502929688
0.019,16.661254882812,2.1671142578125,-18.012573242188
0.0195,14.459106445312,5.2100830078125,-18.933471679688
0.02,11.936645507812,8.2930908203125,-19.534057617188
0.0205,8.2930908203125,11.816528320312,-19.534057617188
0.021,3.9688720703125,15.019653320312,-18.573120117188
0.0215,-0.3953857421875,17.301879882812,-16.771362304688
0.022,-3.8387451171875,18.903442382812,-15.089721679688
0.0225,-6.8817138671875,19.504028320312,-12.927612304688
0.023,-10.044799804688,19.544067382812,-10.084838867188
0.0235,-13.528198242188,19.183715820312,-6.3612060546875
0.024,-16.611206054688,17.982543945312,-2.3572998046875
0.0245,-18.733276367188,15.980590820312,1.8468017578125
0.025,-19.614135742188,13.818481445312,4.8096923828125
0.0255,-20.214721679688,11.175903320312,7.9727783203125
0.026,-20.134643554688,7.7325439453125,11.456176757812
0.0265,-19.534057617188,3.9288330078125,14.699340820312
0.027,-18.172729492188,0.0450439453125,17.221801757812
0.0275,-16.290893554688,-3.8787841796875,19.223754882812
0.028,-13.848510742188,-6.8416748046875,19.824340820312
0.0285,-10.885620117188,-9.9647216796875,20.104614257812
0.029,-6.8016357421875,-13.608276367188,19.704223632812
0.0295,-2.2772216796875,-16.651245117188,18.503051757812
0.03,2.0469970703125,-18.573120117188,16.380981445312
0.0305,5.2501220703125,-19.734252929688,14.579223632812
0.031,8.4532470703125,-20.254760742188,12.176879882812
0.0315,11.776489257812,-20.014526367188,8.8135986328125
0.032,15.099731445312,-19.373901367188,5.0098876953125
0.0325,17.982543945312,-17.692260742188,0.8858642578125
0.033,19.784301757812,-15.730346679688,-3.1981201171875
0.0335,20.184692382812,-13.247924804688,-6.1610107421875
0.034,20.625122070312,-10.325073242188,-9.4041748046875
0.0345,20.344848632812,-6.4012451171875,-13.127807617188
0.035,19.584106445312,-2.5574951171875,-16.130737304688
0.0355,17.702270507812,1.4464111328125,-18.252807617188
0.036,15.660278320312,5.0499267578125,-19.894409179688
0.0365,12.977661132812,8.1329345703125,-20.374877929688
0.037,9.3741455078125,11.536254882812,-20.254760742188
0.0375,5.2901611328125,14.859497070312,-19.654174804688
0.038,0.6456298828125,17.702270507812,-18.092651367188
0.0385,-3.4783935546875,19.383911132812,-15.970581054688
0.039,-6.4412841796875,19.984497070312,-13.848510742188
0.0395,-9.6844482421875,20.464965820312,-11.245971679688
0.04,-13.328002929688,19.864379882812,-7.2821044921875
0.0405,-16.330932617188,18.943481445312,-3.4783935546875
0.041,-18.653198242188,17.101684570312,0.6856689453125
0.0415,-20.334838867188,14.899536132812,4.4093017578125
0.042,-20.535034179688,12.176879882812,7.3721923828125
0.0425,-20.775268554688,9.0938720703125,10.615356445312
0.043,-20.374877929688,5.0499267578125,14.138793945312
0.0435,-19.213745117188,1.1260986328125,17.181762695312
0.044,-17.051635742188,-2.8778076171875,19.023559570312
0.0445,-14.969604492188,-6.0408935546875,20.104614257812
0.045,-12.246948242188,-9.1639404296875,20.625122070312
0.0455,-8.0828857421875,-12.807495117188,20.224731445312
0.046,-4.0389404296875,-15.730346679688,19.263793945312
0.0465,0.6055908203125,-18.212768554688,17.421997070312
0.047,4.4493408203125,-19.894409179688,15.460083007812
0.0475,7.3721923828125,-20.174682617188,13.057739257812
0.048,10.495239257812,-20.535034179688,10.535278320312
0.0485,14.298950195312,-19.934448242188,6.2510986328125
0.049,17.221801757812,-18.653198242188,2.2471923828125
0.0495,19.223754882812,-16.691284179688,-1.7567138671875
0.05,20.464965820312,-14.449096679688,-5.1199951171875
0.0505,20.745239257812,-11.566284179688,-8.2830810546875
0.051,20.745239257812,-7.9227294921875,-11.926635742188
0.0515,20.144653320312,-4.2391357421875,-15.049682617188
0.052,18.783325195312,0.0050048828125,-17.892456054688
0.0525,16.541137695312,3.8887939453125,-19.614135742188
0.053,14.018676757812,6.9317626953125,-20.174682617188
0.0535,11.376098632812,10.094848632812,-20.775268554688
0.054,6.4512939453125,14.098754882812,-20.054565429688
0.0545,2.3272705078125,16.941528320312,-18.853393554688
0.055,-1.9569091796875,18.903442382812,-16.851440429688
0.0555,-5.6004638671875,20.344848632812,-14.969604492188
0.056,-8.6834716796875,20.384887695312,-12.166870117188
0.0565,-11.926635742188,20.424926757812,-9.1639404296875
0.057,-15.570190429688,19.744262695312,-5.0399169921875
0.0575,-18.493041992188,17.942504882812,-0.5955810546875
0.058,-20.174682617188,15.900512695312,3.2882080078125
0.0585,-21.015502929688,13.418090820312,6.5313720703125
0.059,-21.295776367188,10.535278320312,9.6944580078125
0.0595,-20.975463867188,6.2110595703125,13.738403320312
0.06,-20.174682617188,2.6075439453125,16.581176757812
0.0605,-18.412963867188,-1.5965576171875,18.983520507812
0.061,-16.170776367188,-5.4403076171875,20.665161132812
0.0615,-13.127807617188,-8.4832763671875,20.785278320312
0.062,-10.204956054688,-11.686401367188,21.145629882812
0.0625,-5.2000732421875,-15.730346679688,20.224731445312
0.063,-0.5155029296875,-18.292846679688,18.463012695312
0.0635,3.4884033203125,-19.894409179688,16.380981445312
0.064,6.9317626953125,-21.015502929688,14.298950195312
0.0645,10.214965820312,-21.095581054688,11.255981445312
0.065,13.818481445312,-20.575073242188,7.4522705078125
0.0655,16.901489257812,-19.814331054688,3.6485595703125
0.066,19.544067382812,-17.692260742188,-0.9959716796875
0.0665,20.985473632812,-15.410034179688,-4.6395263671875
0.067,21.305786132812,-12.527221679688,-7.8426513671875
0.0675,21.586059570312,-9.6444091796875,-11.005737304688
0.068,20.945434570312,-4.9598388671875,-15.129760742188
0.0685,19.704223632812,-0.9959716796875,-17.812377929688
0.069,17.622192382812,2.9278564453125,-19.694213867188
0.0695,15.380004882812,6.6114501953125,-21.175659179688
0.07,11.976684570312,9.8546142578125,-21.095581054688
0.0705,8.2130126953125,13.378051757812,-21.015502929688
0.071,3.8487548828125,16.661254882812,-20.094604492188
0.0715,-1.2762451171875,19.223754882812,-17.892456054688
0.072,-4.8797607421875,20.464965820312,-15.730346679688
0.0725,-8.1629638671875,21.105590820312,-13.328002929688
0.073,-11.366088867188,21.225708007812,-10.565307617188
0.0735,-15.410034179688,20.304809570312,-5.8006591796875
0.074,-18.212768554688,19.063598632812,-1.8768310546875
0.0745,-20.374877929688,16.941528320312,2.3673095703125
0.075,-21.536010742188,14.579223632812,5.8907470703125
0.0755,-21.576049804688,11.336059570312,9.1739501953125
0.076,-21.536010742188,8.1329345703125,12.497192382812
0.0765,-21.015502929688,3.7686767578125,16.220825195312
0.077,-19.333862304688,-0.6756591796875,18.983520507812
0.0775,-16.971557617188,-4.4393310546875,20.424926757812
0.078,-14.769409179688,-7.7225341796875,21.586059570312
0.0785,-11.406127929688,-10.965698242188,21.546020507812
0.079,-6.5213623046875,-14.889526367188,20.785278320312
0.0795,-2.3973388671875,-17.772338867188,19.704223632812
0.08,2.4073486328125,-19.974487304688,17.421997070312
0.0805,5.9708251953125,-21.135620117188,15.259887695312
0.081,9.2540283203125,-21.295776367188,12.377075195312
0.0815,12.417114257812,-21.455932617188,9.5743408203125
0.082,16.380981445312,-20.374877929688,4.8096923828125
0.0825,19.063598632812,-18.573120117188,0.3653564453125
0.083,20.745239257812,-16.451049804688,-3.3582763671875
0.0835,21.666137695312,-13.968627929688,-6.7615966796875
0.084,21.666137695312,-10.565307617188,-10.004760742188
0.0845,21.305786132812,-6.6014404296875,-13.808471679688
0.085,20.625122070312,-2.8377685546875,-16.931518554688
0.0855,18.743286132812,1.7266845703125,-19.494018554688
0.086,16.220825195312,5.3702392578125,-20.695190429688
0.0865,13.498168945312,8.6534423828125,-21.335815429688
0.087,10.255004882812,11.976684570312,-21.536010742188
0.0875,5.0499267578125,15.940551757812,-20.454956054688
0.088,0.6456298828125,18.543090820312,-18.893432617188
0.0885,-3.5184326171875,20.304809570312,-16.811401367188
0.089,-7.0018310546875,21.265747070312,-14.569213867188
0.0895,-10.525268554688,21.145629882812,-11.286010742188
0.09,-13.808471679688,21.025512695312,-7.9227294921875
0.0905,-17.331909179688,19.984497070312,-3.5985107421875
0.091,-19.974487304688,17.782348632812,1.2462158203125
0.0915,-21.215698242188,15.500122070312,4.6495361328125
0.092,-21.936401367188,12.857543945312,8.0528564453125
0.0925,-21.936401367188,9.5343017578125,11.376098632812
0.093,-21.335815429688,4.9698486328125,15.380004882812
0.0935,-20.214721679688,1.1260986328125,18.142700195312
0.094,-18.212768554688,-3.1981201171875,20.464965820312
0.0945,-15.650268554688,-6.7615966796875,21.505981445312
0.095,-12.367065429688,-10.124877929688,21.666137695312
0.0955,-8.8436279296875,-13.608276367188,21.626098632812
0.096,-3.6385498046875,-17.291870117188,20.424926757812
0.0965,1.3262939453125,-19.734252929688,18.142700195312
0.097,4.9698486328125,-21.135620117188,16.140747070312
0.0975,8.4532470703125,-21.936401367188,13.698364257812
0.098,12.136840820312,-21.455932617188,10.295043945312
0.0985,15.620239257812,-21.015502929688,6.1309814453125
0.099,18.703247070312,-19.734252929688,1.9268798828125
0.0995,21.065551757812,-17.371948242188,-2.7176513671875
0.1,21.826293945312,-14.889526367188,-6.0809326171875
0.1005,22.306762695312,-11.726440429688,-9.6043701171875
0.101,22.146606445312,-8.2030029296875,-13.007690429688
0.1015,21.345825195312,-3.6785888671875,-16.771362304688
0.102,19.544067382812,0.6856689453125,-19.333862304688
0.1025,17.341918945312,4.6495361328125,-21.135620117188
0.103,14.699340820312,8.1329345703125,-21.976440429688
0.1035,10.815551757812,11.536254882812,-21.816284179688
0.104,6.7315673828125,15.179809570312,-21.415893554688
0.1045,2.0069580078125,18.382934570312,-20.094604492188
0.105,-2.9578857421875,20.464965820312,-17.492065429688
0.1055,-6.2811279296875,21.305786132812,-15.410034179688
0.106,-9.7244873046875,21.906372070312,-12.687377929688
0.1065,-13.167846679688,21.546020507812,-9.1239013671875
0.107,-16.811401367188,20.545043945312,-4.6395263671875
0.1075,-19.574096679688,18.823364257812,-0.2752685546875
0.108,-21.576049804688,16.501098632812,4.0489501953125
0.1085,-22.096557617188,13.778442382812,7.2520751953125
0.109,-22.256713867188,10.375122070312,10.815551757812
0.1095,-21.936401367188,6.5313720703125,14.338989257812
0.11,-21.015502929688,2.3673095703125,17.742309570312
0.1105,-18.853393554688,-2.1571044921875,19.984497070312
0.111,-16.531127929688,-5.7606201171875,21.265747070312
0.1115,-13.928588867188,-9.0438232421875,22.026489257812
0.112,-9.9647216796875,-12.487182617188,21.666137695312
0.1125,-5.3201904296875,-16.010620117188,20.745239257812
0.113,-0.7156982421875,-18.853393554688,19.183715820312
0.1135,3.8487548828125,-20.815307617188,16.781372070312
0.114,7.0518798828125,-21.295776367188,14.459106445312
0.1145,10.495239257812,-21.656127929688,11.576293945312
0.115,14.018676757812,-21.175659179688,7.8927001953125
0.1155,17.341918945312,-20.094604492188,3.6085205078125
0.116,19.824340820312,-18.052612304688,-0.8758544921875
0.1165,21.385864257812,-15.850463867188,-4.5594482421875
0.117,21.826293945312,-13.007690429688,-7.8426513671875
0.1175,21.666137695312,-9.6444091796875,-11.326049804688
0.118,21.265747070312,-5.4803466796875,-14.849487304688
0.1185,20.304809570312,-1.4364013671875,-17.972534179688
0.119,18.022583007812,3.0079345703125,-20.134643554688
0.1195,15.500122070312,6.3311767578125,-20.935424804688
0.12,12.777465820312,9.6143798828125,-21.616088867188
0.1205,8.5333251953125,13.297973632812,-21.215698242188
0.121,3.9688720703125,16.541137695312,-20.134643554688
0.1215,-0.6356201171875,18.903442382812,-18.212768554688
0.122,-4.6795654296875,20.705200195312,-16.170776367188
0.1225,-7.8026123046875,21.065551757812,-13.648315429688
0.123,-11.205932617188,21.185668945312,-10.605346679688
0.1235,-14.929565429688,20.625122070312,-6.6014404296875
0.124,-18.052612304688,19.303833007812,-2.2371826171875
0.1245,-20.254760742188,17.101684570312,2.1671142578125
0.125,-21.335815429688,14.779418945312,5.5303955078125
0.1255,-21.856323242188,11.896606445312,8.8135986328125
0.126,-21.656127929688,8.0928955078125,12.537231445312
0.1265,-20.975463867188,4.0889892578125,15.860473632812
0.127,-19.534057617188,0.0050048828125,18.583129882812
0.1275,-17.331909179688,-4.2791748046875,20.625122070312
0.128,-14.689331054688,-7.4022216796875,21.145629882812
0.1285,-11.726440429688,-10.645385742188,21.546020507812
0.129,-7.1619873046875,-14.569213867188,21.025512695312
0.1295,-2.5174560546875,-17.692260742188,19.664184570312
0.13,2.0469970703125,-19.654174804688,17.421997070312
0.1305,5.6505126953125,-21.095581054688,15.500122070312
0.131,8.8936767578125,-21.375854492188,12.857543945312
0.1315,12.417114257812,-21.175659179688,9.4141845703125
0.132,15.940551757812,-20.494995117188,5.4102783203125
0.1325,18.903442382812,-18.933471679688,0.9259033203125
0.133,20.865356445312,-16.611206054688,-3.3182373046875
0.1335,21.465942382812,-14.008666992188,-6.4813232421875
0.134,21.906372070312,-11.045776367188,-9.8846435546875
0.1345,21.465942382812,-6.7215576171875,-13.848510742188
0.135,20.665161132812,-2.8377685546875,-16.931518554688
0.1355,18.743286132812,1.3262939453125,-19.173706054688
0.136,16.581176757812,5.3302001953125,-21.015502929688
0.1365,13.578247070312,8.4532470703125,-21.255737304688
0.137,10.174926757812,11.816528320312,-21.335815429688
0.1375,5.6505126953125,15.500122070312,-20.695190429688
0.138,0.8057861328125,18.543090820312,-19.053588867188
0.1385,-3.4783935546875,20.184692382812,-16.731323242188
0.139,-6.7215576171875,21.105590820312,-14.689331054688
0.1395,-10.124877929688,21.425903320312,-11.846557617188
0.14,-13.888549804688,20.825317382812,-7.7225341796875
0.1405,-16.971557617188,19.984497070312,-3.9188232421875
0.141,-19.614135742188,17.982543945312,0.6456298828125
0.1415,-21.335815429688,15.700317382812,4.6094970703125
0.142,-21.616088867188,12.817504882812,7.6925048828125
0.1425,-21.936401367188,9.7344970703125,11.135864257812
0.143,-21.335815429688,5.3302001953125,15.019653320312
0.1435,-20.214721679688,1.2462158203125,18.022583007812
0.144,-17.972534179688,-2.9178466796875,19.864379882812
0.1445,-15.850463867188,-6.4412841796875,21.265747070312
0.145,-12.767456054688,-9.6844482421875,21.586059570312
0.1455,-8.6434326171875,-13.408081054688,21.185668945312
0.146,-4.4393310546875,-16.491088867188,20.304809570312
0.1465,0.6055908203125,-19.213745117188,18.302856445312
0.147,4.6094970703125,-20.975463867188,16.100708007812
0.1475,7.7325439453125,-21.175659179688,13.698364257812
0.148,11.015747070312,-21.576049804688,11.055786132812
0.1485,15.059692382812,-20.775268554688,6.4112548828125
0.149,17.942504882812,-19.534057617188,2.4073486328125
0.1495,20.144653320312,-17.492065429688,-1.7967529296875
0.15,21.586059570312,-15.129760742188,-5.4403076171875
0.1505,21.626098632812,-12.046752929688,-8.6834716796875
0.151,21.746215820312,-8.4832763671875,-12.327026367188
0.1515,21.105590820312,-4.4793701171875,-15.730346679688
0.152,19.664184570312,0.0050048828125,-18.693237304688
0.1525,17.221801757812,3.9688720703125,-20.334838867188
0.153,14.859497070312,7.2520751953125,-21.135620117188
0.1535,11.816528320312,10.415161132812,-21.656127929688
0.154,6.7716064453125,14.619262695312,-20.815307617188
0.1545,2.8077392578125,17.301879882812,-19.774291992188
0.155,-1.8768310546875,19.544067382812,-17.652221679688
0.1555,-5.6405029296875,20.985473632812,-15.530151367188
0.156,-8.7235107421875,20.985473632812,-12.687377929688
0.1565,-12.046752929688,21.185668945312,-9.8446044921875
0.157,-15.930541992188,20.344848632812,-5.3201904296875
0.1575,-18.773315429688,18.583129882812,-0.8358154296875
0.158,-20.494995117188,16.501098632812,3.0479736328125
0.1585,-21.495971679688,14.058715820312,6.4512939453125
0.159,-21.656127929688,10.935668945312,9.6544189453125
0.1595,-21.415893554688,6.6915283203125,13.658325195312
0.16,-20.655151367188,3.0880126953125,16.581176757812
0.1605,-18.933471679688,-1.2762451171875,19.183715820312
0.161,-16.531127929688,-5.1600341796875,20.785278320312
0.1615,-13.728393554688,-8.2830810546875,21.065551757812
0.162,-10.885620117188,-11.406127929688,21.505981445312
0.1625,-5.6405029296875,-15.530151367188,20.505004882812
0.163,-1.1160888671875,-18.212768554688,18.903442382812
0.1635,2.9278564453125,-19.934448242188,16.901489257812
0.164,6.5313720703125,-21.135620117188,14.819458007812
0.1645,9.8546142578125,-21.135620117188,11.696411132812
0.165,13.297973632812,-20.815307617188,8.1729736328125
0.1655,16.621215820312,-20.094604492188,4.2891845703125
0.166,19.343872070312,-18.012573242188,-0.3953857421875
0.1665,20.785278320312,-15.690307617188,-3.8787841796875
0.167,21.305786132812,-13.087768554688,-7.2821044921875
0.1675,21.586059570312,-10.204956054688,-10.445190429688
0.168,21.025512695312,-5.4403076171875,-14.689331054688
0.1685,19.984497070312,-1.7567138671875,-17.331909179688
0.169,17.982543945312,2.2872314453125,-19.413940429688
0.1695,15.700317382812,6.0509033203125,-20.975463867188
0.17,12.417114257812,9.2540283203125,-20.975463867188
0.1705,9.0137939453125,12.657348632812,-21.095581054688
0.171,4.4093017578125,16.260864257812,-20.174682617188
0.1715,-0.5955810546875,18.823364257812,-18.092651367188
0.172,-4.1590576171875,20.144653320312,-16.050659179688
0.1725,-7.4022216796875,21.105590820312,-13.808471679688
0.173,-10.765502929688,21.065551757812,-10.885620117188
0.1735,-14.689331054688,20.304809570312,-6.4012451171875
0.174,-17.572143554688,19.223754882812,-2.6375732421875
0.1745,-20.014526367188,17.141723632812,1.7266845703125
0.175,-21.135620117188,14.779418945312,5.2501220703125
0.1755,-21.295776367188,11.776489257812,8.4532470703125
0.176,-21.495971679688,8.7735595703125,11.696411132812
0.1765,-20.815307617188,4.2891845703125,15.540161132812
0.177,-19.293823242188,0.0850830078125,18.222778320312
0.1775,-17.171752929688,-3.7186279296875,19.824340820312
0.178,-15.009643554688,-7.0418701171875,21.105590820312
