wavelength,x,y,z
0.0,5.695556640625,0.610595703125,-6.596435546875
0.0005,5.895751953125,-0.350341796875,-6.276123046875
0.001,5.735595703125,-1.391357421875,-5.435302734375
0.0015,5.495361328125,-2.672607421875,-4.314208984375
0.002,5.295166015625,-3.873779296875,-3.072998046875
0.0025,4.814697265625,-4.794677734375,-1.871826171875
0.003,4.374267578125,-5.475341796875,-0.790771484375
0.0035,3.813720703125,-5.995849609375,0.210205078125
0.004,2.852783203125,-6.236083984375,1.291259765625
0.0045,1.571533203125,-6.436279296875,2.732666015625
0.005,0.290283203125,-6.396240234375,3.973876953125
0.0055,-0.710693359375,-6.276123046875,4.814697265625
0.006,-1.391357421875,-6.316162109375,5.615478515625
0.0065,-2.392333984375,-5.755615234375,6.216064453125
0.007,-3.713623046875,-4.634521484375,6.656494140625
0.0075,-4.794677734375,-3.553466796875,6.896728515625
0.008,-5.435302734375,-2.312255859375,6.656494140625
0.0085,-5.835693359375,-1.351318359375,6.376220703125
0.009,-6.035888671875,-0.510498046875,5.935791015625
0.0095,-6.035888671875,0.610595703125,5.215087890625
0.01,-5.795654296875,1.891845703125,4.134033203125
0.0105,-5.555419921875,3.052978515625,2.892822265625
0.011,-5.114990234375,3.933837890625,1.771728515625
0.0115,-4.714599609375,4.734619140625,0.730712890625
0.012,-4.033935546875,5.175048828125,-0.310302734375
0.0125,-2.952880859375,5.415283203125,-1.551513671875
0.013,-1.871826171875,5.735595703125,-2.912841796875
0.0135,-0.630615234375,5.655517578125,-4.073974609375
0.014,0.290283203125,5.615478515625,-4.914794921875
0.0145,1.051025390625,5.575439453125,-5.715576171875
0.015,2.132080078125,4.894775390625,-6.276123046875
0.0155,3.493408203125,3.773681640625,-6.716552734375
0.016,4.414306640625,2.572509765625,-6.796630859375
0.0165,4.974853515625,1.451416015625,-6.516357421875
0.017,5.375244140625,0.530517578125,-6.276123046875
0.0175,5.415283203125,-0.510498046875,-5.835693359375
0.018,5.375244140625,-1.511474609375,-4.914794921875
0.0185,5.255126953125,-2.712646484375,-3.873779296875
0.019,4.974853515625,-3.833740234375,-2.712646484375
0.0195,4.534423828125,-4.634521484375,-1.591552734375
0.02,4.134033203125,-5.355224609375,-0.710693359375
0.0205,3.453369140625,-5.715576171875,0.370361328125
0.021,2.372314453125,-5.995849609375,1.651611328125
0.0215,1.251220703125,-6.236083984375,2.932861328125
0.022,0.170166015625,-6.115966796875,3.893798828125
0.0225,-0.670654296875,-6.156005859375,4.774658203125
0.023,-1.511474609375,-5.955810546875,5.495361328125
0.0235,-2.672607421875,-5.195068359375,6.055908203125
0.024,-3.873779296875,-4.114013671875,6.456298828125
0.0245,-4.754638671875,-3.072998046875,6.416259765625
0.025,-5.275146484375,-2.031982421875,6.216064453125
0.0255,-5.635498046875,-1.231201171875,6.015869140625
0.026,-5.635498046875,-0.270263671875,5.455322265625
0.0265,-5.555419921875,0.970947265625,4.534423828125
0.027,-5.435302734375,2.092041015625,3.533447265625
0.0275,-5.114990234375,3.093017578125,2.412353515625
0.028,-4.754638671875,3.893798828125,1.411376953125
0.0285,-4.354248046875,4.534423828125,0.570556640625
0.029,-3.593505859375,4.894775390625,-0.630615234375
0.0295,-2.552490234375,5.255126953125,-1.871826171875
0.03,-1.431396484375,5.375244140625,-3.072998046875
0.0305,-0.510498046875,5.375244140625,-3.993896484375
0.031,0.290283203125,5.455322265625,-4.874755859375
0.0315,1.251220703125,5.135009765625,-5.555419921875
0.032,2.412353515625,4.254150390625,-6.075927734375
0.0325,3.493408203125,3.253173828125,-6.396240234375
0.033,4.214111328125,2.172119140625,-6.316162109375
0.0335,4.774658203125,1.211181640625,-6.196044921875
0.034,5.054931640625,0.450439453125,-5.915771484375
0.0345,5.094970703125,-0.550537109375,-5.395263671875
0.035,5.094970703125,-1.671630859375,-4.474365234375
0.0355,4.934814453125,-2.792724609375,-3.473388671875
0.036,4.614501953125,-3.713623046875,-2.432373046875
0.0365,4.374267578125,-4.554443359375,-1.471435546875
0.037,3.853759765625,-5.114990234375,-0.590576171875
0.0375,3.012939453125,-5.515380859375,0.610595703125
0.038,2.092041015625,-5.835693359375,1.851806640625
0.0385,0.970947265625,-5.915771484375,2.972900390625
0.039,0.170166015625,-5.955810546875,3.853759765625
0.0395,-0.670654296875,-6.075927734375,4.734619140625
0.04,-1.671630859375,-5.635498046875,5.415283203125
0.0405,-2.912841796875,-4.754638671875,5.895751953125
0.041,-3.873779296875,-3.753662109375,6.135986328125
0.0415,-4.594482421875,-2.712646484375,5.975830078125
0.042,-5.074951171875,-1.871826171875,5.975830078125
0.0425,-5.275146484375,-0.990966796875,5.615478515625
0.043,-5.355224609375,0.050048828125,4.974853515625
0.0435,-5.355224609375,1.171142578125,4.134033203125
0.044,-5.114990234375,2.212158203125,3.093017578125
0.0445,-4.834716796875,3.052978515625,2.132080078125
0.045,-4.554443359375,3.893798828125,1.251220703125
0.0455,-3.993896484375,4.414306640625,0.290283203125
0.046,-3.113037109375,4.774658203125,-0.990966796875
0.0465,-2.272216796875,5.094970703125,-2.112060546875
0.047,-1.231201171875,5.094970703125,-3.153076171875
0.0475,-0.510498046875,5.295166015625,-4.033935546875
0.048,0.450439453125,5.255126953125,-4.834716796875
0.0485,1.451416015625,4.654541015625,-5.475341796875
0.049,2.652587890625,3.813720703125,-5.955810546875
0.0495,3.493408203125,2.772705078125,-6.075927734375
0.05,4.134033203125,1.891845703125,-5.955810546875
0.0505,4.614501953125,1.091064453125,-5.915771484375
0.051,4.814697265625,0.250244140625,-5.515380859375
0.0515,4.814697265625,-0.870849609375,-4.834716796875
0.052,4.814697265625,-1.911865234375,-4.033935546875
0.0525,4.614501953125,-2.872802734375,-3.072998046875
0.053,4.414306640625,-3.753662109375,-2.192138671875
0.0535,4.134033203125,-4.514404296875,-1.271240234375
0.054,3.533447265625,-5.034912109375,-0.310302734375
0.0545,2.692626953125,-5.435302734375,0.930908203125
0.055,1.731689453125,-5.715576171875,2.092041015625
0.0555,0.850830078125,-5.755615234375,3.052978515625
0.056,0.130126953125,-6.035888671875,4.013916015625
0.0565,-0.910888671875,-5.835693359375,4.774658203125
0.057,-2.072021484375,-5.155029296875,5.415283203125
0.0575,-3.193115234375,-4.394287109375,5.815673828125
0.058,-3.993896484375,-3.273193359375,5.895751953125
0.0585,-4.594482421875,-2.432373046875,5.895751953125
0.059,-4.994873046875,-1.591552734375,5.735595703125
0.0595,-5.195068359375,-0.710693359375,5.335205078125
0.06,-5.275146484375,0.450439453125,4.574462890625
0.0605,-5.195068359375,1.571533203125,3.693603515625
0.061,-4.954833984375,2.492431640625,2.692626953125
0.0615,-4.754638671875,3.373291015625,1.811767578125
0.062,-4.314208984375,4.013916015625,0.890869140625
0.0625,-3.553466796875,4.494384765625,-0.310302734375
0.063,-2.752685546875,4.934814453125,-1.551513671875
0.0635,-1.711669921875,5.094970703125,-2.632568359375
0.064,-0.950927734375,5.215087890625,-3.593505859375
0.0645,-0.150146484375,5.335205078125,-4.474365234375
0.065,0.970947265625,4.934814453125,-5.195068359375
0.0655,2.172119140625,4.093994140625,-5.795654296875
0.066,3.213134765625,3.173095703125,-6.075927734375
0.0665,3.893798828125,2.172119140625,-5.995849609375
0.067,4.494384765625,1.331298828125,-5.955810546875
0.0675,4.774658203125,0.490478515625,-5.715576171875
0.068,4.854736328125,-0.630615234375,-5.074951171875
0.0685,4.894775390625,-1.711669921875,-4.234130859375
0.069,4.774658203125,-2.752685546875,-3.233154296875
0.0695,4.494384765625,-3.713623046875,-2.272216796875
0.07,4.254150390625,-4.514404296875,-1.431396484375
0.0705,3.653564453125,-4.994873046875,-0.510498046875
0.071,2.812744140625,-5.395263671875,0.810791015625
0.0715,1.891845703125,-5.755615234375,2.052001953125
0.072,0.890869140625,-5.795654296875,3.052978515625
0.0725,0.130126953125,-6.035888671875,3.973876953125
0.073,-0.830810546875,-5.915771484375,4.814697265625
0.0735,-1.951904296875,-5.395263671875,5.415283203125
0.074,-3.193115234375,-4.354248046875,5.975830078125
0.0745,-4.154052734375,-3.273193359375,6.095947265625
0.075,-4.754638671875,-2.272216796875,5.935791015625
0.0755,-5.155029296875,-1.551513671875,5.855712890625
0.076,-5.315185546875,-0.630615234375,5.415283203125
0.0765,-5.315185546875,0.570556640625,4.574462890625
0.077,-5.315185546875,1.731689453125,3.693603515625
0.0775,-5.074951171875,2.692626953125,2.612548828125
0.078,-4.754638671875,3.533447265625,1.691650390625
0.0785,-4.394287109375,4.214111328125,0.770751953125
0.079,-3.673583984375,4.654541015625,-0.310302734375
0.0795,-2.632568359375,5.054931640625,-1.631591796875
0.08,-1.631591796875,5.255126953125,-2.872802734375
0.0805,-0.750732421875,5.255126953125,-3.793701171875
0.081,0.090087890625,5.375244140625,-4.674560546875
0.0815,1.051025390625,5.014892578125,-5.395263671875
0.082,2.292236328125,4.174072265625,-5.915771484375
0.0825,3.453369140625,3.213134765625,-6.316162109375
0.083,4.214111328125,2.132080078125,-6.276123046875
0.0835,4.734619140625,1.251220703125,-6.115966796875
0.084,4.974853515625,0.370361328125,-5.835693359375
0.0845,5.054931640625,-0.630615234375,-5.275146484375
0.085,5.014892578125,-1.791748046875,-4.314208984375
0.0855,4.934814453125,-2.952880859375,-3.273193359375
0.086,4.574462890625,-3.873779296875,-2.232177734375
0.0865,4.334228515625,-4.674560546875,-1.351318359375
0.087,3.773681640625,-5.155029296875,-0.390380859375
0.0875,2.852783203125,-5.555419921875,0.810791015625
0.088,1.891845703125,-5.915771484375,2.172119140625
0.0885,0.770751953125,-6.035888671875,3.253173828125
0.089,0.010009765625,-6.115966796875,4.134033203125
0.0895,-0.910888671875,-6.115966796875,4.934814453125
0.09,-1.991943359375,-5.515380859375,5.655517578125
0.0905,-3.313232421875,-4.474365234375,6.135986328125
0.091,-4.354248046875,-3.473388671875,6.376220703125
0.0915,-4.954833984375,-2.312255859375,6.135986328125
0.092,-5.395263671875,-1.511474609375,6.055908203125
0.0925,-5.515380859375,-0.630615234375,5.615478515625
0.093,-5.595458984375,0.570556640625,4.854736328125
0.0935,-5.515380859375,1.811767578125,3.853759765625
0.094,-5.275146484375,2.932861328125,2.692626953125
0.0945,-4.914794921875,3.813720703125,1.651611328125
0.095,-4.594482421875,4.494384765625,0.770751953125
0.0955,-3.833740234375,4.894775390625,-0.350341796875
0.096,-2.712646484375,5.255126953125,-1.711669921875
0.0965,-1.671630859375,5.535400390625,-3.072998046875
0.097,-0.590576171875,5.455322265625,-4.114013671875
0.0975,0.250244140625,5.535400390625,-4.994873046875
0.098,1.131103515625,5.335205078125,-5.715576171875
0.0985,2.412353515625,4.494384765625,-6.316162109375
0.099,3.773681640625,3.333251953125,-6.716552734375
0.0995,4.654541015625,2.172119140625,-6.716552734375
0.1,5.175048828125,1.051025390625,-6.436279296875
0.1005,5.455322265625,0.250244140625,-6.236083984375
0.101,5.455322265625,-0.910888671875,-5.515380859375
0.1015,5.415283203125,-2.192138671875,-4.394287109375
0.102,5.255126953125,-3.473388671875,-3.233154296875
0.1025,4.894775390625,-4.514404296875,-2.031982421875
0.103,4.494384765625,-5.235107421875,-1.031005859375
0.1035,3.893798828125,-5.795654296875,0.010009765625
0.104,2.932861328125,-6.115966796875,1.131103515625
0.1045,1.651611328125,-6.396240234375,2.732666015625
0.105,0.370361328125,-6.476318359375,3.973876953125
0.1055,-0.670654296875,-6.396240234375,4.854736328125
0.106,-1.351318359375,-6.276123046875,5.615478515625
0.1065,-2.472412109375,-5.715576171875,6.256103515625
0.107,-3.873779296875,-4.474365234375,6.736572265625
0.1075,-5.074951171875,-3.273193359375,6.976806640625
0.108,-5.715576171875,-2.031982421875,6.736572265625
0.1085,-6.075927734375,-1.031005859375,6.416259765625
0.109,-6.115966796875,-0.150146484375,5.895751953125
0.1095,-6.075927734375,1.051025390625,5.014892578125
0.11,-5.915771484375,2.452392578125,3.693603515625
0.1105,-5.635498046875,3.693603515625,2.452392578125
0.111,-5.114990234375,4.494384765625,1.291259765625
0.1115,-4.554443359375,5.135009765625,0.330322265625
0.112,-3.793701171875,5.455322265625,-0.790771484375
0.1125,-2.552490234375,5.695556640625,-2.192138671875
0.113,-1.311279296875,5.935791015625,-3.673583984375
0.1135,0.010009765625,5.735595703125,-4.794677734375
0.114,0.810791015625,5.695556640625,-5.515380859375
0.1145,1.571533203125,5.495361328125,-6.156005859375
0.115,2.772705078125,4.614501953125,-6.716552734375
0.1155,4.134033203125,3.373291015625,-7.076904296875
0.116,5.094970703125,2.132080078125,-7.116943359375
0.1165,5.615478515625,0.930908203125,-6.756591796875
0.117,5.815673828125,0.010009765625,-6.396240234375
0.1175,5.815673828125,-0.990966796875,-5.755615234375
0.118,5.655517578125,-2.192138671875,-4.754638671875
0.1185,5.455322265625,-3.553466796875,-3.513427734375
0.119,5.094970703125,-4.634521484375,-2.192138671875
0.1195,4.574462890625,-5.395263671875,-1.111083984375
0.12,4.093994140625,-5.995849609375,-0.190185546875
0.1205,3.173095703125,-6.276123046875,0.970947265625
0.121,1.931884765625,-6.516357421875,2.412353515625
0.1215,0.610595703125,-6.676513671875,3.813720703125
0.122,-0.550537109375,-6.436279296875,4.774658203125
0.1225,-1.271240234375,-6.396240234375,5.535400390625
0.123,-2.152099609375,-6.035888671875,6.176025390625
0.1235,-3.393310546875,-5.114990234375,6.696533203125
0.124,-4.714599609375,-3.833740234375,7.056884765625
0.1245,-5.555419921875,-2.552490234375,6.936767578125
0.125,-5.955810546875,-1.471435546875,6.536376953125
0.1255,-6.236083984375,-0.590576171875,6.256103515625
0.126,-6.156005859375,0.490478515625,5.495361328125
0.1265,-5.995849609375,1.771728515625,4.334228515625
0.127,-5.795654296875,3.052978515625,3.173095703125
0.1275,-5.315185546875,4.053955078125,1.931884765625
0.128,-4.834716796875,4.814697265625,0.810791015625
0.1285,-4.274169921875,5.255126953125,-0.190185546875
0.129,-3.273193359375,5.575439453125,-1.311279296875
0.1295,-1.991943359375,5.815673828125,-2.872802734375
0.13,-0.710693359375,5.895751953125,-4.154052734375
0.1305,0.330322265625,5.735595703125,-5.074951171875
0.131,1.051025390625,5.735595703125,-5.835693359375
0.1315,2.052001953125,5.175048828125,-6.436279296875
0.132,3.453369140625,4.013916015625,-6.876708984375
0.1325,4.614501953125,2.812744140625,-7.116943359375
0.133,5.295166015625,1.571533203125,-6.916748046875
0.1335,5.695556640625,0.570556640625,-6.556396484375
0.134,5.815673828125,-0.470458984375,-6.156005859375
0.1345,5.735595703125,-1.471435546875,-5.355224609375
0.135,5.575439453125,-2.872802734375,-4.114013671875
0.1355,5.335205078125,-4.114013671875,-2.832763671875
0.136,4.814697265625,-5.034912109375,-1.591552734375
0.1365,4.334228515625,-5.755615234375,-0.630615234375
0.137,3.653564453125,-6.156005859375,0.450439453125
0.1375,2.532470703125,-6.436279296875,1.771728515625
0.138,1.251220703125,-6.676513671875,3.293212890625
0.1385,-0.150146484375,-6.556396484375,4.494384765625
0.139,-0.990966796875,-6.436279296875,5.295166015625
0.1395,-1.751708984375,-6.356201171875,6.055908203125
0.14,-2.952880859375,-5.515380859375,6.616455078125
0.1405,-4.394287109375,-4.234130859375,7.056884765625
0.141,-5.395263671875,-3.032958984375,7.136962890625
0.1415,-5.955810546875,-1.791748046875,6.776611328125
0.142,-6.276123046875,-0.790771484375,6.456298828125
0.1425,-6.276123046875,0.250244140625,5.815673828125
0.143,-6.156005859375,1.451416015625,4.814697265625
0.1435,-5.995849609375,2.852783203125,3.493408203125
0.144,-5.595458984375,4.013916015625,2.172119140625
0.1445,-4.994873046875,4.814697265625,1.010986328125
0.145,-4.514404296875,5.375244140625,0.050048828125
0.1455,-3.593505859375,5.615478515625,-1.151123046875
0.146,-2.272216796875,5.895751953125,-2.632568359375
0.1465,-0.990966796875,6.095947265625,-4.073974609375
0.147,0.290283203125,5.855712890625,-5.074951171875
0.1475,1.010986328125,5.735595703125,-5.755615234375
0.148,1.931884765625,5.415283203125,-6.436279296875
0.1485,3.173095703125,4.414306640625,-6.916748046875
0.149,4.494384765625,3.093017578125,-7.237060546875
0.1495,5.335205078125,1.811767578125,-7.076904296875
0.15,5.735595703125,0.650634765625,-6.676513671875
0.1505,5.895751953125,-0.310302734375,-6.356201171875
0.151,5.775634765625,-1.271240234375,-5.555419921875
0.1515,5.615478515625,-2.592529296875,-4.354248046875
0.152,5.415283203125,-3.833740234375,-3.153076171875
0.1525,4.934814453125,-4.834716796875,-1.911865234375
0.153,4.414306640625,-5.515380859375,-0.830810546875
0.1535,3.813720703125,-6.075927734375,0.170166015625
0.154,2.932861328125,-6.276123046875,1.211181640625
0.1545,1.611572265625,-6.476318359375,2.692626953125
0.155,0.370361328125,-6.476318359375,3.973876953125
0.1555,-0.750732421875,-6.356201171875,4.854736328125
0.156,-1.391357421875,-6.356201171875,5.615478515625
0.1565,-2.352294921875,-5.835693359375,6.216064453125
0.157,-3.673583984375,-4.754638671875,6.696533203125
0.1575,-4.834716796875,-3.593505859375,6.896728515625
0.158,-5.475341796875,-2.392333984375,6.696533203125
0.1585,-5.875732421875,-1.351318359375,6.416259765625
0.159,-6.075927734375,-0.510498046875,6.055908203125
0.1595,-5.995849609375,0.570556640625,5.335205078125
0.16,-5.795654296875,1.851806640625,4.174072265625
0.1605,-5.635498046875,2.972900390625,3.012939453125
0.161,-5.155029296875,3.893798828125,1.811767578125
0.1615,-4.754638671875,4.654541015625,0.810791015625
0.162,-4.114013671875,5.175048828125,-0.270263671875
0.1625,-3.072998046875,5.415283203125,-1.431396484375
0.163,-1.951904296875,5.775634765625,-2.872802734375
0.1635,-0.710693359375,5.735595703125,-4.033935546875
0.164,0.290283203125,5.655517578125,-4.914794921875
0.1645,0.970947265625,5.655517578125,-5.715576171875
0.165,2.052001953125,5.014892578125,-6.276123046875
0.1655,3.413330078125,3.853759765625,-6.716552734375
0.166,4.454345703125,2.772705078125,-6.916748046875
0.1665,5.094970703125,1.571533203125,-6.676513671875
0.167,5.415283203125,0.610595703125,-6.396240234375
0.1675,5.575439453125,-0.390380859375,-5.955810546875
0.168,5.495361328125,-1.431396484375,-5.114990234375
0.1685,5.375244140625,-2.752685546875,-3.993896484375
0.169,5.094970703125,-3.873779296875,-2.752685546875
0.1695,4.614501953125,-4.834716796875,-1.671630859375
0.17,4.294189453125,-5.435302734375,-0.710693359375
0.1705,3.493408203125,-5.795654296875,0.370361328125
0.171,2.412353515625,-6.115966796875,1.651611328125
0.1715,1.251220703125,-6.356201171875,3.052978515625
0.172,0.130126953125,-6.236083984375,4.053955078125
0.1725,-0.710693359375,-6.276123046875,4.854736328125
0.173,-1.551513671875,-6.115966796875,5.615478515625
0.1735,-2.712646484375,-5.315185546875,6.176025390625
0.174,-3.993896484375,-4.154052734375,6.576416015625
0.1745,-4.874755859375,-2.992919921875,6.536376953125
0.175,-5.395263671875,-1.911865234375,6.296142578125
0.1755,-5.715576171875,-1.071044921875,6.095947265625
0.176,-5.755615234375,-0.190185546875,5.495361328125
0.1765,-5.635498046875,1.010986328125,4.534423828125
0.177,-5.515380859375,2.172119140625,3.533447265625
0.1775,-5.195068359375,3.173095703125,2.412353515625
0.178,-4.794677734375,3.973876953125,1.371337890625
0.1785,-4.354248046875,4.614501953125,0.490478515625
0.179,-3.553466796875,4.974853515625,-0.630615234375
0.1795,-2.552490234375,5.255126953125,-1.911865234375
0.18,-1.431396484375,5.415283203125,-3.153076171875
0.1805,-0.470458984375,5.375244140625,-4.033935546875
0.181,0.330322265625,5.455322265625,-4.874755859375
0.1815,1.251220703125,5.175048828125,-5.555419921875
0.182,2.372314453125,4.334228515625,-6.075927734375
0.1825,3.493408203125,3.333251953125,-6.396240234375
0.183,4.214111328125,2.252197265625,-6.356201171875
0.1835,4.774658203125,1.291259765625,-6.196044921875
0.184,5.094970703125,0.530517578125,-5.955810546875
0.1845,5.135009765625,-0.510498046875,-5.435302734375
0.185,5.094970703125,-1.591552734375,-4.554443359375
0.1855,4.974853515625,-2.712646484375,-3.633544921875
0.186,4.614501953125,-3.593505859375,-2.552490234375
0.1865,4.374267578125,-4.434326171875,-1.631591796875
0.187,3.933837890625,-5.034912109375,-0.710693359375
0.1875,3.173095703125,-5.435302734375,0.410400390625
0.188,2.252197265625,-5.795654296875,1.611572265625
