wavelength,x,y,z
0.0,7.056884765625,-4.514404296875,-2.872802734375
0.0005,7.096923828125,-3.713623046875,-3.793701171875
0.001,6.896728515625,-2.112060546875,-5.195068359375
0.0015,6.496337890625,-0.830810546875,-6.115966796875
0.002,5.375244140625,0.850830078125,-6.436279296875
0.0025,4.894775390625,1.931884765625,-6.996826171875
0.003,3.333251953125,3.693603515625,-7.116943359375
0.0035,2.532470703125,4.614501953125,-7.237060546875
0.004,0.970947265625,6.176025390625,-7.156982421875
0.0045,-0.550537109375,6.656494140625,-6.156005859375
0.005,-1.551513671875,7.337158203125,-5.795654296875
0.0055,-3.233154296875,7.617431640625,-4.354248046875
0.006,-4.594482421875,7.857666015625,-3.233154296875
0.0065,-5.755615234375,7.697509765625,-1.871826171875
0.007,-6.876708984375,7.537353515625,-0.630615234375
0.0075,-6.996826171875,6.416259765625,0.690673828125
0.008,-7.517333984375,6.135986328125,1.531494140625
0.0085,-7.437255859375,4.374267578125,3.253173828125
0.009,-7.397216796875,3.453369140625,4.093994140625
0.0095,-7.237060546875,1.891845703125,5.535400390625
0.01,-6.476318359375,0.490478515625,6.256103515625
0.0105,-5.555419921875,-1.071044921875,6.696533203125
0.011,-4.714599609375,-2.392333984375,7.096923828125
0.0115,-3.233154296875,-4.114013671875,7.377197265625
0.012,-2.192138671875,-4.994873046875,7.096923828125
0.0125,-0.670654296875,-6.396240234375,6.976806640625
0.013,0.770751953125,-6.716552734375,5.775634765625
0.0135,1.811767578125,-7.397216796875,5.455322265625
0.014,3.733642578125,-7.557373046875,3.693603515625
0.0145,4.934814453125,-7.717529296875,2.612548828125
0.015,6.055908203125,-7.357177734375,1.131103515625
0.0155,6.896728515625,-7.036865234375,0.010009765625
0.016,6.896728515625,-5.835693359375,-1.311279296875
0.0165,7.217041015625,-5.435302734375,-2.192138671875
0.017,7.217041015625,-3.633544921875,-3.953857421875
0.0175,6.976806640625,-2.712646484375,-4.754638671875
0.018,6.736572265625,-1.031005859375,-6.075927734375
0.0185,5.655517578125,0.530517578125,-6.436279296875
0.019,4.894775390625,1.851806640625,-6.916748046875
0.0195,3.813720703125,3.213134765625,-7.156982421875
0.02,2.492431640625,4.814697265625,-7.397216796875
0.0205,1.291259765625,5.615478515625,-6.956787109375
0.021,-0.270263671875,6.896728515625,-6.716552734375
0.0215,-1.591552734375,7.056884765625,-5.475341796875
0.022,-2.592529296875,7.697509765625,-5.114990234375
0.0225,-4.554443359375,7.777587890625,-3.193115234375
0.023,-5.555419921875,7.817626953125,-2.272216796875
0.0235,-6.556396484375,7.377197265625,-0.750732421875
0.024,-7.116943359375,6.856689453125,0.450439453125
0.0245,-7.197021484375,5.775634765625,1.531494140625
0.025,-7.357177734375,4.974853515625,2.492431640625
0.0255,-7.477294921875,3.493408203125,4.134033203125
0.026,-6.996826171875,2.412353515625,4.814697265625
0.0265,-6.836669921875,0.970947265625,6.095947265625
0.027,-5.515380859375,-0.630615234375,6.296142578125
0.0275,-5.034912109375,-1.791748046875,6.896728515625
0.028,-3.593505859375,-3.353271484375,6.976806640625
0.0285,-2.592529296875,-4.674560546875,7.217041015625
0.029,-1.231201171875,-5.435302734375,6.576416015625
0.0295,0.090087890625,-6.476318359375,6.376220703125
0.03,1.291259765625,-6.596435546875,5.215087890625
0.0305,2.412353515625,-7.237060546875,4.734619140625
0.031,4.334228515625,-7.397216796875,2.892822265625
0.0315,5.175048828125,-7.357177734375,1.971923828125
0.032,6.216064453125,-6.956787109375,0.610595703125
0.0325,6.496337890625,-6.356201171875,-0.510498046875
0.033,6.736572265625,-5.555419921875,-1.551513671875
0.0335,6.776611328125,-4.514404296875,-2.712646484375
0.034,7.056884765625,-3.193115234375,-4.154052734375
0.0345,6.456298828125,-1.951904296875,-4.874755859375
0.035,6.376220703125,-0.590576171875,-6.115966796875
0.0355,4.974853515625,1.010986328125,-6.236083984375
0.036,4.734619140625,2.052001953125,-6.916748046875
0.0365,3.133056640625,3.853759765625,-7.076904296875
0.037,2.172119140625,5.054931640625,-7.277099609375
0.0375,0.650634765625,5.935791015625,-6.636474609375
0.038,-0.630615234375,6.856689453125,-6.276123046875
0.0385,-1.951904296875,7.056884765625,-5.195068359375
0.039,-3.193115234375,7.657470703125,-4.434326171875
0.0395,-5.275146484375,7.937744140625,-2.632568359375
0.04,-6.035888671875,7.537353515625,-1.471435546875
0.0405,-7.036865234375,7.177001953125,-0.150146484375
0.041,-7.197021484375,6.256103515625,1.010986328125
0.0415,-7.437255859375,5.455322265625,2.052001953125
0.042,-7.437255859375,4.134033203125,3.573486328125
0.0425,-7.637451171875,2.852783203125,5.054931640625
0.043,-6.716552734375,1.291259765625,5.695556640625
0.0435,-6.476318359375,-0.190185546875,6.736572265625
0.044,-4.994873046875,-1.751708984375,6.776611328125
0.0445,-4.434326171875,-2.832763671875,7.297119140625
0.045,-2.632568359375,-4.834716796875,7.377197265625
0.0455,-1.391357421875,-5.835693359375,7.096923828125
0.046,0.170166015625,-6.556396484375,6.376220703125
0.0465,1.251220703125,-7.197021484375,5.855712890625
0.047,2.572509765625,-7.317138671875,4.614501953125
0.0475,3.933837890625,-7.637451171875,3.533447265625
0.048,5.895751953125,-7.837646484375,1.771728515625
0.0485,6.376220703125,-7.076904296875,0.490478515625
0.049,7.177001953125,-6.716552734375,-0.710693359375
0.0495,7.016845703125,-5.595458984375,-1.791748046875
0.05,7.136962890625,-4.754638671875,-2.752685546875
0.0505,7.056884765625,-3.193115234375,-4.234130859375
0.051,7.056884765625,-1.951904296875,-5.435302734375
0.0515,6.015869140625,-0.350341796875,-6.035888671875
0.052,5.615478515625,0.930908203125,-6.716552734375
0.0525,4.214111328125,2.252197265625,-6.716552734375
0.053,3.653564453125,3.333251953125,-7.076904296875
0.0535,2.052001953125,5.175048828125,-7.277099609375
0.054,0.890869140625,5.895751953125,-6.756591796875
0.0545,-0.550537109375,6.696533203125,-6.276123046875
0.055,-1.591552734375,7.056884765625,-5.435302734375
0.0555,-2.872802734375,7.377197265625,-4.554443359375
0.056,-4.354248046875,7.617431640625,-3.233154296875
0.0565,-5.995849609375,7.817626953125,-1.871826171875
0.057,-6.356201171875,6.896728515625,-0.550537109375
0.0575,-7.197021484375,6.776611328125,0.490478515625
0.058,-7.076904296875,5.615478515625,1.611572265625
0.0585,-7.357177734375,4.934814453125,2.612548828125
0.059,-7.357177734375,3.333251953125,4.214111328125
0.0595,-7.156982421875,2.212158203125,5.175048828125
0.06,-6.356201171875,0.570556640625,5.975830078125
0.0605,-5.795654296875,-0.670654296875,6.576416015625
0.061,-4.634521484375,-2.112060546875,6.776611328125
0.0615,-3.833740234375,-3.353271484375,7.136962890625
0.062,-2.232177734375,-5.155029296875,7.337158203125
0.0625,-0.910888671875,-5.755615234375,6.536376953125
0.063,0.290283203125,-6.716552734375,6.336181640625
0.0635,1.611572265625,-6.916748046875,5.215087890625
0.064,2.892822265625,-7.397216796875,4.334228515625
0.0645,4.534423828125,-7.557373046875,2.812744140625
0.065,6.015869140625,-7.677490234375,1.451416015625
0.0655,6.336181640625,-6.596435546875,0.050048828125
0.066,6.976806640625,-6.436279296875,-0.790771484375
0.0665,6.856689453125,-5.074951171875,-2.112060546875
0.067,7.056884765625,-4.194091796875,-3.113037109375
0.0675,7.096923828125,-2.632568359375,-4.834716796875
0.068,6.536376953125,-1.271240234375,-5.635498046875
0.0685,5.735595703125,0.330322265625,-6.356201171875
0.069,5.054931640625,1.491455078125,-6.676513671875
0.0695,3.853759765625,2.892822265625,-6.916748046875
0.07,2.892822265625,4.134033203125,-7.116943359375
0.0705,1.411376953125,5.855712890625,-7.237060546875
0.071,-0.150146484375,6.296142578125,-6.236083984375
0.0715,-1.111083984375,7.177001953125,-6.115966796875
0.072,-2.672607421875,7.297119140625,-4.634521484375
0.0725,-3.833740234375,7.617431640625,-3.833740234375
0.073,-5.435302734375,7.657470703125,-2.232177734375
0.0735,-6.556396484375,7.497314453125,-0.990966796875
0.074,-6.796630859375,6.576416015625,0.370361328125
0.0745,-7.317138671875,6.256103515625,1.211181640625
0.075,-7.237060546875,4.814697265625,2.612548828125
0.0755,-7.237060546875,3.933837890625,3.573486328125
0.076,-7.397216796875,2.412353515625,5.215087890625
0.0765,-6.556396484375,0.970947265625,5.815673828125
0.077,-5.955810546875,-0.510498046875,6.576416015625
0.0775,-4.874755859375,-1.831787109375,6.776611328125
0.078,-3.833740234375,-3.233154296875,7.096923828125
0.0785,-2.632568359375,-4.514404296875,7.096923828125
0.079,-1.271240234375,-5.915771484375,7.056884765625
0.0795,0.250244140625,-6.276123046875,5.975830078125
0.08,1.131103515625,-7.076904296875,5.855712890625
0.0805,2.892822265625,-7.197021484375,4.134033203125
0.081,3.973876953125,-7.517333984375,3.373291015625
0.0815,5.535400390625,-7.517333984375,1.731689453125
0.082,6.256103515625,-6.996826171875,0.570556640625
0.0825,6.576416015625,-6.196044921875,-0.630615234375
0.083,6.856689453125,-5.635498046875,-1.511474609375
0.0835,6.896728515625,-4.234130859375,-2.952880859375
0.084,6.736572265625,-3.233154296875,-3.833740234375
0.0845,6.896728515625,-1.831787109375,-5.395263671875
0.085,5.775634765625,-0.350341796875,-5.755615234375
0.0855,5.415283203125,0.890869140625,-6.516357421875
0.086,4.134033203125,2.292236328125,-6.596435546875
0.0865,3.333251953125,3.573486328125,-7.036865234375
0.087,2.011962890625,4.854736328125,-6.956787109375
0.0875,0.690673828125,6.055908203125,-6.756591796875
0.088,-0.670654296875,6.376220703125,-5.755615234375
0.0885,-1.631591796875,7.056884765625,-5.515380859375
0.089,-3.433349609375,7.177001953125,-3.833740234375
0.0895,-4.394287109375,7.497314453125,-3.153076171875
0.09,-5.915771484375,7.537353515625,-1.591552734375
0.0905,-6.356201171875,6.856689453125,-0.430419921875
0.091,-6.836669921875,6.376220703125,0.650634765625
0.0915,-6.996826171875,5.415283203125,1.731689453125
0.092,-7.197021484375,4.294189453125,3.133056640625
0.0925,-6.996826171875,3.133056640625,4.134033203125
0.093,-7.116943359375,1.851806640625,5.495361328125
0.0935,-5.835693359375,0.210205078125,5.815673828125
0.094,-5.675537109375,-0.950927734375,6.696533203125
0.0945,-4.073974609375,-2.632568359375,6.776611328125
0.095,-3.353271484375,-3.833740234375,7.177001953125
0.0955,-1.831787109375,-5.155029296875,6.976806640625
0.096,-0.510498046875,-6.156005859375,6.536376953125
0.0965,0.810791015625,-6.556396484375,5.655517578125
0.097,2.011962890625,-7.237060546875,5.054931640625
0.0975,3.853759765625,-7.437255859375,3.373291015625
0.098,4.814697265625,-7.397216796875,2.412353515625
0.0985,6.216064453125,-7.357177734375,0.970947265625
0.099,6.416259765625,-6.396240234375,-0.310302734375
0.0995,6.896728515625,-5.915771484375,-1.231201171875
0.1,6.896728515625,-4.634521484375,-2.552490234375
0.1005,7.056884765625,-3.553466796875,-3.833740234375
0.101,6.656494140625,-2.112060546875,-4.834716796875
0.1015,6.536376953125,-0.830810546875,-6.075927734375
0.102,5.094970703125,0.890869140625,-6.196044921875
0.1025,4.854736328125,1.851806640625,-6.916748046875
0.103,3.133056640625,3.693603515625,-6.996826171875
0.1035,2.412353515625,4.694580078125,-7.156982421875
0.104,0.890869140625,5.935791015625,-6.796630859375
0.1045,-0.590576171875,6.576416015625,-6.156005859375
0.105,-1.631591796875,6.976806640625,-5.395263671875
0.1055,-3.072998046875,7.377197265625,-4.434326171875
0.106,-4.794677734375,7.657470703125,-2.872802734375
0.1065,-5.555419921875,7.377197265625,-1.791748046875
0.107,-6.716552734375,7.257080078125,-0.510498046875
0.1075,-6.756591796875,6.216064453125,0.730712890625
0.108,-7.197021484375,5.815673828125,1.531494140625
0.1085,-7.156982421875,4.294189453125,3.093017578125
0.109,-7.237060546875,3.333251953125,4.134033203125
0.1095,-6.756591796875,1.851806640625,5.175048828125
0.11,-6.436279296875,0.570556640625,6.095947265625
0.1105,-5.195068359375,-1.031005859375,6.336181640625
0.111,-4.834716796875,-2.031982421875,6.896728515625
0.1115,-3.153076171875,-3.913818359375,7.056884765625
0.112,-2.272216796875,-4.754638671875,6.976806640625
0.1125,-0.790771484375,-5.995849609375,6.656494140625
0.113,0.570556640625,-6.476318359375,5.815673828125
0.1135,1.571533203125,-6.996826171875,5.175048828125
0.114,3.173095703125,-7.197021484375,3.893798828125
0.1145,4.734619140625,-7.517333984375,2.652587890625
0.115,5.455322265625,-7.076904296875,1.411376953125
0.1155,6.496337890625,-6.916748046875,0.250244140625
0.116,6.456298828125,-5.755615234375,-0.990966796875
0.1165,6.896728515625,-5.435302734375,-1.791748046875
0.117,6.896728515625,-3.753662109375,-3.473388671875
0.1175,6.896728515625,-2.872802734375,-4.354248046875
0.118,6.416259765625,-1.271240234375,-5.435302734375
0.1185,5.775634765625,0.090087890625,-6.115966796875
0.119,4.734619140625,1.531494140625,-6.436279296875
0.1195,4.134033203125,2.612548828125,-6.916748046875
0.12,2.612548828125,4.454345703125,-7.197021484375
0.1205,1.571533203125,5.135009765625,-6.836669921875
0.121,0.170166015625,6.376220703125,-6.596435546875
0.1215,-1.151123046875,6.696533203125,-5.635498046875
0.122,-2.272216796875,7.337158203125,-5.114990234375
0.1225,-4.033935546875,7.537353515625,-3.513427734375
0.123,-5.435302734375,7.737548828125,-2.312255859375
0.1235,-6.115966796875,7.096923828125,-0.990966796875
0.124,-6.996826171875,6.896728515625,0.210205078125
0.1245,-6.916748046875,5.735595703125,1.331298828125
0.125,-7.197021484375,5.175048828125,2.252197265625
0.1255,-7.357177734375,3.533447265625,3.973876953125
0.126,-7.076904296875,2.492431640625,4.774658203125
0.1265,-6.636474609375,0.970947265625,5.895751953125
0.127,-5.715576171875,-0.510498046875,6.336181640625
0.1275,-4.834716796875,-1.831787109375,6.696533203125
0.128,-3.793701171875,-3.193115234375,6.976806640625
0.1285,-2.432373046875,-4.874755859375,7.217041015625
0.129,-1.191162109375,-5.475341796875,6.496337890625
0.1295,0.130126953125,-6.556396484375,6.376220703125
0.13,1.331298828125,-6.636474609375,5.175048828125
0.1305,2.452392578125,-7.197021484375,4.654541015625
0.131,4.334228515625,-7.357177734375,2.892822265625
0.1315,5.495361328125,-7.397216796875,1.771728515625
0.132,6.135986328125,-6.676513671875,0.330322265625
0.1325,6.696533203125,-6.356201171875,-0.630615234375
0.133,6.696533203125,-5.235107421875,-1.751708984375
0.1335,6.816650390625,-4.474365234375,-2.712646484375
0.134,7.016845703125,-2.952880859375,-4.394287109375
0.1345,6.416259765625,-1.791748046875,-4.994873046875
0.135,6.135986328125,-0.310302734375,-6.115966796875
0.1355,4.974853515625,1.091064453125,-6.276123046875
0.136,4.414306640625,2.252197265625,-6.756591796875
0.1365,3.093017578125,3.693603515625,-6.916748046875
0.137,1.931884765625,5.135009765625,-7.197021484375
0.1375,0.610595703125,5.735595703125,-6.356201171875
0.138,-0.630615234375,6.776611328125,-6.276123046875
0.1385,-1.871826171875,6.896728515625,-4.994873046875
0.139,-3.032958984375,7.377197265625,-4.434326171875
0.1395,-4.994873046875,7.617431640625,-2.632568359375
0.14,-5.875732421875,7.417236328125,-1.551513671875
0.1405,-6.596435546875,6.816650390625,-0.190185546875
0.141,-6.956787109375,6.336181640625,0.770751953125
0.1415,-7.076904296875,5.335205078125,1.931884765625
0.142,-7.116943359375,4.294189453125,3.052978515625
0.1425,-7.397216796875,2.932861328125,4.654541015625
0.143,-6.556396484375,1.571533203125,5.255126953125
0.1435,-6.356201171875,0.250244140625,6.376220703125
0.144,-5.074951171875,-1.311279296875,6.416259765625
0.1445,-4.474365234375,-2.472412109375,6.936767578125
0.145,-2.952880859375,-4.154052734375,7.056884765625
0.1455,-1.751708984375,-5.395263671875,7.056884765625
0.146,-0.350341796875,-5.955810546875,6.176025390625
0.1465,0.690673828125,-6.756591796875,5.975830078125
0.147,2.092041015625,-6.916748046875,4.654541015625
0.1475,3.333251953125,-7.317138671875,3.853759765625
0.148,5.295166015625,-7.557373046875,2.092041015625
0.1485,5.935791015625,-6.996826171875,0.890869140625
0.149,6.656494140625,-6.556396484375,-0.350341796875
0.1495,6.736572265625,-5.755615234375,-1.311279296875
0.15,6.896728515625,-4.794677734375,-2.392333984375
0.1505,6.816650390625,-3.513427734375,-3.673583984375
0.151,7.056884765625,-2.232177734375,-5.155029296875
0.1515,5.975830078125,-0.630615234375,-5.675537109375
0.152,5.735595703125,0.610595703125,-6.556396484375
0.1525,4.374267578125,1.931884765625,-6.476318359375
0.153,3.813720703125,3.052978515625,-7.036865234375
0.1535,2.212158203125,4.814697265625,-7.116943359375
0.154,0.970947265625,5.895751953125,-6.876708984375
0.1545,-0.470458984375,6.496337890625,-6.115966796875
0.155,-1.471435546875,7.096923828125,-5.675537109375
0.1555,-2.952880859375,7.297119140625,-4.354248046875
0.156,-4.194091796875,7.617431640625,-3.393310546875
0.1565,-6.035888671875,7.817626953125,-1.791748046875
0.157,-6.436279296875,6.976806640625,-0.510498046875
0.1575,-7.156982421875,6.696533203125,0.570556640625
0.158,-7.116943359375,5.615478515625,1.611572265625
0.1585,-7.317138671875,4.734619140625,2.772705078125
0.159,-7.197021484375,3.253173828125,4.134033203125
0.1595,-7.237060546875,2.052001953125,5.455322265625
0.16,-6.115966796875,0.370361328125,5.935791015625
0.1605,-5.835693359375,-0.830810546875,6.736572265625
0.161,-4.354248046875,-2.392333984375,6.696533203125
0.1615,-3.673583984375,-3.473388671875,7.096923828125
0.162,-2.072021484375,-5.155029296875,7.177001953125
0.1625,-0.710693359375,-5.915771484375,6.536376953125
0.163,0.490478515625,-6.556396484375,6.015869140625
0.1635,1.691650390625,-6.996826171875,5.135009765625
0.164,3.173095703125,-7.197021484375,3.893798828125
0.1645,4.414306640625,-7.357177734375,2.732666015625
0.165,5.975830078125,-7.477294921875,1.371337890625
0.1655,6.216064453125,-6.396240234375,0.050048828125
0.166,6.776611328125,-6.276123046875,-0.790771484375
0.1665,6.656494140625,-4.954833984375,-2.072021484375
0.167,6.856689453125,-4.154052734375,-3.072998046875
0.1675,6.736572265625,-2.632568359375,-4.474365234375
0.168,6.536376953125,-1.351318359375,-5.355224609375
0.1685,5.455322265625,0.130126953125,-5.915771484375
0.169,5.094970703125,1.211181640625,-6.516357421875
0.1695,3.773681640625,2.692626953125,-6.636474609375
0.17,3.052978515625,3.773681640625,-6.916748046875
0.1705,1.571533203125,5.415283203125,-7.076904296875
0.171,0.170166015625,5.935791015625,-6.156005859375
0.1715,-0.830810546875,6.696533203125,-5.915771484375
0.172,-2.272216796875,7.016845703125,-4.794677734375
0.1725,-3.553466796875,7.377197265625,-3.793701171875
0.173,-4.914794921875,7.377197265625,-2.512451171875
0.1735,-6.115966796875,7.457275390625,-1.271240234375
0.174,-6.356201171875,6.456298828125,0.050048828125
0.1745,-6.956787109375,6.336181640625,0.770751953125
0.175,-6.876708984375,4.854736328125,2.212158203125
0.1755,-7.076904296875,4.093994140625,3.173095703125
0.176,-7.076904296875,2.612548828125,4.734619140625
0.1765,-6.556396484375,1.291259765625,5.455322265625
0.177,-5.755615234375,-0.270263671875,5.975830078125
0.1775,-5.114990234375,-1.351318359375,6.536376953125
0.178,-3.833740234375,-2.952880859375,6.816650390625
0.1785,-2.872802734375,-4.033935546875,6.896728515625
0.179,-1.511474609375,-5.555419921875,6.896728515625
0.1795,0.010009765625,-5.915771484375,5.935791015625
0.18,0.890869140625,-6.716552734375,5.775634765625
0.1805,2.572509765625,-6.956787109375,4.214111328125
0.181,3.813720703125,-7.317138671875,3.373291015625
0.1815,5.135009765625,-7.197021484375,1.931884765625
0.182,6.095947265625,-6.996826171875,0.730712890625
0.1825,6.256103515625,-6.035888671875,-0.510498046875
0.183,6.696533203125,-5.755615234375,-1.271240234375
0.1835,6.696533203125,-4.154052734375,-2.872802734375
0.184,6.696533203125,-3.273193359375,-3.713623046875
0.1845,6.656494140625,-1.871826171875,-5.195068359375
0.185,5.895751953125,-0.470458984375,-5.795654296875
0.1855,5.175048828125,0.930908203125,-6.316162109375
0.186,4.134033203125,2.212158203125,-6.556396484375
0.1865,3.093017578125,3.693603515625,-6.876708984375
0.187,2.052001953125,4.734619140625,-6.756591796875
0.1875,0.650634765625,6.015869140625,-6.716552734375
0.188,-0.710693359375,6.256103515625,-5.635498046875
