wavelength,x,y,z
0.0,-1.231201171875,4.854736328125,-2.872802734375
0.0005,-0.590576171875,5.094970703125,-3.753662109375
0.001,0.290283203125,5.215087890625,-4.674560546875
0.0015,1.051025390625,5.255126953125,-5.515380859375
0.002,2.412353515625,4.013916015625,-5.795654296875
0.0025,3.333251953125,3.012939453125,-5.915771484375
0.003,4.134033203125,1.771728515625,-5.755615234375
0.0035,4.534423828125,1.291259765625,-5.915771484375
0.004,4.894775390625,0.490478515625,-5.755615234375
0.0045,5.135009765625,-0.390380859375,-5.555419921875
0.005,4.814697265625,-1.671630859375,-4.194091796875
0.0055,4.494384765625,-2.712646484375,-3.072998046875
0.006,4.294189453125,-3.553466796875,-2.232177734375
0.0065,4.174072265625,-4.394287109375,-1.471435546875
0.007,3.973876953125,-5.074951171875,-0.710693359375
0.0075,2.852783203125,-5.315185546875,0.610595703125
0.008,1.771728515625,-5.475341796875,1.771728515625
0.0085,0.770751953125,-5.635498046875,2.852783203125
0.009,0.170166015625,-5.915771484375,3.773681640625
0.0095,-0.790771484375,-5.875732421875,4.694580078125
0.01,-1.631591796875,-5.755615234375,5.495361328125
0.0105,-3.072998046875,-4.314208984375,5.695556640625
0.011,-3.913818359375,-3.233154296875,5.735595703125
0.0115,-4.594482421875,-2.312255859375,5.735595703125
0.012,-5.034912109375,-1.711669921875,5.815673828125
0.0125,-5.395263671875,-0.990966796875,5.735595703125
0.013,-5.315185546875,0.210205078125,4.894775390625
0.0135,-5.114990234375,1.331298828125,3.813720703125
0.014,-4.794677734375,2.492431640625,2.532470703125
0.0145,-4.634521484375,3.213134765625,1.891845703125
0.015,-4.434326171875,3.973876953125,1.010986328125
0.0155,-4.114013671875,4.614501953125,0.210205078125
0.016,-2.712646484375,4.774658203125,-1.311279296875
0.0165,-1.671630859375,4.814697265625,-2.432373046875
0.017,-0.790771484375,4.974853515625,-3.433349609375
0.0175,-0.230224609375,5.255126953125,-4.354248046875
0.018,0.810791015625,5.175048828125,-5.195068359375
0.0185,1.931884765625,4.534423828125,-5.755615234375
0.019,3.133056640625,3.253173828125,-5.955810546875
0.0195,3.933837890625,2.052001953125,-5.795654296875
0.02,4.454345703125,1.371337890625,-5.915771484375
0.0205,4.854736328125,0.610595703125,-5.835693359375
0.021,5.135009765625,-0.190185546875,-5.755615234375
0.0215,4.854736328125,-1.511474609375,-4.434326171875
0.022,4.614501953125,-2.592529296875,-3.393310546875
0.0225,4.334228515625,-3.553466796875,-2.232177734375
0.023,4.214111328125,-4.274169921875,-1.591552734375
0.0235,3.853759765625,-4.954833984375,-0.710693359375
0.024,3.173095703125,-5.435302734375,0.370361328125
0.0245,1.931884765625,-5.555419921875,1.731689453125
0.025,0.810791015625,-5.635498046875,2.812744140625
0.0255,0.130126953125,-5.795654296875,3.733642578125
0.026,-0.710693359375,-5.915771484375,4.654541015625
0.0265,-1.591552734375,-5.795654296875,5.535400390625
0.027,-3.032958984375,-4.514404296875,5.855712890625
0.0275,-3.953857421875,-3.433349609375,5.935791015625
0.028,-4.714599609375,-2.232177734375,5.775634765625
0.0285,-5.114990234375,-1.671630859375,5.895751953125
0.029,-5.435302734375,-0.830810546875,5.695556640625
0.0295,-5.595458984375,0.130126953125,5.255126953125
0.03,-5.275146484375,1.491455078125,3.853759765625
0.0305,-4.954833984375,2.572509765625,2.612548828125
0.031,-4.674560546875,3.413330078125,1.731689453125
0.0315,-4.474365234375,4.134033203125,0.970947265625
0.032,-4.154052734375,4.774658203125,0.130126953125
0.0325,-2.872802734375,4.894775390625,-1.311279296875
0.033,-1.671630859375,5.054931640625,-2.552490234375
0.0335,-0.630615234375,5.094970703125,-3.673583984375
0.034,0.050048828125,5.335205078125,-4.514404296875
0.0345,0.970947265625,5.215087890625,-5.395263671875
0.035,1.931884765625,4.894775390625,-6.115966796875
0.0355,3.413330078125,3.253173828125,-6.276123046875
0.036,4.214111328125,2.092041015625,-6.115966796875
0.0365,4.774658203125,1.171142578125,-6.035888671875
0.037,5.094970703125,0.490478515625,-5.955810546875
0.0375,5.295166015625,-0.430419921875,-5.715576171875
0.038,5.135009765625,-1.591552734375,-4.634521484375
0.0385,4.854736328125,-2.832763671875,-3.393310546875
0.039,4.494384765625,-3.913818359375,-2.072021484375
0.0395,4.254150390625,-4.554443359375,-1.351318359375
0.04,3.853759765625,-5.195068359375,-0.510498046875
0.0405,3.373291015625,-5.795654296875,0.450439453125
0.041,1.811767578125,-5.795654296875,1.971923828125
0.0415,0.690673828125,-5.755615234375,3.093017578125
0.042,-0.270263671875,-5.875732421875,4.053955078125
0.0425,-0.910888671875,-6.035888671875,4.854736328125
0.043,-1.951904296875,-5.755615234375,5.735595703125
0.0435,-3.072998046875,-4.874755859375,6.216064453125
0.044,-4.314208984375,-3.473388671875,6.336181640625
0.0445,-5.034912109375,-2.152099609375,6.055908203125
0.045,-5.435302734375,-1.471435546875,6.055908203125
0.0455,-5.675537109375,-0.670654296875,5.775634765625
0.046,-5.915771484375,0.290283203125,5.495361328125
0.0465,-5.515380859375,1.731689453125,3.893798828125
0.047,-5.195068359375,2.812744140625,2.732666015625
0.0475,-4.794677734375,3.813720703125,1.531494140625
0.048,-4.514404296875,4.454345703125,0.810791015625
0.0485,-4.033935546875,4.974853515625,-0.190185546875
0.049,-3.072998046875,5.295166015625,-1.391357421875
0.0495,-1.591552734375,5.415283203125,-2.912841796875
0.05,-0.430419921875,5.295166015625,-3.993896484375
0.0505,0.330322265625,5.415283203125,-4.834716796875
0.051,1.211181640625,5.335205078125,-5.715576171875
0.0515,2.172119140625,5.014892578125,-6.476318359375
0.052,3.693603515625,3.453369140625,-6.716552734375
0.0525,4.614501953125,2.212158203125,-6.676513671875
0.053,5.255126953125,0.930908203125,-6.316162109375
0.0535,5.495361328125,0.290283203125,-6.276123046875
0.054,5.655517578125,-0.790771484375,-5.755615234375
0.0545,5.735595703125,-1.791748046875,-5.114990234375
0.055,5.255126953125,-3.393310546875,-3.313232421875
0.0555,4.814697265625,-4.474365234375,-1.991943359375
0.056,4.374267578125,-5.195068359375,-1.031005859375
0.0565,3.973876953125,-5.795654296875,-0.270263671875
0.057,3.333251953125,-6.316162109375,0.850830078125
0.0575,1.731689453125,-6.316162109375,2.452392578125
0.058,0.370361328125,-6.276123046875,3.773681640625
0.0585,-0.790771484375,-6.156005859375,4.774658203125
0.059,-1.391357421875,-6.196044921875,5.495361328125
0.0595,-2.432373046875,-5.755615234375,6.256103515625
0.06,-3.553466796875,-5.155029296875,6.936767578125
0.0605,-5.034912109375,-3.273193359375,6.936767578125
0.061,-5.755615234375,-1.951904296875,6.656494140625
0.0615,-6.115966796875,-0.990966796875,6.296142578125
0.062,-6.236083984375,-0.190185546875,6.015869140625
0.0625,-6.276123046875,0.850830078125,5.455322265625
0.063,-5.955810546875,2.252197265625,4.053955078125
0.0635,-5.555419921875,3.493408203125,2.572509765625
0.064,-4.954833984375,4.494384765625,1.131103515625
0.0645,-4.514404296875,5.014892578125,0.370361328125
0.065,-3.913818359375,5.495361328125,-0.670654296875
0.0655,-3.193115234375,5.975830078125,-1.711669921875
0.066,-1.271240234375,5.815673828125,-3.553466796875
0.0665,0.050048828125,5.695556640625,-4.634521484375
0.067,0.970947265625,5.575439453125,-5.435302734375
0.0675,1.611572265625,5.495361328125,-6.196044921875
0.068,2.692626953125,4.934814453125,-6.916748046875
0.0685,3.933837890625,3.853759765625,-7.237060546875
0.069,5.094970703125,2.212158203125,-7.156982421875
0.0695,5.735595703125,0.770751953125,-6.676513671875
0.07,5.895751953125,0.010009765625,-6.436279296875
0.0705,6.015869140625,-0.990966796875,-5.955810546875
0.071,6.095947265625,-1.871826171875,-5.475341796875
0.0715,5.455322265625,-3.553466796875,-3.553466796875
0.072,5.014892578125,-4.514404296875,-2.232177734375
0.0725,4.454345703125,-5.475341796875,-0.910888671875
0.073,4.093994140625,-6.035888671875,-0.190185546875
0.0735,3.373291015625,-6.396240234375,0.850830078125
0.074,2.292236328125,-6.676513671875,2.092041015625
0.0745,0.570556640625,-6.476318359375,3.693603515625
0.075,-0.750732421875,-6.276123046875,4.774658203125
0.0755,-1.431396484375,-6.276123046875,5.455322265625
0.076,-2.272216796875,-6.075927734375,6.256103515625
0.0765,-3.233154296875,-5.635498046875,6.976806640625
0.077,-4.794677734375,-3.873779296875,7.056884765625
0.0775,-5.635498046875,-2.592529296875,6.896728515625
0.078,-6.156005859375,-1.151123046875,6.416259765625
0.0785,-6.316162109375,-0.590576171875,6.336181640625
0.079,-6.396240234375,0.490478515625,5.735595703125
0.0795,-6.396240234375,1.571533203125,5.054931640625
0.08,-5.795654296875,3.133056640625,3.133056640625
0.0805,-5.235107421875,4.134033203125,1.771728515625
0.081,-4.754638671875,4.814697265625,0.690673828125
0.0815,-4.354248046875,5.415283203125,-0.270263671875
0.082,-3.713623046875,5.895751953125,-1.151123046875
0.0825,-1.991943359375,5.895751953125,-2.832763671875
0.083,-0.630615234375,5.815673828125,-4.154052734375
0.0835,0.650634765625,5.615478515625,-5.155029296875
0.084,1.211181640625,5.695556640625,-5.835693359375
0.0845,2.252197265625,5.255126953125,-6.596435546875
0.085,3.213134765625,4.734619140625,-7.317138671875
0.0855,4.814697265625,2.732666015625,-7.197021484375
0.086,5.455322265625,1.411376953125,-6.916748046875
0.0865,5.895751953125,0.290283203125,-6.516357421875
0.087,6.055908203125,-0.510498046875,-6.316162109375
0.0875,6.095947265625,-1.431396484375,-5.755615234375
0.088,5.775634765625,-2.832763671875,-4.434326171875
0.0885,5.295166015625,-4.194091796875,-2.832763671875
0.089,4.654541015625,-5.235107421875,-1.351318359375
0.0895,4.294189453125,-5.755615234375,-0.590576171875
0.09,3.693603515625,-6.276123046875,0.450439453125
0.0905,3.052978515625,-6.716552734375,1.451416015625
0.091,1.051025390625,-6.516357421875,3.253173828125
0.0915,-0.310302734375,-6.396240234375,4.414306640625
0.092,-1.271240234375,-6.276123046875,5.295166015625
0.0925,-1.871826171875,-6.276123046875,6.015869140625
0.093,-2.992919921875,-5.715576171875,6.776611328125
0.0935,-4.194091796875,-4.714599609375,7.177001953125
0.094,-5.435302734375,-3.032958984375,7.096923828125
0.0945,-6.115966796875,-1.551513671875,6.616455078125
0.095,-6.316162109375,-0.790771484375,6.416259765625
0.0955,-6.436279296875,0.250244140625,5.975830078125
0.096,-6.516357421875,1.131103515625,5.615478515625
0.0965,-6.035888671875,2.732666015625,3.613525390625
0.097,-5.475341796875,3.853759765625,2.252197265625
0.0975,-4.874755859375,4.814697265625,0.850830078125
0.098,-4.514404296875,5.335205078125,0.130126953125
0.0985,-3.793701171875,5.735595703125,-0.990966796875
0.099,-2.752685546875,6.095947265625,-2.232177734375
0.0995,-0.910888671875,5.895751953125,-3.873779296875
0.1,0.450439453125,5.615478515625,-4.954833984375
0.1005,1.131103515625,5.615478515625,-5.635498046875
0.101,1.931884765625,5.415283203125,-6.396240234375
0.1015,2.892822265625,4.934814453125,-7.076904296875
0.102,4.414306640625,3.253173828125,-7.197021484375
0.1025,5.255126953125,1.891845703125,-7.076904296875
0.103,5.775634765625,0.490478515625,-6.556396484375
0.1035,5.895751953125,-0.190185546875,-6.396240234375
0.104,5.895751953125,-1.231201171875,-5.755615234375
0.1045,5.975830078125,-2.192138671875,-5.155029296875
0.105,5.375244140625,-3.753662109375,-3.233154296875
0.1055,4.814697265625,-4.674560546875,-1.911865234375
0.106,4.334228515625,-5.435302734375,-0.830810546875
0.1065,3.893798828125,-5.955810546875,0.010009765625
0.107,3.293212890625,-6.396240234375,0.930908203125
0.1075,1.851806640625,-6.436279296875,2.372314453125
0.108,0.370361328125,-6.276123046875,3.733642578125
0.1085,-0.830810546875,-6.115966796875,4.694580078125
0.109,-1.391357421875,-6.156005859375,5.415283203125
0.1095,-2.312255859375,-5.915771484375,6.135986328125
0.11,-3.193115234375,-5.475341796875,6.816650390625
0.1105,-4.674560546875,-3.633544921875,6.816650390625
0.111,-5.435302734375,-2.392333984375,6.536376953125
0.1115,-5.875732421875,-1.311279296875,6.256103515625
0.112,-6.035888671875,-0.750732421875,6.015869140625
0.1125,-6.156005859375,0.290283203125,5.735595703125
0.113,-6.035888671875,1.411376953125,4.694580078125
0.1135,-5.515380859375,2.772705078125,3.173095703125
0.114,-4.994873046875,3.853759765625,1.771728515625
0.1145,-4.674560546875,4.494384765625,0.970947265625
0.115,-4.274169921875,5.094970703125,0.130126953125
0.1155,-3.793701171875,5.655517578125,-0.910888671875
0.116,-2.031982421875,5.575439453125,-2.512451171875
0.1165,-0.790771484375,5.455322265625,-3.713623046875
0.117,0.290283203125,5.415283203125,-4.634521484375
0.1175,0.850830078125,5.575439453125,-5.435302734375
0.118,1.851806640625,5.255126953125,-6.276123046875
0.1185,2.932861328125,4.494384765625,-6.796630859375
0.119,4.254150390625,2.892822265625,-6.756591796875
0.1195,4.974853515625,1.531494140625,-6.436279296875
0.12,5.255126953125,0.690673828125,-6.276123046875
0.1205,5.615478515625,-0.230224609375,-6.115966796875
0.121,5.775634765625,-0.990966796875,-5.835693359375
0.1215,5.375244140625,-2.432373046875,-4.234130859375
0.122,5.014892578125,-3.553466796875,-2.952880859375
0.1225,4.534423828125,-4.554443359375,-1.631591796875
0.123,4.294189453125,-5.155029296875,-0.990966796875
0.1235,3.813720703125,-5.755615234375,0.010009765625
0.124,3.012939453125,-6.156005859375,1.091064453125
0.1245,1.331298828125,-6.075927734375,2.612548828125
0.125,0.130126953125,-5.915771484375,3.693603515625
0.1255,-0.670654296875,-6.035888671875,4.574462890625
0.126,-1.391357421875,-6.075927734375,5.415283203125
0.1265,-2.352294921875,-5.795654296875,6.216064453125
0.127,-3.753662109375,-4.434326171875,6.456298828125
0.1275,-4.674560546875,-3.193115234375,6.416259765625
0.128,-5.275146484375,-1.831787109375,6.015869140625
0.1285,-5.635498046875,-1.311279296875,6.095947265625
0.129,-5.875732421875,-0.430419921875,5.775634765625
0.1295,-5.955810546875,0.570556640625,5.335205078125
0.13,-5.515380859375,1.971923828125,3.693603515625
0.1305,-5.074951171875,3.052978515625,2.412353515625
0.131,-4.714599609375,3.853759765625,1.411376953125
0.1315,-4.434326171875,4.534423828125,0.650634765625
0.132,-4.033935546875,5.094970703125,-0.270263671875
0.1325,-2.752685546875,5.255126953125,-1.591552734375
0.133,-1.471435546875,5.295166015625,-2.872802734375
0.1335,-0.310302734375,5.175048828125,-3.913818359375
0.134,0.290283203125,5.415283203125,-4.714599609375
0.1345,1.171142578125,5.255126953125,-5.555419921875
0.135,2.011962890625,5.054931640625,-6.316162109375
0.1355,3.493408203125,3.413330078125,-6.396240234375
0.136,4.174072265625,2.252197265625,-6.156005859375
0.1365,4.814697265625,1.131103515625,-6.115966796875
0.137,5.135009765625,0.530517578125,-6.115966796875
0.1375,5.375244140625,-0.310302734375,-5.835693359375
0.138,5.255126953125,-1.351318359375,-4.994873046875
0.1385,4.934814453125,-2.552490234375,-3.713623046875
0.139,4.494384765625,-3.633544921875,-2.392333984375
0.1395,4.294189453125,-4.314208984375,-1.631591796875
0.14,3.973876953125,-5.034912109375,-0.830810546875
0.1405,3.693603515625,-5.675537109375,0.090087890625
0.141,2.212158203125,-5.715576171875,1.451416015625
0.1415,1.051025390625,-5.715576171875,2.612548828125
0.142,0.170166015625,-5.755615234375,3.573486328125
0.1425,-0.470458984375,-6.035888671875,4.454345703125
0.143,-1.431396484375,-5.875732421875,5.295166015625
0.1435,-2.432373046875,-5.355224609375,5.935791015625
0.144,-3.673583984375,-4.114013671875,5.975830078125
0.1445,-4.514404296875,-2.752685546875,5.815673828125
0.145,-4.954833984375,-2.072021484375,5.935791015625
0.1455,-5.355224609375,-1.271240234375,5.815673828125
0.146,-5.715576171875,-0.590576171875,5.735595703125
0.1465,-5.395263671875,0.770751953125,4.494384765625
0.147,-5.114990234375,1.851806640625,3.453369140625
0.1475,-4.754638671875,2.852783203125,2.252197265625
0.148,-4.634521484375,3.573486328125,1.571533203125
0.1485,-4.354248046875,4.214111328125,0.730712890625
0.149,-3.793701171875,4.814697265625,-0.310302734375
0.1495,-2.432373046875,4.894775390625,-1.671630859375
0.15,-1.271240234375,4.894775390625,-2.752685546875
0.1505,-0.630615234375,5.094970703125,-3.673583984375
0.151,0.170166015625,5.255126953125,-4.594482421875
0.1515,1.010986328125,5.255126953125,-5.475341796875
0.152,2.252197265625,4.134033203125,-5.795654296875
0.1525,3.253173828125,3.093017578125,-5.955810546875
0.153,4.053955078125,1.851806640625,-5.835693359375
0.1535,4.494384765625,1.331298828125,-5.955810546875
0.154,4.894775390625,0.570556640625,-5.795654296875
0.1545,5.135009765625,-0.310302734375,-5.675537109375
0.155,4.814697265625,-1.591552734375,-4.274169921875
0.1555,4.534423828125,-2.592529296875,-3.193115234375
0.156,4.294189453125,-3.513427734375,-2.272216796875
0.1565,4.214111328125,-4.274169921875,-1.591552734375
0.157,3.973876953125,-5.034912109375,-0.830810546875
0.1575,3.012939453125,-5.315185546875,0.450439453125
0.158,1.931884765625,-5.475341796875,1.651611328125
0.1585,0.930908203125,-5.515380859375,2.732666015625
0.159,0.290283203125,-5.835693359375,3.573486328125
0.1595,-0.670654296875,-5.915771484375,4.534423828125
0.16,-1.431396484375,-5.835693359375,5.415283203125
0.1605,-2.912841796875,-4.514404296875,5.655517578125
0.161,-3.713623046875,-3.433349609375,5.695556640625
0.1615,-4.514404296875,-2.432373046875,5.695556640625
0.162,-4.994873046875,-1.871826171875,5.815673828125
0.1625,-5.315185546875,-1.111083984375,5.735595703125
0.163,-5.435302734375,0.010009765625,5.135009765625
0.1635,-5.195068359375,1.171142578125,4.013916015625
0.164,-4.834716796875,2.292236328125,2.732666015625
0.1645,-4.714599609375,3.052978515625,2.052001953125
0.165,-4.514404296875,3.853759765625,1.211181640625
0.1655,-4.234130859375,4.614501953125,0.370361328125
0.166,-2.912841796875,4.774658203125,-1.151123046875
0.1665,-1.871826171875,4.894775390625,-2.232177734375
0.167,-0.990966796875,5.014892578125,-3.273193359375
0.1675,-0.350341796875,5.295166015625,-4.194091796875
0.168,0.650634765625,5.094970703125,-5.114990234375
0.1685,1.691650390625,4.774658203125,-5.795654296875
0.169,2.932861328125,3.253173828125,-6.035888671875
0.1695,3.853759765625,2.212158203125,-5.835693359375
0.17,4.454345703125,1.491455078125,-5.915771484375
0.1705,4.774658203125,0.770751953125,-5.875732421875
0.171,5.215087890625,0.010009765625,-5.795654296875
0.1715,4.934814453125,-1.351318359375,-4.554443359375
0.172,4.734619140625,-2.432373046875,-3.553466796875
0.1725,4.414306640625,-3.513427734375,-2.312255859375
0.173,4.334228515625,-4.194091796875,-1.671630859375
0.1735,3.933837890625,-4.874755859375,-0.830810546875
0.174,3.453369140625,-5.435302734375,0.250244140625
0.1745,2.052001953125,-5.555419921875,1.611572265625
0.175,0.970947265625,-5.595458984375,2.692626953125
0.1755,0.250244140625,-5.755615234375,3.613525390625
0.176,-0.590576171875,-5.955810546875,4.534423828125
0.1765,-1.551513671875,-5.875732421875,5.415283203125
0.177,-2.832763671875,-4.634521484375,5.895751953125
0.1775,-3.833740234375,-3.593505859375,5.935791015625
0.178,-4.554443359375,-2.312255859375,5.735595703125
0.1785,-5.074951171875,-1.791748046875,5.895751953125
0.179,-5.355224609375,-0.990966796875,5.655517578125
0.1795,-5.635498046875,-0.150146484375,5.455322265625
0.18,-5.275146484375,1.291259765625,3.973876953125
0.1805,-4.994873046875,2.292236328125,2.852783203125
0.181,-4.674560546875,3.173095703125,1.931884765625
0.1815,-4.514404296875,3.893798828125,1.131103515625
0.182,-4.154052734375,4.534423828125,0.330322265625
0.1825,-3.153076171875,4.854736328125,-1.031005859375
0.183,-1.951904296875,5.054931640625,-2.272216796875
0.1835,-0.830810546875,5.054931640625,-3.353271484375
0.184,-0.310302734375,5.175048828125,-4.194091796875
0.1845,0.690673828125,5.175048828125,-5.114990234375
0.185,1.571533203125,4.974853515625,-6.115966796875
0.1855,3.093017578125,3.533447265625,-6.115966796875
0.186,3.893798828125,2.412353515625,-6.115966796875
0.1865,4.534423828125,1.411376953125,-5.915771484375
0.187,4.934814453125,0.730712890625,-6.035888671875
0.1875,5.175048828125,-0.190185546875,-5.755615234375
0.188,5.255126953125,-1.191162109375,-5.074951171875
