wavelength,x,y,z
0.0,1.251220703125,1.971923828125,-3.593505859375
0.0005,0.570556640625,2.572509765625,-3.513427734375
0.001,-0.310302734375,2.892822265625,-3.032958984375
0.0015,-1.191162109375,3.333251953125,-2.632568359375
0.002,-1.911865234375,3.573486328125,-2.072021484375
0.0025,-2.472412109375,3.733642578125,-1.631591796875
0.003,-2.832763671875,3.373291015625,-0.990966796875
0.0035,-3.273193359375,3.453369140625,-0.590576171875
0.004,-3.513427734375,2.692626953125,0.330322265625
0.0045,-3.873779296875,2.492431640625,0.970947265625
0.005,-3.993896484375,1.771728515625,1.731689453125
0.0055,-3.833740234375,1.251220703125,2.132080078125
0.006,-3.553466796875,0.410400390625,2.652587890625
0.0065,-3.233154296875,-0.310302734375,3.052978515625
0.007,-2.712646484375,-1.231201171875,3.373291015625
0.0075,-2.352294921875,-1.791748046875,3.613525390625
0.008,-1.791748046875,-2.512451171875,3.733642578125
0.0085,-1.151123046875,-2.912841796875,3.373291015625
0.009,-0.590576171875,-3.473388671875,3.333251953125
0.0095,0.490478515625,-3.753662109375,2.572509765625
0.01,1.291259765625,-4.154052734375,2.252197265625
0.0105,1.931884765625,-4.154052734375,1.611572265625
0.011,2.412353515625,-4.154052734375,1.251220703125
0.0115,2.652587890625,-3.753662109375,0.570556640625
0.012,3.052978515625,-3.593505859375,0.050048828125
0.0125,3.253173828125,-2.952880859375,-0.870849609375
0.013,3.533447265625,-2.592529296875,-1.431396484375
0.0135,3.573486328125,-1.951904296875,-2.152099609375
0.014,3.213134765625,-1.231201171875,-2.472412109375
0.0145,3.052978515625,-0.510498046875,-2.952880859375
0.015,2.492431640625,0.330322265625,-3.193115234375
0.0155,2.092041015625,1.131103515625,-3.633544921875
0.016,1.571533203125,1.731689453125,-3.713623046875
0.0165,1.051025390625,2.332275390625,-3.833740234375
0.017,0.290283203125,2.612548828125,-3.353271484375
0.0175,-0.390380859375,3.213134765625,-3.273193359375
0.018,-1.551513671875,3.493408203125,-2.352294921875
0.0185,-2.232177734375,3.813720703125,-1.991943359375
0.019,-2.872802734375,3.733642578125,-1.351318359375
0.0195,-3.193115234375,3.653564453125,-0.790771484375
0.02,-3.553466796875,3.333251953125,-0.150146484375
0.0205,-3.833740234375,2.852783203125,0.530517578125
0.021,-4.154052734375,2.252197265625,1.451416015625
0.0215,-4.114013671875,1.691650390625,1.971923828125
0.022,-4.194091796875,1.010986328125,2.692626953125
0.0225,-3.553466796875,0.130126953125,2.972900390625
0.023,-3.433349609375,-0.590576171875,3.493408203125
0.0235,-2.552490234375,-1.631591796875,3.653564453125
0.024,-2.152099609375,-2.392333984375,3.973876953125
0.0245,-1.471435546875,-2.952880859375,3.773681640625
0.025,-0.950927734375,-3.553466796875,3.813720703125
0.0255,-0.150146484375,-3.793701171875,3.213134765625
0.026,0.690673828125,-4.194091796875,2.892822265625
0.0265,1.931884765625,-4.474365234375,1.971923828125
0.027,2.532470703125,-4.514404296875,1.411376953125
0.0275,3.133056640625,-4.434326171875,0.770751953125
0.028,3.333251953125,-3.993896484375,0.130126953125
0.0285,3.653564453125,-3.713623046875,-0.510498046875
0.029,3.773681640625,-2.912841796875,-1.311279296875
0.0295,4.093994140625,-2.352294921875,-2.232177734375
0.03,3.773681640625,-1.591552734375,-2.672607421875
0.0305,3.773681640625,-0.910888671875,-3.313232421875
0.031,2.972900390625,0.050048828125,-3.433349609375
0.0315,2.772705078125,0.690673828125,-3.873779296875
0.032,1.771728515625,1.931884765625,-4.033935546875
0.0325,1.291259765625,2.492431640625,-4.194091796875
0.033,0.490478515625,3.093017578125,-3.913818359375
0.0335,-0.150146484375,3.533447265625,-3.833740234375
0.034,-0.990966796875,3.813720703125,-3.153076171875
0.0345,-1.951904296875,4.134033203125,-2.592529296875
0.035,-3.193115234375,4.454345703125,-1.631591796875
0.0355,-3.593505859375,4.134033203125,-0.950927734375
0.036,-4.194091796875,4.093994140625,-0.310302734375
0.0365,-4.354248046875,3.493408203125,0.490478515625
0.037,-4.634521484375,3.093017578125,1.131103515625
0.0375,-4.754638671875,2.092041015625,2.172119140625
0.038,-4.954833984375,1.411376953125,3.012939453125
0.0385,-4.394287109375,0.490478515625,3.453369140625
0.039,-4.314208984375,-0.310302734375,4.013916015625
0.0395,-3.353271484375,-1.311279296875,4.093994140625
0.04,-2.952880859375,-2.031982421875,4.414306640625
0.0405,-1.871826171875,-3.353271484375,4.574462890625
0.041,-1.151123046875,-3.913818359375,4.414306640625
0.0415,-0.350341796875,-4.474365234375,4.093994140625
0.042,0.450439453125,-4.794677734375,3.733642578125
0.0425,1.411376953125,-4.954833984375,2.892822265625
0.043,2.452392578125,-5.155029296875,2.092041015625
0.0435,3.693603515625,-5.395263671875,1.131103515625
0.044,3.933837890625,-4.794677734375,0.290283203125
0.0445,4.494384765625,-4.754638671875,-0.310302734375
0.045,4.494384765625,-3.833740234375,-1.231201171875
0.0455,4.614501953125,-3.273193359375,-1.871826171875
0.046,4.734619140625,-2.192138671875,-3.032958984375
0.0465,4.734619140625,-1.431396484375,-3.793701171875
0.047,3.973876953125,-0.310302734375,-4.114013671875
0.0475,3.773681640625,0.370361328125,-4.514404296875
0.048,2.692626953125,1.491455078125,-4.514404296875
0.0485,2.172119140625,2.212158203125,-4.754638671875
0.049,1.091064453125,3.533447265625,-4.954833984375
0.0495,0.170166015625,3.893798828125,-4.474365234375
0.05,-0.550537109375,4.414306640625,-4.154052734375
0.0505,-1.511474609375,4.694580078125,-3.553466796875
0.051,-2.552490234375,4.814697265625,-2.632568359375
0.0515,-3.553466796875,4.974853515625,-1.791748046875
0.052,-4.674560546875,5.094970703125,-0.790771484375
0.0525,-4.794677734375,4.294189453125,0.130126953125
0.053,-5.315185546875,4.214111328125,0.690673828125
0.0535,-5.315185546875,3.133056640625,1.771728515625
0.054,-5.395263671875,2.532470703125,2.412353515625
0.0545,-5.435302734375,1.411376953125,3.573486328125
0.055,-5.275146484375,0.570556640625,4.174072265625
0.0555,-4.434326171875,-0.630615234375,4.494384765625
0.056,-4.154052734375,-1.351318359375,4.974853515625
0.0565,-2.872802734375,-2.672607421875,4.934814453125
0.057,-2.272216796875,-3.353271484375,4.974853515625
0.0575,-1.191162109375,-4.674560546875,5.094970703125
0.058,-0.190185546875,-4.874755859375,4.454345703125
0.0585,0.530517578125,-5.355224609375,4.134033203125
0.059,1.731689453125,-5.595458984375,3.253173828125
0.0595,2.692626953125,-5.635498046875,2.292236328125
0.06,3.693603515625,-5.635498046875,1.411376953125
0.0605,4.614501953125,-5.675537109375,0.490478515625
0.061,4.654541015625,-4.754638671875,-0.510498046875
0.0615,5.094970703125,-4.634521484375,-1.031005859375
0.062,5.094970703125,-3.353271484375,-2.272216796875
0.0625,5.054931640625,-2.712646484375,-2.872802734375
0.063,5.094970703125,-1.591552734375,-3.993896484375
0.0635,4.734619140625,-0.630615234375,-4.514404296875
0.064,3.853759765625,0.450439453125,-4.674560546875
0.0645,3.413330078125,1.211181640625,-5.034912109375
0.065,2.172119140625,2.492431640625,-5.034912109375
0.0655,1.571533203125,3.133056640625,-5.074951171875
0.066,0.490478515625,4.294189453125,-5.074951171875
0.0665,-0.510498046875,4.494384765625,-4.274169921875
0.067,-1.231201171875,4.934814453125,-3.993896484375
0.0675,-2.512451171875,5.135009765625,-2.912841796875
0.068,-3.473388671875,5.175048828125,-2.072021484375
0.0685,-4.314208984375,5.094970703125,-1.151123046875
0.069,-5.074951171875,4.974853515625,-0.310302734375
0.0695,-5.114990234375,4.134033203125,0.650634765625
0.07,-5.515380859375,3.893798828125,1.211181640625
0.0705,-5.515380859375,2.572509765625,2.532470703125
0.071,-5.435302734375,1.971923828125,3.052978515625
0.0715,-5.435302734375,0.930908203125,4.093994140625
0.072,-4.874755859375,-0.070068359375,4.454345703125
0.0725,-4.234130859375,-1.151123046875,4.774658203125
0.073,-3.553466796875,-2.072021484375,4.974853515625
0.0735,-2.432373046875,-3.353271484375,5.014892578125
0.074,-1.751708984375,-3.833740234375,4.934814453125
0.0745,-0.790771484375,-4.834716796875,4.934814453125
0.075,0.250244140625,-4.994873046875,4.093994140625
0.0755,0.930908203125,-5.435302734375,3.853759765625
0.076,2.332275390625,-5.555419921875,2.612548828125
0.0765,3.133056640625,-5.635498046875,1.931884765625
0.077,3.933837890625,-5.435302734375,0.930908203125
0.0775,4.534423828125,-5.275146484375,0.130126953125
0.078,4.614501953125,-4.394287109375,-0.750732421875
0.0785,4.934814453125,-4.154052734375,-1.311279296875
0.079,4.934814453125,-2.872802734375,-2.592529296875
0.0795,4.814697265625,-2.272216796875,-3.072998046875
0.08,4.814697265625,-1.271240234375,-3.993896484375
0.0805,4.093994140625,-0.310302734375,-4.274169921875
0.081,3.573486328125,0.610595703125,-4.594482421875
0.0815,2.732666015625,1.571533203125,-4.794677734375
0.082,1.891845703125,2.692626953125,-4.834716796875
0.0825,1.131103515625,3.253173828125,-4.714599609375
0.083,0.290283203125,4.093994140625,-4.634521484375
0.0835,-0.670654296875,4.214111328125,-3.833740234375
0.084,-1.351318359375,4.694580078125,-3.673583984375
0.0845,-2.752685546875,4.814697265625,-2.352294921875
0.085,-3.473388671875,4.894775390625,-1.791748046875
0.0855,-4.194091796875,4.694580078125,-0.870849609375
0.086,-4.634521484375,4.414306640625,-0.150146484375
0.0865,-4.794677734375,3.773681640625,0.650634765625
0.087,-5.034912109375,3.293212890625,1.331298828125
0.0875,-5.155029296875,2.252197265625,2.492431640625
0.088,-4.994873046875,1.611572265625,2.892822265625
0.0885,-5.034912109375,0.730712890625,3.813720703125
0.089,-4.154052734375,-0.350341796875,3.933837890625
0.0895,-3.913818359375,-1.151123046875,4.414306640625
0.09,-2.872802734375,-2.232177734375,4.494384765625
0.0905,-2.272216796875,-3.072998046875,4.734619140625
0.091,-1.431396484375,-3.673583984375,4.454345703125
0.0915,-0.670654296875,-4.354248046875,4.334228515625
0.092,0.250244140625,-4.514404296875,3.613525390625
0.0925,0.930908203125,-4.954833984375,3.373291015625
0.093,2.252197265625,-4.994873046875,2.172119140625
0.0935,2.812744140625,-5.114990234375,1.651611328125
0.094,3.533447265625,-4.954833984375,0.810791015625
0.0945,3.813720703125,-4.514404296875,0.130126953125
0.095,4.093994140625,-4.114013671875,-0.590576171875
0.0955,4.174072265625,-3.433349609375,-1.271240234375
0.096,4.414306640625,-2.712646484375,-2.232177734375
0.0965,4.174072265625,-2.031982421875,-2.712646484375
0.097,4.174072265625,-1.311279296875,-3.433349609375
0.0975,3.333251953125,-0.350341796875,-3.593505859375
0.098,3.253173828125,0.370361328125,-4.033935546875
0.0985,2.212158203125,1.531494140625,-4.073974609375
0.099,1.931884765625,2.172119140625,-4.394287109375
0.0995,1.051025390625,2.812744140625,-4.154052734375
0.1,0.410400390625,3.333251953125,-4.033935546875
0.1005,-0.470458984375,3.613525390625,-3.513427734375
0.101,-1.231201171875,4.013916015625,-3.153076171875
0.1015,-2.432373046875,4.214111328125,-2.192138671875
0.102,-2.912841796875,4.254150390625,-1.751708984375
0.1025,-3.593505859375,4.214111328125,-0.990966796875
0.103,-3.833740234375,3.733642578125,-0.310302734375
0.1035,-4.234130859375,3.573486328125,0.290283203125
0.104,-4.314208984375,2.692626953125,1.171142578125
0.1045,-4.634521484375,2.252197265625,1.931884765625
0.105,-4.394287109375,1.411376953125,2.492431640625
0.1055,-4.434326171875,0.770751953125,3.052978515625
0.106,-3.633544921875,-0.190185546875,3.333251953125
0.1065,-3.553466796875,-0.830810546875,3.853759765625
0.107,-2.552490234375,-1.951904296875,3.933837890625
0.1075,-2.232177734375,-2.472412109375,4.134033203125
0.108,-1.471435546875,-3.193115234375,3.973876953125
0.1085,-0.790771484375,-3.553466796875,3.733642578125
0.109,-0.070068359375,-3.953857421875,3.373291015625
0.1095,0.850830078125,-4.194091796875,2.732666015625
0.11,1.811767578125,-4.554443359375,2.172119140625
0.1105,2.292236328125,-4.434326171875,1.571533203125
0.111,2.892822265625,-4.514404296875,1.051025390625
0.1115,3.052978515625,-3.913818359375,0.330322265625
0.112,3.493408203125,-3.873779296875,-0.150146484375
0.1125,3.533447265625,-3.032958984375,-1.111083984375
0.113,3.853759765625,-2.792724609375,-1.631591796875
0.1135,3.693603515625,-1.991943359375,-2.312255859375
0.114,3.533447265625,-1.351318359375,-2.632568359375
0.1145,3.052978515625,-0.470458984375,-3.072998046875
0.115,2.852783203125,0.170166015625,-3.433349609375
0.1155,2.212158203125,1.171142578125,-3.753662109375
0.116,1.851806640625,1.611572265625,-3.833740234375
0.1165,1.211181640625,2.332275390625,-3.873779296875
0.117,0.490478515625,2.652587890625,-3.513427734375
0.1175,-0.190185546875,3.253173828125,-3.393310546875
0.118,-1.191162109375,3.453369140625,-2.592529296875
0.1185,-1.951904296875,3.893798828125,-2.312255859375
0.119,-2.472412109375,3.773681640625,-1.631591796875
0.1195,-2.992919921875,3.853759765625,-1.271240234375
0.12,-3.273193359375,3.373291015625,-0.470458984375
0.1205,-3.713623046875,3.173095703125,0.050048828125
0.121,-3.953857421875,2.492431640625,0.970947265625
0.1215,-4.154052734375,2.172119140625,1.451416015625
0.122,-4.114013671875,1.451416015625,2.212158203125
0.1225,-3.793701171875,0.770751953125,2.532470703125
0.123,-3.513427734375,-0.110107421875,3.133056640625
0.1235,-2.992919921875,-0.910888671875,3.333251953125
0.124,-2.592529296875,-1.711669921875,3.773681640625
0.1245,-2.072021484375,-2.192138671875,3.653564453125
0.125,-1.591552734375,-2.832763671875,3.813720703125
0.1255,-0.750732421875,-3.153076171875,3.253173828125
0.126,-0.150146484375,-3.713623046875,3.173095703125
0.1265,0.970947265625,-3.873779296875,2.372314453125
0.127,1.531494140625,-4.194091796875,2.092041015625
0.1275,2.052001953125,-4.073974609375,1.451416015625
0.128,2.412353515625,-3.993896484375,1.091064453125
0.1285,2.772705078125,-3.753662109375,0.410400390625
0.129,3.012939453125,-3.393310546875,-0.190185546875
0.1295,3.373291015625,-2.952880859375,-0.990966796875
0.13,3.373291015625,-2.472412109375,-1.431396484375
0.1305,3.493408203125,-1.911865234375,-2.072021484375
0.131,3.012939453125,-1.111083984375,-2.392333984375
0.1315,3.052978515625,-0.510498046875,-2.952880859375
0.132,2.372314453125,0.410400390625,-3.193115234375
0.1325,2.252197265625,1.010986328125,-3.673583984375
0.133,1.571533203125,1.571533203125,-3.553466796875
0.1335,1.211181640625,2.092041015625,-3.713623046875
0.134,0.330322265625,2.572509765625,-3.233154296875
0.1345,-0.350341796875,3.052978515625,-3.032958984375
0.135,-1.351318359375,3.413330078125,-2.432373046875
0.1355,-1.871826171875,3.573486328125,-2.112060546875
0.136,-2.512451171875,3.693603515625,-1.591552734375
0.1365,-2.792724609375,3.373291015625,-1.031005859375
0.137,-3.353271484375,3.293212890625,-0.470458984375
0.1375,-3.553466796875,2.692626953125,0.370361328125
0.138,-3.993896484375,2.492431640625,1.091064453125
0.1385,-3.873779296875,1.771728515625,1.611572265625
0.139,-3.993896484375,1.291259765625,2.252197265625
0.1395,-3.393310546875,0.290283203125,2.612548828125
0.14,-3.353271484375,-0.310302734375,3.173095703125
0.1405,-2.672607421875,-1.311279296875,3.493408203125
0.141,-2.432373046875,-1.871826171875,3.693603515625
0.1415,-1.791748046875,-2.512451171875,3.653564453125
0.142,-1.151123046875,-2.912841796875,3.533447265625
0.1425,-0.390380859375,-3.393310546875,3.173095703125
0.143,0.490478515625,-3.793701171875,2.692626953125
0.1435,1.451416015625,-4.194091796875,2.172119140625
0.144,1.891845703125,-4.033935546875,1.571533203125
0.1445,2.452392578125,-4.234130859375,1.171142578125
0.145,2.612548828125,-3.713623046875,0.490478515625
0.1455,3.052978515625,-3.593505859375,-0.070068359375
0.146,3.253173828125,-2.872802734375,-0.950927734375
0.1465,3.573486328125,-2.552490234375,-1.511474609375
0.147,3.333251953125,-1.791748046875,-2.031982421875
0.1475,3.253173828125,-1.271240234375,-2.472412109375
0.148,2.772705078125,-0.350341796875,-2.832763671875
0.1485,2.532470703125,0.290283203125,-3.193115234375
0.149,1.971923828125,1.251220703125,-3.593505859375
0.1495,1.571533203125,1.651611328125,-3.593505859375
0.15,1.010986328125,2.292236328125,-3.673583984375
0.1505,0.290283203125,2.612548828125,-3.233154296875
0.151,-0.470458984375,3.133056640625,-3.032958984375
0.1515,-1.471435546875,3.413330078125,-2.352294921875
0.152,-2.232177734375,3.773681640625,-1.951904296875
0.1525,-2.632568359375,3.493408203125,-1.271240234375
0.153,-3.153076171875,3.613525390625,-0.990966796875
0.1535,-3.393310546875,3.052978515625,-0.150146484375
0.154,-3.713623046875,2.852783203125,0.490478515625
0.1545,-4.033935546875,2.212158203125,1.411376953125
0.155,-4.073974609375,1.731689453125,1.931884765625
0.1555,-3.913818359375,0.930908203125,2.532470703125
0.156,-3.593505859375,0.210205078125,2.932861328125
0.1565,-3.193115234375,-0.630615234375,3.333251953125
0.157,-2.712646484375,-1.471435546875,3.653564453125
0.1575,-2.152099609375,-2.392333984375,3.973876953125
0.158,-1.511474609375,-2.752685546875,3.693603515625
0.1585,-0.990966796875,-3.393310546875,3.813720703125
0.159,-0.070068359375,-3.673583984375,3.173095703125
0.1595,0.690673828125,-4.114013671875,2.852783203125
0.16,1.931884765625,-4.474365234375,1.891845703125
0.1605,2.492431640625,-4.514404296875,1.411376953125
0.161,2.892822265625,-4.194091796875,0.690673828125
0.1615,3.253173828125,-4.033935546875,0.250244140625
0.162,3.453369140625,-3.473388671875,-0.510498046875
0.1625,3.653564453125,-2.952880859375,-1.231201171875
0.163,3.973876953125,-2.272216796875,-2.232177734375
0.1635,3.653564453125,-1.551513671875,-2.592529296875
0.164,3.533447265625,-0.830810546875,-3.193115234375
0.1645,2.892822265625,0.010009765625,-3.353271484375
0.165,2.532470703125,0.770751953125,-3.713623046875
0.1655,1.851806640625,1.731689453125,-3.913818359375
0.166,1.291259765625,2.532470703125,-4.114013671875
0.1665,0.490478515625,2.852783203125,-3.713623046875
0.167,0.010009765625,3.453369140625,-3.713623046875
0.1675,-1.071044921875,3.613525390625,-2.872802734375
0.168,-1.911865234375,3.853759765625,-2.512451171875
0.1685,-3.032958984375,4.214111328125,-1.591552734375
0.169,-3.473388671875,3.973876953125,-0.990966796875
0.1695,-3.913818359375,3.813720703125,-0.310302734375
0.17,-4.194091796875,3.453369140625,0.330322265625
0.1705,-4.354248046875,2.812744140625,1.131103515625
0.171,-4.514404296875,2.092041015625,1.931884765625
0.1715,-4.834716796875,1.451416015625,2.892822265625
0.172,-4.154052734375,0.490478515625,3.213134765625
0.1725,-4.154052734375,-0.230224609375,3.853759765625
0.173,-3.193115234375,-1.271240234375,3.933837890625
0.1735,-2.712646484375,-2.072021484375,4.254150390625
0.174,-1.871826171875,-3.153076171875,4.374267578125
0.1745,-1.151123046875,-3.833740234375,4.334228515625
0.175,-0.350341796875,-4.114013671875,3.853759765625
0.1755,0.330322265625,-4.634521484375,3.693603515625
0.176,1.571533203125,-4.834716796875,2.612548828125
0.1765,2.372314453125,-5.034912109375,2.052001953125
0.177,3.533447265625,-5.235107421875,1.091064453125
0.1775,3.813720703125,-4.674560546875,0.330322265625
0.178,4.174072265625,-4.434326171875,-0.310302734375
0.1785,4.374267578125,-3.753662109375,-1.151123046875
0.179,4.494384765625,-2.912841796875,-2.072021484375
0.1795,4.494384765625,-2.152099609375,-2.832763671875
0.18,4.614501953125,-1.351318359375,-3.753662109375
0.1805,3.693603515625,-0.310302734375,-3.873779296875
0.181,3.573486328125,0.410400390625,-4.354248046875
0.1815,2.412353515625,1.611572265625,-4.434326171875
0.182,1.931884765625,2.372314453125,-4.594482421875
0.1825,0.970947265625,3.373291015625,-4.634521484375
0.183,0.130126953125,3.973876953125,-4.394287109375
0.1835,-0.710693359375,4.174072265625,-3.833740234375
0.184,-1.551513671875,4.614501953125,-3.393310546875
0.1845,-2.872802734375,4.654541015625,-2.232177734375
0.185,-3.553466796875,4.734619140625,-1.591552734375
0.1855,-4.554443359375,4.814697265625,-0.670654296875
0.186,-4.674560546875,4.134033203125,0.170166015625
0.1865,-5.034912109375,3.853759765625,0.770751953125
0.187,-5.195068359375,2.932861328125,1.891845703125
0.1875,-5.275146484375,2.132080078125,2.692626953125
0.188,-5.114990234375,1.251220703125,3.453369140625
