wavelength,x,y,z
0.0,3.8087158203125,14.459106445312,-17.852416992188
0.0005,-0.9959716796875,17.421997070312,-16.370971679688
0.001,-4.2391357421875,19.023559570312,-14.889526367188
0.0015,-6.6815185546875,19.343872070312,-13.047729492188
0.002,-9.3641357421875,19.624145507812,-10.845581054688
0.0025,-13.328002929688,18.623168945312,-6.0809326171875
0.003,-16.330932617188,17.421997070312,-1.9168701171875
0.0035,-18.573120117188,15.980590820312,1.8067626953125
0.004,-19.894409179688,14.298950195312,4.6094970703125
0.0045,-19.534057617188,11.736450195312,7.1719970703125
0.005,-19.574096679688,8.1329345703125,10.535278320312
0.0055,-18.813354492188,4.0089111328125,13.938598632812
0.006,-17.652221679688,-0.3553466796875,17.101684570312
0.0065,-16.010620117188,-3.5584716796875,18.743286132812
0.007,-14.088745117188,-6.0809326171875,19.343872070312
0.0075,-11.326049804688,-8.5633544921875,19.504028320312
0.008,-6.2811279296875,-12.727416992188,18.422973632812
0.0085,-1.9569091796875,-15.690307617188,17.141723632812
0.009,2.2071533203125,-18.132690429688,15.820434570312
0.0095,5.1300048828125,-19.494018554688,14.338989257812
0.01,7.6524658203125,-19.373901367188,12.016723632812
0.0105,10.455200195312,-19.333862304688,9.3341064453125
0.011,14.138793945312,-18.372924804688,4.8897705078125
0.0115,17.221801757812,-16.851440429688,0.4053955078125
0.012,18.863403320312,-15.450073242188,-2.7176513671875
0.0125,19.664184570312,-13.608276367188,-5.2801513671875
0.013,19.584106445312,-10.965698242188,-7.8026123046875
0.0135,19.063598632812,-6.6014404296875,-11.686401367188
0.014,18.182739257812,-2.8377685546875,-14.609252929688
0.0145,17.141723632812,1.0860595703125,-17.411987304688
0.015,15.380004882812,4.2091064453125,-18.853393554688
0.0155,12.937622070312,6.6514892578125,-18.933471679688
0.016,10.094848632812,9.6143798828125,-19.093627929688
0.0165,4.8897705078125,13.498168945312,-17.972534179688
0.017,0.2052001953125,16.501098632812,-16.531127929688
0.0175,-3.1981201171875,18.342895507812,-15.209838867188
0.018,-5.8406982421875,19.463989257812,-13.808471679688
0.0185,-8.4832763671875,19.263793945312,-11.286010742188
0.019,-11.886596679688,18.783325195312,-7.4822998046875
0.0195,-15.089721679688,17.862426757812,-3.5584716796875
0.02,-18.052612304688,16.340942382812,0.8858642578125
0.0205,-19.253784179688,14.739379882812,3.6885986328125
0.021,-19.534057617188,12.497192382812,6.1710205078125
0.0215,-19.654174804688,9.8546142578125,8.9337158203125
0.022,-18.933471679688,5.0098876953125,12.977661132812
0.0225,-17.812377929688,1.0460205078125,15.940551757812
0.023,-16.611206054688,-2.4373779296875,18.142700195312
0.0235,-14.969604492188,-5.2801513671875,19.383911132812
0.024,-12.046752929688,-7.7625732421875,19.183715820312
0.0245,-8.2830810546875,-11.245971679688,18.863403320312
0.025,-3.5184326171875,-14.769409179688,17.742309570312
0.0255,1.3262939453125,-17.732299804688,16.100708007812
0.026,4.2091064453125,-19.013549804688,14.779418945312
0.0265,6.8917236328125,-19.614135742188,13.017700195312
0.027,9.4141845703125,-19.574096679688,10.655395507812
0.0275,13.378051757812,-18.613159179688,5.8907470703125
0.028,16.380981445312,-17.452026367188,1.8067626953125
0.0285,18.783325195312,-16.010620117188,-1.9969482421875
0.029,19.744262695312,-14.248901367188,-4.6795654296875
0.0295,19.664184570312,-11.526245117188,-7.3221435546875
0.03,19.544067382812,-8.3231201171875,-10.405151367188
0.0305,18.743286132812,-3.9188232421875,-14.088745117188
0.031,17.462036132812,0.4454345703125,-17.051635742188
0.0315,15.900512695312,3.4884033203125,-18.573120117188
0.032,14.098754882812,6.2510986328125,-19.494018554688
0.0325,10.975708007812,8.9337158203125,-19.253784179688
0.033,6.0909423828125,12.817504882812,-18.412963867188
0.0335,1.6065673828125,15.980590820312,-17.331909179688
0.034,-2.7977294921875,18.583129882812,-15.770385742188
0.0345,-5.4803466796875,19.504028320312,-14.248901367188
0.035,-8.2030029296875,19.704223632812,-11.886596679688
0.0355,-10.965698242188,19.544067382812,-9.1639404296875
0.036,-14.769409179688,18.382934570312,-4.3592529296875
0.0365,-17.812377929688,16.861450195312,0.1651611328125
0.037,-19.494018554688,15.299926757812,3.3282470703125
0.0375,-20.214721679688,13.378051757812,5.9307861328125
0.038,-19.894409179688,10.375122070312,8.6534423828125
0.0385,-19.373901367188,6.2510986328125,12.216918945312
0.039,-18.533081054688,2.1671142578125,15.460083007812
0.0395,-17.171752929688,-2.1170654296875,18.382934570312
0.04,-15.289916992188,-4.9197998046875,19.343872070312
0.0405,-13.047729492188,-7.5623779296875,19.784301757812
0.041,-9.7244873046875,-10.565307617188,19.544067382812
0.0415,-4.3592529296875,-14.409057617188,18.182739257812
0.042,0.2852783203125,-17.331909179688,16.781372070312
0.0425,3.9288330078125,-19.373901367188,15.380004882812
0.043,6.5714111328125,-20.094604492188,13.698364257812
0.0435,9.3741455078125,-19.854370117188,10.855590820312
0.044,12.617309570312,-19.413940429688,7.3721923828125
0.0445,15.980590820312,-18.212768554688,2.9278564453125
0.045,18.863403320312,-16.531127929688,-1.5965576171875
0.0455,19.864379882812,-14.769409179688,-4.2791748046875
0.046,20.224731445312,-12.527221679688,-6.9217529296875
0.0465,19.904418945312,-9.3641357421875,-9.7645263671875
0.047,19.103637695312,-4.7996826171875,-13.488159179688
0.0475,17.942504882812,-0.7957763671875,-16.451049804688
0.048,16.661254882812,3.0079345703125,-18.853393554688
0.0485,14.539184570312,5.6905517578125,-19.494018554688
0.049,11.696411132812,8.3731689453125,-19.453979492188
0.0495,7.8526611328125,11.776489257812,-19.213745117188
0.05,2.8077392578125,15.420043945312,-17.852416992188
0.0505,-1.9569091796875,18.182739257812,-16.170776367188
0.051,-4.8397216796875,19.504028320312,-14.809448242188
0.0515,-7.4822998046875,20.024536132812,-12.927612304688
0.052,-10.244995117188,19.744262695312,-9.9647216796875
0.0525,-13.848510742188,18.863403320312,-5.7205810546875
0.053,-17.011596679688,17.622192382812,-1.4364013671875
0.0535,-19.494018554688,15.940551757812,2.7276611328125
0.054,-20.134643554688,14.018676757812,5.2100830078125
0.0545,-20.254760742188,11.376098632812,7.9727783203125
0.055,-19.974487304688,7.8526611328125,11.175903320312
0.0555,-18.973510742188,3.3282470703125,14.779418945312
0.056,-17.652221679688,-0.9158935546875,17.622192382812
0.0565,-16.170776367188,-4.1590576171875,19.463989257812
0.057,-14.088745117188,-6.8016357421875,20.104614257812
0.0575,-10.845581054688,-9.6844482421875,19.704223632812
0.058,-6.2811279296875,-13.328002929688,19.023559570312
0.0585,-1.3162841796875,-16.691284179688,17.662231445312
0.059,3.2081298828125,-19.213745117188,15.940551757812
0.0595,5.8106689453125,-20.094604492188,14.379028320312
0.06,8.6534423828125,-20.494995117188,12.176879882812
0.0605,11.816528320312,-20.014526367188,8.6934814453125
0.061,15.299926757812,-18.853393554688,4.2091064453125
0.0615,18.382934570312,-17.371948242188,-0.2752685546875
0.062,20.384887695312,-15.690307617188,-3.8787841796875
0.0625,20.785278320312,-13.328002929688,-6.4012451171875
0.063,20.625122070312,-10.365112304688,-9.4442138671875
0.0635,19.984497070312,-6.2410888671875,-12.887573242188
0.064,18.943481445312,-1.8768310546875,-16.370971679688
0.0645,17.341918945312,2.3673095703125,-18.933471679688
0.065,15.540161132812,5.2901611328125,-20.134643554688
0.0655,13.097778320312,8.0928955078125,-20.575073242188
0.066,9.0137939453125,11.536254882812,-20.014526367188
0.0665,4.2091064453125,15.059692382812,-18.893432617188
0.067,-0.7156982421875,18.222778320312,-17.331909179688
0.0675,-4.7596435546875,20.304809570312,-15.410034179688
0.068,-7.3621826171875,20.625122070312,-13.688354492188
0.0685,-10.244995117188,20.785278320312,-11.125854492188
0.069,-13.808471679688,19.984497070312,-6.9217529296875
0.0695,-17.171752929688,18.583129882812,-2.3172607421875
0.07,-19.894409179688,16.901489257812,2.1270751953125
0.0705,-21.295776367188,15.059692382812,5.2901611328125
0.071,-21.415893554688,12.417114257812,7.9727783203125
0.0715,-21.135620117188,8.8135986328125,11.376098632812
0.072,-20.174682617188,4.4093017578125,14.819458007812
0.0725,-18.933471679688,-0.1551513671875,18.142700195312
0.073,-17.131713867188,-4.1590576171875,20.424926757812
0.0735,-15.009643554688,-6.8817138671875,20.905395507812
0.074,-12.206909179688,-9.6844482421875,21.145629882812
0.0745,-7.4022216796875,-13.528198242188,20.264770507812
0.075,-2.3572998046875,-16.771362304688,18.703247070312
0.0755,2.2872314453125,-19.774291992188,16.981567382812
0.076,5.9708251953125,-21.215698242188,15.380004882812
0.0765,8.6534423828125,-21.295776367188,12.977661132812
0.077,11.576293945312,-21.135620117188,10.054809570312
0.0775,15.380004882812,-20.054565429688,5.4102783203125
0.078,18.663208007812,-18.453002929688,0.6055908203125
0.0785,20.945434570312,-16.571166992188,-3.5584716796875
0.079,21.746215820312,-14.489135742188,-6.3612060546875
0.0795,21.746215820312,-11.606323242188,-9.2840576171875
0.08,21.185668945312,-7.3621826171875,-13.007690429688
0.0805,20.024536132812,-3.0780029296875,-16.130737304688
0.081,18.583129882812,1.4063720703125,-19.213745117188
0.0815,16.661254882812,5.1700439453125,-21.135620117188
0.082,13.858520507812,7.9327392578125,-21.095581054688
0.0825,10.975708007812,10.895629882812,-21.215698242188
0.083,5.6104736328125,15.019653320312,-20.134643554688
0.0835,0.4454345703125,18.262817382812,-18.372924804688
0.084,-3.9188232421875,20.464965820312,-16.611206054688
0.0845,-7.0418701171875,21.666137695312,-14.889526367188
0.085,-9.9246826171875,21.505981445312,-12.166870117188
0.0855,-13.207885742188,20.945434570312,-8.4031982421875
0.086,-16.691284179688,19.784301757812,-3.9588623046875
0.0865,-20.014526367188,17.982543945312,1.1260986328125
0.087,-21.776245117188,15.980590820312,4.8497314453125
0.0875,-22.016479492188,13.498168945312,7.5323486328125
0.088,-22.056518554688,10.535278320312,10.535278320312
0.0885,-21.135620117188,5.5303955078125,14.659301757812
0.089,-19.774291992188,1.1260986328125,17.742309570312
0.0895,-18.212768554688,-3.1180419921875,20.304809570312
0.09,-16.290893554688,-6.4813232421875,21.906372070312
0.0905,-13.127807617188,-9.2440185546875,21.546020507812
0.091,-9.4442138671875,-12.527221679688,21.265747070312
0.0915,-4.1590576171875,-16.330932617188,19.944458007812
0.092,1.3663330078125,-19.614135742188,18.062622070312
0.0925,5.2501220703125,-21.375854492188,16.140747070312
0.093,8.1329345703125,-22.056518554688,14.218872070312
0.0935,11.095825195312,-21.936401367188,11.376098632812
0.094,14.979614257812,-20.895385742188,6.6114501953125
0.0945,18.142700195312,-19.534057617188,2.2071533203125
0.095,21.145629882812,-17.492065429688,-2.5174560546875
0.0955,22.426879882812,-15.650268554688,-5.9207763671875
0.096,22.266723632812,-12.727416992188,-8.6834716796875
0.0965,22.146606445312,-9.4442138671875,-11.886596679688
0.097,21.105590820312,-4.4393310546875,-15.850463867188
0.0975,19.544067382812,0.3653564453125,-19.093627929688
0.098,17.702270507812,4.2091064453125,-21.015502929688
0.0985,15.580200195312,7.3721923828125,-22.136596679688
0.099,12.176879882812,10.295043945312,-21.816284179688
0.0995,7.1719970703125,14.338989257812,-20.935424804688
0.1,2.3673095703125,17.622192382812,-19.614135742188
0.1005,-3.0379638671875,20.705200195312,-17.692260742188
0.101,-6.5213623046875,22.026489257812,-15.730346679688
0.1015,-9.3240966796875,22.066528320312,-13.167846679688
0.102,-12.246948242188,22.066528320312,-10.445190429688
0.1025,-16.451049804688,20.585083007812,-4.9998779296875
0.103,-19.694213867188,18.823364257812,-0.1551513671875
0.1035,-21.856323242188,16.941528320312,3.8887939453125
0.104,-22.857299804688,14.779418945312,7.0518798828125
0.1045,-22.456909179688,11.416137695312,9.9747314453125
0.105,-22.016479492188,7.3721923828125,13.618286132812
0.1055,-20.895385742188,2.7276611328125,17.141723632812
0.106,-19.253784179688,-2.1971435546875,20.464965820312
0.1065,-17.011596679688,-5.7606201171875,21.866333007812
0.107,-14.609252929688,-8.6033935546875,22.346801757812
0.1075,-11.326049804688,-11.606323242188,22.186645507812
0.108,-5.3201904296875,-15.930541992188,20.665161132812
0.1085,-0.3553466796875,-18.973510742188,19.023559570312
0.109,4.3292236328125,-21.495971679688,17.141723632812
0.1095,7.6124267578125,-22.496948242188,15.179809570312
0.11,10.615356445312,-22.176635742188,12.016723632812
0.1105,13.738403320312,-21.856323242188,8.8135986328125
0.111,17.622192382812,-20.454956054688,3.6485595703125
0.1115,20.905395507812,-18.372924804688,-1.6365966796875
0.112,22.426879882812,-16.370971679688,-5.1199951171875
0.1125,22.987426757812,-14.008666992188,-8.0828857421875
0.113,22.546997070312,-10.685424804688,-11.005737304688
0.1135,21.666137695312,-5.7606201171875,-15.209838867188
0.114,20.384887695312,-1.3162841796875,-18.212768554688
0.1145,18.783325195312,3.2481689453125,-21.175659179688
0.115,16.340942382812,6.7315673828125,-22.296752929688
0.1155,13.177856445312,9.6544189453125,-22.136596679688
0.116,9.6544189453125,12.937622070312,-22.056518554688
0.1165,3.6085205078125,17.141723632812,-20.374877929688
0.117,-1.8768310546875,20.304809570312,-18.332885742188
0.1175,-5.6004638671875,22.026489257812,-16.531127929688
0.118,-8.6834716796875,22.787231445312,-14.489135742188
0.1185,-11.846557617188,22.266723632812,-11.045776367188
0.119,-15.410034179688,21.385864257812,-6.7615966796875
0.1195,-18.853393554688,19.904418945312,-2.0369873046875
0.12,-21.936401367188,17.782348632812,3.1680908203125
0.1205,-22.897338867188,15.540161132812,6.3311767578125
0.121,-23.057495117188,12.697387695312,9.3341064453125
0.1215,-22.817260742188,9.2940673828125,12.417114257812
0.122,-21.576049804688,3.8887939453125,16.701293945312
0.1225,-19.894409179688,-0.8358154296875,19.744262695312
0.123,-18.212768554688,-4.7996826171875,22.026489257812
0.1235,-15.890502929688,-8.0028076171875,22.987426757812
0.124,-12.126831054688,-11.045776367188,22.386840820312
0.1245,-7.7625732421875,-14.689331054688,21.826293945312
0.125,-2.0770263671875,-18.453002929688,20.104614257812
0.1255,3.5284423828125,-21.295776367188,17.822387695312
0.126,6.6915283203125,-22.496948242188,15.980590820312
0.1265,9.8546142578125,-23.017456054688,13.578247070312
0.127,12.977661132812,-22.456909179688,10.094848632812
0.1275,16.941528320312,-21.095581054688,4.9298095703125
0.128,20.184692382812,-19.453979492188,0.1651611328125
0.1285,22.747192382812,-17.452026367188,-4.3992919921875
0.129,23.307739257812,-15.009643554688,-7.4022216796875
0.1295,23.067504882812,-11.566284179688,-10.685424804688
0.13,22.587036132812,-7.7225341796875,-14.048706054688
0.1305,21.345825195312,-2.5975341796875,-17.892456054688
0.131,19.383911132812,2.4874267578125,-20.855346679688
0.1315,17.301879882812,5.8907470703125,-22.376831054688
0.132,14.779418945312,9.0137939453125,-23.057495117188
0.1325,10.695434570312,12.296997070312,-22.336791992188
0.133,5.4102783203125,16.260864257812,-21.135620117188
0.1335,0.1251220703125,19.664184570312,-19.534057617188
0.134,-4.9998779296875,22.226684570312,-17.331909179688
0.1345,-7.9627685546875,22.787231445312,-15.129760742188
0.135,-11.165893554688,22.867309570312,-12.286987304688
0.1355,-14.449096679688,22.266723632812,-8.6033935546875
0.136,-18.252807617188,20.625122070312,-3.2381591796875
0.1365,-21.415893554688,18.583129882812,1.8067626953125
0.137,-23.257690429688,16.581176757812,5.6905517578125
0.1375,-23.658081054688,13.898559570312,8.6134033203125
0.138,-23.217651367188,10.174926757812,11.976684570312
0.1385,-22.296752929688,5.5704345703125,15.660278320312
0.139,-20.935424804688,0.8057861328125,19.143676757812
0.1395,-18.933471679688,-4.0389404296875,22.026489257812
0.14,-16.571166992188,-7.1619873046875,22.787231445312
0.1405,-13.808471679688,-10.204956054688,23.107543945312
0.141,-9.3240966796875,-13.728393554688,22.346801757812
0.1415,-3.5985107421875,-17.572143554688,20.625122070312
0.142,1.6466064453125,-20.575073242188,18.783325195312
0.1425,6.0108642578125,-22.657104492188,16.781372070312
0.143,8.8936767578125,-23.017456054688,14.379028320312
0.1435,12.136840820312,-22.777221679688,11.175903320312
0.144,15.700317382812,-21.896362304688,6.8917236328125
0.1445,19.263793945312,-20.214721679688,1.8468017578125
0.145,22.106567382812,-18.332885742188,-3.2781982421875
0.1455,23.227661132812,-15.970581054688,-6.4012451171875
0.146,23.467895507812,-13.087768554688,-9.4442138671875
0.1465,23.027465820312,-8.9237060546875,-12.927612304688
0.147,21.706176757812,-4.1590576171875,-16.651245117188
0.1475,20.224731445312,0.4854736328125,-19.814331054688
0.148,18.262817382812,4.8897705078125,-22.296752929688
0.1485,15.500122070312,7.8526611328125,-22.617065429688
0.149,12.377075195312,10.975708007812,-22.617065429688
0.1495,7.5323486328125,14.859497070312,-21.816284179688
0.15,1.9268798828125,18.503051757812,-20.014526367188
0.1505,-3.1981201171875,21.185668945312,-17.972534179688
0.151,-6.7615966796875,22.707153320312,-16.170776367188
0.1515,-9.7244873046875,22.867309570312,-13.608276367188
0.152,-12.967651367188,22.346801757812,-10.044799804688
0.1525,-16.691284179688,21.145629882812,-5.3602294921875
0.153,-20.134643554688,19.423950195312,-0.2752685546875
0.1535,-22.657104492188,17.301879882812,4.3292236328125
0.154,-23.177612304688,14.939575195312,7.1719970703125
0.1545,-23.257690429688,11.816528320312,10.375122070312
0.155,-22.577026367188,7.3721923828125,14.258911132812
0.1555,-21.215698242188,2.5274658203125,17.742309570312
0.156,-19.534057617188,-2.1170654296875,20.625122070312
0.1565,-17.612182617188,-5.9608154296875,22.667114257812
0.157,-14.729370117188,-8.8436279296875,22.707153320312
0.1575,-11.125854492188,-12.046752929688,22.346801757812
0.158,-5.9207763671875,-15.970581054688,21.265747070312
0.1585,-0.2752685546875,-19.453979492188,19.343872070312
0.159,4.4893798828125,-21.776245117188,17.221801757812
0.1595,7.5323486328125,-22.697143554688,15.380004882812
0.16,10.695434570312,-22.817260742188,12.577270507812
0.1605,14.218872070312,-22.056518554688,8.4532470703125
0.161,17.702270507812,-20.695190429688,3.8087158203125
0.1615,20.985473632812,-18.933471679688,-1.3162841796875
0.162,22.987426757812,-16.731323242188,-5.4002685546875
0.1625,23.107543945312,-14.048706054688,-8.1629638671875
0.163,23.067504882812,-10.765502929688,-11.406127929688
0.1635,22.146606445312,-5.8807373046875,-15.410034179688
0.164,20.785278320312,-1.1561279296875,-18.733276367188
0.1645,18.823364257812,3.2481689453125,-21.175659179688
0.165,16.741333007812,6.6915283203125,-22.577026367188
0.1655,13.618286132812,9.7344970703125,-22.577026367188
0.166,8.9737548828125,13.257934570312,-21.896362304688
0.1665,4.0889892578125,16.901489257812,-20.575073242188
0.167,-1.4764404296875,20.304809570312,-18.693237304688
0.1675,-5.7205810546875,22.186645507812,-16.611206054688
0.168,-8.4432373046875,22.466918945312,-14.409057617188
0.1685,-11.566284179688,22.546997070312,-11.606323242188
0.169,-15.530151367188,21.385864257812,-6.6815185546875
0.1695,-18.773315429688,19.784301757812,-1.9969482421875
0.17,-21.576049804688,17.942504882812,2.7276611328125
0.1705,-23.057495117188,15.820434570312,6.2510986328125
0.171,-22.937377929688,12.817504882812,9.0938720703125
0.1715,-22.657104492188,9.0538330078125,12.537231445312
0.172,-21.536010742188,4.3292236328125,16.260864257812
0.1725,-20.094604492188,-0.5955810546875,19.664184570312
0.173,-17.972534179688,-4.6395263671875,21.666137695312
0.1735,-15.730346679688,-7.5223388671875,22.346801757812
0.174,-12.647338867188,-10.525268554688,22.426879882812
0.1745,-7.3621826171875,-14.529174804688,21.265747070312
0.175,-2.4373779296875,-17.652221679688,19.664184570312
0.1755,2.6075439453125,-20.535034179688,17.822387695312
0.176,6.3712158203125,-22.176635742188,15.940551757812
0.1765,9.0938720703125,-22.096557617188,13.338012695312
0.177,12.096801757812,-22.056518554688,10.495239257812
0.1775,16.060668945312,-20.855346679688,5.4503173828125
0.178,19.343872070312,-18.973510742188,0.5655517578125
