wavelength,x,y,z
0.0,-2.642578125,-1.921875,3.9638671875
0.0005,-1.9619140625,-2.8828125,4.083984375
0.001,-1.28125,-3.203125,3.763671875
0.0015,-0.6005859375,-3.8037109375,3.603515625
0.002,0.2802734375,-4.0439453125,3.0830078125
0.0025,1.201171875,-4.3642578125,2.5224609375
0.003,1.9619140625,-4.6044921875,1.9619140625
0.0035,2.7626953125,-4.724609375,1.3212890625
0.004,3.0029296875,-4.1240234375,0.560546875
0.0045,3.4833984375,-4.1240234375,0.0400390625
0.005,3.5634765625,-3.283203125,-0.8408203125
0.0055,3.84375,-2.9228515625,-1.44140625
0.006,3.9638671875,-2.2021484375,-2.322265625
0.0065,3.8037109375,-1.5615234375,-2.7626953125
0.007,3.3232421875,-0.5205078125,-3.2431640625
0.0075,2.962890625,0.240234375,-3.6435546875
0.008,2.2021484375,1.28125,-3.8837890625
0.0085,1.8818359375,1.841796875,-4.1640625
0.009,1.12109375,2.6826171875,-4.244140625
0.0095,0.2802734375,2.962890625,-3.7236328125
0.01,-0.3203125,3.5634765625,-3.603515625
0.0105,-1.4013671875,3.84375,-2.7626953125
0.011,-2.2021484375,4.0439453125,-2.2822265625
0.0115,-2.9228515625,4.1640625,-1.6416015625
0.012,-3.5634765625,4.1240234375,-1.0009765625
0.0125,-3.7236328125,3.4833984375,-0.2001953125
0.013,-4.1640625,3.4033203125,0.3203125
0.0135,-4.244140625,2.482421875,1.3212890625
0.014,-4.484375,2.162109375,1.841796875
0.0145,-4.564453125,1.3212890625,2.72265625
0.015,-4.1240234375,0.5205078125,3.0830078125
0.0155,-3.763671875,-0.48046875,3.6435546875
0.016,-3.1630859375,-1.361328125,3.8837890625
0.0165,-2.482421875,-2.40234375,4.1240234375
0.017,-1.9619140625,-2.962890625,4.244140625
0.0175,-1.2412109375,-3.763671875,4.2041015625
0.018,-0.3203125,-3.923828125,3.5634765625
0.0185,0.2802734375,-4.484375,3.4833984375
0.019,1.5615234375,-4.6845703125,2.482421875
0.0195,2.2021484375,-4.9248046875,2.0419921875
0.02,3.0029296875,-4.884765625,1.28125
0.0205,3.4833984375,-4.64453125,0.6005859375
0.021,3.68359375,-4.0439453125,-0.240234375
0.0215,4.00390625,-3.763671875,-0.8408203125
0.022,4.1240234375,-2.7626953125,-1.9619140625
0.0225,4.1640625,-2.40234375,-2.322265625
0.023,4.244140625,-1.5615234375,-3.203125
0.0235,3.5634765625,-0.6005859375,-3.5634765625
0.024,3.2431640625,0.3203125,-4.00390625
0.0245,2.40234375,1.361328125,-4.244140625
0.025,1.8017578125,2.2421875,-4.5244140625
0.0255,1.2412109375,2.802734375,-4.484375
0.026,0.3603515625,3.5634765625,-4.2841796875
0.0265,-0.6005859375,3.763671875,-3.5634765625
0.027,-1.28125,4.2841796875,-3.36328125
0.0275,-2.6826171875,4.484375,-2.2021484375
0.028,-3.1630859375,4.5244140625,-1.8017578125
0.0285,-3.8837890625,4.4443359375,-0.9208984375
0.029,-4.2841796875,4.00390625,-0.16015625
0.0295,-4.484375,3.443359375,0.6005859375
0.03,-4.7646484375,2.8828125,1.4013671875
0.0305,-4.9248046875,1.9619140625,2.482421875
0.031,-4.7646484375,1.44140625,2.802734375
0.0315,-4.7646484375,0.560546875,3.68359375
0.032,-3.8837890625,-0.6005859375,3.8837890625
0.0325,-3.5634765625,-1.44140625,4.32421875
0.033,-2.5224609375,-2.72265625,4.484375
0.0335,-1.9619140625,-3.443359375,4.64453125
0.034,-1.1611328125,-3.8837890625,4.3642578125
0.0345,-0.3203125,-4.5244140625,4.1240234375
0.035,0.640625,-4.6845703125,3.36328125
0.0355,1.44140625,-5.125,3.04296875
0.036,2.802734375,-5.28515625,1.8017578125
0.0365,3.1630859375,-5.1650390625,1.361328125
0.037,3.84375,-4.96484375,0.48046875
0.0375,4.1240234375,-4.3642578125,-0.3603515625
0.038,4.2841796875,-3.8037109375,-1.0810546875
0.0385,4.484375,-3.0830078125,-1.9619140625
0.039,4.6044921875,-2.2822265625,-2.8828125
0.0395,4.32421875,-1.6015625,-3.203125
0.04,4.2041015625,-0.6806640625,-4.00390625
0.0405,3.203125,0.4404296875,-4.1640625
0.041,2.8828125,1.2412109375,-4.564453125
0.0415,1.8017578125,2.482421875,-4.724609375
0.042,1.3212890625,3.123046875,-4.8046875
0.0425,0.400390625,3.603515625,-4.3642578125
0.043,-0.48046875,4.2041015625,-4.1240234375
0.0435,-1.4013671875,4.32421875,-3.2431640625
0.044,-2.2822265625,4.724609375,-2.8427734375
0.0445,-3.5634765625,4.884765625,-1.7216796875
0.045,-3.8837890625,4.6044921875,-1.1611328125
0.0455,-4.5244140625,4.404296875,-0.2802734375
0.046,-4.8046875,3.763671875,0.6005859375
0.0465,-4.96484375,3.1630859375,1.28125
0.047,-5.125,2.2822265625,2.322265625
0.0475,-5.28515625,1.6015625,3.1630859375
0.048,-4.724609375,0.6806640625,3.4833984375
0.0485,-4.6044921875,-0.2802734375,4.2841796875
0.049,-3.5234375,-1.521484375,4.3642578125
0.0495,-3.1630859375,-2.2822265625,4.724609375
0.05,-2.001953125,-3.5634765625,4.8447265625
0.0505,-1.44140625,-4.00390625,4.7646484375
0.051,-0.400390625,-4.5244140625,4.2041015625
0.0515,0.4404296875,-5.0048828125,3.8837890625
0.052,1.361328125,-5.044921875,3.0029296875
0.0525,2.2822265625,-5.365234375,2.40234375
0.053,3.4833984375,-5.4853515625,1.4013671875
0.0535,3.68359375,-4.96484375,0.640625
0.054,4.32421875,-4.7646484375,-0.16015625
0.0545,4.32421875,-3.8837890625,-1.0009765625
0.055,4.484375,-3.443359375,-1.6416015625
0.0555,4.5244140625,-2.4423828125,-2.642578125
0.056,4.6044921875,-1.8818359375,-3.2431640625
0.0565,3.9638671875,-0.9208984375,-3.603515625
0.057,3.84375,-0.080078125,-4.244140625
0.0575,2.72265625,1.041015625,-4.244140625
0.058,2.4423828125,1.76171875,-4.6044921875
0.0585,1.4013671875,2.962890625,-4.724609375
0.059,0.9208984375,3.2431640625,-4.5244140625
0.0595,-0.1201171875,3.84375,-4.1240234375
0.06,-0.9208984375,4.2041015625,-3.68359375
0.0605,-1.8017578125,4.404296875,-3.0029296875
0.061,-2.7626953125,4.64453125,-2.2822265625
0.0615,-3.763671875,4.8447265625,-1.4814453125
0.062,-3.9638671875,4.2841796875,-0.720703125
0.0625,-4.64453125,4.1640625,0.0
0.063,-4.64453125,3.3232421875,0.9208984375
0.0635,-4.96484375,2.9228515625,1.5615234375
0.064,-5.0849609375,1.9619140625,2.6025390625
0.0645,-5.0849609375,1.3212890625,3.1630859375
0.065,-4.4443359375,0.2001953125,3.6435546875
0.0655,-4.2041015625,-0.720703125,4.244140625
0.066,-3.203125,-1.8017578125,4.32421875
0.0665,-2.7626953125,-2.5625,4.6845703125
0.067,-1.8017578125,-3.7236328125,4.8447265625
0.0675,-1.0009765625,-4.00390625,4.32421875
0.068,-0.1201171875,-4.6044921875,4.0439453125
0.0685,0.7607421875,-4.8447265625,3.36328125
0.069,1.6416015625,-5.044921875,2.72265625
0.0695,2.642578125,-5.205078125,1.921875
0.07,3.5234375,-5.28515625,1.12109375
0.0705,3.68359375,-4.5244140625,0.2802734375
0.071,4.1640625,-4.4443359375,-0.3603515625
0.0715,4.083984375,-3.443359375,-1.2412109375
0.072,4.2841796875,-3.04296875,-1.8017578125
0.0725,4.404296875,-2.162109375,-2.8427734375
0.073,4.1240234375,-1.5615234375,-3.1630859375
0.0735,3.603515625,-0.5205078125,-3.7236328125
0.074,3.1630859375,0.3603515625,-4.00390625
0.0745,2.40234375,1.28125,-4.1240234375
0.075,1.921875,1.9619140625,-4.3642578125
0.0755,1.28125,2.8828125,-4.5244140625
0.076,0.48046875,3.0830078125,-3.8837890625
0.0765,-0.2001953125,3.7236328125,-3.84375
0.077,-1.1611328125,3.8037109375,-3.0830078125
0.0775,-1.8818359375,4.2041015625,-2.72265625
0.078,-2.8427734375,4.32421875,-1.921875
0.0785,-3.4033203125,4.32421875,-1.3212890625
0.079,-3.7236328125,3.8037109375,-0.5205078125
0.0795,-4.1640625,3.68359375,0.0
0.08,-4.2841796875,2.9228515625,0.9609375
0.0805,-4.5244140625,2.5224609375,1.4814453125
0.081,-4.7646484375,1.76171875,2.40234375
0.0815,-4.3642578125,1.12109375,2.72265625
0.082,-4.1640625,0.1201171875,3.4833984375
0.0825,-3.5234375,-0.8408203125,3.763671875
0.083,-3.04296875,-1.7216796875,4.1240234375
0.0835,-2.4423828125,-2.5224609375,4.32421875
0.084,-1.8017578125,-3.283203125,4.4443359375
0.0845,-0.9208984375,-3.5634765625,3.8037109375
0.085,-0.2802734375,-4.244140625,3.84375
0.0855,0.80078125,-4.3642578125,2.8828125
0.086,1.521484375,-4.7646484375,2.5625
0.0865,2.5224609375,-4.884765625,1.7216796875
0.087,2.9228515625,-4.6845703125,1.12109375
0.0875,3.3232421875,-4.2041015625,0.2802734375
0.088,3.603515625,-3.923828125,-0.3203125
0.0885,3.763671875,-3.2431640625,-1.1611328125
0.089,3.8837890625,-2.8427734375,-1.7216796875
0.0895,4.1240234375,-2.1220703125,-2.5625
0.09,3.5234375,-1.28125,-2.802734375
0.0905,3.443359375,-0.4404296875,-3.4833984375
0.091,2.5625,0.5205078125,-3.5634765625
0.0915,2.2822265625,1.2412109375,-3.923828125
0.092,1.681640625,2.001953125,-4.0439453125
0.0925,1.12109375,2.5224609375,-4.00390625
0.093,0.2802734375,2.8427734375,-3.5634765625
0.0935,-0.3203125,3.36328125,-3.443359375
0.094,-1.28125,3.5634765625,-2.642578125
0.0945,-1.921875,3.8837890625,-2.40234375
0.095,-2.7626953125,4.0439453125,-1.681640625
0.0955,-3.0029296875,3.68359375,-1.12109375
0.096,-3.5634765625,3.5634765625,-0.48046875
0.0965,-3.7236328125,3.04296875,0.1201171875
0.097,-4.0439453125,2.642578125,0.880859375
0.0975,-4.1240234375,2.162109375,1.5615234375
0.098,-4.3642578125,1.681640625,2.162109375
0.0985,-3.763671875,0.720703125,2.5625
0.099,-3.84375,0.0,3.2431640625
0.0995,-2.962890625,-1.041015625,3.443359375
0.1,-2.8828125,-1.6416015625,3.923828125
0.1005,-2.162109375,-2.5224609375,4.0439453125
0.101,-1.6416015625,-2.8828125,3.84375
0.1015,-0.80078125,-3.4833984375,3.603515625
0.102,-0.080078125,-3.8837890625,3.283203125
0.1025,0.880859375,-4.1640625,2.642578125
0.103,1.5615234375,-4.5244140625,2.2822265625
0.1035,2.3623046875,-4.64453125,1.6015625
0.104,2.6025390625,-4.1240234375,0.9208984375
0.1045,3.1630859375,-4.1640625,0.3203125
0.105,3.283203125,-3.4833984375,-0.5205078125
0.1055,3.68359375,-3.1630859375,-1.0810546875
0.106,3.68359375,-2.4423828125,-1.8017578125
0.1065,3.7236328125,-1.9619140625,-2.322265625
0.107,3.1630859375,-0.9208984375,-2.7626953125
0.1075,3.04296875,-0.2802734375,-3.283203125
0.108,2.2822265625,0.7607421875,-3.5234375
0.1085,2.162109375,1.3212890625,-3.8837890625
0.109,1.4814453125,2.08203125,-3.9638671875
0.1095,0.7607421875,2.4423828125,-3.5634765625
0.11,0.16015625,2.962890625,-3.4833984375
0.1105,-0.80078125,3.283203125,-2.8828125
0.111,-1.5615234375,3.603515625,-2.4423828125
0.1115,-2.2021484375,3.8037109375,-1.9619140625
0.112,-2.7626953125,3.84375,-1.44140625
0.1125,-3.04296875,3.2431640625,-0.7607421875
0.113,-3.5234375,3.3232421875,-0.3203125
0.1135,-3.6435546875,2.6025390625,0.6005859375
0.114,-4.00390625,2.4423828125,1.12109375
0.1145,-4.1240234375,1.76171875,1.8818359375
0.115,-3.8837890625,1.12109375,2.2421875
0.1155,-3.603515625,0.2001953125,2.8427734375
0.116,-3.2431640625,-0.6005859375,3.2431640625
0.1165,-2.72265625,-1.4814453125,3.5634765625
0.117,-2.4423828125,-2.0419921875,3.84375
0.1175,-1.8017578125,-2.7626953125,3.8837890625
0.118,-1.041015625,-3.0830078125,3.443359375
0.1185,-0.48046875,-3.68359375,3.443359375
0.119,0.6005859375,-3.923828125,2.6826171875
0.1195,1.28125,-4.3642578125,2.4423828125
0.12,2.0419921875,-4.404296875,1.76171875
0.1205,2.482421875,-4.3642578125,1.2412109375
0.121,2.802734375,-3.923828125,0.48046875
0.1215,3.203125,-3.7236328125,0.0
0.122,3.4033203125,-3.04296875,-0.9208984375
0.1225,3.68359375,-2.802734375,-1.4013671875
0.123,3.763671875,-2.08203125,-2.2021484375
0.1235,3.3232421875,-1.28125,-2.5625
0.124,3.123046875,-0.48046875,-3.123046875
0.1245,2.5224609375,0.4404296875,-3.4033203125
0.125,2.162109375,1.2412109375,-3.8037109375
0.1255,1.7216796875,1.8017578125,-3.8837890625
0.126,1.041015625,2.40234375,-3.84375
0.1265,0.2802734375,2.72265625,-3.4033203125
0.127,-0.400390625,3.3232421875,-3.283203125
0.1275,-1.521484375,3.5234375,-2.4423828125
0.128,-2.0419921875,3.84375,-2.2421875
0.1285,-2.7626953125,3.84375,-1.5615234375
0.129,-3.123046875,3.5234375,-0.9609375
0.1295,-3.4833984375,3.3232421875,-0.2802734375
0.13,-3.763671875,2.8828125,0.400390625
0.1305,-4.0439453125,2.322265625,1.2412109375
0.131,-4.083984375,1.921875,1.76171875
0.1315,-4.2041015625,1.2412109375,2.4423828125
0.132,-3.5634765625,0.2802734375,2.802734375
0.1325,-3.4833984375,-0.5205078125,3.36328125
0.133,-2.642578125,-1.5615234375,3.5634765625
0.1335,-2.4423828125,-2.1220703125,3.9638671875
0.134,-1.76171875,-2.7626953125,3.84375
0.1345,-1.0810546875,-3.283203125,3.68359375
0.135,-0.3203125,-3.603515625,3.2431640625
0.1355,0.48046875,-4.1240234375,3.0029296875
0.136,1.5615234375,-4.3642578125,2.162109375
0.1365,1.9619140625,-4.5244140625,1.8818359375
0.137,2.6826171875,-4.5244140625,1.12109375
0.1375,3.0029296875,-4.00390625,0.48046875
0.138,3.3232421875,-3.763671875,-0.16015625
0.1385,3.5234375,-3.0830078125,-1.0009765625
0.139,3.84375,-2.72265625,-1.6416015625
0.1395,3.7236328125,-2.08203125,-2.2021484375
0.14,3.763671875,-1.4013671875,-2.8828125
0.1405,3.0029296875,-0.3203125,-3.1630859375
0.141,2.8427734375,0.3603515625,-3.68359375
0.1415,1.9619140625,1.521484375,-3.8837890625
0.142,1.8017578125,1.9619140625,-4.1640625
0.1425,0.9609375,2.6025390625,-3.9638671875
0.143,0.240234375,3.123046875,-3.7236328125
0.1435,-0.6005859375,3.4033203125,-3.203125
0.144,-1.521484375,3.84375,-2.7626953125
0.1445,-2.5224609375,4.083984375,-2.001953125
0.145,-2.8828125,3.9638671875,-1.5615234375
0.1455,-3.5634765625,3.9638671875,-0.80078125
0.146,-3.763671875,3.36328125,0.0
0.1465,-4.1240234375,3.1630859375,0.560546875
0.147,-4.2841796875,2.2421875,1.5615234375
0.1475,-4.5244140625,1.921875,2.1220703125
0.148,-4.2041015625,1.0810546875,2.642578125
0.1485,-4.083984375,0.2802734375,3.2431640625
0.149,-3.283203125,-0.80078125,3.5234375
0.1495,-3.0830078125,-1.5615234375,3.9638671875
0.15,-2.1220703125,-2.642578125,4.1240234375
0.1505,-1.76171875,-3.04296875,4.1240234375
0.151,-0.9208984375,-3.68359375,3.8837890625
0.1515,-0.16015625,-4.00390625,3.5234375
0.152,0.560546875,-4.3642578125,3.123046875
0.1525,1.7216796875,-4.6845703125,2.2822265625
0.153,2.5625,-4.9248046875,1.6416015625
0.1535,2.9228515625,-4.5244140625,1.0009765625
0.154,3.5234375,-4.4443359375,0.3203125
0.1545,3.5634765625,-3.68359375,-0.48046875
0.155,3.8837890625,-3.4833984375,-1.0009765625
0.1555,4.0439453125,-2.5224609375,-2.08203125
0.156,4.1240234375,-2.1220703125,-2.5224609375
0.1565,3.8037109375,-1.201171875,-3.123046875
0.157,3.5234375,-0.3603515625,-3.603515625
0.1575,2.72265625,0.640625,-3.8037109375
0.158,2.3623046875,1.44140625,-4.2041015625
0.1585,1.5615234375,2.5224609375,-4.4443359375
0.159,1.0009765625,2.8427734375,-4.2041015625
0.1595,0.1201171875,3.5234375,-4.00390625
0.16,-0.80078125,3.8037109375,-3.3232421875
0.1605,-1.4814453125,4.083984375,-3.04296875
0.161,-2.72265625,4.3642578125,-2.1220703125
0.1615,-3.443359375,4.5244140625,-1.4814453125
0.162,-3.8037109375,4.00390625,-0.6806640625
0.1625,-4.3642578125,3.923828125,0.0
0.163,-4.3642578125,3.1630859375,0.880859375
0.1635,-4.6845703125,2.7626953125,1.521484375
0.164,-4.884765625,1.76171875,2.6025390625
0.1645,-4.6845703125,1.201171875,3.0029296875
0.165,-4.32421875,0.16015625,3.6435546875
0.1655,-3.84375,-0.80078125,4.0439453125
0.166,-3.0830078125,-1.8017578125,4.2041015625
0.1665,-2.482421875,-2.642578125,4.484375
0.167,-1.6416015625,-3.7236328125,4.6845703125
0.1675,-0.80078125,-3.9638671875,4.083984375
0.168,-0.0400390625,-4.5244140625,4.083984375
0.1685,0.880859375,-4.7646484375,3.1630859375
0.169,1.681640625,-5.125,2.6826171875
0.1695,2.8828125,-5.205078125,1.7216796875
0.17,3.5634765625,-5.1650390625,1.0009765625
0.1705,3.84375,-4.5244140625,0.080078125
0.171,4.2841796875,-4.3642578125,-0.5205078125
0.1715,4.2041015625,-3.36328125,-1.44140625
0.172,4.404296875,-2.8828125,-2.08203125
0.1725,4.6044921875,-1.9619140625,-3.1630859375
0.173,4.1240234375,-1.2412109375,-3.443359375
0.1735,3.8037109375,-0.2001953125,-4.0439453125
0.174,3.0830078125,0.7607421875,-4.244140625
0.1745,2.40234375,1.6015625,-4.4443359375
0.175,1.7216796875,2.5224609375,-4.64453125
0.1755,0.9609375,3.443359375,-4.7646484375
0.176,0.080078125,3.6435546875,-4.0439453125
0.1765,-0.640625,4.244140625,-4.00390625
0.177,-1.6416015625,4.32421875,-3.123046875
0.1775,-2.482421875,4.64453125,-2.5224609375
0.178,-3.68359375,4.8046875,-1.5615234375
0.1785,-4.1640625,4.564453125,-0.80078125
0.179,-4.5244140625,3.9638671875,0.1201171875
0.1795,-4.8447265625,3.68359375,0.7607421875
0.18,-4.9248046875,2.7626953125,1.6416015625
0.1805,-5.044921875,2.2021484375,2.3623046875
0.181,-5.2451171875,1.3212890625,3.4033203125
0.1815,-4.564453125,0.3603515625,3.68359375
0.182,-4.2841796875,-0.640625,4.32421875
0.1825,-3.4033203125,-1.681640625,4.484375
0.183,-2.7626953125,-2.6025390625,4.724609375
0.1835,-1.9619140625,-3.5634765625,4.8046875
0.184,-1.041015625,-4.3642578125,4.8046875
0.1845,-0.080078125,-4.6044921875,3.923828125
0.185,0.6806640625,-5.205078125,3.7236328125
0.1855,1.921875,-5.2451171875,2.642578125
0.186,2.5625,-5.4453125,2.2021484375
0.1865,3.68359375,-5.4853515625,1.201171875
0.187,4.083984375,-5.044921875,0.3603515625
0.1875,4.3642578125,-4.4443359375,-0.5205078125
0.188,4.6044921875,-3.9638671875,-1.201171875
0.1885,4.6044921875,-2.962890625,-2.2021484375
0.189,4.6044921875,-2.40234375,-2.7626953125
0.1895,4.724609375,-1.4814453125,-3.7236328125
0.19,3.84375,-0.3603515625,-3.923828125
0.1905,3.603515625,0.4404296875,-4.484375
0.191,2.5224609375,1.5615234375,-4.5244140625
0.1915,2.001953125,2.3623046875,-4.6845703125
0.192,1.2412109375,3.123046875,-4.8046875
0.1925,0.3603515625,3.8037109375,-4.5244140625
0.193,-0.640625,3.84375,-3.8037109375
0.1935,-1.28125,4.484375,-3.5634765625
0.194,-2.5625,4.564453125,-2.40234375
0.1945,-3.04296875,4.6845703125,-2.08203125
0.195,-4.0439453125,4.7646484375,-1.12109375
0.1955,-4.244140625,4.1240234375,-0.3203125
0.196,-4.6845703125,3.84375,0.400390625
0.1965,-4.8447265625,3.1630859375,1.2412109375
0.197,-5.0048828125,2.40234375,2.08203125
0.1975,-4.96484375,1.76171875,2.6826171875
0.198,-5.044921875,1.0009765625,3.5234375
0.1985,-4.1640625,-0.240234375,3.8037109375
0.199,-4.0439453125,-1.0009765625,4.4443359375
0.1995,-2.8828125,-2.2421875,4.484375
0.2,-2.5625,-2.962890625,4.724609375
0.2005,-1.6015625,-3.84375,4.6845703125
0.201,-0.80078125,-4.4443359375,4.404296875
0.2015,0.16015625,-4.64453125,3.8037109375
0.202,1.041015625,-5.125,3.4033203125
0.2025,2.322265625,-5.28515625,2.2822265625
0.203,2.802734375,-5.28515625,1.921875
0.2035,3.763671875,-5.28515625,0.9208984375
0.204,3.923828125,-4.564453125,0.0400390625
0.2045,4.32421875,-4.244140625,-0.640625
0.205,4.4443359375,-3.36328125,-1.6416015625
0.2055,4.5244140625,-2.72265625,-2.40234375
0.206,4.4443359375,-1.9619140625,-2.962890625
0.2065,4.32421875,-1.1611328125,-3.7236328125
0.207,3.36328125,0.0400390625,-3.8837890625
0.2075,3.1630859375,0.7607421875,-4.3642578125
0.208,1.9619140625,1.9619140625,-4.4443359375
0.2085,1.76171875,2.4423828125,-4.6044921875
0.209,0.80078125,3.2431640625,-4.484375
0.2095,-0.080078125,3.6435546875,-3.923828125
0.21,-0.80078125,3.9638671875,-3.4833984375
0.2105,-1.8017578125,4.2841796875,-2.8828125
0.211,-2.72265625,4.4443359375,-2.0419921875
0.2115,-3.1630859375,4.32421875,-1.6015625
0.212,-3.8837890625,4.32421875,-0.8408203125
0.2125,-4.00390625,3.5634765625,0.0
0.213,-4.3642578125,3.4833984375,0.48046875
0.2135,-4.4443359375,2.482421875,1.4814453125
0.214,-4.6845703125,2.2021484375,1.9619140625
0.2145,-4.564453125,1.361328125,2.6826171875
0.215,-4.3642578125,0.640625,3.1630859375
0.2155,-3.7236328125,-0.48046875,3.5634765625
0.216,-3.4833984375,-1.2412109375,4.00390625
0.2165,-2.5625,-2.3623046875,4.2041015625
0.217,-2.2822265625,-2.802734375,4.32421875
0.2175,-1.4013671875,-3.5634765625,4.2841796875
0.218,-0.6005859375,-3.84375,3.7236328125
0.2185,0.16015625,-4.3642578125,3.5234375
0.219,1.28125,-4.64453125,2.72265625
0.2195,2.001953125,-4.9248046875,2.2421875
0.22,2.6025390625,-4.8447265625,1.5615234375
0.2205,3.2431640625,-4.7646484375,0.9208984375
0.221,3.443359375,-4.0439453125,0.0400390625
0.2215,3.84375,-3.923828125,-0.5205078125
0.222,3.9638671875,-2.9228515625,-1.5615234375
0.2225,4.1240234375,-2.72265625,-2.001953125
0.223,4.0439453125,-1.8017578125,-2.7626953125
0.2235,3.68359375,-1.0009765625,-3.203125
0.224,3.0830078125,0.0,-3.603515625
0.2245,2.642578125,0.80078125,-3.923828125
0.225,1.9619140625,1.76171875,-4.2041015625
0.2255,1.5615234375,2.2421875,-4.2041015625
0.226,0.7607421875,2.9228515625,-4.0439453125
0.2265,-0.1201171875,3.203125,-3.4833984375
0.227,-0.7607421875,3.68359375,-3.283203125
