wavelength,x,y,z
0.0,23.227661132812,-15.410034179688,-7.8426513671875
0.0005,24.068481445312,-11.646362304688,-12.567260742188
0.001,23.027465820312,-7.9227294921875,-15.329956054688
0.0015,22.386840820312,-3.9188232421875,-18.733276367188
0.002,20.464965820312,0.1251220703125,-20.655151367188
0.0025,18.062622070312,5.0499267578125,-23.217651367188
0.003,13.498168945312,9.8946533203125,-23.457885742188
0.0035,9.0938720703125,14.058715820312,-23.217651367188
0.004,6.3712158203125,16.621215820312,-23.097534179688
0.0045,1.1661376953125,19.624145507812,-20.895385742188
0.005,-2.9578857421875,21.746215820312,-19.013549804688
0.0055,-7.8426513671875,22.787231445312,-15.289916992188
0.006,-12.327026367188,23.708129882812,-11.846557617188
0.0065,-15.730346679688,22.707153320312,-7.5223388671875
0.007,-18.733276367188,22.546997070312,-4.3592529296875
0.0075,-20.895385742188,20.505004882812,-0.1951904296875
0.008,-23.137573242188,18.302856445312,4.3292236328125
0.0085,-22.817260742188,13.778442382812,8.6134033203125
0.009,-23.417846679688,10.174926757812,12.897583007812
0.0095,-22.777221679688,6.9718017578125,15.380004882812
0.01,-21.576049804688,2.6475830078125,18.703247070312
0.0105,-19.734252929688,-1.2362060546875,20.705200195312
0.011,-16.571166992188,-6.3612060546875,22.546997070312
0.0115,-12.487182617188,-10.805541992188,22.987426757812
0.012,-8.1229248046875,-14.569213867188,22.346801757812
0.0125,-5.2801513671875,-17.011596679688,22.026489257812
0.013,-0.3553466796875,-19.654174804688,19.744262695312
0.0135,3.9288330078125,-21.936401367188,17.862426757812
0.014,8.8536376953125,-22.296752929688,13.418090820312
0.0145,12.817504882812,-23.217651367188,10.415161132812
0.015,16.060668945312,-22.456909179688,6.4512939453125
0.0155,19.023559570312,-21.816284179688,2.9278564453125
0.016,20.865356445312,-19.774291992188,-1.0360107421875
0.0165,22.907348632812,-17.171752929688,-5.7606201171875
0.017,22.466918945312,-12.767456054688,-9.8846435546875
0.0175,22.787231445312,-9.2039794921875,-13.808471679688
0.018,22.346801757812,-6.3612060546875,-16.170776367188
0.0185,20.825317382812,-1.6766357421875,-19.293823242188
0.019,18.863403320312,2.4073486328125,-21.415893554688
0.0195,14.779418945312,7.5723876953125,-22.456909179688
0.02,11.376098632812,11.616333007812,-23.137573242188
0.0205,7.0518798828125,15.099731445312,-22.296752929688
0.021,3.8487548828125,17.582153320312,-21.536010742188
0.0215,-0.8358154296875,19.984497070312,-19.373901367188
0.022,-5.6405029296875,22.386840820312,-17.051635742188
0.0225,-10.204956054688,22.146606445312,-12.367065429688
0.023,-13.928588867188,23.027465820312,-9.6043701171875
0.0235,-16.931518554688,22.146606445312,-5.8406982421875
0.024,-19.774291992188,21.105590820312,-1.8768310546875
0.0245,-21.415893554688,18.823364257812,2.0870361328125
0.025,-23.057495117188,15.500122070312,7.0919189453125
0.0255,-22.657104492188,11.416137695312,10.855590820312
0.026,-22.577026367188,7.6925048828125,14.579223632812
0.0265,-21.976440429688,4.8497314453125,16.821411132812
0.027,-20.294799804688,0.1251220703125,19.904418945312
0.0275,-17.772338867188,-4.4393310546875,21.906372070312
0.028,-13.247924804688,-9.4041748046875,22.346801757812
0.0285,-10.244995117188,-12.967651367188,22.867309570312
0.029,-5.8006591796875,-16.250854492188,21.746215820312
0.0295,-2.0770263671875,-18.653198242188,20.424926757812
0.03,2.2471923828125,-20.735229492188,18.342895507812
0.0305,7.5323486328125,-22.857299804688,15.219848632812
0.031,11.536254882812,-22.256713867188,10.695434570312
0.0315,15.259887695312,-22.857299804688,7.7325439453125
0.032,17.902465820312,-21.856323242188,4.1290283203125
0.0325,20.625122070312,-20.494995117188,0.0050048828125
0.033,21.906372070312,-17.892456054688,-4.1190185546875
0.0335,22.907348632812,-14.008666992188,-9.0438232421875
0.034,22.747192382812,-10.445190429688,-12.487182617188
0.0345,22.146606445312,-6.5614013671875,-15.810424804688
0.035,21.185668945312,-3.4783935546875,-17.972534179688
0.0355,19.504028320312,1.1260986328125,-20.735229492188
0.036,16.220825195312,6.2110595703125,-22.536987304688
0.0365,11.616333007812,10.615356445312,-22.296752929688
0.037,8.8936767578125,13.938598632812,-22.897338867188
0.0375,4.5294189453125,16.821411132812,-21.495971679688
0.038,0.5255126953125,19.343872070312,-19.974487304688
0.0385,-3.5584716796875,20.985473632812,-17.692260742188
0.039,-9.0438232421875,22.747192382812,-14.048706054688
0.0395,-12.527221679688,22.106567382812,-10.044799804688
0.04,-16.090698242188,22.426879882812,-6.8817138671875
0.0405,-18.412963867188,21.185668945312,-3.4783935546875
0.041,-20.975463867188,19.584106445312,0.7657470703125
0.0415,-22.096557617188,16.501098632812,5.0499267578125
0.042,-22.456909179688,12.417114257812,9.6544189453125
0.0425,-22.617065429688,9.4942626953125,12.817504882812
0.043,-21.776245117188,5.4503173828125,16.020629882812
0.0435,-20.655151367188,2.1270751953125,18.262817382812
0.044,-18.733276367188,-2.2371826171875,20.625122070312
0.0445,-15.049682617188,-7.6424560546875,22.386840820312
0.045,-10.565307617188,-11.446166992188,21.666137695312
0.0455,-7.8026123046875,-14.769409179688,22.226684570312
0.046,-3.5985107421875,-17.291870117188,20.505004882812
0.0465,0.6456298828125,-19.894409179688,19.063598632812
0.047,4.8497314453125,-21.175659179688,16.220825195312
0.0475,10.054809570312,-22.536987304688,12.457153320312
0.048,13.297973632812,-22.176635742188,8.9337158203125
0.0485,16.901489257812,-22.256713867188,5.4102783203125
0.049,18.943481445312,-20.855346679688,1.9669189453125
0.0495,21.265747070312,-19.053588867188,-2.2371826171875
0.05,22.346801757812,-15.450073242188,-6.8817138671875
0.0505,22.226684570312,-11.205932617188,-11.085815429688
0.051,22.587036132812,-8.6834716796875,-14.048706054688
0.0515,21.345825195312,-4.3592529296875,-17.171752929688
0.052,20.064575195312,-0.6756591796875,-19.574096679688
0.0525,17.421997070312,3.8087158203125,-21.335815429688
0.053,13.738403320312,9.1339111328125,-23.017456054688
0.0535,9.3341064453125,12.617309570312,-22.096557617188
0.054,6.3311767578125,15.980590820312,-22.376831054688
0.0545,1.9268798828125,18.222778320312,-20.294799804688
0.055,-2.3973388671875,20.945434570312,-18.813354492188
0.0555,-7.0018310546875,21.786254882812,-15.129760742188
0.056,-11.726440429688,22.667114257812,-11.406127929688
0.0565,-14.729370117188,22.426879882812,-8.2830810546875
0.057,-18.252807617188,21.786254882812,-4.1590576171875
0.0575,-20.214721679688,20.104614257812,-0.5555419921875
0.058,-22.056518554688,17.862426757812,3.7686767578125
0.0585,-22.857299804688,14.018676757812,8.4932861328125
0.059,-22.376831054688,9.6143798828125,12.417114257812
0.0595,-22.697143554688,7.1719970703125,15.259887695312
0.06,-21.015502929688,2.6075439453125,18.102661132812
0.0605,-19.574096679688,-1.4364013671875,20.745239257812
0.061,-16.010620117188,-6.0408935546875,21.706176757812
0.0615,-12.407104492188,-10.925659179688,22.987426757812
0.062,-8.2030029296875,-14.088745117188,21.946411132812
0.0625,-4.5194091796875,-17.371948242188,21.626098632812
0.063,-0.3153076171875,-19.333862304688,19.383911132812
0.0635,4.1690673828125,-21.856323242188,17.582153320312
0.064,8.8936767578125,-22.256713867188,13.297973632812
0.0645,13.137817382812,-22.697143554688,9.4542236328125
0.065,15.980590820312,-22.697143554688,6.7716064453125
0.0655,19.223754882812,-21.495971679688,2.2471923828125
0.066,21.105590820312,-19.494018554688,-1.5565185546875
0.0665,22.306762695312,-16.531127929688,-5.7606201171875
0.067,23.067504882812,-12.807495117188,-10.325073242188
0.0675,22.186645507812,-8.5233154296875,-13.808471679688
0.068,22.346801757812,-5.9207763671875,-16.651245117188
0.0685,20.344848632812,-1.4764404296875,-19.093627929688
0.069,18.823364257812,2.8878173828125,-21.816284179688
0.0695,14.338989257812,7.5323486328125,-21.976440429688
0.07,10.895629882812,12.016723632812,-22.977416992188
0.0705,7.2120361328125,14.859497070312,-22.256713867188
0.071,3.0479736328125,18.102661132812,-21.215698242188
0.0715,-1.0360107421875,19.864379882812,-19.053588867188
0.072,-5.6805419921875,22.066528320312,-16.731323242188
0.0725,-10.204956054688,22.346801757812,-12.607299804688
0.073,-14.088745117188,22.266723632812,-8.6834716796875
0.0735,-16.851440429688,22.386840820312,-6.1610107421875
0.074,-19.734252929688,20.785278320312,-1.6365966796875
0.0745,-21.656127929688,18.703247070312,2.4473876953125
0.075,-22.136596679688,15.059692382812,6.6915283203125
0.0755,-23.017456054688,11.656372070312,11.015747070312
0.076,-22.056518554688,7.6124267578125,14.138793945312
0.0765,-21.936401367188,4.5294189453125,17.141723632812
0.077,-19.934448242188,0.2852783203125,19.383911132812
0.0775,-17.892456054688,-4.5194091796875,22.066528320312
0.078,-13.247924804688,-9.0037841796875,21.906372070312
0.0785,-9.7244873046875,-13.127807617188,22.506958007812
0.079,-6.4012451171875,-15.850463867188,21.906372070312
0.0795,-1.7567138671875,-18.933471679688,20.344848632812
0.08,2.2471923828125,-20.655151367188,18.262817382812
0.0805,7.3321533203125,-22.456909179688,14.979614257812
0.081,11.456176757812,-22.817260742188,11.336059570312
0.0815,15.299926757812,-22.456909179688,7.1719970703125
0.082,18.022583007812,-22.336791992188,4.4893798828125
0.0825,20.625122070312,-20.454956054688,-0.1551513671875
0.083,22.627075195312,-18.092651367188,-4.5594482421875
0.0835,22.546997070312,-13.688354492188,-8.8836669921875
0.084,23.427856445312,-10.605346679688,-12.887573242188
0.0845,22.346801757812,-6.6014404296875,-15.890502929688
0.085,21.706176757812,-2.8778076171875,-18.973510742188
0.0855,19.504028320312,1.4063720703125,-21.055541992188
0.086,16.501098632812,6.8116455078125,-23.377807617188
0.0865,11.856567382812,10.975708007812,-22.937377929688
0.087,8.1729736328125,14.979614257812,-23.217651367188
0.0875,4.6495361328125,17.582153320312,-22.336791992188
0.088,-0.4754638671875,20.625122070312,-20.374877929688
0.0885,-4.6395263671875,22.226684570312,-17.972534179688
0.089,-10.044799804688,23.347778320312,-13.728393554688
0.0895,-13.728393554688,23.547973632812,-10.405151367188
0.09,-17.612182617188,22.907348632812,-5.8807373046875
0.0905,-20.174682617188,22.146606445312,-2.5975341796875
0.091,-22.376831054688,19.944458007812,1.9268798828125
0.0915,-24.098510742188,16.901489257812,6.8516845703125
0.092,-23.377807617188,11.976684570312,11.055786132812
0.0925,-24.098510742188,8.9737548828125,14.819458007812
0.093,-22.777221679688,4.7296142578125,17.782348632812
0.0935,-21.536010742188,0.4854736328125,20.865356445312
0.094,-18.933471679688,-3.9188232421875,22.466918945312
0.0945,-15.049682617188,-9.6444091796875,24.348754882812
0.095,-10.445190429688,-13.328002929688,23.467895507812
0.0955,-6.4412841796875,-17.251831054688,23.347778320312
0.096,-2.4373779296875,-19.574096679688,21.786254882812
0.0965,2.5675048828125,-22.456909179688,19.664184570312
0.097,7.1719970703125,-23.698120117188,16.421020507812
0.0975,12.377075195312,-24.218627929688,11.696411132812
0.098,15.740356445312,-24.298706054688,8.6534423828125
0.0985,19.624145507812,-23.257690429688,3.7686767578125
0.099,21.906372070312,-21.936401367188,0.1651611328125
0.0995,23.628051757812,-19.333862304688,-4.1990966796875
0.1,25.069458007812,-15.650268554688,-9.4842529296875
0.1005,23.868286132812,-10.605346679688,-13.408081054688
0.101,24.308715820312,-7.6424560546875,-16.851440429688
0.1015,22.587036132812,-3.1180419921875,-19.694213867188
0.102,21.145629882812,1.3262939453125,-22.617065429688
0.1025,17.662231445312,5.8907470703125,-23.698120117188
0.103,13.418090820312,11.536254882812,-25.019409179688
0.1035,9.0938720703125,14.859497070312,-24.058471679688
0.104,4.8096923828125,18.703247070312,-23.578002929688
0.1045,0.6456298828125,20.745239257812,-21.536010742188
0.105,-4.1590576171875,23.307739257812,-19.494018554688
0.1055,-9.2440185546875,24.308715820312,-15.530151367188
0.106,-13.968627929688,24.188598632812,-10.645385742188
0.1065,-17.091674804688,24.348754882812,-7.8826904296875
0.107,-20.815307617188,22.947387695312,-2.7977294921875
0.1075,-22.897338867188,21.265747070312,1.1260986328125
0.108,-24.058471679688,18.262817382812,5.2901611328125
0.1085,-25.259643554688,14.218872070312,10.615356445312
0.109,-23.978393554688,9.3741455078125,14.218872070312
0.1095,-24.218627929688,6.2110595703125,17.662231445312
0.11,-22.176635742188,1.7667236328125,20.184692382812
0.1105,-20.655151367188,-2.8377685546875,23.187622070312
0.111,-16.451049804688,-7.6424560546875,23.708129882812
0.1115,-12.046752929688,-12.807495117188,24.508911132812
0.112,-8.3231201171875,-15.890502929688,23.868286132812
0.1125,-3.4783935546875,-19.614135742188,22.747192382812
0.113,0.7657470703125,-21.495971679688,20.505004882812
0.1135,5.3702392578125,-23.738159179688,18.222778320312
0.114,10.615356445312,-24.498901367188,13.858520507812
0.1145,14.859497070312,-23.938354492188,9.0938720703125
0.115,18.062622070312,-24.338745117188,6.4112548828125
0.1155,21.265747070312,-22.496948242188,1.4063720703125
0.116,23.467895507812,-20.655151367188,-2.7576904296875
0.1165,24.068481445312,-17.091674804688,-7.0018310546875
0.117,25.029418945312,-13.007690429688,-12.126831054688
0.1175,23.828247070312,-8.6033935546875,-15.410034179688
0.118,23.708129882812,-4.9998779296875,-18.933471679688
0.1185,21.586059570312,-0.7156982421875,-21.095581054688
0.119,19.784301757812,4.1290283203125,-24.058471679688
0.1195,14.939575195312,9.0938720703125,-24.178588867188
0.12,10.535278320312,13.858520507812,-24.498901367188
0.1205,7.2921142578125,16.781372070312,-24.218627929688
0.121,2.0069580078125,20.344848632812,-22.496948242188
0.1215,-2.3172607421875,22.226684570312,-20.214721679688
0.122,-7.0819091796875,24.068481445312,-17.331909179688
0.1225,-12.206909179688,24.749145507812,-13.087768554688
0.123,-16.050659179688,23.828247070312,-8.3231201171875
0.1235,-19.293823242188,24.148559570312,-5.4002685546875
0.124,-22.096557617188,22.026489257812,-0.5155029296875
0.1245,-24.378784179688,19.864379882812,4.0889892578125
0.125,-24.378784179688,15.500122070312,8.4532470703125
0.1255,-25.179565429688,11.576293945312,13.257934570312
0.126,-24.058471679688,7.4122314453125,16.340942382812
0.1265,-23.537963867188,3.3282470703125,19.984497070312
0.127,-21.175659179688,-1.1561279296875,22.026489257812
0.1275,-18.773315429688,-6.2811279296875,24.669067382812
0.128,-13.688354492188,-11.165893554688,24.508911132812
0.1285,-9.1239013671875,-15.570190429688,24.308715820312
0.129,-5.9207763671875,-18.372924804688,23.948364257812
0.1295,-0.3153076171875,-21.776245117188,21.706176757812
0.13,4.1690673828125,-23.618041992188,19.343872070312
0.1305,9.4141845703125,-24.819213867188,15.339965820312
0.131,13.938598632812,-25.339721679688,11.456176757812
0.1315,17.822387695312,-24.258666992188,6.5313720703125
0.132,21.065551757812,-24.058471679688,3.1680908203125
0.1325,23.507934570312,-21.656127929688,-1.7166748046875
0.133,25.710083007812,-19.013549804688,-6.7215576171875
0.1335,24.989379882812,-13.968627929688,-11.165893554688
0.134,25.589965820312,-10.204956054688,-15.530151367188
0.1345,24.308715820312,-6.1610107421875,-18.332885742188
0.135,23.187622070312,-1.4364013671875,-21.936401367188
0.1355,20.585083007812,3.1280517578125,-23.818237304688
0.136,16.981567382812,8.8135986328125,-25.900268554688
0.1365,12.096801757812,13.257934570312,-25.459838867188
0.137,7.4122314453125,17.341918945312,-24.819213867188
0.1375,3.9688720703125,19.944458007812,-24.098510742188
0.138,-1.8367919921875,23.107543945312,-21.536010742188
0.1385,-6.5213623046875,24.949340820312,-18.733276367188
0.139,-11.966674804688,25.349731445312,-13.848510742188
0.1395,-15.890502929688,25.670043945312,-10.365112304688
0.14,-19.614135742188,24.348754882812,-5.3602294921875
0.1405,-22.577026367188,23.547973632812,-1.5565185546875
0.141,-24.458862304688,20.945434570312,3.0479736328125
0.1415,-26.420776367188,17.582153320312,8.4532470703125
0.142,-25.259643554688,12.176879882812,12.697387695312
0.1425,-25.579956054688,8.5733642578125,16.701293945312
0.143,-24.218627929688,4.6094970703125,19.343872070312
0.1435,-22.657104492188,-0.4754638671875,22.787231445312
0.144,-19.734252929688,-4.9598388671875,24.388793945312
0.1445,-15.410034179688,-10.765502929688,25.790161132812
0.145,-10.885620117188,-14.689331054688,25.189575195312
0.1455,-6.1610107421875,-18.613159179688,24.348754882812
0.146,-2.4373779296875,-20.895385742188,23.027465820312
0.1465,3.0079345703125,-23.658081054688,20.505004882812
0.147,8.0528564453125,-25.339721679688,17.301879882812
0.1475,13.177856445312,-25.139526367188,11.976684570312
0.148,16.861450195312,-25.499877929688,8.8135986328125
0.1485,20.424926757812,-24.138549804688,3.8887939453125
0.149,23.187622070312,-22.897338867188,-0.1551513671875
0.1495,24.629028320312,-20.134643554688,-4.4393310546875
0.15,26.350708007812,-16.330932617188,-10.044799804688
0.1505,24.989379882812,-11.165893554688,-13.968627929688
0.151,25.109497070312,-7.5623779296875,-17.732299804688
0.1515,23.668090820312,-3.6385498046875,-20.214721679688
0.152,21.986450195312,1.4063720703125,-23.497924804688
0.1525,18.583129882812,6.1309814453125,-24.859252929688
0.153,13.778442382812,11.816528320312,-25.740112304688
0.1535,9.8546142578125,15.380004882812,-25.379760742188
0.154,4.8897705078125,19.223754882812,-24.218627929688
0.1545,0.8858642578125,21.505981445312,-22.496948242188
0.155,-4.0389404296875,23.948364257812,-20.174682617188
0.1555,-9.6444091796875,25.589965820312,-16.370971679688
0.156,-14.288940429688,24.909301757812,-11.085815429688
0.1565,-17.892456054688,25.349731445312,-8.0828857421875
0.157,-21.295776367188,23.748168945312,-3.0780029296875
0.1575,-23.898315429688,22.146606445312,1.2462158203125
0.158,-24.939331054688,19.023559570312,5.4503173828125
0.1585,-26.340698242188,14.779418945312,11.175903320312
0.159,-25.019409179688,9.9346923828125,14.779418945312
0.1595,-24.939331054688,6.0509033203125,18.623168945312
0.16,-23.177612304688,1.9268798828125,21.025512695312
0.1605,-21.455932617188,-3.1580810546875,24.228637695312
0.161,-17.291870117188,-8.2430419921875,25.109497070312
0.1615,-12.327026367188,-13.608276367188,25.469848632812
0.162,-8.6834716796875,-16.811401367188,25.109497070312
0.1625,-3.1981201171875,-20.655151367188,23.588012695312
0.163,1.0860595703125,-22.777221679688,21.465942382812
0.1635,5.8507080078125,-24.819213867188,18.903442382812
0.164,11.656372070312,-26.100463867188,14.459106445312
0.1645,15.940551757812,-25.019409179688,9.2540283203125
0.165,19.504028320312,-25.419799804688,6.0909423828125
0.1655,22.667114257812,-23.417846679688,0.9659423828125
0.166,25.149536132812,-21.495971679688,-3.5584716796875
0.1665,25.589965820312,-17.692260742188,-7.8826904296875
0.167,26.590942382812,-13.287963867188,-13.408081054688
0.1675,25.229614257812,-8.6834716796875,-16.691284179688
0.168,24.789184570312,-4.3992919921875,-20.575073242188
0.1685,22.546997070312,-0.1551513671875,-22.657104492188
0.169,20.464965820312,5.0499267578125,-25.660034179688
0.1695,15.500122070312,10.295043945312,-25.980346679688
0.17,10.455200195312,15.299926757812,-25.820190429688
0.1705,7.0919189453125,18.342895507812,-25.499877929688
0.171,1.2862548828125,21.986450195312,-23.377807617188
0.1715,-3.2381591796875,24.028442382812,-21.055541992188
0.172,-8.1629638671875,25.589965820312,-17.812377929688
0.1725,-13.648315429688,26.470825195312,-13.328002929688
0.173,-17.532104492188,25.149536132812,-8.2030029296875
0.1735,-21.055541992188,25.229614257812,-4.7596435546875
0.174,-23.698120117188,22.787231445312,0.3653564453125
0.1745,-26.140502929688,20.585083007812,5.0899658203125
0.175,-25.940307617188,15.980590820312,9.5743408203125
0.1755,-26.620971679688,11.536254882812,14.699340820312
0.176,-25.339721679688,7.3721923828125,17.662231445312
0.1765,-24.418823242188,2.6475830078125,21.505981445312
0.177,-21.936401367188,-1.7967529296875,23.427856445312
0.1775,-19.293823242188,-7.0819091796875,25.950317382812
0.178,-14.168823242188,-12.206909179688,25.990356445312
