wavelength,x,y,z
0.0,16.11572265625,5.06494140625,-20.35986328125
0.0005,12.99267578125,7.94775390625,-20.23974609375
0.001,9.78955078125,11.15087890625,-20.43994140625
0.0015,5.02490234375,14.99462890625,-19.71923828125
0.002,0.58056640625,17.47705078125,-17.95751953125
0.0025,-3.14306640625,19.07861328125,-16.07568359375
0.003,-6.38623046875,20.31982421875,-14.23388671875
0.0035,-9.54931640625,20.15966796875,-11.11083984375
0.004,-13.11279296875,19.51904296875,-7.02685546875
0.0045,-15.99560546875,18.87841796875,-3.62353515625
0.005,-18.43798828125,16.83642578125,0.82080078125
0.0055,-19.95947265625,14.91455078125,4.22412109375
0.006,-20.27978515625,12.19189453125,7.22705078125
0.0065,-20.47998046875,9.02880859375,10.51025390625
0.007,-19.91943359375,4.66455078125,14.35400390625
0.0075,-18.91845703125,1.22119140625,16.83642578125
0.008,-17.19677734375,-2.38232421875,18.63818359375
0.0085,-15.47509765625,-5.74560546875,20.35986328125
0.009,-12.15185546875,-8.74853515625,20.11962890625
0.0095,-8.30810546875,-12.19189453125,19.87939453125
0.01,-4.26416015625,-15.39501953125,19.23876953125
0.0105,0.58056640625,-17.79736328125,17.15673828125
0.011,3.86376953125,-19.19873046875,15.43505859375
0.0115,7.02685546875,-19.91943359375,13.27294921875
0.012,10.22998046875,-19.95947265625,10.22998046875
0.0125,14.07373046875,-19.15869140625,5.74560546875
0.013,16.63623046875,-18.19775390625,2.26220703125
0.0135,18.71826171875,-16.35595703125,-1.70166015625
0.014,20.15966796875,-14.35400390625,-5.02490234375
0.0145,20.11962890625,-11.23095703125,-8.10791015625
0.015,20.19970703125,-7.86767578125,-11.47119140625
0.0155,19.79931640625,-4.02392578125,-14.87451171875
0.016,18.31787109375,0.02001953125,-17.39697265625
0.0165,16.47607421875,3.22314453125,-18.83837890625
0.017,14.39404296875,6.46630859375,-20.15966796875
0.0175,10.95068359375,9.66943359375,-20.07958984375
0.018,6.26611328125,13.59326171875,-19.39892578125
0.0185,2.62255859375,16.23583984375,-18.63818359375
0.019,-1.94189453125,18.47802734375,-16.59619140625
0.0195,-5.18505859375,19.75927734375,-14.83447265625
0.02,-8.30810546875,19.87939453125,-12.03173828125
0.0205,-11.51123046875,19.87939453125,-8.94873046875
0.021,-15.23486328125,19.03857421875,-4.50439453125
0.0215,-17.71728515625,17.31689453125,-0.38037109375
0.022,-19.35888671875,15.51513671875,3.02294921875
0.0225,-20.47998046875,13.27294921875,6.34619140625
0.023,-20.23974609375,9.82958984375,9.54931640625
0.0235,-19.91943359375,5.90576171875,13.11279296875
0.024,-19.43896484375,2.54248046875,15.99560546875
0.0245,-17.67724609375,-1.62158203125,18.31787109375
0.025,-15.71533203125,-4.86474609375,19.71923828125
0.0255,-13.11279296875,-7.86767578125,20.23974609375
0.026,-9.86962890625,-10.99072265625,20.19970703125
0.0265,-4.82470703125,-14.83447265625,19.19873046875
0.027,-0.78076171875,-17.11669921875,17.67724609375
0.0275,3.02294921875,-18.87841796875,15.95556640625
0.028,6.30615234375,-19.95947265625,13.95361328125
0.0285,9.46923828125,-19.71923828125,10.71044921875
0.029,12.75244140625,-19.39892578125,7.22705078125
0.0295,15.91552734375,-18.55810546875,3.38330078125
0.03,18.23779296875,-16.51611328125,-1.06103515625
0.0305,19.51904296875,-14.71435546875,-4.02392578125
0.031,20.15966796875,-12.19189453125,-7.18701171875
0.0315,19.91943359375,-8.90869140625,-10.22998046875
0.032,19.39892578125,-4.74462890625,-13.83349609375
0.0325,18.55810546875,-1.54150390625,-16.23583984375
0.033,16.95654296875,2.10205078125,-18.23779296875
0.0335,14.91455078125,5.38525390625,-19.47900390625
0.034,11.71142578125,8.38818359375,-19.39892578125
0.0345,8.30810546875,11.59130859375,-19.39892578125
0.035,3.86376953125,15.03466796875,-18.55810546875
0.0355,-0.62060546875,17.23681640625,-16.51611328125
0.036,-3.66357421875,18.55810546875,-15.07470703125
0.0365,-6.82666015625,19.51904296875,-13.07275390625
0.037,-9.94970703125,19.19873046875,-9.78955078125
0.0375,-13.39306640625,18.55810546875,-5.82568359375
0.038,-15.99560546875,17.67724609375,-2.42236328125
0.0385,-18.07763671875,15.71533203125,1.62158203125
0.039,-19.15869140625,13.79345703125,4.50439453125
0.0395,-19.43896484375,10.99072265625,7.62744140625
0.04,-19.35888671875,7.78759765625,10.75048828125
0.0405,-18.91845703125,3.86376953125,14.15380859375
0.041,-17.63720703125,0.30029296875,16.43603515625
0.0415,-16.11572265625,-2.90283203125,18.15771484375
0.042,-14.23388671875,-5.98583984375,19.39892578125
0.0425,-10.83056640625,-8.98876953125,19.07861328125
0.043,-6.98681640625,-12.43212890625,18.87841796875
0.0435,-3.06298828125,-15.35498046875,18.03759765625
0.044,1.46142578125,-17.43701171875,15.99560546875
0.0445,4.22412109375,-18.55810546875,14.47412109375
0.045,7.38720703125,-19.15869140625,12.15185546875
0.0455,10.55029296875,-18.95849609375,8.90869140625
0.046,14.03369140625,-18.27783203125,4.82470703125
0.0465,16.51611328125,-16.99658203125,1.14111328125
0.047,18.43798828125,-15.31494140625,-2.42236328125
0.0475,19.31884765625,-13.19287109375,-5.42529296875
0.048,19.35888671875,-9.98974609375,-8.58837890625
0.0485,19.23876953125,-6.66650390625,-11.83154296875
0.049,18.83837890625,-3.18310546875,-14.91455078125
0.0495,17.15673828125,0.90087890625,-17.15673828125
0.05,15.47509765625,3.86376953125,-18.55810546875
0.0505,13.15283203125,7.06689453125,-19.47900390625
0.051,9.54931640625,10.22998046875,-19.19873046875
0.0515,5.18505859375,13.79345703125,-18.59814453125
0.052,1.30126953125,16.35595703125,-17.43701171875
0.0525,-2.82275390625,18.27783203125,-15.59521484375
0.053,-5.74560546875,19.19873046875,-13.75341796875
0.0535,-8.94873046875,19.27880859375,-10.87060546875
0.054,-12.35205078125,19.03857421875,-7.34716796875
0.0545,-15.47509765625,18.19775390625,-3.38330078125
0.055,-17.79736328125,16.27587890625,0.78076171875
0.0555,-19.27880859375,14.55419921875,3.94384765625
0.056,-19.91943359375,12.03173828125,7.06689453125
0.0565,-19.75927734375,8.46826171875,10.43017578125
0.057,-19.35888671875,4.74462890625,13.71337890625
0.0575,-18.55810546875,1.30126953125,16.43603515625
0.058,-16.79638671875,-2.66259765625,18.51806640625
0.0585,-14.79443359375,-5.62548828125,19.51904296875
0.059,-12.03173828125,-8.70849609375,19.99951171875
0.0595,-8.06787109375,-12.15185546875,19.63916015625
0.06,-3.66357421875,-15.31494140625,18.63818359375
0.0605,0.66064453125,-17.55712890625,16.79638671875
0.061,4.14404296875,-19.19873046875,15.19482421875
0.0615,7.14697265625,-19.71923828125,12.95263671875
0.062,10.47021484375,-19.55908203125,9.58935546875
0.0625,13.87353515625,-19.07861328125,5.82568359375
0.063,16.71630859375,-17.95751953125,1.94189453125
0.0635,18.83837890625,-15.87548828125,-2.26220703125
0.064,19.83935546875,-13.91357421875,-5.10498046875
0.0645,20.27978515625,-11.15087890625,-8.38818359375
0.065,19.95947265625,-7.34716796875,-11.87158203125
0.0655,19.35888671875,-3.66357421875,-14.91455078125
0.066,18.07763671875,0.06005859375,-17.31689453125
0.0665,16.31591796875,3.70361328125,-19.19873046875
0.067,13.87353515625,6.70654296875,-19.79931640625
0.0675,10.59033203125,9.86962890625,-19.87939453125
0.068,6.46630859375,13.43310546875,-19.51904296875
0.0685,2.22216796875,16.31591796875,-18.31787109375
0.069,-2.18212890625,18.23779296875,-16.15576171875
0.0695,-5.22509765625,19.51904296875,-14.55419921875
0.07,-8.30810546875,19.87939453125,-12.03173828125
0.0705,-11.67138671875,19.39892578125,-8.34814453125
0.071,-14.83447265625,18.71826171875,-4.62451171875
0.0715,-17.43701171875,17.23681640625,-0.58056640625
0.072,-19.35888671875,15.23486328125,3.42333984375
0.0725,-19.99951171875,12.87255859375,6.26611328125
0.073,-20.23974609375,9.90966796875,9.54931640625
0.0735,-19.83935546875,5.90576171875,12.99267578125
0.074,-19.19873046875,2.42236328125,15.87548828125
0.0745,-17.43701171875,-1.42138671875,17.95751953125
0.075,-15.83544921875,-4.74462890625,19.71923828125
0.0755,-13.15283203125,-7.70751953125,20.11962890625
0.076,-9.54931640625,-10.95068359375,19.83935546875
0.0765,-5.42529296875,-14.35400390625,19.27880859375
0.077,-0.94091796875,-17.07666015625,17.79736328125
0.0775,3.18310546875,-18.83837890625,15.71533203125
0.078,6.06591796875,-19.71923828125,13.95361328125
0.0785,9.26904296875,-19.99951171875,11.19091796875
0.079,12.87255859375,-19.35888671875,7.06689453125
0.0795,15.79541015625,-18.59814453125,3.50341796875
0.08,18.19775390625,-16.83642578125,-0.66064453125
0.0805,19.99951171875,-14.99462890625,-4.34423828125
0.081,20.35986328125,-12.19189453125,-7.22705078125
0.0815,20.35986328125,-8.86865234375,-10.71044921875
0.082,19.87939453125,-4.90478515625,-14.11376953125
0.0825,19.03857421875,-1.26123046875,-16.91650390625
0.083,17.03662109375,2.58251953125,-18.71826171875
0.0835,15.15478515625,5.74560546875,-20.11962890625
0.084,12.15185546875,8.94873046875,-20.39990234375
0.0845,7.74755859375,12.59228515625,-19.83935546875
0.085,3.90380859375,15.55517578125,-19.15869140625
0.0855,-0.82080078125,18.07763671875,-17.27685546875
0.086,-4.58447265625,19.71923828125,-15.39501953125
0.0865,-7.54736328125,20.15966796875,-13.03271484375
0.087,-10.83056640625,20.23974609375,-9.98974609375
0.0875,-14.55419921875,19.39892578125,-5.58544921875
0.088,-17.23681640625,18.15771484375,-1.78173828125
0.0885,-19.23876953125,16.15576171875,2.26220703125
0.089,-20.80029296875,14.11376953125,5.74560546875
0.0895,-20.76025390625,11.03076171875,8.86865234375
0.09,-20.56005859375,7.18701171875,12.51220703125
0.0905,-19.95947265625,3.50341796875,15.55517578125
0.091,-18.59814453125,-0.58056640625,18.19775390625
0.0915,-16.55615234375,-4.22412109375,19.87939453125
0.092,-14.23388671875,-7.18701171875,20.60009765625
0.0925,-11.11083984375,-10.39013671875,20.80029296875
0.093,-6.18603515625,-14.27392578125,19.99951171875
0.0935,-2.26220703125,-16.79638671875,18.79833984375
0.094,2.26220703125,-18.91845703125,16.67626953125
0.0945,5.78564453125,-20.43994140625,14.87451171875
0.095,8.78857421875,-20.35986328125,11.99169921875
0.0955,12.11181640625,-20.19970703125,8.66845703125
0.096,15.67529296875,-19.47900390625,4.42431640625
0.0965,18.27783203125,-17.79736328125,0.22021484375
0.097,19.99951171875,-15.79541015625,-3.54345703125
0.0975,20.96044921875,-13.43310546875,-6.74658203125
0.098,20.92041015625,-10.22998046875,-9.86962890625
0.0985,20.47998046875,-5.90576171875,-13.71337890625
0.099,19.71923828125,-2.58251953125,-16.27587890625
0.0995,17.99755859375,1.50146484375,-18.59814453125
0.1,16.03564453125,5.10498046875,-20.35986328125
0.1005,13.07275390625,8.14794921875,-20.43994140625
0.101,9.86962890625,11.31103515625,-20.60009765625
0.1015,4.86474609375,15.23486328125,-19.79931640625
0.102,0.62060546875,17.67724609375,-18.15771484375
0.1025,-3.30322265625,19.31884765625,-16.15576171875
0.103,-6.66650390625,20.64013671875,-14.31396484375
0.1035,-9.82958984375,20.39990234375,-11.07080078125
0.104,-13.43310546875,19.87939453125,-7.14697265625
0.1045,-16.43603515625,19.11865234375,-3.46337890625
0.105,-18.91845703125,16.99658203125,1.10107421875
0.1055,-20.43994140625,15.03466796875,4.54443359375
0.106,-20.88037109375,12.31201171875,7.70751953125
0.1065,-20.92041015625,9.02880859375,10.95068359375
0.107,-20.31982421875,4.50439453125,14.87451171875
0.1075,-19.27880859375,1.02099609375,17.31689453125
0.108,-17.43701171875,-2.74267578125,19.23876953125
0.1085,-15.59521484375,-6.26611328125,20.96044921875
0.109,-12.11181640625,-9.26904296875,20.68017578125
0.1095,-8.46826171875,-12.63232421875,20.47998046875
0.11,-3.94384765625,-16.03564453125,19.67919921875
0.1105,0.98095703125,-18.51806640625,17.47705078125
0.111,4.42431640625,-19.87939453125,15.63525390625
0.1115,7.66748046875,-20.68017578125,13.39306640625
0.112,10.91064453125,-20.64013671875,10.14990234375
0.1125,14.75439453125,-19.75927734375,5.58544921875
0.113,17.43701171875,-18.75830078125,1.94189453125
0.1135,19.67919921875,-16.63623046875,-2.30224609375
0.114,21.04052734375,-14.55419921875,-5.74560546875
0.1145,21.00048828125,-11.23095703125,-8.94873046875
0.115,21.00048828125,-7.86767578125,-12.23193359375
0.1155,20.35986328125,-3.70361328125,-15.75537109375
0.116,18.83837890625,0.38037109375,-18.27783203125
0.1165,16.79638671875,3.86376953125,-19.79931640625
0.117,14.71435546875,7.22705078125,-21.12060546875
0.1175,10.91064453125,10.55029296875,-20.80029296875
0.118,6.34619140625,14.35400390625,-20.19970703125
0.1185,2.46240234375,17.11669921875,-19.35888671875
0.119,-2.46240234375,19.39892578125,-16.99658203125
0.1195,-5.78564453125,20.56005859375,-15.11474609375
0.12,-9.02880859375,20.80029296875,-12.31201171875
0.1205,-12.31201171875,20.68017578125,-9.06884765625
0.121,-16.15576171875,19.59912109375,-4.22412109375
0.1215,-18.71826171875,17.95751953125,0.02001953125
0.122,-20.43994140625,15.95556640625,3.70361328125
0.1225,-21.56103515625,13.55322265625,7.10693359375
0.123,-21.28076171875,9.90966796875,10.51025390625
0.1235,-21.00048828125,5.98583984375,14.07373046875
0.124,-20.31982421875,2.26220703125,17.11669921875
0.1245,-18.43798828125,-2.10205078125,19.51904296875
0.125,-16.27587890625,-5.46533203125,20.84033203125
0.1255,-13.67333984375,-8.70849609375,21.60107421875
0.126,-9.94970703125,-12.03173828125,21.32080078125
0.1265,-4.74462890625,-15.95556640625,20.23974609375
0.127,-0.62060546875,-18.31787109375,18.75830078125
0.1275,3.74365234375,-20.19970703125,16.63623046875
0.128,7.06689453125,-21.28076171875,14.47412109375
0.1285,10.55029296875,-21.00048828125,10.95068359375
0.129,13.87353515625,-20.72021484375,7.38720703125
0.1295,17.35693359375,-19.59912109375,2.98291015625
0.13,19.87939453125,-17.39697265625,-1.74169921875
0.1305,21.20068359375,-15.39501953125,-4.98486328125
0.131,21.92138671875,-12.67236328125,-8.42822265625
0.1315,21.56103515625,-8.90869140625,-11.79150390625
0.132,20.92041015625,-4.58447265625,-15.43505859375
0.1325,19.95947265625,-1.02099609375,-18.03759765625
0.133,17.99755859375,3.22314453125,-20.27978515625
0.1335,15.63525390625,6.66650390625,-21.40087890625
0.134,12.19189453125,10.02978515625,-21.52099609375
0.1345,8.38818359375,13.43310546875,-21.36083984375
0.135,3.30322265625,17.15673828125,-20.19970703125
0.1355,-1.46142578125,19.39892578125,-17.95751953125
0.136,-4.98486328125,20.84033203125,-16.15576171875
0.1365,-8.46826171875,21.72119140625,-13.79345703125
0.137,-12.03173828125,21.20068359375,-9.86962890625
0.1375,-15.51513671875,20.47998046875,-5.74560546875
0.138,-18.47802734375,19.27880859375,-1.62158203125
0.1385,-20.84033203125,16.79638671875,3.18310546875
0.139,-21.84130859375,14.55419921875,6.42626953125
0.1395,-22.24169921875,11.35107421875,9.90966796875
0.14,-21.84130859375,7.50732421875,13.39306640625
0.1405,-21.08056640625,3.06298828125,16.95654296875
0.141,-19.47900390625,-0.98095703125,19.35888671875
0.1415,-17.51708984375,-4.74462890625,21.28076171875
0.142,-14.99462890625,-8.10791015625,22.28173828125
0.1425,-10.91064453125,-11.59130859375,21.84130859375
0.143,-6.82666015625,-15.11474609375,21.48095703125
0.1435,-1.94189453125,-18.31787109375,20.03955078125
0.144,3.18310546875,-20.52001953125,17.39697265625
0.1445,6.38623046875,-21.64111328125,15.51513671875
0.145,9.90966796875,-22.16162109375,12.71240234375
0.1455,13.51318359375,-21.48095703125,8.62841796875
0.146,17.03662109375,-20.52001953125,4.22412109375
0.1465,19.71923828125,-18.91845703125,0.02001953125
0.147,21.88134765625,-16.55615234375,-4.50439453125
0.1475,22.48193359375,-13.87353515625,-7.74755859375
0.148,22.56201171875,-10.18994140625,-11.51123046875
0.1485,22.08154296875,-6.10595703125,-15.03466796875
0.149,21.20068359375,-1.98193359375,-18.27783203125
0.1495,18.99853515625,2.42236328125,-20.43994140625
0.15,16.87646484375,6.02587890625,-22.00146484375
0.1505,13.95361328125,9.46923828125,-22.64208984375
0.151,9.42919921875,13.15283203125,-21.96142578125
0.1515,4.94482421875,16.67626953125,-21.20068359375
0.152,0.18017578125,19.47900390625,-19.67919921875
0.1525,-4.70458984375,21.44091796875,-16.99658203125
0.153,-7.82763671875,22.12158203125,-14.75439453125
0.1535,-11.47119140625,22.28173828125,-11.51123046875
0.154,-15.19482421875,21.52099609375,-7.06689453125
0.1545,-18.39794921875,20.31982421875,-2.74267578125
0.155,-20.80029296875,18.11767578125,1.90185546875
0.1555,-22.56201171875,15.79541015625,5.82568359375
0.156,-22.88232421875,12.71240234375,9.18896484375
0.1565,-22.64208984375,8.58837890625,13.03271484375
0.157,-21.92138671875,4.42431640625,16.51611328125
0.1575,-20.84033203125,0.34033203125,19.51904296875
0.158,-18.43798828125,-4.10400390625,21.48095703125
0.1585,-16.11572265625,-7.38720703125,22.56201171875
0.159,-12.95263671875,-10.79052734375,22.96240234375
0.1595,-8.14794921875,-14.55419921875,22.08154296875
0.16,-3.54345703125,-17.71728515625,20.92041015625
0.1605,1.38134765625,-20.23974609375,18.83837890625
0.161,5.70556640625,-22.04150390625,16.51611328125
0.1615,8.86865234375,-22.28173828125,13.79345703125
0.162,12.51220703125,-22.12158203125,10.22998046875
0.1625,16.31591796875,-21.28076171875,5.74560546875
0.163,19.27880859375,-19.87939453125,1.42138671875
0.1635,21.48095703125,-17.47705078125,-3.18310546875
0.164,22.88232421875,-15.23486328125,-6.74658203125
0.1645,23.00244140625,-11.87158203125,-10.18994140625
0.165,22.52197265625,-7.54736328125,-14.07373046875
0.1655,21.72119140625,-3.54345703125,-17.19677734375
0.166,20.23974609375,0.70068359375,-19.91943359375
0.1665,17.87744140625,4.98486328125,-21.92138671875
0.167,15.07470703125,8.22802734375,-22.44189453125
0.1675,11.59130859375,11.71142578125,-22.64208984375
0.168,6.50634765625,15.71533203125,-21.84130859375
0.1685,2.06201171875,18.55810546875,-20.47998046875
0.169,-2.78271484375,20.68017578125,-18.03759765625
0.1695,-6.66650390625,22.28173828125,-15.99560546875
0.17,-9.94970703125,22.28173828125,-12.87255859375
0.1705,-13.63330078125,21.88134765625,-8.94873046875
0.171,-17.23681640625,21.00048828125,-4.54443359375
0.1715,-20.11962890625,19.15869140625,0.14013671875
0.172,-22.00146484375,16.67626953125,4.46435546875
0.1725,-22.88232421875,14.11376953125,7.82763671875
0.173,-23.00244140625,10.59033203125,11.43115234375
0.1735,-22.36181640625,5.90576171875,15.47509765625
0.174,-21.44091796875,2.10205078125,18.27783203125
0.1745,-19.47900390625,-2.26220703125,20.64013671875
0.175,-17.31689453125,-6.26611328125,22.60205078125
0.1755,-14.03369140625,-9.42919921875,22.60205078125
0.176,-10.35009765625,-12.91259765625,22.56201171875
0.1765,-5.30517578125,-16.79638671875,21.68115234375
0.177,-0.46044921875,-19.55908203125,19.79931640625
0.1775,3.98388671875,-21.20068359375,17.31689453125
0.178,7.54736328125,-22.44189453125,15.23486328125
0.1785,11.07080078125,-22.36181640625,11.83154296875
0.179,14.95458984375,-21.60107421875,7.30712890625
0.1795,18.11767578125,-20.68017578125,3.34326171875
0.18,20.88037109375,-18.55810546875,-1.54150390625
0.1805,22.60205078125,-16.19580078125,-5.54541015625
0.181,22.92236328125,-13.11279296875,-8.90869140625
0.1815,23.00244140625,-9.54931640625,-12.51220703125
0.182,22.24169921875,-4.74462890625,-16.51611328125
0.1825,21.08056640625,-0.94091796875,-19.19873046875
0.183,18.83837890625,3.26318359375,-21.08056640625
0.1835,16.63623046875,7.10693359375,-22.84228515625
0.184,12.83251953125,10.47021484375,-22.60205078125
0.1845,8.46826171875,14.15380859375,-22.16162109375
0.185,3.94384765625,17.63720703125,-21.36083984375
0.1855,-1.34130859375,20.35986328125,-19.03857421875
0.186,-5.38525390625,21.80126953125,-16.71630859375
0.1865,-8.74853515625,22.44189453125,-14.19384765625
0.187,-12.31201171875,22.44189453125,-10.75048828125
0.1875,-16.35595703125,21.28076171875,-5.70556640625
0.188,-19.07861328125,19.99951171875,-1.82177734375
0.1885,-21.40087890625,17.67724609375,2.86279296875
0.189,-22.92236328125,15.27490234375,6.70654296875
0.1895,-22.76220703125,11.67138671875,10.10986328125
0.19,-22.68212890625,7.90771484375,13.75341796875
0.1905,-21.84130859375,3.46337890625,17.35693359375
0.191,-20.27978515625,-0.90087890625,20.07958984375
0.1915,-17.91748046875,-4.66455078125,21.60107421875
