wavelength,x,y,z
0.0,-2.272216796875,-4.834716796875,7.056884765625
0.0005,-1.031005859375,-5.515380859375,6.536376953125
0.001,0.170166015625,-6.516357421875,6.256103515625
0.0015,1.291259765625,-6.996826171875,5.495361328125
0.002,2.612548828125,-7.237060546875,4.494384765625
0.0025,4.294189453125,-7.397216796875,3.012939453125
0.003,5.895751953125,-7.637451171875,1.571533203125
0.0035,6.216064453125,-6.636474609375,0.250244140625
0.004,7.056884765625,-6.716552734375,-0.630615234375
0.0045,6.896728515625,-5.395263671875,-1.831787109375
0.005,6.976806640625,-4.514404296875,-2.752685546875
0.0055,7.056884765625,-2.832763671875,-4.514404296875
0.006,6.696533203125,-1.591552734375,-5.435302734375
0.0065,5.895751953125,0.050048828125,-6.236083984375
0.007,5.455322265625,1.211181640625,-6.836669921875
0.0075,4.134033203125,2.572509765625,-6.876708984375
0.008,3.133056640625,3.813720703125,-7.076904296875
0.0085,1.571533203125,5.615478515625,-7.317138671875
0.009,0.170166015625,6.176025390625,-6.396240234375
0.0095,-0.950927734375,7.177001953125,-6.356201171875
0.01,-2.312255859375,7.497314453125,-5.155029296875
0.0105,-3.593505859375,7.777587890625,-4.154052734375
0.011,-5.315185546875,7.897705078125,-2.552490234375
0.0115,-6.716552734375,7.937744140625,-1.191162109375
0.012,-6.996826171875,6.896728515625,0.250244140625
0.0125,-7.757568359375,6.896728515625,1.051025390625
0.013,-7.557373046875,5.295166015625,2.452392578125
0.0135,-7.557373046875,4.334228515625,3.453369140625
0.014,-7.637451171875,2.572509765625,5.295166015625
0.0145,-6.956787109375,1.171142578125,6.015869140625
0.015,-6.236083984375,-0.470458984375,6.816650390625
0.0155,-5.475341796875,-1.711669921875,7.297119140625
0.016,-3.993896484375,-3.233154296875,7.297119140625
0.0165,-2.792724609375,-4.554443359375,7.297119140625
0.017,-1.231201171875,-6.276123046875,7.337158203125
0.0175,0.290283203125,-6.676513671875,6.216064453125
0.018,1.291259765625,-7.557373046875,6.216064453125
0.0185,3.052978515625,-7.717529296875,4.534423828125
0.019,4.214111328125,-7.837646484375,3.493408203125
0.0195,5.855712890625,-7.757568359375,1.771728515625
0.02,6.816650390625,-7.557373046875,0.530517578125
0.0205,7.056884765625,-6.516357421875,-0.790771484375
0.021,7.537353515625,-6.276123046875,-1.591552734375
0.0215,7.257080078125,-4.474365234375,-3.113037109375
0.022,7.096923828125,-3.433349609375,-3.993896484375
0.0225,7.177001953125,-1.831787109375,-5.755615234375
0.023,6.216064453125,-0.350341796875,-6.196044921875
0.0235,5.695556640625,1.051025390625,-6.996826171875
0.024,4.534423828125,2.412353515625,-7.116943359375
0.0245,3.253173828125,3.853759765625,-7.237060546875
0.025,2.011962890625,5.014892578125,-7.197021484375
0.0255,0.610595703125,6.416259765625,-7.076904296875
0.026,-0.830810546875,6.776611328125,-6.035888671875
0.0265,-1.751708984375,7.697509765625,-6.035888671875
0.027,-3.593505859375,7.697509765625,-4.114013671875
0.0275,-4.634521484375,7.857666015625,-3.193115234375
0.028,-6.236083984375,7.817626953125,-1.591552734375
0.0285,-6.876708984375,7.337158203125,-0.430419921875
0.029,-7.237060546875,6.696533203125,0.730712890625
0.0295,-7.557373046875,6.095947265625,1.651611328125
0.03,-7.397216796875,4.494384765625,3.133056640625
0.0305,-7.237060546875,3.373291015625,4.134033203125
0.031,-7.397216796875,1.931884765625,5.695556640625
0.0315,-6.236083984375,0.370361328125,6.095947265625
0.032,-6.075927734375,-0.910888671875,7.056884765625
0.0325,-4.514404296875,-2.552490234375,7.056884765625
0.033,-3.473388671875,-3.833740234375,7.257080078125
0.0335,-1.991943359375,-5.155029296875,6.976806640625
0.034,-0.670654296875,-6.276123046875,6.856689453125
0.0345,0.690673828125,-6.676513671875,5.895751953125
0.035,1.731689453125,-7.517333984375,5.695556640625
0.0355,3.693603515625,-7.517333984375,3.693603515625
0.036,4.694580078125,-7.677490234375,2.812744140625
0.0365,6.135986328125,-7.557373046875,1.251220703125
0.037,6.616455078125,-6.916748046875,0.090087890625
0.0375,7.056884765625,-6.396240234375,-0.990966796875
0.038,7.177001953125,-5.395263671875,-2.112060546875
0.0385,7.177001953125,-3.833740234375,-3.633544921875
0.039,6.896728515625,-2.632568359375,-4.594482421875
0.0395,6.896728515625,-1.271240234375,-5.995849609375
0.04,5.575439453125,0.490478515625,-6.316162109375
0.0405,5.415283203125,1.491455078125,-7.116943359375
0.041,3.573486328125,3.333251953125,-7.076904296875
0.0415,2.652587890625,4.494384765625,-7.357177734375
0.042,1.131103515625,5.775634765625,-6.996826171875
0.0425,-0.270263671875,6.816650390625,-6.596435546875
0.043,-1.511474609375,7.177001953125,-5.755615234375
0.0435,-2.712646484375,7.897705078125,-5.155029296875
0.044,-4.714599609375,7.937744140625,-3.193115234375
0.0445,-5.635498046875,7.817626953125,-2.192138671875
0.045,-6.916748046875,7.657470703125,-0.670654296875
0.0455,-7.237060546875,6.856689453125,0.610595703125
0.046,-7.677490234375,6.376220703125,1.491455078125
0.0465,-7.557373046875,4.894775390625,2.892822265625
0.047,-7.597412109375,3.533447265625,4.334228515625
0.0475,-7.076904296875,2.132080078125,5.215087890625
0.048,-6.996826171875,0.770751953125,6.456298828125
0.0485,-5.635498046875,-1.031005859375,6.696533203125
0.049,-5.315185546875,-2.072021484375,7.377197265625
0.0495,-3.233154296875,-4.114013671875,7.217041015625
0.05,-2.272216796875,-5.074951171875,7.297119140625
0.0505,-0.710693359375,-6.156005859375,6.776611328125
0.051,0.610595703125,-7.036865234375,6.336181640625
0.0515,1.811767578125,-7.357177734375,5.415283203125
0.052,3.173095703125,-7.757568359375,4.454345703125
0.0525,5.094970703125,-7.837646484375,2.572509765625
0.053,5.815673828125,-7.437255859375,1.451416015625
0.0535,6.896728515625,-7.237060546875,0.130126953125
0.054,7.056884765625,-6.276123046875,-1.071044921875
0.0545,7.377197265625,-5.755615234375,-1.911865234375
0.055,7.096923828125,-4.033935546875,-3.433349609375
0.0555,7.217041015625,-2.912841796875,-4.674560546875
0.056,6.536376953125,-1.431396484375,-5.475341796875
0.0565,6.336181640625,-0.150146484375,-6.556396484375
0.057,4.974853515625,1.531494140625,-6.716552734375
0.0575,4.534423828125,2.492431640625,-7.277099609375
0.058,2.572509765625,4.494384765625,-7.197021484375
0.0585,1.771728515625,5.335205078125,-7.116943359375
0.059,0.210205078125,6.456298828125,-6.676513671875
0.0595,-1.111083984375,7.096923828125,-6.115966796875
0.06,-2.232177734375,7.537353515625,-5.355224609375
0.0605,-3.793701171875,7.817626953125,-3.993896484375
0.061,-5.555419921875,8.017822265625,-2.472412109375
0.0615,-6.156005859375,7.457275390625,-1.271240234375
0.062,-7.237060546875,7.377197265625,0.010009765625
0.0625,-7.317138671875,6.336181640625,1.171142578125
0.063,-7.637451171875,5.815673828125,2.011962890625
0.0635,-7.517333984375,3.933837890625,3.773681640625
0.064,-7.517333984375,2.892822265625,4.854736328125
0.0645,-6.796630859375,1.251220703125,5.735595703125
0.065,-6.436279296875,-0.190185546875,6.696533203125
0.0655,-5.195068359375,-1.751708984375,6.936767578125
0.066,-4.474365234375,-2.832763671875,7.337158203125
0.0665,-2.592529296875,-4.834716796875,7.417236328125
0.067,-1.471435546875,-5.595458984375,6.976806640625
0.0675,0.050048828125,-6.716552734375,6.656494140625
0.068,1.251220703125,-7.197021484375,5.855712890625
0.0685,2.452392578125,-7.677490234375,5.094970703125
0.069,4.254150390625,-7.757568359375,3.413330078125
0.0695,5.975830078125,-7.997802734375,1.931884765625
0.07,6.416259765625,-7.116943359375,0.530517578125
0.0705,7.377197265625,-7.076904296875,-0.630615234375
0.071,7.297119140625,-5.795654296875,-1.791748046875
0.0715,7.417236328125,-4.994873046875,-2.712646484375
0.072,7.377197265625,-3.153076171875,-4.634521484375
0.0725,7.096923828125,-1.991943359375,-5.515380859375
0.073,6.376220703125,-0.310302734375,-6.436279296875
0.0735,5.775634765625,1.091064453125,-7.116943359375
0.074,4.494384765625,2.532470703125,-7.197021484375
0.0745,3.453369140625,3.813720703125,-7.397216796875
0.075,1.771728515625,5.775634765625,-7.597412109375
0.0755,0.450439453125,6.336181640625,-6.756591796875
0.076,-0.910888671875,7.417236328125,-6.596435546875
0.0765,-2.192138671875,7.697509765625,-5.515380859375
0.077,-3.393310546875,8.017822265625,-4.634521484375
0.0775,-5.275146484375,8.057861328125,-2.792724609375
0.078,-6.756591796875,8.137939453125,-1.351318359375
0.0785,-7.116943359375,7.096923828125,0.130126953125
0.079,-7.957763671875,7.056884765625,1.010986328125
0.0795,-7.717529296875,5.695556640625,2.252197265625
0.08,-7.717529296875,4.694580078125,3.213134765625
0.0805,-7.757568359375,2.852783203125,5.094970703125
0.081,-7.156982421875,1.531494140625,5.775634765625
0.0815,-6.516357421875,-0.150146484375,6.696533203125
0.082,-5.755615234375,-1.391357421875,7.217041015625
0.0825,-4.514404296875,-2.752685546875,7.297119140625
0.083,-3.193115234375,-4.154052734375,7.337158203125
0.0835,-1.631591796875,-5.915771484375,7.497314453125
0.084,-0.230224609375,-6.356201171875,6.416259765625
0.0845,0.850830078125,-7.397216796875,6.456298828125
0.085,2.252197265625,-7.477294921875,5.054931640625
0.0855,3.493408203125,-7.837646484375,4.174072265625
0.086,5.415283203125,-7.877685546875,2.292236328125
0.0865,6.496337890625,-7.717529296875,1.010986328125
0.087,6.896728515625,-6.796630859375,-0.390380859375
0.0875,7.537353515625,-6.596435546875,-1.191162109375
0.088,7.297119140625,-5.155029296875,-2.472412109375
0.0885,7.217041015625,-4.114013671875,-3.513427734375
0.089,7.417236328125,-2.472412109375,-5.395263671875
0.0895,6.536376953125,-1.071044921875,-5.915771484375
0.09,6.095947265625,0.530517578125,-6.876708984375
0.0905,5.054931640625,1.811767578125,-7.076904296875
0.091,3.973876953125,3.133056640625,-7.277099609375
0.0915,2.572509765625,4.614501953125,-7.317138671875
0.092,1.171142578125,6.176025390625,-7.397216796875
0.0925,-0.350341796875,6.576416015625,-6.276123046875
0.093,-1.271240234375,7.657470703125,-6.396240234375
0.0935,-2.912841796875,7.657470703125,-4.754638671875
0.094,-4.073974609375,7.977783203125,-3.873779296875
0.0945,-6.035888671875,8.057861328125,-2.031982421875
0.095,-6.796630859375,7.657470703125,-0.750732421875
0.0955,-7.357177734375,6.976806640625,0.530517578125
0.096,-7.717529296875,6.536376953125,1.411376953125
0.0965,-7.597412109375,4.974853515625,2.732666015625
0.097,-7.517333984375,3.853759765625,3.893798828125
0.0975,-7.717529296875,2.252197265625,5.615478515625
0.098,-6.556396484375,0.690673828125,6.095947265625
0.0985,-6.396240234375,-0.630615234375,7.136962890625
0.099,-4.914794921875,-2.192138671875,7.177001953125
0.0995,-3.913818359375,-3.553466796875,7.377197265625
0.1,-2.312255859375,-5.034912109375,7.337158203125
0.1005,-0.950927734375,-6.356201171875,7.177001953125
0.101,0.570556640625,-6.756591796875,6.135986328125
0.1015,1.531494140625,-7.717529296875,6.055908203125
0.102,3.373291015625,-7.677490234375,4.134033203125
0.1025,4.494384765625,-7.837646484375,3.253173828125
0.103,6.256103515625,-7.877685546875,1.451416015625
0.1035,6.736572265625,-7.156982421875,0.250244140625
0.104,7.297119140625,-6.636474609375,-0.910888671875
0.1045,7.417236328125,-5.795654296875,-1.991943359375
0.105,7.337158203125,-4.314208984375,-3.433349609375
0.1055,7.096923828125,-3.072998046875,-4.514404296875
0.106,7.217041015625,-1.551513671875,-6.035888671875
0.1065,5.895751953125,0.210205078125,-6.356201171875
0.107,5.775634765625,1.291259765625,-7.317138671875
0.1075,4.013916015625,3.012939453125,-7.156982421875
0.108,3.093017578125,4.214111328125,-7.397216796875
0.1085,1.531494140625,5.655517578125,-7.237060546875
0.109,0.130126953125,6.696533203125,-6.836669921875
0.1095,-1.231201171875,7.096923828125,-5.915771484375
0.11,-2.312255859375,7.857666015625,-5.515380859375
0.1105,-4.154052734375,7.817626953125,-3.673583984375
0.111,-5.114990234375,7.857666015625,-2.712646484375
0.1115,-6.676513671875,7.817626953125,-1.151123046875
0.112,-6.956787109375,6.976806640625,0.130126953125
0.1125,-7.557373046875,6.656494140625,1.010986328125
0.113,-7.477294921875,5.375244140625,2.292236328125
0.1135,-7.517333984375,4.134033203125,3.533447265625
0.114,-7.197021484375,2.732666015625,4.694580078125
0.1145,-7.156982421875,1.451416015625,5.935791015625
0.115,-5.875732421875,-0.310302734375,6.256103515625
0.1155,-5.795654296875,-1.271240234375,7.177001953125
0.116,-3.873779296875,-3.072998046875,7.016845703125
0.1165,-3.113037109375,-4.154052734375,7.217041015625
0.117,-1.471435546875,-5.555419921875,7.016845703125
0.1175,-0.190185546875,-6.396240234375,6.456298828125
0.118,1.010986328125,-6.996826171875,5.855712890625
0.1185,2.372314453125,-7.557373046875,5.054931640625
0.119,4.093994140625,-7.637451171875,3.373291015625
0.1195,5.094970703125,-7.557373046875,2.332275390625
0.12,6.456298828125,-7.557373046875,0.930908203125
0.1205,6.616455078125,-6.636474609375,-0.350341796875
0.121,7.297119140625,-6.396240234375,-1.191162109375
0.1215,7.096923828125,-4.794677734375,-2.752685546875
0.122,7.217041015625,-3.673583984375,-3.913818359375
0.1225,6.896728515625,-2.152099609375,-5.114990234375
0.123,6.696533203125,-0.790771484375,-6.276123046875
0.1235,5.455322265625,0.930908203125,-6.596435546875
0.124,5.175048828125,1.931884765625,-7.317138671875
0.1245,3.173095703125,3.933837890625,-7.237060546875
0.125,2.332275390625,4.974853515625,-7.357177734375
0.1255,0.690673828125,6.336181640625,-7.036865234375
0.126,-0.790771484375,7.056884765625,-6.356201171875
0.1265,-1.911865234375,7.617431640625,-5.755615234375
0.127,-3.553466796875,7.977783203125,-4.474365234375
0.1275,-5.275146484375,8.137939453125,-2.832763671875
0.128,-6.115966796875,7.697509765625,-1.591552734375
0.1285,-7.317138671875,7.577392578125,-0.270263671875
0.129,-7.397216796875,6.456298828125,1.010986328125
0.1295,-7.797607421875,6.095947265625,1.851806640625
0.13,-7.597412109375,4.174072265625,3.613525390625
0.1305,-7.557373046875,3.133056640625,4.654541015625
0.131,-7.036865234375,1.531494140625,5.735595703125
0.1315,-6.556396484375,0.130126953125,6.656494140625
0.132,-5.395263671875,-1.471435546875,6.936767578125
0.1325,-4.674560546875,-2.632568359375,7.337158203125
0.133,-2.752685546875,-4.554443359375,7.337158203125
0.1335,-1.751708984375,-5.315185546875,7.016845703125
0.134,-0.270263671875,-6.556396484375,6.696533203125
0.1345,1.091064453125,-6.996826171875,5.815673828125
0.135,2.092041015625,-7.557373046875,5.295166015625
0.1355,3.853759765625,-7.637451171875,3.613525390625
0.136,5.375244140625,-7.837646484375,2.292236328125
0.1365,6.055908203125,-7.237060546875,0.970947265625
0.137,7.056884765625,-7.116943359375,-0.190185546875
0.1375,7.016845703125,-6.035888671875,-1.351318359375
0.138,7.297119140625,-5.475341796875,-2.112060546875
0.1385,7.096923828125,-3.553466796875,-3.873779296875
0.139,7.016845703125,-2.632568359375,-4.754638671875
0.1395,6.536376953125,-1.031005859375,-5.835693359375
0.14,5.855712890625,0.370361328125,-6.476318359375
0.1405,4.894775390625,1.771728515625,-6.876708984375
0.141,3.973876953125,2.972900390625,-7.076904296875
0.1415,2.412353515625,4.774658203125,-7.317138671875
0.142,1.331298828125,5.415283203125,-6.796630859375
0.1425,-0.150146484375,6.696533203125,-6.676513671875
0.143,-1.351318359375,7.056884765625,-5.715576171875
0.1435,-2.432373046875,7.657470703125,-5.235107421875
0.144,-4.314208984375,7.697509765625,-3.353271484375
0.1445,-5.635498046875,7.857666015625,-2.272216796875
0.145,-6.276123046875,7.177001953125,-0.910888671875
0.1455,-7.197021484375,7.056884765625,0.170166015625
0.146,-7.197021484375,6.055908203125,1.331298828125
0.1465,-7.357177734375,5.295166015625,2.252197265625
0.147,-7.397216796875,3.573486328125,4.093994140625
0.1475,-7.076904296875,2.532470703125,4.814697265625
0.148,-6.716552734375,0.970947265625,5.935791015625
0.1485,-5.835693359375,-0.510498046875,6.456298828125
0.149,-5.074951171875,-1.791748046875,6.896728515625
0.1495,-3.713623046875,-3.193115234375,6.936767578125
0.15,-2.432373046875,-4.794677734375,7.177001953125
0.1505,-1.151123046875,-5.395263671875,6.456298828125
0.151,0.130126953125,-6.636474609375,6.456298828125
0.1515,1.411376953125,-6.836669921875,5.375244140625
0.152,2.532470703125,-7.397216796875,4.774658203125
0.1525,4.534423828125,-7.557373046875,2.852783203125
0.153,5.615478515625,-7.557373046875,1.771728515625
0.1535,6.256103515625,-6.916748046875,0.330322265625
0.154,6.896728515625,-6.596435546875,-0.630615234375
0.1545,6.896728515625,-5.475341796875,-1.751708984375
0.155,6.896728515625,-4.514404296875,-2.752685546875
0.1555,7.136962890625,-2.912841796875,-4.554443359375
0.156,6.456298828125,-1.711669921875,-5.114990234375
0.1565,6.216064453125,-0.230224609375,-6.356201171875
0.157,5.094970703125,1.251220703125,-6.556396484375
0.1575,4.414306640625,2.412353515625,-6.996826171875
0.158,2.852783203125,3.973876953125,-6.996826171875
0.1585,1.731689453125,5.415283203125,-7.197021484375
0.159,0.290283203125,5.975830078125,-6.276123046875
0.1595,-0.830810546875,7.096923828125,-6.316162109375
0.16,-2.152099609375,7.177001953125,-5.074951171875
0.1605,-3.353271484375,7.617431640625,-4.314208984375
0.161,-5.395263671875,7.737548828125,-2.432373046875
0.1615,-6.156005859375,7.457275390625,-1.271240234375
0.162,-6.876708984375,6.936767578125,0.090087890625
0.1625,-7.277099609375,6.456298828125,0.970947265625
0.163,-7.237060546875,5.415283203125,2.052001953125
0.1635,-7.116943359375,4.134033203125,3.253173828125
0.164,-7.397216796875,2.772705078125,4.854736328125
0.1645,-6.436279296875,1.331298828125,5.335205078125
0.165,-6.356201171875,0.010009765625,6.456298828125
0.1655,-5.034912109375,-1.431396484375,6.536376953125
0.166,-4.354248046875,-2.592529296875,6.976806640625
0.1665,-2.712646484375,-4.234130859375,6.896728515625
0.167,-1.591552734375,-5.355224609375,6.856689453125
0.1675,-0.230224609375,-5.955810546875,6.055908203125
0.168,0.770751953125,-6.796630859375,5.935791015625
0.1685,2.132080078125,-6.956787109375,4.694580078125
0.169,3.373291015625,-7.277099609375,3.773681640625
0.1695,5.295166015625,-7.477294921875,2.052001953125
0.17,5.775634765625,-6.876708984375,0.930908203125
0.1705,6.576416015625,-6.636474609375,-0.190185546875
0.171,6.656494140625,-5.835693359375,-1.151123046875
0.1715,6.696533203125,-4.914794921875,-2.152099609375
0.172,6.656494140625,-3.513427734375,-3.473388671875
0.1725,6.896728515625,-2.392333984375,-4.834716796875
0.173,5.855712890625,-0.870849609375,-5.355224609375
0.1735,5.855712890625,0.330322265625,-6.396240234375
0.174,4.454345703125,1.771728515625,-6.396240234375
0.1745,3.853759765625,2.852783203125,-6.836669921875
0.175,2.252197265625,4.614501953125,-6.996826171875
0.1755,1.131103515625,5.495361328125,-6.676513671875
0.176,-0.230224609375,6.336181640625,-6.156005859375
0.1765,-1.231201171875,6.976806640625,-5.795654296875
0.177,-2.712646484375,7.177001953125,-4.554443359375
0.1775,-4.073974609375,7.497314453125,-3.473388671875
0.178,-5.835693359375,7.737548828125,-1.911865234375
0.1785,-6.236083984375,6.896728515625,-0.630615234375
0.179,-7.116943359375,6.936767578125,0.330322265625
0.1795,-7.076904296875,5.775634765625,1.451416015625
0.18,-7.197021484375,4.814697265625,2.532470703125
0.1805,-7.116943359375,3.253173828125,4.093994140625
0.181,-7.116943359375,2.052001953125,5.255126953125
0.1815,-6.115966796875,0.450439453125,5.815673828125
0.182,-5.995849609375,-0.710693359375,6.776611328125
0.1825,-4.354248046875,-2.312255859375,6.696533203125
0.183,-3.553466796875,-3.473388671875,6.976806640625
0.1835,-1.911865234375,-5.195068359375,7.056884765625
0.184,-0.630615234375,-5.875732421875,6.376220703125
0.1845,0.530517578125,-6.716552734375,6.055908203125
0.185,1.851806640625,-7.156982421875,5.135009765625
0.1855,3.333251953125,-7.237060546875,3.853759765625
0.186,4.614501953125,-7.357177734375,2.572509765625
0.1865,6.095947265625,-7.397216796875,1.211181640625
0.187,6.256103515625,-6.396240234375,0.010009765625
0.1875,7.016845703125,-6.396240234375,-0.830810546875
0.188,6.736572265625,-4.874755859375,-2.192138671875
