wavelength,x,y,z
0.0,3.3282470703125,15.860473632812,-18.933471679688
0.0005,-1.2762451171875,18.342895507812,-17.131713867188
0.001,-4.9998779296875,20.104614257812,-15.410034179688
0.0015,-7.8426513671875,20.384887695312,-12.887573242188
0.002,-11.165893554688,20.424926757812,-9.8446044921875
0.0025,-14.729370117188,19.784301757812,-5.7606201171875
0.003,-17.411987304688,18.543090820312,-1.9168701171875
0.0035,-19.373901367188,16.501098632812,2.0870361328125
0.004,-20.494995117188,14.258911132812,5.3702392578125
0.0045,-20.575073242188,11.215942382812,8.4532470703125
0.005,-20.214721679688,7.0518798828125,12.216918945312
0.0055,-19.574096679688,3.5284423828125,15.099731445312
0.006,-18.292846679688,-0.6356201171875,17.942504882812
0.0065,-16.370971679688,-4.4393310546875,19.824340820312
0.007,-13.848510742188,-7.3221435546875,20.264770507812
0.0075,-10.765502929688,-10.565307617188,20.545043945312
0.008,-5.9207763671875,-14.449096679688,19.864379882812
0.0085,-1.7967529296875,-17.171752929688,18.623168945312
0.009,2.5274658203125,-19.213745117188,16.661254882812
0.0095,6.0509033203125,-20.735229492188,14.859497070312
0.01,9.1339111328125,-20.695190429688,11.936645507812
0.0105,12.537231445312,-20.494995117188,8.4532470703125
0.011,15.940551757812,-19.814331054688,4.4893798828125
0.0115,18.623168945312,-18.092651367188,0.1651611328125
0.012,20.344848632812,-16.010620117188,-3.5985107421875
0.0125,20.945434570312,-13.448120117188,-6.7215576171875
0.013,20.985473632812,-10.204956054688,-9.9647216796875
0.0135,20.424926757812,-5.6805419921875,-13.928588867188
0.014,19.584106445312,-2.1971435546875,-16.531127929688
0.0145,17.902465820312,1.9268798828125,-18.933471679688
0.015,15.900512695312,5.6505126953125,-20.735229492188
0.0155,12.657348632812,8.6934814453125,-20.655151367188
0.016,9.1739501953125,12.016723632812,-20.735229492188
0.0165,4.4093017578125,15.900512695312,-20.054565429688
0.017,-0.3153076171875,18.583129882812,-18.292846679688
0.0175,-4.2391357421875,20.184692382812,-16.330932617188
0.018,-7.6824951171875,21.345825195312,-14.168823242188
0.0185,-11.045776367188,21.265747070312,-10.845581054688
0.019,-14.609252929688,20.585083007812,-6.7215576171875
0.0195,-17.492065429688,19.704223632812,-3.0780029296875
0.02,-20.014526367188,17.582153320312,1.6065673828125
0.0205,-21.415893554688,15.339965820312,5.1700439453125
0.021,-21.495971679688,12.216918945312,8.2930908203125
0.0215,-21.455932617188,8.6934814453125,11.696411132812
0.022,-20.655151367188,4.0089111328125,15.660278320312
0.0225,-19.413940429688,0.1651611328125,18.222778320312
0.023,-17.411987304688,-3.7186279296875,20.144653320312
0.0235,-15.249877929688,-7.3221435546875,21.626098632812
0.024,-11.526245117188,-10.565307617188,21.265747070312
0.0245,-7.4022216796875,-14.088745117188,20.865356445312
0.025,-3.0780029296875,-17.371948242188,20.024536132812
0.0255,2.1270751953125,-19.934448242188,17.742309570312
0.026,5.6505126953125,-21.135620117188,15.660278320312
0.0265,8.9337158203125,-21.656127929688,13.097778320312
0.027,12.296997070312,-21.536010742188,9.7745361328125
0.0275,16.060668945312,-20.494995117188,5.0098876953125
0.028,18.663208007812,-19.173706054688,1.2462158203125
0.0285,20.705200195312,-17.011596679688,-2.9578857421875
0.029,21.826293945312,-14.689331054688,-6.3612060546875
0.0295,21.465942382812,-11.125854492188,-9.4842529296875
0.03,21.185668945312,-7.4022216796875,-12.927612304688
0.0305,20.464965820312,-3.1981201171875,-16.370971679688
0.031,18.783325195312,1.1260986328125,-18.973510742188
0.0315,16.581176757812,4.6495361328125,-20.374877929688
0.032,14.138793945312,8.0528564453125,-21.415893554688
0.0325,10.375122070312,11.336059570312,-21.215698242188
0.033,5.4503173828125,15.259887695312,-20.374877929688
0.0335,1.5264892578125,17.942504882812,-19.413940429688
0.034,-3.3582763671875,20.304809570312,-17.131713867188
0.0345,-6.7615966796875,21.465942382812,-15.089721679688
0.035,-10.124877929688,21.465942382812,-11.886596679688
0.0355,-13.328002929688,21.345825195312,-8.6834716796875
0.036,-16.971557617188,20.304809570312,-4.1190185546875
0.0365,-19.534057617188,18.382934570312,0.3653564453125
0.037,-21.015502929688,16.260864257812,3.8487548828125
0.0375,-21.856323242188,13.618286132812,7.2520751953125
0.038,-21.455932617188,9.8546142578125,10.615356445312
0.0385,-20.935424804688,5.6104736328125,14.298950195312
0.039,-20.214721679688,1.9268798828125,17.221801757812
0.0395,-18.332885742188,-2.5975341796875,19.864379882812
0.04,-16.010620117188,-6.0809326171875,21.105590820312
0.0405,-13.087768554688,-9.3641357421875,21.505981445312
0.041,-9.4442138671875,-12.687377929688,21.465942382812
0.0415,-4.1190185546875,-16.691284179688,20.304809570312
0.042,0.3253173828125,-19.093627929688,18.703247070312
0.0425,4.4493408203125,-20.895385742188,16.621215820312
0.043,7.8526611328125,-21.896362304688,14.379028320312
0.0435,11.456176757812,-21.576049804688,10.615356445312
0.044,14.739379882812,-21.135620117188,7.0518798828125
0.0445,17.982543945312,-20.134643554688,2.8477783203125
0.045,20.585083007812,-17.812377929688,-2.0770263671875
0.0455,21.626098632812,-15.570190429688,-5.2801513671875
0.046,22.066528320312,-12.607299804688,-8.6834716796875
0.0465,21.666137695312,-8.7635498046875,-12.006713867188
0.047,20.825317382812,-4.1590576171875,-15.770385742188
0.0475,19.704223632812,-0.4754638671875,-18.332885742188
0.048,17.782348632812,3.8087158203125,-20.615112304688
0.0485,15.219848632812,7.2921142578125,-21.736206054688
0.049,11.496215820312,10.735473632812,-21.576049804688
0.0495,7.6524658203125,14.138793945312,-21.495971679688
0.05,2.6075439453125,17.902465820312,-20.334838867188
0.0505,-2.5174560546875,20.304809570312,-17.972534179688
0.051,-5.9207763671875,21.586059570312,-16.010620117188
0.0515,-9.4442138671875,22.346801757812,-13.448120117188
0.052,-13.087768554688,21.826293945312,-9.4442138671875
0.0525,-16.491088867188,20.945434570312,-5.2401123046875
0.053,-19.253784179688,19.664184570312,-1.2762451171875
0.0535,-21.576049804688,17.141723632812,3.5684814453125
0.054,-22.256713867188,14.579223632812,6.6915283203125
0.0545,-22.336791992188,11.055786132812,10.214965820312
0.055,-21.856323242188,7.0919189453125,13.738403320312
0.0555,-20.895385742188,2.5675048828125,17.301879882812
0.056,-19.173706054688,-1.6766357421875,19.704223632812
0.0565,-17.131713867188,-5.4403076171875,21.505981445312
0.057,-14.449096679688,-8.9237060546875,22.386840820312
0.0575,-10.124877929688,-12.447143554688,21.786254882812
0.058,-5.8807373046875,-15.890502929688,21.265747070312
0.0585,-1.2362060546875,-18.973510742188,19.904418945312
0.059,3.9688720703125,-21.175659179688,17.301879882812
0.0595,7.0518798828125,-21.976440429688,15.179809570312
0.06,10.615356445312,-22.416870117188,12.216918945312
0.0605,14.178833007812,-21.816284179688,8.2530517578125
0.061,17.622192382812,-20.655151367188,3.7686767578125
0.0615,20.184692382812,-18.933471679688,-0.5555419921875
0.062,22.066528320312,-16.611206054688,-4.6795654296875
0.0625,22.426879882812,-13.808471679688,-7.8426513671875
0.063,22.146606445312,-9.8045654296875,-11.446166992188
0.0635,21.586059570312,-5.8406982421875,-14.849487304688
0.064,20.705200195312,-1.7166748046875,-18.052612304688
0.0645,18.422973632812,2.8077392578125,-20.374877929688
0.065,16.260864257812,6.1309814453125,-21.576049804688
0.0655,13.297973632812,9.6143798828125,-22.256713867188
0.066,8.8135986328125,13.297973632812,-21.576049804688
0.0665,4.2091064453125,16.781372070312,-20.655151367188
0.067,-0.4754638671875,19.504028320312,-19.093627929688
0.0675,-5.1199951171875,21.626098632812,-16.731323242188
0.068,-8.2430419921875,22.066528320312,-14.369018554688
0.0685,-11.846557617188,22.146606445312,-10.965698242188
0.069,-15.329956054688,21.586059570312,-7.0018310546875
0.0695,-18.533081054688,20.344848632812,-2.6776123046875
0.07,-20.815307617188,18.062622070312,1.9268798828125
0.0705,-22.256713867188,15.740356445312,5.6104736328125
0.071,-22.496948242188,12.657348632812,8.8936767578125
0.0715,-22.056518554688,8.3731689453125,12.657348632812
0.072,-21.255737304688,4.2091064453125,15.980590820312
0.0725,-20.214721679688,0.1651611328125,18.943481445312
0.073,-17.932495117188,-4.3592529296875,21.185668945312
0.0735,-15.369995117188,-7.5623779296875,21.906372070312
0.074,-12.206909179688,-10.885620117188,22.306762695312
0.0745,-7.5223388671875,-14.689331054688,21.626098632812
0.075,-2.7977294921875,-17.972534179688,20.384887695312
0.0755,2.0069580078125,-20.294799804688,18.262817382812
0.076,6.0509033203125,-22.056518554688,16.260864257812
0.0765,9.2540283203125,-22.296752929688,13.418090820312
0.077,12.937622070312,-22.056518554688,9.6544189453125
0.0775,16.501098632812,-21.415893554688,5.5704345703125
0.078,19.504028320312,-19.934448242188,1.2061767578125
0.0785,21.626098632812,-17.492065429688,-3.3983154296875
0.079,22.466918945312,-15.009643554688,-6.6815185546875
0.0795,22.667114257812,-11.686401367188,-10.124877929688
0.08,22.066528320312,-7.1619873046875,-13.968627929688
0.0805,21.105590820312,-3.1580810546875,-17.051635742188
0.081,19.504028320312,1.1260986328125,-19.734252929688
0.0815,17.301879882812,5.3302001953125,-21.816284179688
0.082,14.258911132812,8.5733642578125,-22.096557617188
0.0825,10.615356445312,12.096801757812,-22.136596679688
0.083,5.7706298828125,16.020629882812,-21.495971679688
0.0835,1.0860595703125,19.063598632812,-20.014526367188
0.084,-3.7186279296875,21.105590820312,-17.612182617188
0.0845,-7.3221435546875,22.466918945312,-15.570190429688
0.085,-10.725463867188,22.546997070312,-12.447143554688
0.0855,-14.409057617188,21.946411132812,-8.2830810546875
0.086,-17.652221679688,21.105590820312,-4.2391357421875
0.0865,-20.494995117188,19.183715820312,0.4454345703125
0.087,-22.296752929688,16.661254882812,4.7296142578125
0.0875,-22.617065429688,13.778442382812,7.8927001953125
0.088,-22.697143554688,10.174926757812,11.496215820312
0.0885,-21.896362304688,5.3702392578125,15.460083007812
0.089,-20.815307617188,1.4063720703125,18.342895507812
0.0895,-18.773315429688,-2.9178466796875,20.505004882812
0.09,-16.651245117188,-6.7615966796875,22.426879882812
0.0905,-13.247924804688,-9.9647216796875,22.346801757812
0.091,-9.1639404296875,-13.448120117188,21.946411132812
0.0915,-4.5594482421875,-17.051635742188,21.185668945312
0.092,0.5255126953125,-19.894409179688,19.263793945312
0.0925,4.8497314453125,-21.536010742188,16.821411132812
0.093,8.1329345703125,-22.296752929688,14.539184570312
0.0935,11.616333007812,-22.456909179688,11.255981445312
0.094,15.420043945312,-21.495971679688,6.6915283203125
0.0945,18.302856445312,-20.494995117188,2.8477783203125
0.095,20.785278320312,-18.332885742188,-1.7967529296875
0.0955,22.426879882812,-16.010620117188,-5.6405029296875
0.096,22.266723632812,-12.767456054688,-8.6834716796875
0.0965,22.106567382812,-9.0438232421875,-12.246948242188
0.097,21.305786132812,-4.5994873046875,-15.890502929688
0.0975,20.104614257812,-0.5155029296875,-18.733276367188
0.098,17.822387695312,3.6085205078125,-20.494995117188
0.0985,15.580200195312,7.0919189453125,-21.816284179688
0.099,12.136840820312,10.375122070312,-21.816284179688
0.0995,7.3721923828125,14.218872070312,-21.135620117188
0.1,3.3682861328125,17.261840820312,-20.374877929688
0.1005,-1.7967529296875,19.904418945312,-18.252807617188
0.101,-5.7606201171875,21.505981445312,-16.090698242188
0.1015,-8.8035888671875,21.786254882812,-13.448120117188
0.102,-12.206909179688,21.826293945312,-10.285034179688
0.1025,-16.010620117188,20.865356445312,-5.6004638671875
0.103,-18.653198242188,19.463989257812,-1.6365966796875
0.1035,-20.655151367188,17.301879882812,2.5274658203125
0.104,-21.936401367188,14.939575195312,6.0909423828125
0.1045,-21.736206054688,11.536254882812,9.2139892578125
0.105,-21.335815429688,7.3721923828125,12.937622070312
0.1055,-20.655151367188,3.4884033203125,16.100708007812
0.106,-19.213745117188,-0.7957763671875,18.943481445312
0.1065,-16.971557617188,-4.6395263671875,20.585083007812
0.107,-14.409057617188,-7.7625732421875,21.265747070312
0.1075,-11.165893554688,-11.045776367188,21.465942382812
0.108,-6.0408935546875,-15.089721679688,20.545043945312
0.1085,-1.9969482421875,-17.652221679688,19.343872070312
0.109,2.5675048828125,-19.854370117188,17.301879882812
0.1095,6.2110595703125,-21.335815429688,15.380004882812
0.11,9.2940673828125,-21.175659179688,12.296997070312
0.1105,12.657348632812,-21.095581054688,8.9337158203125
0.111,16.220825195312,-20.334838867188,4.7296142578125
0.1115,18.863403320312,-18.573120117188,0.4053955078125
0.112,20.464965820312,-16.451049804688,-3.3182373046875
0.1125,21.265747070312,-14.008666992188,-6.5614013671875
0.113,21.145629882812,-10.645385742188,-9.7645263671875
0.1135,20.625122070312,-6.1610107421875,-13.688354492188
0.114,19.864379882812,-2.7176513671875,-16.290893554688
0.1145,18.222778320312,1.5264892578125,-18.813354492188
0.115,16.140747070312,5.1700439453125,-20.494995117188
0.1155,13.057739257812,8.1729736328125,-20.535034179688
0.116,9.8145751953125,11.496215820312,-20.695190429688
0.1165,4.8096923828125,15.460083007812,-19.934448242188
0.117,0.3653564453125,18.062622070312,-18.292846679688
0.1175,-3.5584716796875,19.784301757812,-16.411010742188
0.118,-7.0418701171875,21.105590820312,-14.449096679688
0.1185,-10.244995117188,20.865356445312,-11.245971679688
0.119,-13.648315429688,20.424926757812,-7.3621826171875
0.1195,-16.651245117188,19.704223632812,-3.7987060546875
0.12,-19.173706054688,17.622192382812,0.7657470703125
0.1205,-20.494995117188,15.460083007812,4.1690673828125
0.121,-20.815307617188,12.617309570312,7.2921142578125
0.1215,-20.855346679688,9.3341064453125,10.535278320312
0.122,-20.174682617188,4.6495361328125,14.499145507812
0.1225,-19.133666992188,1.1260986328125,17.021606445312
0.123,-17.371948242188,-2.7176513671875,19.063598632812
0.1235,-15.410034179688,-6.2811279296875,20.745239257812
0.124,-11.886596679688,-9.2840576171875,20.424926757812
0.1245,-8.2030029296875,-12.687377929688,20.224731445312
0.125,-3.8387451171875,-16.090698242188,19.584106445312
0.1255,1.1260986328125,-18.653198242188,17.421997070312
0.126,4.4893798828125,-19.934448242188,15.660278320312
0.1265,7.7325439453125,-20.775268554688,13.338012695312
0.127,11.015747070312,-20.735229492188,10.214965820312
0.1275,14.699340820312,-19.894409179688,5.7706298828125
0.128,17.261840820312,-18.893432617188,2.2872314453125
0.1285,19.383911132812,-16.931518554688,-1.8768310546875
0.129,20.545043945312,-14.809448242188,-5.0799560546875
0.1295,20.424926757812,-11.606323242188,-8.1629638671875
0.13,20.384887695312,-8.1629638671875,-11.406127929688
0.1305,19.824340820312,-3.9989013671875,-15.009643554688
0.131,18.342895507812,0.1251220703125,-17.572143554688
0.1315,16.380981445312,3.5284423828125,-19.093627929688
0.132,14.258911132812,6.8917236328125,-20.414916992188
0.1325,10.735473632812,10.054809570312,-20.214721679688
0.133,6.2510986328125,13.818481445312,-19.614135742188
0.1335,2.4874267578125,16.621215820312,-18.933471679688
0.134,-2.3172607421875,19.023559570312,-16.811401367188
0.1345,-5.6405029296875,20.224731445312,-14.969604492188
0.135,-8.8436279296875,20.505004882812,-12.206909179688
0.1355,-12.046752929688,20.585083007812,-9.2039794921875
0.136,-15.690307617188,19.664184570312,-4.6795654296875
0.1365,-18.132690429688,17.982543945312,-0.6756591796875
0.137,-19.814331054688,16.060668945312,2.8477783203125
0.1375,-20.775268554688,13.778442382812,6.0909423828125
0.138,-20.454956054688,10.214965820312,9.3341064453125
0.1385,-20.134643554688,6.2911376953125,12.857543945312
0.139,-19.614135742188,2.6876220703125,15.980590820312
0.1395,-17.892456054688,-1.6766357421875,18.543090820312
0.14,-15.770385742188,-4.9998779296875,19.784301757812
0.1405,-13.167846679688,-8.2030029296875,20.464965820312
0.141,-9.6844482421875,-11.486206054688,20.464965820312
0.1415,-4.6795654296875,-15.249877929688,19.504028320312
0.142,-0.6356201171875,-17.772338867188,18.142700195312
0.1425,3.5284423828125,-19.734252929688,16.260864257812
0.143,6.7716064453125,-20.695190429688,14.218872070312
0.1435,10.174926757812,-20.575073242188,10.855590820312
0.144,13.378051757812,-20.374877929688,7.4923095703125
0.1445,16.661254882812,-19.534057617188,3.4483642578125
0.145,19.143676757812,-17.371948242188,-1.1160888671875
0.1455,20.264770507812,-15.410034179688,-4.1990966796875
0.146,20.825317382812,-12.727416992188,-7.3621826171875
0.1465,20.505004882812,-9.1239013671875,-10.605346679688
0.147,19.864379882812,-4.8397216796875,-14.208862304688
0.1475,19.023559570312,-1.3563232421875,-16.811401367188
0.148,17.261840820312,2.7276611328125,-19.093627929688
0.1485,14.939575195312,6.0909423828125,-20.214721679688
0.149,11.656372070312,9.2540283203125,-20.294799804688
0.1495,8.0128173828125,12.697387695312,-20.254760742188
0.15,3.2882080078125,16.260864257812,-19.293823242188
0.1505,-1.4364013671875,18.623168945312,-17.251831054688
0.151,-4.7596435546875,20.064575195312,-15.570190429688
0.1515,-8.0428466796875,20.945434570312,-13.368041992188
0.152,-11.486206054688,20.505004882812,-9.6844482421875
0.1525,-14.769409179688,19.864379882812,-5.8406982421875
0.153,-17.492065429688,18.863403320312,-2.1971435546875
0.1535,-19.694213867188,16.581176757812,2.2872314453125
0.154,-20.494995117188,14.338989257812,5.2501220703125
0.1545,-20.655151367188,11.255981445312,8.4532470703125
0.155,-20.374877929688,7.6524658203125,11.736450195312
0.1555,-19.614135742188,3.3682861328125,15.219848632812
0.156,-18.132690429688,-0.5155029296875,17.622192382812
0.1565,-16.411010742188,-4.0389404296875,19.463989257812
0.157,-14.088745117188,-7.2420654296875,20.464965820312
0.1575,-10.325073242188,-10.445190429688,20.104614257812
0.158,-6.4412841796875,-13.848510742188,19.824340820312
0.1585,-2.1571044921875,-16.851440429688,18.703247070312
0.159,2.6075439453125,-18.973510742188,16.380981445312
0.1595,5.4903564453125,-19.934448242188,14.659301757812
0.16,8.6934814453125,-20.494995117188,12.176879882812
0.1605,12.016723632812,-20.214721679688,8.6534423828125
0.161,15.299926757812,-19.293823242188,4.5694580078125
0.1615,17.702270507812,-17.932495117188,0.7657470703125
0.162,19.544067382812,-15.890502929688,-3.0379638671875
0.1625,20.104614257812,-13.448120117188,-5.8807373046875
0.163,19.984497070312,-10.124877929688,-9.0438232421875
0.1635,19.624145507812,-6.5614013671875,-12.286987304688
0.164,18.983520507812,-2.8377685546875,-15.410034179688
0.1645,17.221801757812,1.2862548828125,-17.612182617188
0.165,15.420043945312,4.3292236328125,-18.973510742188
0.1655,12.977661132812,7.5323486328125,-19.814331054688
0.166,9.2540283203125,10.735473632812,-19.413940429688
0.1665,4.9698486328125,14.178833007812,-18.853393554688
0.167,0.9659423828125,16.901489257812,-17.732299804688
0.1675,-3.3182373046875,18.903442382812,-15.730346679688
0.168,-6.2010498046875,19.664184570312,-13.808471679688
0.1685,-9.4041748046875,19.864379882812,-11.045776367188
0.169,-12.647338867188,19.584106445312,-7.6424560546875
0.1695,-15.690307617188,18.703247070312,-3.7987060546875
0.17,-17.972534179688,16.861450195312,0.3653564453125
0.1705,-19.413940429688,15.059692382812,3.5284423828125
0.171,-19.894409179688,12.497192382812,6.5313720703125
0.1715,-19.614135742188,8.8936767578125,9.8546142578125
0.172,-19.213745117188,5.1300048828125,13.097778320312
0.1725,-18.533081054688,1.5665283203125,16.020629882812
0.173,-16.691284179688,-2.4774169921875,18.222778320312
0.1735,-14.689331054688,-5.4403076171875,19.223754882812
0.174,-12.006713867188,-8.5633544921875,19.784301757812
0.1745,-8.0428466796875,-12.006713867188,19.463989257812
0.175,-3.7586669921875,-15.169799804688,18.543090820312
0.1755,0.6055908203125,-17.572143554688,16.861450195312
0.176,4.1290283203125,-19.293823242188,15.259887695312
0.1765,7.0919189453125,-19.894409179688,13.057739257812
0.177,10.415161132812,-19.854370117188,9.8145751953125
0.1775,13.738403320312,-19.413940429688,6.1710205078125
0.178,16.581176757812,-18.332885742188,2.4073486328125
