wavelength,x,y,z
0.0,-1.311279296875,19.028564453125,-17.967529296875
0.0005,-5.755615234375,22.351806640625,-17.006591796875
0.001,-10.239990234375,22.752197265625,-13.002685546875
0.0015,-13.643310546875,23.552978515625,-10.440185546875
0.002,-15.885498046875,21.831298828125,-6.596435546875
0.0025,-18.528076171875,19.949462890625,-1.991943359375
0.003,-20.850341796875,18.267822265625,2.052001953125
0.0035,-22.772216796875,15.344970703125,7.056884765625
0.004,-23.452880859375,12.662353515625,10.420166015625
0.0045,-22.411865234375,7.697509765625,14.343994140625
0.005,-20.970458984375,4.854736328125,15.825439453125
0.0055,-18.447998046875,-0.630615234375,18.708251953125
0.006,-17.286865234375,-5.155029296875,22.111572265625
0.0065,-13.162841796875,-10.079833984375,22.912353515625
0.007,-11.401123046875,-13.202880859375,24.273681640625
0.0075,-5.915771484375,-15.965576171875,21.510986328125
0.008,-1.751708984375,-18.167724609375,19.709228515625
0.0085,3.052978515625,-20.650146484375,17.427001953125
0.009,8.258056640625,-23.693115234375,15.425048828125
0.0095,11.861572265625,-23.853271484375,11.981689453125
0.01,15.665283203125,-23.412841796875,7.897705078125
0.0105,17.186767578125,-21.771240234375,4.734619140625
0.011,20.229736328125,-19.609130859375,-0.590576171875
0.0115,22.431884765625,-17.887451171875,-4.554443359375
0.012,23.633056640625,-13.963623046875,-9.679443359375
0.0125,24.273681640625,-11.761474609375,-12.602294921875
0.013,22.151611328125,-6.276123046875,-16.085693359375
0.0135,20.429931640625,-2.872802734375,-17.727294921875
0.014,18.227783203125,2.372314453125,-20.650146484375
0.0145,16.185791015625,7.657470703125,-23.973388671875
0.015,12.141845703125,11.821533203125,-24.093505859375
0.0155,9.259033203125,15.144775390625,-24.533935546875
0.016,4.294189453125,17.186767578125,-21.691162109375
0.0165,-0.750732421875,19.869384765625,-19.448974609375
0.017,-4.954833984375,22.111572265625,-17.647216796875
0.0175,-10.720458984375,24.593994140625,-14.364013671875
0.018,-13.403076171875,24.473876953125,-11.601318359375
0.0185,-17.286865234375,23.192626953125,-6.476318359375
0.019,-18.568115234375,21.390869140625,-3.313232421875
0.0195,-21.611083984375,19.268798828125,1.931884765625
0.02,-23.653076171875,16.786376953125,6.416259765625
0.0205,-24.133544921875,12.662353515625,11.140869140625
0.021,-24.533935546875,9.979736328125,14.223876953125
0.0215,-21.931396484375,4.814697265625,16.786376953125
0.022,-19.889404296875,0.650634765625,18.908447265625
0.0225,-18.047607421875,-3.993896484375,21.711181640625
0.023,-15.204833984375,-9.679443359375,24.634033203125
0.0235,-11.601318359375,-12.962646484375,24.233642578125
0.024,-7.477294921875,-16.446044921875,23.633056640625
0.0245,-3.032958984375,-18.047607421875,20.790283203125
0.025,2.492431640625,-21.130615234375,18.548095703125
0.0255,6.496337890625,-23.132568359375,16.586181640625
0.026,12.101806640625,-24.934326171875,12.902587890625
0.0265,14.664306640625,-24.493896484375,9.939697265625
0.027,17.907470703125,-22.692138671875,4.934814453125
0.0275,19.549072265625,-20.650146484375,1.171142578125
0.028,22.431884765625,-19.048583984375,-3.353271484375
0.0285,24.153564453125,-15.845458984375,-8.358154296875
0.029,24.153564453125,-12.121826171875,-12.121826171875
0.0295,23.953369140625,-8.638427734375,-15.445068359375
0.03,21.110595703125,-3.833740234375,-17.447021484375
0.0305,19.148681640625,0.970947265625,-20.209716796875
0.031,17.266845703125,5.375244140625,-22.772216796875
0.0315,14.023681640625,11.060791015625,-25.134521484375
0.032,10.540283203125,13.823486328125,-24.493896484375
0.0325,5.735595703125,17.106689453125,-23.012451171875
0.033,1.451416015625,18.628173828125,-20.289794921875
0.0335,-3.833740234375,21.951416015625,-18.568115234375
0.034,-8.318115234375,23.673095703125,-15.805419921875
0.0345,-12.962646484375,25.074462890625,-12.602294921875
0.035,-15.765380859375,24.113525390625,-8.918701171875
0.0355,-18.447998046875,22.111572265625,-4.274169921875
0.036,-20.530029296875,19.949462890625,0.130126953125
0.0365,-23.172607421875,18.387939453125,4.374267578125
0.037,-24.654052734375,14.584228515625,9.699462890625
0.0375,-24.333740234375,10.860595703125,13.102783203125
0.038,-23.532958984375,7.056884765625,16.185791015625
0.0385,-20.650146484375,2.172119140625,18.187744140625
0.039,-19.088623046875,-2.712646484375,21.430908203125
0.0395,-16.365966796875,-7.397216796875,23.432861328125
0.04,-13.363037109375,-12.482177734375,25.554931640625
0.0405,-9.038818359375,-15.525146484375,24.193603515625
0.041,-4.354248046875,-18.287841796875,22.351806640625
0.0415,0.650634765625,-20.129638671875,19.268798828125
0.042,5.415283203125,-23.452880859375,18.067626953125
0.0425,10.540283203125,-24.533935546875,14.023681640625
0.043,14.343994140625,-25.374755859375,11.180908203125
0.0435,17.186767578125,-23.933349609375,6.896728515625
0.044,19.749267578125,-21.731201171875,2.052001953125
0.0445,22.111572265625,-19.609130859375,-2.472412109375
0.045,24.273681640625,-17.326904296875,-6.916748046875
0.0455,25.474853515625,-13.723388671875,-11.801513671875
0.046,24.433837890625,-9.319091796875,-15.244873046875
0.0465,23.072509765625,-5.635498046875,-17.647216796875
0.047,19.949462890625,-0.150146484375,-19.969482421875
0.0475,18.708251953125,4.734619140625,-23.572998046875
0.048,14.744384765625,9.899658203125,-24.734130859375
0.0485,12.302001953125,13.943603515625,-26.455810546875
0.049,7.056884765625,16.946533203125,-24.213623046875
0.0495,2.412353515625,19.388916015625,-22.091552734375
0.05,-2.992919921875,21.751220703125,-19.088623046875
0.0505,-7.837646484375,24.994384765625,-17.647216796875
0.051,-12.762451171875,25.594970703125,-13.363037109375
0.0515,-16.285888671875,25.514892578125,-9.799560546875
0.052,-18.407958984375,23.753173828125,-6.035888671875
0.0525,-21.170654296875,21.110595703125,-0.510498046875
0.053,-23.773193359375,19.228759765625,4.093994140625
0.0535,-25.094482421875,15.625244140625,9.058837890625
0.054,-26.215576171875,12.822509765625,13.062744140625
0.0545,-24.213623046875,7.257080078125,16.666259765625
0.055,-22.612060546875,3.773681640625,18.548095703125
0.0555,-19.489013671875,-1.991943359375,21.150634765625
0.056,-18.207763671875,-6.996826171875,24.834228515625
0.0565,-13.443115234375,-12.041748046875,25.154541015625
0.057,-11.040771484375,-15.565185546875,26.235595703125
0.0575,-5.715576171875,-17.967529296875,23.312744140625
0.058,-0.550537109375,-20.489990234375,20.830322265625
0.0585,4.534423828125,-22.772216796875,18.227783203125
0.059,9.939697265625,-25.655029296875,15.785400390625
0.0595,13.823486328125,-26.095458984375,12.422119140625
0.06,17.627197265625,-24.854248046875,7.377197265625
0.0605,19.148681640625,-23.332763671875,4.334228515625
0.061,22.151611328125,-20.530029296875,-1.551513671875
0.0615,24.794189453125,-18.728271484375,-6.035888671875
0.062,25.234619140625,-14.243896484375,-11.040771484375
0.0625,26.315673828125,-12.001708984375,-14.404052734375
0.063,23.552978515625,-6.236083984375,-17.447021484375
0.0635,21.591064453125,-2.192138671875,-19.529052734375
0.064,18.908447265625,3.173095703125,-22.131591796875
0.0645,16.946533203125,8.658447265625,-25.775146484375
0.065,12.582275390625,12.942626953125,-25.655029296875
0.0655,9.058837890625,16.506103515625,-25.775146484375
0.066,4.614501953125,18.187744140625,-22.932373046875
0.0665,-1.311279296875,21.230712890625,-20.209716796875
0.067,-5.795654296875,23.673095703125,-18.247802734375
0.0675,-11.641357421875,25.795166015625,-14.604248046875
0.068,-14.524169921875,26.275634765625,-12.362060546875
0.0685,-18.207763671875,24.033447265625,-6.396240234375
0.069,-19.609130859375,22.431884765625,-3.393310546875
0.0695,-22.612060546875,19.909423828125,2.212158203125
0.07,-25.334716796875,17.667236328125,7.217041015625
0.0705,-25.174560546875,12.982666015625,11.821533203125
0.071,-25.935302734375,10.260009765625,15.385009765625
0.0715,-22.932373046875,5.175048828125,17.427001953125
0.072,-20.810302734375,0.370361328125,20.109619140625
0.0725,-18.648193359375,-4.514404296875,22.752197265625
0.073,-15.725341796875,-10.520263671875,25.915283203125
0.0735,-12.201904296875,-13.803466796875,25.635009765625
0.074,-7.317138671875,-17.447021484375,24.473876953125
0.0745,-3.473388671875,-18.608154296875,21.871337890625
0.075,2.772705078125,-22.091552734375,19.228759765625
0.0755,7.337158203125,-24.533935546875,17.266845703125
0.076,12.982666015625,-25.815185546875,12.902587890625
0.0765,15.665283203125,-26.095458984375,10.540283203125
0.077,18.748291015625,-23.452880859375,4.854736328125
0.0775,20.670166015625,-21.531005859375,0.970947265625
0.078,23.432861328125,-19.569091796875,-3.793701171875
0.0785,25.915283203125,-16.486083984375,-9.439208984375
0.079,25.354736328125,-12.241943359375,-13.082763671875
0.0795,25.234619140625,-8.638427734375,-16.686279296875
0.08,22.151611328125,-3.993896484375,-18.247802734375
0.0805,20.029541015625,1.411376953125,-21.571044921875
0.081,17.907470703125,6.095947265625,-24.173583984375
0.0815,14.223876953125,12.181884765625,-26.575927734375
0.082,11.020751953125,15.024658203125,-26.175537109375
0.0825,5.455322265625,18.468017578125,-24.053466796875
0.083,1.411376953125,19.829345703125,-21.450927734375
0.0835,-4.474365234375,23.312744140625,-19.208740234375
0.084,-9.519287109375,25.514892578125,-16.446044921875
0.0845,-14.283935546875,26.275634765625,-12.522216796875
0.085,-17.166748046875,25.755126953125,-9.118896484375
0.0855,-19.689208984375,23.112548828125,-3.993896484375
0.086,-22.131591796875,20.870361328125,0.810791015625
0.0865,-24.654052734375,18.948486328125,5.215087890625
0.087,-26.615966796875,15.024658203125,11.220947265625
0.0875,-25.815185546875,11.020751953125,14.424072265625
0.088,-24.814208984375,6.696533203125,17.787353515625
0.0885,-21.731201171875,1.971923828125,19.388916015625
0.089,-19.849365234375,-3.553466796875,23.072509765625
0.0895,-16.966552734375,-8.598388671875,25.154541015625
0.09,-13.403076171875,-13.963623046875,27.036376953125
0.0905,-9.439208984375,-16.766357421875,25.915283203125
0.091,-3.873779296875,-19.609130859375,23.272705078125
0.0915,1.131103515625,-21.410888671875,20.189697265625
0.092,6.296142578125,-24.854248046875,18.548095703125
0.0925,11.901611328125,-26.415771484375,14.584228515625
0.093,15.745361328125,-26.615966796875,11.020751953125
0.0935,18.628173828125,-25.334716796875,6.856689453125
0.094,21.070556640625,-22.572021484375,1.731689453125
0.0945,23.713134765625,-20.369873046875,-3.313232421875
0.095,25.594970703125,-17.807373046875,-7.757568359375
0.0955,27.156494140625,-14.003662109375,-13.202880859375
0.096,25.715087890625,-9.439208984375,-16.406005859375
0.0965,24.033447265625,-5.235107421875,-19.008544921875
0.097,20.790283203125,0.050048828125,-20.930419921875
0.0975,19.268798828125,5.335205078125,-24.854248046875
0.098,15.264892578125,10.660400390625,-26.015380859375
0.0985,12.181884765625,15.064697265625,-27.416748046875
0.099,7.377197265625,17.907470703125,-25.414794921875
0.0995,2.052001953125,20.429931640625,-22.692138671875
0.1,-3.233154296875,22.592041015625,-19.689208984375
0.1005,-8.157958984375,25.715087890625,-18.007568359375
0.101,-13.523193359375,26.836181640625,-13.803466796875
0.1015,-16.966552734375,26.195556640625,-9.759521484375
0.102,-19.208740234375,24.634033203125,-6.115966796875
0.1025,-21.731201171875,21.711181640625,-0.550537109375
0.103,-24.533935546875,19.869384765625,4.294189453125
0.1035,-25.614990234375,16.105712890625,9.098876953125
0.104,-27.056396484375,12.982666015625,13.703369140625
0.1045,-24.974365234375,7.657470703125,16.946533203125
0.105,-23.212646484375,3.693603515625,19.228759765625
0.1055,-20.049560546875,-1.711669921875,21.390869140625
0.106,-18.728271484375,-6.876708984375,25.274658203125
0.1065,-14.163818359375,-12.041748046875,25.915283203125
0.107,-11.000732421875,-15.885498046875,26.595947265625
0.1075,-6.356201171875,-18.087646484375,24.153564453125
0.108,-0.790771484375,-20.690185546875,21.270751953125
0.1085,4.334228515625,-23.132568359375,18.788330078125
0.109,9.619384765625,-25.695068359375,16.145751953125
0.1095,14.063720703125,-26.896240234375,12.982666015625
0.11,17.627197265625,-25.134521484375,7.697509765625
0.1105,19.308837890625,-23.773193359375,4.614501953125
0.111,22.111572265625,-20.890380859375,-1.151123046875
0.1115,25.234619140625,-19.368896484375,-5.835693359375
0.112,25.474853515625,-14.804443359375,-10.720458984375
0.1125,26.756103515625,-12.241943359375,-14.684326171875
0.113,24.193603515625,-6.916748046875,-17.447021484375
0.1135,22.071533203125,-2.432373046875,-19.889404296875
0.114,19.388916015625,2.812744140625,-22.291748046875
0.1145,17.346923828125,8.458251953125,-25.975341796875
0.115,13.262939453125,13.062744140625,-26.415771484375
0.1155,9.058837890625,16.906494140625,-26.095458984375
0.116,5.094970703125,18.468017578125,-23.733154296875
0.1165,-1.071044921875,21.510986328125,-20.730224609375
0.117,-5.915771484375,24.273681640625,-18.768310546875
0.1175,-11.681396484375,26.075439453125,-14.844482421875
0.118,-15.004638671875,27.196533203125,-12.722412109375
0.1185,-18.568115234375,24.593994140625,-6.676513671875
0.119,-20.249755859375,23.072509765625,-3.393310546875
0.1195,-23.132568359375,20.389892578125,2.252197265625
0.12,-26.255615234375,18.227783203125,7.617431640625
0.1205,-25.935302734375,13.302978515625,12.221923828125
0.121,-26.736083984375,10.179931640625,16.145751953125
0.1215,-23.813232421875,5.335205078125,18.107666015625
0.122,-21.410888671875,0.090087890625,21.070556640625
0.1225,-19.088623046875,-4.914794921875,23.673095703125
0.123,-16.005615234375,-11.080810546875,26.716064453125
0.1235,-12.522216796875,-14.604248046875,26.876220703125
0.124,-7.076904296875,-18.447998046875,25.234619140625
0.1245,-3.353271484375,-19.649169921875,22.792236328125
0.125,3.173095703125,-23.052490234375,19.789306640625
0.1255,8.177978515625,-25.775146484375,17.667236328125
0.126,13.903564453125,-26.736083984375,12.942626953125
0.1265,16.826416015625,-27.296630859375,10.580322265625
0.127,19.869384765625,-24.333740234375,4.654541015625
0.1275,22.031494140625,-22.291748046875,0.370361328125
0.128,24.553955078125,-19.969482421875,-4.514404296875
0.1285,27.196533203125,-16.806396484375,-10.480224609375
0.129,26.395751953125,-12.362060546875,-14.123779296875
0.1295,26.235595703125,-8.318115234375,-18.087646484375
0.13,23.072509765625,-3.833740234375,-19.448974609375
0.1305,20.630126953125,2.052001953125,-22.772216796875
0.131,18.187744140625,7.056884765625,-25.294677734375
0.1315,14.143798828125,13.182861328125,-27.496826171875
0.132,11.140869140625,16.065673828125,-27.376708984375
0.1325,5.054931640625,19.549072265625,-24.734130859375
0.133,1.051025390625,20.830322265625,-22.091552734375
0.1335,-4.994873046875,24.233642578125,-19.609130859375
0.134,-10.440185546875,26.676025390625,-16.686279296875
0.1345,-15.164794921875,26.996337890625,-12.362060546875
0.135,-18.247802734375,26.756103515625,-9.038818359375
0.1355,-20.530029296875,23.753173828125,-3.833740234375
0.136,-23.092529296875,21.430908203125,1.211181640625
0.1365,-25.334716796875,19.188720703125,5.655517578125
0.137,-27.416748046875,15.104736328125,11.821533203125
0.1375,-26.535888671875,11.060791015625,15.064697265625
0.138,-25.374755859375,6.456298828125,18.628173828125
0.1385,-22.291748046875,2.092041015625,19.869384765625
0.139,-20.169677734375,-3.673583984375,23.512939453125
0.1395,-17.206787109375,-8.878662109375,25.755126953125
0.14,-13.202880859375,-14.283935546875,27.196533203125
0.1405,-9.679443359375,-17.166748046875,26.555908203125
0.141,-3.873779296875,-19.849365234375,23.472900390625
0.1415,0.890869140625,-21.571044921875,20.590087890625
0.142,6.015869140625,-24.734130859375,18.748291015625
0.1425,12.021728515625,-26.776123046875,14.864501953125
0.143,15.625244140625,-26.615966796875,11.100830078125
0.1435,18.708251953125,-25.574951171875,7.056884765625
0.144,20.710205078125,-22.732177734375,2.212158203125
0.1445,23.633056640625,-20.730224609375,-2.872802734375
0.145,25.354736328125,-18.087646484375,-7.317138671875
0.1455,26.956298828125,-14.123779296875,-12.962646484375
0.146,25.835205078125,-9.959716796875,-15.965576171875
0.1465,23.953369140625,-5.315185546875,-18.728271484375
0.147,20.950439453125,-0.790771484375,-20.249755859375
0.1475,19.468994140625,4.614501953125,-24.133544921875
0.148,15.625244140625,10.139892578125,-25.895263671875
0.1485,12.181884765625,14.504150390625,-26.776123046875
0.149,8.097900390625,17.427001953125,-25.614990234375
0.1495,2.692626953125,19.789306640625,-22.652099609375
0.15,-2.432373046875,21.991455078125,-19.889404296875
0.1505,-7.036865234375,24.754150390625,-18.127685546875
0.151,-12.882568359375,26.555908203125,-14.203857421875
0.1515,-16.045654296875,25.675048828125,-10.199951171875
0.152,-18.648193359375,24.513916015625,-6.476318359375
0.1525,-20.770263671875,21.631103515625,-1.431396484375
0.153,-23.853271484375,19.989501953125,3.453369140625
0.1535,-24.934326171875,16.345947265625,8.177978515625
0.154,-26.415771484375,13.062744140625,12.982666015625
0.1545,-24.894287109375,8.458251953125,16.145751953125
0.155,-22.892333984375,4.053955078125,18.548095703125
0.1555,-20.129638671875,-0.750732421875,20.550048828125
0.156,-18.768310546875,-5.875732421875,24.313720703125
0.1565,-14.604248046875,-11.361083984375,25.675048828125
0.157,-11.080810546875,-15.124755859375,25.915283203125
0.1575,-6.996826171875,-17.487060546875,24.193603515625
0.158,-1.431396484375,-19.889404296875,21.110595703125
0.1585,3.613525390625,-22.572021484375,18.908447265625
0.159,8.578369140625,-24.814208984375,16.305908203125
0.1595,13.423095703125,-26.615966796875,13.262939453125
0.16,16.866455078125,-24.814208984375,8.097900390625
0.1605,18.988525390625,-23.693115234375,4.814697265625
0.161,21.390869140625,-20.850341796875,-0.590576171875
0.1615,24.593994140625,-19.489013671875,-5.195068359375
0.162,24.954345703125,-14.964599609375,-10.039794921875
0.1625,26.155517578125,-12.041748046875,-14.163818359375
0.163,24.073486328125,-7.357177734375,-16.846435546875
0.1635,21.711181640625,-2.552490234375,-19.328857421875
0.164,19.268798828125,2.292236328125,-21.691162109375
0.1645,17.226806640625,7.777587890625,-25.054443359375
0.165,13.503173828125,12.502197265625,-26.175537109375
0.1655,9.058837890625,16.225830078125,-25.374755859375
0.166,5.375244140625,17.987548828125,-23.492919921875
0.1665,-0.630615234375,20.710205078125,-20.369873046875
0.167,-5.435302734375,23.753173828125,-18.728271484375
0.1675,-10.760498046875,25.114501953125,-14.764404296875
0.168,-14.444091796875,26.676025390625,-12.762451171875
0.1685,-17.607177734375,24.073486328125,-6.996826171875
0.169,-19.689208984375,22.632080078125,-3.513427734375
0.1695,-22.171630859375,19.949462890625,1.651611328125
0.17,-25.254638671875,18.027587890625,6.816650390625
0.1705,-25.134521484375,13.423095703125,11.301025390625
0.171,-25.695068359375,9.939697265625,15.385009765625
0.1715,-23.412841796875,6.015869140625,17.106689453125
0.172,-20.810302734375,0.570556640625,19.989501953125
0.1725,-18.848388671875,-4.114013671875,22.592041015625
0.173,-15.645263671875,-9.799560546875,25.114501953125
0.1735,-12.882568359375,-13.563232421875,26.155517578125
0.174,-7.277099609375,-17.126708984375,24.073486328125
0.1745,-3.873779296875,-18.568115234375,22.231689453125
0.175,2.052001953125,-21.330810546875,19.188720703125
0.1755,6.976806640625,-24.493896484375,17.587158203125
0.176,12.141845703125,-24.934326171875,12.942626953125
0.1765,15.465087890625,-26.015380859375,10.620361328125
0.177,17.867431640625,-23.372802734375,5.655517578125
0.1775,20.349853515625,-21.531005859375,1.291259765625
0.178,22.552001953125,-19.368896484375,-3.153076171875
0.1785,25.114501953125,-16.606201171875,-8.598388671875
0.179,24.994384765625,-12.882568359375,-12.201904296875
0.1795,24.473876953125,-8.358154296875,-16.245849609375
0.18,22.391845703125,-5.155029296875,-17.326904296875
