wavelength,x,y,z
0.0,-13.723388671875,18.508056640625,-5.555419921875
0.0005,-16.646240234375,17.066650390625,-1.271240234375
0.001,-18.808349609375,15.224853515625,2.692626953125
0.0015,-19.368896484375,13.383056640625,5.135009765625
0.002,-19.649169921875,10.820556640625,7.977783203125
0.0025,-19.368896484375,7.297119140625,11.220947265625
0.003,-18.568115234375,3.213134765625,14.584228515625
0.0035,-17.006591796875,-0.990966796875,17.146728515625
0.004,-15.445068359375,-4.114013671875,18.748291015625
0.0045,-13.443115234375,-6.716552734375,19.468994140625
0.005,-10.440185546875,-9.519287109375,19.268798828125
0.0055,-6.156005859375,-12.962646484375,18.548095703125
0.006,-1.391357421875,-16.165771484375,17.186767578125
0.0065,2.852783203125,-18.247802734375,15.264892578125
0.007,5.455322265625,-19.088623046875,13.703369140625
0.0075,8.298095703125,-19.569091796875,11.581298828125
0.008,11.501220703125,-19.168701171875,8.177978515625
0.0085,14.704345703125,-18.247802734375,4.134033203125
0.009,17.427001953125,-16.566162109375,-0.190185546875
0.0095,19.188720703125,-14.764404296875,-3.553466796875
0.01,19.509033203125,-12.682373046875,-6.035888671875
0.0105,19.549072265625,-9.879638671875,-8.958740234375
0.011,19.028564453125,-5.955810546875,-12.322021484375
0.0115,18.187744140625,-1.871826171875,-15.645263671875
0.012,16.426025390625,2.252197265625,-17.927490234375
0.0125,14.664306640625,5.054931640625,-19.048583984375
0.013,12.502197265625,7.817626953125,-19.689208984375
0.0135,8.738525390625,11.060791015625,-19.288818359375
0.014,4.414306640625,14.303955078125,-18.287841796875
0.0145,-0.470458984375,17.266845703125,-16.646240234375
0.015,-4.234130859375,19.148681640625,-14.964599609375
0.0155,-6.796630859375,19.589111328125,-13.122802734375
0.016,-9.639404296875,19.989501953125,-10.720458984375
0.0165,-13.322998046875,19.188720703125,-6.556396484375
0.017,-16.406005859375,17.907470703125,-2.352294921875
0.0175,-18.768310546875,16.025634765625,1.891845703125
0.018,-20.129638671875,14.183837890625,4.934814453125
0.0185,-20.369873046875,11.781494140625,7.697509765625
0.019,-20.209716796875,8.177978515625,11.140869140625
0.0195,-19.368896484375,4.214111328125,14.384033203125
0.02,-18.167724609375,-0.230224609375,17.547119140625
0.0205,-16.285888671875,-4.114013671875,19.509033203125
0.021,-14.123779296875,-6.716552734375,20.069580078125
0.0215,-11.681396484375,-9.559326171875,20.510009765625
0.022,-6.996826171875,-13.363037109375,19.709228515625
0.0225,-2.272216796875,-16.486083984375,18.267822265625
0.023,2.292236328125,-18.768310546875,16.345947265625
0.0235,5.775634765625,-20.369873046875,14.664306640625
0.024,8.618408203125,-20.489990234375,12.181884765625
0.0245,11.541259765625,-20.409912109375,9.339111328125
0.025,15.184814453125,-19.529052734375,5.054931640625
0.0255,18.267822265625,-17.687255859375,0.290283203125
0.026,20.189697265625,-15.725341796875,-3.593505859375
0.0265,20.830322265625,-13.603271484375,-6.396240234375
0.027,20.950439453125,-10.880615234375,-9.279052734375
0.0275,20.349853515625,-6.556396484375,-13.082763671875
0.028,19.348876953125,-2.592529296875,-16.005615234375
0.0285,17.627197265625,1.771728515625,-18.648193359375
0.029,15.705322265625,5.415283203125,-20.449951171875
0.0295,13.062744140625,8.057861328125,-20.489990234375
0.03,10.219970703125,10.940673828125,-20.570068359375
0.0305,5.255126953125,14.744384765625,-19.529052734375
0.031,0.210205078125,17.787353515625,-17.767333984375
0.0315,-3.833740234375,19.589111328125,-15.725341796875
0.032,-6.956787109375,20.550048828125,-14.043701171875
0.0325,-9.759521484375,20.630126953125,-11.401123046875
0.033,-13.162841796875,19.989501953125,-7.677490234375
0.0335,-16.205810546875,18.908447265625,-3.593505859375
0.034,-19.048583984375,16.946533203125,1.211181640625
0.0345,-20.610107421875,14.904541015625,4.774658203125
0.035,-20.810302734375,12.502197265625,7.337158203125
0.0355,-20.930419921875,9.739501953125,10.219970703125
0.036,-20.129638671875,5.094970703125,14.103759765625
0.0365,-18.888427734375,0.930908203125,17.146728515625
0.037,-16.966552734375,-2.992919921875,19.108642578125
0.0375,-15.244873046875,-6.236083984375,20.590087890625
0.038,-12.442138671875,-8.918701171875,20.550048828125
0.0385,-8.678466796875,-12.201904296875,20.149658203125
0.039,-4.154052734375,-15.525146484375,19.148681640625
0.0395,1.131103515625,-18.488037109375,17.106689453125
0.04,4.734619140625,-20.049560546875,15.224853515625
0.0405,7.457275390625,-20.570068359375,13.262939453125
0.041,10.219970703125,-20.850341796875,10.900634765625
0.0415,14.223876953125,-19.689208984375,6.135986328125
0.042,17.106689453125,-18.367919921875,2.011962890625
0.0425,19.468994140625,-16.486083984375,-2.192138671875
0.043,20.790283203125,-14.524169921875,-5.395263671875
0.0435,20.630126953125,-11.801513671875,-7.997802734375
0.044,20.590087890625,-8.518310546875,-11.240966796875
0.0445,19.789306640625,-4.194091796875,-14.804443359375
0.045,18.347900390625,0.370361328125,-17.927490234375
0.0455,16.305908203125,4.013916015625,-19.569091796875
0.046,14.303955078125,6.896728515625,-20.570068359375
0.0465,11.621337890625,9.739501953125,-20.730224609375
0.047,6.696533203125,13.583251953125,-19.849365234375
0.0475,2.372314453125,16.626220703125,-18.728271484375
0.048,-2.512451171875,19.188720703125,-16.646240234375
0.0485,-5.915771484375,20.550048828125,-14.844482421875
0.049,-8.798583984375,20.630126953125,-12.362060546875
0.0495,-11.641357421875,20.710205078125,-9.759521484375
0.05,-15.605224609375,19.589111328125,-4.834716796875
0.0505,-18.688232421875,17.747314453125,0.050048828125
0.051,-20.449951171875,15.825439453125,3.693603515625
0.0515,-21.410888671875,13.743408203125,6.696533203125
0.052,-21.290771484375,10.700439453125,9.619384765625
0.0525,-20.810302734375,6.496337890625,13.423095703125
0.053,-19.889404296875,2.412353515625,16.586181640625
0.0535,-18.167724609375,-2.192138671875,19.468994140625
0.054,-16.005615234375,-5.755615234375,20.870361328125
0.0545,-13.443115234375,-8.518310546875,21.230712890625
0.055,-10.600341796875,-11.481201171875,21.390869140625
0.0555,-4.954833984375,-15.605224609375,19.989501953125
0.056,0.090087890625,-18.568115234375,18.227783203125
0.0565,4.174072265625,-20.489990234375,16.265869140625
0.057,7.497314453125,-21.651123046875,14.263916015625
0.0575,10.660400390625,-21.330810546875,11.140869140625
0.058,13.823486328125,-20.850341796875,7.697509765625
0.0585,17.346923828125,-19.729248046875,3.133056640625
0.059,20.389892578125,-17.406982421875,-2.112060546875
0.0595,21.551025390625,-15.364990234375,-5.315185546875
0.06,22.071533203125,-12.722412109375,-8.238037109375
0.0605,21.791259765625,-9.759521484375,-11.160888671875
0.061,20.830322265625,-4.834716796875,-15.284912109375
0.0615,19.509033203125,-0.510498046875,-18.247802734375
0.062,17.667236328125,3.773681640625,-20.650146484375
0.0625,15.385009765625,7.177001953125,-21.771240234375
0.063,12.181884765625,10.099853515625,-21.611083984375
0.0635,8.658447265625,13.302978515625,-21.490966796875
0.064,3.213134765625,17.146728515625,-20.009521484375
0.0645,-2.312255859375,19.989501953125,-17.607177734375
0.065,-5.755615234375,21.270751953125,-15.685302734375
0.0655,-8.918701171875,22.071533203125,-13.523193359375
0.066,-12.001708984375,21.671142578125,-10.360107421875
0.0665,-15.685302734375,20.510009765625,-5.755615234375
0.067,-18.848388671875,19.068603515625,-1.231201171875
0.0675,-21.290771484375,16.786376953125,3.533447265625
0.068,-22.131591796875,14.464111328125,6.576416015625
0.0685,-22.131591796875,11.541259765625,9.739501953125
0.069,-21.851318359375,8.177978515625,12.742431640625
0.0695,-20.770263671875,3.213134765625,16.626220703125
0.07,-18.928466796875,-1.551513671875,19.509033203125
0.0705,-16.846435546875,-5.155029296875,21.150634765625
0.071,-14.764404296875,-8.197998046875,22.111572265625
0.0715,-11.200927734375,-11.200927734375,21.631103515625
0.072,-6.676513671875,-14.764404296875,20.790283203125
0.0725,-1.751708984375,-18.127685546875,19.388916015625
0.073,3.533447265625,-20.650146484375,16.906494140625
0.0735,6.656494140625,-21.450927734375,14.904541015625
0.074,9.699462890625,-21.811279296875,12.502197265625
0.0745,12.742431640625,-21.490966796875,9.339111328125
0.075,16.506103515625,-20.129638671875,4.374267578125
0.0755,19.509033203125,-18.247802734375,-0.470458984375
0.076,21.350830078125,-16.165771484375,-4.314208984375
0.0765,21.911376953125,-13.843505859375,-7.197021484375
0.077,21.711181640625,-10.560302734375,-10.239990234375
0.0775,21.190673828125,-6.716552734375,-13.643310546875
0.078,20.229736328125,-2.272216796875,-17.166748046875
0.0785,18.187744140625,2.532470703125,-19.889404296875
0.079,15.985595703125,5.815673828125,-21.090576171875
0.0795,13.783447265625,8.818603515625,-21.811279296875
0.08,10.099853515625,11.901611328125,-21.450927734375
0.0805,4.854736328125,15.665283203125,-20.169677734375
0.081,0.010009765625,18.748291015625,-18.608154296875
0.0815,-4.594482421875,20.950439453125,-16.406005859375
0.082,-7.597412109375,21.631103515625,-14.323974609375
0.0825,-10.840576171875,21.631103515625,-11.361083984375
0.083,-14.043701171875,21.110595703125,-7.877685546875
0.0835,-17.647216796875,19.709228515625,-3.032958984375
0.084,-20.489990234375,17.467041015625,2.052001953125
0.0845,-21.851318359375,15.385009765625,5.495361328125
0.085,-22.411865234375,12.902587890625,8.458251953125
0.0855,-22.091552734375,9.299072265625,11.821533203125
0.086,-21.130615234375,4.734619140625,15.505126953125
0.0865,-19.929443359375,0.330322265625,18.748291015625
0.087,-17.887451171875,-4.274169921875,21.270751953125
0.0875,-15.405029296875,-7.357177734375,21.951416015625
0.088,-12.682373046875,-10.440185546875,22.271728515625
0.0885,-8.518310546875,-13.963623046875,21.751220703125
0.089,-3.072998046875,-17.647216796875,20.109619140625
0.0895,2.172119140625,-20.209716796875,17.907470703125
0.09,6.095947265625,-21.931396484375,15.945556640625
0.0905,9.138916015625,-22.371826171875,13.503173828125
0.091,12.422119140625,-22.051513671875,10.219970703125
0.0915,16.025634765625,-21.090576171875,5.815673828125
0.092,19.348876953125,-19.408935546875,0.970947265625
0.0925,21.791259765625,-17.006591796875,-3.873779296875
0.093,22.471923828125,-14.684326171875,-6.876708984375
0.0935,22.752197265625,-11.841552734375,-9.999755859375
0.094,22.151611328125,-7.797607421875,-13.523193359375
0.0945,20.990478515625,-3.193115234375,-17.046630859375
0.095,19.268798828125,1.531494140625,-19.889404296875
0.0955,17.146728515625,5.615478515625,-21.971435546875
0.096,14.424072265625,8.578369140625,-22.291748046875
0.0965,11.180908203125,11.661376953125,-22.251708984375
0.097,6.536376953125,15.385009765625,-21.450927734375
0.0975,1.171142578125,18.828369140625,-19.689208984375
0.098,-3.873779296875,21.030517578125,-17.166748046875
0.0985,-7.197021484375,22.111572265625,-15.124755859375
0.099,-10.280029296875,22.391845703125,-12.642333984375
0.0995,-13.603271484375,21.711181640625,-8.918701171875
0.1,-17.086669921875,20.510009765625,-4.354248046875
0.1005,-20.209716796875,18.548095703125,0.730712890625
0.101,-22.211669921875,16.185791015625,4.974853515625
0.1015,-22.491943359375,13.703369140625,7.777587890625
0.102,-22.572021484375,10.540283203125,11.020751953125
0.1025,-21.811279296875,6.176025390625,14.744384765625
0.103,-20.650146484375,1.651611328125,18.067626953125
0.1035,-18.528076171875,-2.912841796875,20.469970703125
0.104,-16.446044921875,-6.476318359375,22.031494140625
0.1045,-13.803466796875,-9.399169921875,22.351806640625
0.105,-9.919677734375,-12.682373046875,21.791259765625
0.1055,-5.114990234375,-16.125732421875,20.670166015625
0.106,0.330322265625,-19.408935546875,18.748291015625
0.1065,4.854736328125,-21.290771484375,16.466064453125
0.107,7.697509765625,-21.851318359375,14.343994140625
0.1075,10.900634765625,-22.091552734375,11.661376953125
0.108,14.504150390625,-21.210693359375,7.377197265625
0.1085,17.747314453125,-19.849365234375,2.932861328125
0.109,20.469970703125,-17.767333984375,-1.871826171875
0.1095,22.071533203125,-15.645263671875,-5.555419921875
0.11,22.111572265625,-12.962646484375,-8.318115234375
0.1105,21.991455078125,-9.559326171875,-11.601318359375
0.111,21.070556640625,-5.114990234375,-15.164794921875
0.1115,19.829345703125,-0.510498046875,-18.568115234375
0.112,17.627197265625,3.773681640625,-20.650146484375
0.1125,15.425048828125,6.856689453125,-21.611083984375
0.113,12.782470703125,9.899658203125,-22.011474609375
0.1135,8.177978515625,13.583251953125,-21.210693359375
0.114,3.533447265625,16.786376953125,-19.929443359375
0.1145,-1.751708984375,19.709228515625,-17.847412109375
0.115,-5.755615234375,21.470947265625,-15.845458984375
0.1155,-8.558349609375,21.631103515625,-13.483154296875
0.116,-11.601318359375,21.751220703125,-10.800537109375
0.1165,-15.525146484375,20.750244140625,-6.115966796875
0.117,-18.728271484375,19.068603515625,-1.311279296875
0.1175,-21.010498046875,16.946533203125,3.133056640625
0.118,-22.131591796875,14.744384765625,6.416259765625
0.1185,-22.291748046875,11.901611328125,9.339111328125
0.119,-21.931396484375,7.857666015625,13.102783203125
0.1195,-20.850341796875,3.573486328125,16.385986328125
0.12,-19.328857421875,-1.231201171875,19.589111328125
0.1205,-17.126708984375,-5.275146484375,21.510986328125
0.121,-14.604248046875,-8.157958984375,21.871337890625
0.1215,-11.841552734375,-11.160888671875,22.271728515625
0.122,-6.556396484375,-15.204833984375,21.110595703125
0.1225,-1.551513671875,-18.287841796875,19.428955078125
0.123,3.253173828125,-20.570068359375,17.226806640625
0.1235,6.856689453125,-21.971435546875,15.304931640625
0.124,9.859619140625,-21.931396484375,12.502197265625
0.1245,13.102783203125,-21.611083984375,9.138916015625
0.125,16.746337890625,-20.489990234375,4.534423828125
0.1255,19.989501953125,-18.488037109375,-0.670654296875
0.126,21.751220703125,-16.285888671875,-4.594482421875
0.1265,22.271728515625,-13.923583984375,-7.517333984375
0.127,22.351806640625,-10.920654296875,-10.560302734375
0.1275,21.591064453125,-6.115966796875,-14.644287109375
0.128,20.349853515625,-2.072021484375,-17.767333984375
0.1285,18.508056640625,2.572509765625,-20.289794921875
0.129,16.345947265625,6.336181640625,-21.971435546875
0.1295,13.343017578125,9.178955078125,-21.811279296875
0.13,10.219970703125,12.302001953125,-21.851318359375
0.1305,4.894775390625,16.225830078125,-20.650146484375
0.131,-0.670654296875,19.268798828125,-18.568115234375
0.1315,-4.674560546875,21.030517578125,-16.446044921875
0.132,-7.917724609375,22.031494140625,-14.404052734375
0.1325,-11.000732421875,21.911376953125,-11.521240234375
0.133,-14.604248046875,21.070556640625,-7.237060546875
0.1335,-17.807373046875,19.869384765625,-2.992919921875
0.134,-20.650146484375,17.667236328125,2.052001953125
0.1345,-22.091552734375,15.465087890625,5.655517578125
0.135,-22.211669921875,12.742431640625,8.458251953125
0.1355,-22.251708984375,9.659423828125,11.581298828125
0.136,-21.330810546875,4.614501953125,15.665283203125
0.1365,-19.809326171875,0.090087890625,18.788330078125
0.137,-17.727294921875,-3.953857421875,20.710205078125
0.1375,-15.725341796875,-7.237060546875,22.111572265625
0.138,-12.522216796875,-10.159912109375,21.871337890625
0.1385,-8.318115234375,-13.643310546875,21.310791015625
0.139,-3.593505859375,-17.086669921875,20.149658203125
0.1395,1.971923828125,-19.929443359375,17.787353515625
0.14,5.695556640625,-21.370849609375,15.705322265625
0.1405,8.578369140625,-21.771240234375,13.463134765625
0.141,11.541259765625,-21.851318359375,10.860595703125
0.1415,15.625244140625,-20.570068359375,5.695556640625
0.142,18.628173828125,-19.008544921875,1.251220703125
0.1425,20.870361328125,-17.006591796875,-3.032958984375
0.143,22.031494140625,-14.844482421875,-6.276123046875
0.1435,21.791259765625,-11.841552734375,-9.118896484375
0.144,21.631103515625,-8.278076171875,-12.522216796875
0.1445,20.670166015625,-3.833740234375,-16.085693359375
0.145,18.988525390625,1.010986328125,-19.248779296875
0.1455,16.786376953125,4.734619140625,-20.770263671875
0.146,14.584228515625,7.737548828125,-21.651123046875
0.1465,11.581298828125,10.700439453125,-21.651123046875
0.147,6.296142578125,14.744384765625,-20.489990234375
0.1475,1.771728515625,17.787353515625,-19.208740234375
0.148,-3.153076171875,20.229736328125,-17.046630859375
0.1485,-6.596435546875,21.470947265625,-15.084716796875
0.149,-9.519287109375,21.430908203125,-12.362060546875
0.1495,-12.522216796875,21.390869140625,-9.559326171875
0.15,-16.446044921875,20.149658203125,-4.554443359375
0.1505,-19.489013671875,18.107666015625,0.570556640625
0.151,-21.170654296875,16.065673828125,4.134033203125
0.1515,-22.051513671875,13.863525390625,7.177001953125
0.152,-21.811279296875,10.700439453125,10.099853515625
0.1525,-21.130615234375,6.216064453125,14.063720703125
0.153,-20.169677734375,2.052001953125,17.186767578125
0.1535,-18.407958984375,-2.552490234375,20.029541015625
0.154,-16.125732421875,-6.035888671875,21.310791015625
0.1545,-13.483154296875,-8.838623046875,21.551025390625
0.155,-10.520263671875,-11.841552734375,21.631103515625
0.1555,-4.754638671875,-16.005615234375,20.189697265625
0.156,0.330322265625,-18.888427734375,18.227783203125
0.1565,4.334228515625,-20.650146484375,16.305908203125
0.157,7.577392578125,-21.731201171875,14.343994140625
0.1575,10.740478515625,-21.450927734375,11.220947265625
0.158,14.103759765625,-20.850341796875,7.417236328125
0.1585,17.467041015625,-19.729248046875,3.012939453125
0.159,20.349853515625,-17.447021484375,-2.072021484375
0.1595,21.430908203125,-15.324951171875,-5.235107421875
0.16,21.791259765625,-12.882568359375,-8.077880859375
0.1605,21.631103515625,-9.799560546875,-11.040771484375
0.161,20.630126953125,-4.834716796875,-15.124755859375
0.1615,19.268798828125,-0.470458984375,-18.047607421875
0.162,17.467041015625,3.573486328125,-20.249755859375
0.1625,15.304931640625,6.896728515625,-21.410888671875
0.163,12.101806640625,9.739501953125,-21.170654296875
0.1635,8.378173828125,13.022705078125,-21.010498046875
0.164,3.333251953125,16.786376953125,-19.689208984375
0.1645,-2.112060546875,19.509033203125,-17.326904296875
0.165,-5.435302734375,20.790283203125,-15.525146484375
0.1655,-8.398193359375,21.510986328125,-13.443115234375
0.166,-11.401123046875,21.230712890625,-10.440185546875
0.1665,-15.244873046875,20.149658203125,-5.715576171875
0.167,-18.287841796875,18.708251953125,-1.311279296875
0.1675,-20.650146484375,16.626220703125,3.093017578125
0.168,-21.490966796875,14.384033203125,6.015869140625
0.1685,-21.490966796875,11.541259765625,8.978759765625
0.169,-21.250732421875,8.137939453125,12.181884765625
0.1695,-20.329833984375,3.453369140625,15.985595703125
0.17,-18.528076171875,-1.231201171875,18.868408203125
0.1705,-16.606201171875,-4.674560546875,20.429931640625
0.171,-14.604248046875,-7.637451171875,21.430908203125
0.1715,-11.240966796875,-10.520263671875,21.030517578125
0.172,-6.556396484375,-14.243896484375,20.189697265625
0.1725,-1.831787109375,-17.487060546875,18.868408203125
0.173,3.173095703125,-19.889404296875,16.626220703125
0.1735,6.176025390625,-20.770263671875,14.744384765625
0.174,9.178955078125,-21.130615234375,12.302001953125
0.1745,12.181884765625,-20.890380859375,9.259033203125
0.175,15.985595703125,-19.609130859375,4.374267578125
0.1755,18.908447265625,-17.767333984375,-0.350341796875
0.176,20.590087890625,-15.965576171875,-3.913818359375
0.1765,21.190673828125,-13.763427734375,-6.676513671875
0.177,20.990478515625,-10.600341796875,-9.599365234375
0.1775,20.429931640625,-6.556396484375,-13.082763671875
0.178,19.549072265625,-2.352294921875,-16.446044921875
0.1785,17.627197265625,2.212158203125,-19.088623046875
0.179,15.545166015625,5.375244140625,-20.209716796875
0.1795,13.343017578125,8.218017578125,-20.850341796875
0.18,9.939697265625,11.220947265625,-20.610107421875
0.1805,4.774658203125,15.024658203125,-19.328857421875
0.181,0.050048828125,17.987548828125,-17.767333984375
