wavelength,x,y,z
0.0,6.46630859375,13.35302734375,-19.27880859375
0.0005,1.42138671875,16.71630859375,-17.87744140625
0.001,-3.02294921875,19.19873046875,-16.15576171875
0.0015,-5.62548828125,20.11962890625,-14.71435546875
0.002,-8.38818359375,20.43994140625,-12.35205078125
0.0025,-11.51123046875,19.83935546875,-8.98876953125
0.003,-14.87451171875,18.71826171875,-4.62451171875
0.0035,-17.95751953125,17.39697265625,-0.30029296875
0.004,-20.19970703125,15.75537109375,3.46337890625
0.0045,-20.35986328125,13.51318359375,5.90576171875
0.005,-20.23974609375,10.47021484375,8.86865234375
0.0055,-19.59912109375,6.38623046875,12.43212890625
0.006,-18.55810546875,1.90185546875,15.87548828125
0.0065,-17.15673828125,-2.26220703125,18.55810546875
0.007,-15.71533203125,-5.14501953125,20.11962890625
0.0075,-13.31298828125,-7.94775390625,20.47998046875
0.008,-9.50927734375,-11.07080078125,19.91943359375
0.0085,-4.82470703125,-14.67431640625,18.95849609375
0.009,0.18017578125,-17.95751953125,17.47705078125
0.0095,4.22412109375,-20.15966796875,15.83544921875
0.01,6.70654296875,-20.43994140625,13.91357421875
0.0105,9.62939453125,-20.52001953125,11.35107421875
0.011,13.11279296875,-19.79931640625,7.34716796875
0.0115,16.31591796875,-18.51806640625,2.98291015625
0.012,19.15869140625,-17.03662109375,-1.26123046875
0.0125,20.76025390625,-15.39501953125,-4.50439453125
0.013,20.72021484375,-12.71240234375,-7.14697265625
0.0135,20.39990234375,-9.22900390625,-10.43017578125
0.014,19.51904296875,-4.82470703125,-13.91357421875
0.0145,18.43798828125,-0.38037109375,-17.31689453125
0.015,16.95654296875,3.54345703125,-19.71923828125
0.0155,14.91455078125,6.26611328125,-20.47998046875
0.016,12.27197265625,9.10888671875,-20.88037109375
0.0165,7.62744140625,12.91259765625,-19.99951171875
0.017,2.90283203125,16.15576171875,-18.63818359375
0.0175,-1.94189453125,19.07861328125,-17.15673828125
0.018,-5.50537109375,20.88037109375,-15.51513671875
0.0185,-8.02783203125,20.80029296875,-13.11279296875
0.019,-10.91064453125,20.64013671875,-10.31005859375
0.0195,-14.67431640625,19.71923828125,-5.78564453125
0.02,-17.87744140625,18.19775390625,-1.22119140625
0.0205,-20.27978515625,16.51611328125,2.86279296875
0.021,-21.20068359375,14.59423828125,5.70556640625
0.0215,-21.16064453125,11.67138671875,8.58837890625
0.022,-20.52001953125,7.42724609375,12.19189453125
0.0225,-19.39892578125,3.14306640625,15.43505859375
0.023,-18.19775390625,-1.30126953125,18.59814453125
0.0235,-16.63623046875,-4.94482421875,20.72021484375
0.024,-14.15380859375,-7.46728515625,20.80029296875
0.0245,-11.27099609375,-10.39013671875,20.96044921875
0.025,-6.06591796875,-14.39404296875,19.87939453125
0.0255,-1.06103515625,-17.55712890625,18.19775390625
0.026,3.18310546875,-19.83935546875,16.55615234375
0.0265,6.34619140625,-21.08056640625,14.91455078125
0.027,8.98876953125,-20.80029296875,12.19189453125
0.0275,12.03173828125,-20.31982421875,8.86865234375
0.028,15.47509765625,-19.23876953125,4.54443359375
0.0285,18.63818359375,-17.63720703125,-0.14013671875
0.029,20.56005859375,-15.95556640625,-3.74365234375
0.0295,20.84033203125,-13.63330078125,-6.30615234375
0.03,20.68017578125,-10.75048828125,-9.10888671875
0.0305,19.87939453125,-6.02587890625,-13.07275390625
0.031,18.71826171875,-1.90185546875,-16.03564453125
0.0315,17.43701171875,2.06201171875,-18.71826171875
0.032,15.83544921875,5.42529296875,-20.47998046875
0.0325,12.95263671875,7.98779296875,-20.31982421875
0.033,9.70947265625,11.03076171875,-20.15966796875
0.0335,4.74462890625,14.87451171875,-19.19873046875
0.034,-0.46044921875,18.07763671875,-17.43701171875
0.0345,-4.06396484375,19.91943359375,-15.91552734375
0.035,-6.78662109375,20.64013671875,-14.11376953125
0.0355,-9.62939453125,20.47998046875,-11.43115234375
0.036,-13.11279296875,19.71923828125,-7.22705078125
0.0365,-16.19580078125,18.55810546875,-3.18310546875
0.037,-19.15869140625,17.07666015625,1.22119140625
0.0375,-20.80029296875,15.35498046875,4.50439453125
0.038,-20.64013671875,12.63232421875,7.06689453125
0.0385,-20.52001953125,9.54931640625,10.10986328125
0.039,-19.59912109375,4.66455078125,14.11376953125
0.0395,-18.31787109375,0.30029296875,17.27685546875
0.04,-16.99658203125,-3.26318359375,19.47900390625
0.0405,-15.27490234375,-6.34619140625,20.76025390625
0.041,-12.27197265625,-9.06884765625,20.60009765625
0.0415,-7.94775390625,-12.67236328125,19.91943359375
0.042,-3.26318359375,-15.99560546875,18.75830078125
0.0425,1.78173828125,-19.03857421875,17.03662109375
0.043,5.18505859375,-20.56005859375,15.43505859375
0.0435,7.78759765625,-20.68017578125,13.19287109375
0.044,10.55029296875,-20.64013671875,10.59033203125
0.0445,14.55419921875,-19.51904296875,5.70556640625
0.045,17.59716796875,-18.19775390625,1.42138671875
0.0455,19.99951171875,-16.71630859375,-2.42236328125
0.046,21.12060546875,-14.79443359375,-5.42529296875
0.0465,20.68017578125,-11.71142578125,-8.10791015625
0.047,20.39990234375,-7.98779296875,-11.59130859375
0.0475,19.39892578125,-3.50341796875,-15.15478515625
0.048,18.11767578125,1.10107421875,-18.39794921875
0.0485,16.47607421875,4.42431640625,-20.15966796875
0.049,14.27392578125,7.18701171875,-20.88037109375
0.0495,11.27099609375,10.10986328125,-20.80029296875
0.05,5.82568359375,14.31396484375,-19.63916015625
0.0505,1.34130859375,17.31689453125,-18.27783203125
0.051,-3.18310546875,19.91943359375,-16.67626953125
0.0515,-6.34619140625,21.12060546875,-14.95458984375
0.052,-9.06884765625,20.76025390625,-12.11181640625
0.0525,-11.99169921875,20.60009765625,-9.26904296875
0.053,-15.87548828125,19.35888671875,-4.34423828125
0.0535,-19.03857421875,17.67724609375,0.50048828125
0.054,-20.80029296875,16.07568359375,3.78369140625
0.0545,-21.48095703125,13.83349609375,6.66650390625
0.055,-21.04052734375,10.63037109375,9.46923828125
0.0555,-20.31982421875,5.90576171875,13.51318359375
0.056,-19.19873046875,1.74169921875,16.63623046875
0.0565,-17.95751953125,-2.66259765625,19.71923828125
0.057,-15.99560546875,-5.90576171875,21.12060546875
0.0575,-13.31298828125,-8.66845703125,21.12060546875
0.058,-10.10986328125,-11.67138671875,21.12060546875
0.0585,-4.22412109375,-15.87548828125,19.63916015625
0.059,0.90087890625,-18.91845703125,17.83740234375
0.0595,4.54443359375,-20.80029296875,16.35595703125
0.06,7.54736328125,-21.72119140625,14.43408203125
0.0605,10.47021484375,-21.12060546875,11.15087890625
0.061,13.83349609375,-20.47998046875,7.34716796875
0.0615,17.19677734375,-19.27880859375,2.86279296875
0.062,20.31982421875,-17.43701171875,-1.98193359375
0.0625,21.40087890625,-15.55517578125,-4.90478515625
0.063,21.52099609375,-12.83251953125,-7.78759765625
0.0635,21.20068359375,-9.58935546875,-10.79052734375
0.064,20.15966796875,-4.34423828125,-14.99462890625
0.0645,18.75830078125,0.02001953125,-17.95751953125
0.065,17.43701171875,3.70361328125,-20.43994140625
0.0655,15.39501953125,6.90673828125,-21.56103515625
0.066,11.91162109375,9.82958984375,-21.08056640625
0.0665,8.06787109375,13.31298828125,-20.80029296875
0.067,2.70263671875,17.11669921875,-19.39892578125
0.0675,-2.66259765625,20.15966796875,-17.31689453125
0.068,-5.70556640625,21.32080078125,-15.75537109375
0.0685,-8.66845703125,21.80126953125,-13.51318359375
0.069,-11.59130859375,21.28076171875,-10.31005859375
0.0695,-15.43505859375,20.11962890625,-5.46533203125
0.07,-18.55810546875,18.75830078125,-1.10107421875
0.0705,-21.20068359375,16.95654296875,3.34326171875
0.071,-21.92138671875,14.79443359375,6.18603515625
0.0715,-21.64111328125,11.55126953125,9.14892578125
0.072,-21.28076171875,7.94775390625,12.47216796875
0.0725,-20.11962890625,2.74267578125,16.47607421875
0.073,-18.47802734375,-1.94189453125,19.51904296875
0.0735,-16.91650390625,-5.26513671875,21.28076171875
0.074,-14.75439453125,-8.18798828125,22.12158203125
0.0745,-10.87060546875,-11.23095703125,21.48095703125
0.075,-6.02587890625,-15.07470703125,20.52001953125
0.0755,-0.94091796875,-18.43798828125,19.03857421875
0.076,4.14404296875,-21.16064453125,16.95654296875
0.0765,6.98681640625,-21.80126953125,15.07470703125
0.077,9.98974609375,-21.88134765625,12.31201171875
0.0775,13.07275390625,-21.40087890625,8.98876953125
0.078,16.87646484375,-19.87939453125,3.78369140625
0.0785,19.95947265625,-18.19775390625,-0.90087890625
0.079,21.92138671875,-16.47607421875,-4.54443359375
0.0795,22.28173828125,-13.95361328125,-7.38720703125
0.08,21.64111328125,-10.31005859375,-10.43017578125
0.0805,20.96044921875,-6.10595703125,-14.11376953125
0.081,19.79931640625,-1.42138671875,-17.63720703125
0.0815,18.07763671875,3.22314453125,-20.56005859375
0.082,16.03564453125,6.30615234375,-21.60107421875
0.0825,13.43310546875,9.26904296875,-22.04150390625
0.083,9.42919921875,12.63232421875,-21.44091796875
0.0835,3.86376953125,16.51611328125,-19.95947265625
0.084,-1.14111328125,19.59912109375,-18.31787109375
0.0845,-5.30517578125,21.80126953125,-16.59619140625
0.085,-8.14794921875,22.08154296875,-14.35400390625
0.0855,-11.27099609375,21.72119140625,-11.03076171875
0.086,-14.59423828125,21.12060546875,-7.30712890625
0.0865,-18.11767578125,19.51904296875,-2.30224609375
0.087,-21.08056640625,17.59716796875,2.50244140625
0.0875,-22.28173828125,15.67529296875,5.58544921875
0.088,-22.48193359375,12.91259765625,8.58837890625
0.0885,-21.76123046875,8.98876953125,11.83154296875
0.089,-20.64013671875,4.14404296875,15.67529296875
0.0895,-19.35888671875,-0.46044921875,18.83837890625
0.09,-17.79736328125,-4.62451171875,21.56103515625
0.0905,-15.39501953125,-7.46728515625,22.04150390625
0.091,-12.31201171875,-10.43017578125,22.04150390625
0.0915,-7.98779296875,-14.03369140625,21.40087890625
0.092,-2.26220703125,-17.75732421875,19.55908203125
0.0925,2.70263671875,-20.47998046875,17.63720703125
0.093,6.18603515625,-22.08154296875,15.99560546875
0.0935,9.10888671875,-22.24169921875,13.51318359375
0.094,12.19189453125,-21.60107421875,9.98974609375
0.0945,15.71533203125,-20.64013671875,5.70556640625
0.095,19.07861328125,-19.07861328125,0.94091796875
0.0955,21.68115234375,-17.15673828125,-3.58349609375
0.096,22.12158203125,-14.91455078125,-6.26611328125
0.0965,22.12158203125,-11.91162109375,-9.34912109375
0.097,21.48095703125,-7.74755859375,-12.91259765625
0.0975,20.19970703125,-2.90283203125,-16.51611328125
0.098,18.67822265625,1.58154296875,-19.47900390625
0.0985,17.15673828125,5.30517578125,-21.64111328125
0.099,14.39404296875,8.18798828125,-21.92138671875
0.0995,10.91064453125,11.35107421875,-21.56103515625
0.1,6.18603515625,15.15478515625,-20.80029296875
0.1005,0.70068359375,18.71826171875,-19.07861328125
0.101,-4.02392578125,21.12060546875,-17.11669921875
0.1015,-6.98681640625,22.08154296875,-15.35498046875
0.102,-9.98974609375,22.16162109375,-12.71240234375
0.1025,-13.35302734375,21.44091796875,-8.82861328125
0.103,-16.83642578125,20.15966796875,-4.18408203125
0.1035,-20.11962890625,18.55810546875,0.66064453125
0.104,-22.36181640625,16.63623046875,4.74462890625
0.1045,-22.40185546875,13.95361328125,7.42724609375
0.105,-22.28173828125,10.55029296875,10.71044921875
0.1055,-21.44091796875,5.90576171875,14.59423828125
0.106,-20.11962890625,1.10107421875,18.11767578125
0.1065,-18.39794921875,-3.30322265625,20.80029296875
0.107,-16.63623046875,-6.66650390625,22.44189453125
0.1075,-13.75341796875,-9.62939453125,22.56201171875
0.108,-9.46923828125,-13.07275390625,21.84130859375
0.1085,-4.42431640625,-16.71630859375,20.64013671875
0.109,1.14111328125,-20.19970703125,18.83837890625
0.1095,5.50537109375,-22.28173828125,16.83642578125
0.11,8.30810546875,-22.56201171875,14.55419921875
0.1105,11.47119140625,-22.52197265625,11.59130859375
0.111,15.19482421875,-21.48095703125,7.06689453125
0.1115,18.51806640625,-19.91943359375,2.30224609375
0.112,21.40087890625,-18.11767578125,-2.38232421875
0.1125,23.04248046875,-16.15576171875,-5.94580078125
0.113,22.72216796875,-13.07275390625,-8.82861328125
0.1135,22.32177734375,-9.22900390625,-12.31201171875
0.114,21.20068359375,-4.34423828125,-15.99560546875
0.1145,19.79931640625,0.50048828125,-19.39892578125
0.115,17.87744140625,4.62451171875,-21.72119140625
0.1155,15.59521484375,7.62744140625,-22.44189453125
0.116,12.51220703125,10.75048828125,-22.56201171875
0.1165,7.50732421875,14.75439453125,-21.52099609375
0.117,2.46240234375,17.95751953125,-19.99951171875
0.1175,-2.70263671875,21.00048828125,-18.19775390625
0.118,-6.62646484375,22.72216796875,-16.27587890625
0.1185,-9.30908203125,22.44189453125,-13.55322265625
0.119,-12.43212890625,22.28173828125,-10.55029296875
0.1195,-16.35595703125,21.08056640625,-5.58544921875
0.12,-19.63916015625,19.31884765625,-0.66064453125
0.1205,-22.04150390625,17.43701171875,3.62353515625
0.121,-23.04248046875,15.23486328125,6.78662109375
0.1215,-22.76220703125,11.91162109375,9.74951171875
0.122,-22.08154296875,7.42724609375,13.71337890625
0.1225,-20.80029296875,2.86279296875,17.03662109375
0.123,-19.35888671875,-1.94189453125,20.35986328125
0.1235,-17.43701171875,-5.82568359375,22.44189453125
0.124,-14.75439453125,-8.58837890625,22.48193359375
0.1245,-11.59130859375,-11.67138671875,22.56201171875
0.125,-5.90576171875,-15.95556640625,21.24072265625
0.1255,-0.66064453125,-19.07861328125,19.35888671875
0.126,3.90380859375,-21.48095703125,17.55712890625
0.1265,7.34716796875,-22.76220703125,15.63525390625
0.127,10.22998046875,-22.36181640625,12.51220703125
0.1275,13.51318359375,-21.76123046875,8.98876953125
0.128,17.15673828125,-20.56005859375,4.26416015625
0.1285,20.47998046875,-18.75830078125,-0.86083984375
0.129,22.36181640625,-16.83642578125,-4.62451171875
0.1295,22.64208984375,-14.27392578125,-7.46728515625
0.13,22.44189453125,-10.99072265625,-10.55029296875
0.1305,21.48095703125,-5.82568359375,-14.79443359375
0.131,20.11962890625,-1.46142578125,-17.79736328125
0.1315,18.63818359375,2.82275390625,-20.60009765625
0.132,16.71630859375,6.46630859375,-22.40185546875
0.1325,13.47314453125,9.26904296875,-22.04150390625
0.133,9.94970703125,12.51220703125,-21.88134765625
0.1335,4.50439453125,16.63623046875,-20.60009765625
0.134,-1.10107421875,19.87939453125,-18.63818359375
0.1345,-4.90478515625,21.76123046875,-16.91650390625
0.135,-7.98779296875,22.48193359375,-14.83447265625
0.1355,-10.95068359375,22.12158203125,-11.75146484375
0.136,-14.75439453125,21.12060546875,-7.10693359375
0.1365,-17.95751953125,19.87939453125,-2.82275390625
0.137,-21.00048828125,18.07763671875,1.98193359375
0.1375,-22.48193359375,15.99560546875,5.42529296875
0.138,-22.32177734375,13.07275390625,8.26806640625
0.1385,-22.16162109375,9.74951171875,11.51123046875
0.139,-21.08056640625,4.38427734375,15.75537109375
0.1395,-19.51904296875,-0.30029296875,18.91845703125
0.14,-17.95751953125,-4.02392578125,21.16064453125
0.1405,-16.03564453125,-7.30712890625,22.52197265625
0.141,-12.59228515625,-10.22998046875,22.08154296875
0.1415,-8.06787109375,-13.91357421875,21.32080078125
0.142,-3.06298828125,-17.43701171875,20.03955078125
0.1425,2.42236328125,-20.56005859375,17.99755859375
0.143,5.90576171875,-22.00146484375,16.15576171875
0.1435,8.78857421875,-22.12158203125,13.67333984375
0.144,11.71142578125,-21.88134765625,10.87060546875
0.1445,15.83544921875,-20.60009765625,5.54541015625
0.145,18.83837890625,-19.11865234375,1.10107421875
0.1455,21.28076171875,-17.43701171875,-3.02294921875
0.146,22.28173828125,-15.23486328125,-6.10595703125
0.1465,21.76123046875,-11.87158203125,-8.94873046875
0.147,21.40087890625,-8.06787109375,-12.47216796875
0.1475,20.31982421875,-3.34326171875,-16.15576171875
0.148,18.75830078125,1.46142578125,-19.35888671875
0.1485,16.95654296875,4.86474609375,-21.04052734375
0.149,14.67431640625,7.74755859375,-21.72119140625
0.1495,11.47119140625,10.75048828125,-21.52099609375
0.15,5.90576171875,14.91455078125,-20.27978515625
0.1505,1.26123046875,17.95751953125,-18.87841796875
0.151,-3.42333984375,20.64013671875,-17.15673828125
0.1515,-6.58642578125,21.68115234375,-15.31494140625
0.152,-9.34912109375,21.28076171875,-12.39208984375
0.1525,-12.27197265625,21.08056640625,-9.50927734375
0.153,-16.15576171875,19.71923828125,-4.42431640625
0.1535,-19.27880859375,17.95751953125,0.42041015625
0.154,-21.00048828125,16.35595703125,3.74365234375
0.1545,-21.64111328125,14.07373046875,6.62646484375
0.155,-21.16064453125,10.83056640625,9.42919921875
0.1555,-20.43994140625,6.14599609375,13.43310546875
0.156,-19.35888671875,1.94189453125,16.55615234375
0.1565,-18.07763671875,-2.42236328125,19.59912109375
0.157,-16.15576171875,-5.62548828125,21.00048828125
0.1575,-13.47314453125,-8.30810546875,21.00048828125
0.158,-10.31005859375,-11.23095703125,21.00048828125
0.1585,-4.54443359375,-15.51513671875,19.51904296875
0.159,0.42041015625,-18.51806640625,17.79736328125
0.1595,3.98388671875,-20.43994140625,16.39599609375
0.16,6.98681640625,-21.28076171875,14.47412109375
0.1605,9.74951171875,-20.80029296875,11.39111328125
0.161,13.07275390625,-20.19970703125,7.70751953125
0.1615,16.47607421875,-19.07861328125,3.38330078125
0.162,19.43896484375,-17.31689453125,-1.30126953125
0.1625,20.60009765625,-15.59521484375,-4.14404296875
0.163,20.80029296875,-13.07275390625,-6.86669921875
0.1635,20.56005859375,-9.98974609375,-9.70947265625
0.164,19.59912109375,-4.90478515625,-13.91357421875
0.1645,18.43798828125,-0.78076171875,-16.83642578125
0.165,17.31689453125,2.86279296875,-19.35888671875
0.1655,15.35498046875,5.98583984375,-20.56005859375
0.166,12.19189453125,8.70849609375,-20.27978515625
0.1665,8.54833984375,12.15185546875,-20.07958984375
0.167,3.38330078125,15.95556640625,-18.91845703125
0.1675,-1.78173828125,18.91845703125,-16.99658203125
0.168,-4.70458984375,20.23974609375,-15.63525390625
0.1685,-7.54736328125,20.80029296875,-13.71337890625
0.169,-10.31005859375,20.47998046875,-10.71044921875
0.1695,-14.15380859375,19.43896484375,-6.02587890625
0.17,-17.31689453125,18.31787109375,-1.90185546875
0.1705,-19.91943359375,16.75634765625,2.26220703125
0.171,-20.76025390625,14.79443359375,5.02490234375
0.1715,-20.56005859375,11.83154296875,7.82763671875
0.172,-20.43994140625,8.42822265625,11.07080078125
0.1725,-19.39892578125,3.50341796875,15.07470703125
0.173,-17.99755859375,-0.98095703125,18.15771484375
0.1735,-16.63623046875,-4.14404296875,19.99951171875
0.174,-14.67431640625,-7.06689453125,21.00048828125
0.1745,-11.23095703125,-9.94970703125,20.47998046875
0.175,-6.42626953125,-13.87353515625,19.71923828125
0.1755,-1.62158203125,-17.27685546875,18.47802734375
0.176,3.18310546875,-19.99951171875,16.67626953125
0.1765,5.98583984375,-20.84033203125,14.91455078125
0.177,8.86865234375,-21.00048828125,12.43212890625
0.1775,11.87158203125,-20.64013671875,9.30908203125
0.178,15.67529296875,-19.27880859375,4.34423828125
0.1785,18.75830078125,-17.79736328125,-0.18017578125
0.179,20.72021484375,-16.27587890625,-3.58349609375
0.1795,21.20068359375,-13.95361328125,-6.38623046875
0.18,20.68017578125,-10.59033203125,-9.22900390625
0.1805,20.15966796875,-6.42626953125,-12.91259765625
0.181,19.15869140625,-1.94189453125,-16.39599609375
0.1815,17.63720703125,2.54248046875,-19.35888671875
0.182,15.83544921875,5.42529296875,-20.47998046875
0.1825,13.43310546875,8.30810546875,-21.04052734375
0.183,9.74951171875,11.51123046875,-20.60009765625
0.1835,4.26416015625,15.43505859375,-19.23876953125
0.184,-0.58056640625,18.55810546875,-17.79736328125
0.1845,-4.54443359375,20.68017578125,-16.23583984375
0.185,-7.26708984375,21.12060546875,-14.19384765625
0.1855,-10.22998046875,20.84033203125,-11.07080078125
0.186,-13.43310546875,20.35986328125,-7.58740234375
0.1865,-16.95654296875,18.91845703125,-2.86279296875
0.187,-19.87939453125,17.15673828125,1.86181640625
0.1875,-21.08056640625,15.39501953125,4.70458984375
0.188,-21.32080078125,12.83251953125,7.54736328125
0.1885,-20.72021484375,9.26904296875,10.55029296875
0.189,-19.75927734375,4.50439453125,14.39404296875
0.1895,-18.55810546875,0.26025390625,17.59716796875
0.19,-17.23681640625,-3.78369140625,20.19970703125
0.1905,-15.07470703125,-6.54638671875,20.80029296875
0.191,-12.19189453125,-9.30908203125,20.80029296875
0.1915,-8.18798828125,-12.79248046875,20.35986328125
