wavelength,x,y,z
0.0,18.6181640625,-16.8564453125,-1.0009765625
0.0005,20.1796875,-14.974609375,-4.4443359375
0.001,20.8603515625,-12.412109375,-7.7275390625
0.0015,21.0205078125,-9.1689453125,-11.0908203125
0.002,20.580078125,-5.3251953125,-14.494140625
0.0025,19.69921875,-1.5615234375,-17.376953125
0.003,17.6171875,2.5625,-19.458984375
0.0035,15.375,5.60546875,-20.2998046875
0.004,12.65234375,8.80859375,-20.8203125
0.0045,8.96875,12.2119140625,-20.66015625
0.005,4.32421875,15.53515625,-19.4990234375
0.0055,-0.2802734375,17.8173828125,-17.4970703125
0.006,-4.0439453125,19.4990234375,-15.5751953125
0.0065,-7.2470703125,19.9794921875,-13.1328125
0.007,-10.5703125,19.939453125,-9.9697265625
0.0075,-14.2138671875,19.4990234375,-6.1259765625
0.008,-17.2568359375,18.2177734375,-1.8818359375
0.0085,-19.37890625,16.015625,2.4423828125
0.009,-20.5,13.9736328125,5.5654296875
0.0095,-21.140625,11.1708984375,8.888671875
0.01,-21.1005859375,7.6875,12.4921875
0.0105,-20.5,3.84375,15.6953125
0.011,-19.05859375,0.0,18.09765625
0.0115,-17.13671875,-3.84375,20.099609375
0.012,-14.654296875,-6.806640625,20.6201171875
0.0125,-11.69140625,-9.8896484375,20.7802734375
0.013,-7.5673828125,-13.4931640625,20.4599609375
0.0135,-2.8828125,-16.5361328125,19.0185546875
0.014,1.681640625,-18.4580078125,16.65625
0.0145,4.96484375,-19.7392578125,14.814453125
0.015,8.2880859375,-20.1396484375,12.171875
0.0155,11.6513671875,-19.8193359375,8.6484375
0.016,15.0146484375,-19.21875,4.8447265625
0.0165,17.7373046875,-17.6171875,0.6005859375
0.017,19.69921875,-15.4951171875,-3.4833984375
0.0175,20.33984375,-13.212890625,-6.40625
0.018,20.7802734375,-10.330078125,-9.6494140625
0.0185,20.6201171875,-6.56640625,-13.29296875
0.019,19.859375,-2.8828125,-16.2958984375
0.0195,18.017578125,1.0009765625,-18.2578125
0.02,16.17578125,4.4443359375,-19.8994140625
0.0205,13.4931640625,7.447265625,-20.2998046875
0.021,10.2099609375,10.5703125,-20.2998046875
0.0215,6.1259765625,13.9736328125,-19.69921875
0.022,1.521484375,16.81640625,-18.09765625
0.0225,-2.72265625,18.5380859375,-15.8955078125
0.023,-5.6455078125,19.2587890625,-13.93359375
0.0235,-8.9287109375,19.69921875,-11.291015625
0.024,-12.572265625,19.21875,-7.3671875
0.0245,-15.5751953125,18.3779296875,-3.6435546875
0.025,-17.9375,16.5361328125,0.48046875
0.0255,-19.7392578125,14.57421875,4.1240234375
0.026,-20.1796875,12.091796875,7.0869140625
0.0265,-20.5,9.12890625,10.4501953125
0.027,-20.2197265625,5.365234375,13.93359375
0.0275,-19.2587890625,1.6015625,16.81640625
0.028,-17.296875,-2.2421875,18.578125
0.0285,-15.455078125,-5.1650390625,19.859375
0.029,-12.8525390625,-8.2880859375,20.33984375
0.0295,-8.9287109375,-11.7314453125,19.9794921875
0.03,-4.9248046875,-14.6943359375,19.0986328125
0.0305,-0.3603515625,-17.1767578125,17.216796875
0.031,3.6435546875,-18.8984375,15.2548828125
0.0315,6.4462890625,-19.21875,12.9326171875
0.032,9.609375,-19.5390625,10.3701171875
0.0325,13.453125,-19.0986328125,6.1259765625
0.033,16.2958984375,-17.857421875,2.2021484375
0.0335,18.337890625,-15.9755859375,-1.681640625
0.034,19.779296875,-14.013671875,-5.0048828125
0.0345,20.1396484375,-11.291015625,-8.0478515625
0.035,20.259765625,-7.8876953125,-11.611328125
0.0355,19.859375,-4.5244140625,-14.6142578125
0.036,18.5380859375,-0.6005859375,-17.2568359375
0.0365,16.576171875,3.1630859375,-19.0185546875
0.037,14.2939453125,6.005859375,-19.5791015625
0.0375,11.8115234375,9.0087890625,-20.2197265625
0.038,7.20703125,12.8525390625,-19.619140625
0.0385,3.2431640625,15.53515625,-18.5380859375
0.039,-1.0009765625,17.537109375,-16.49609375
0.0395,-4.6044921875,19.138671875,-14.734375
0.04,-7.5673828125,19.21875,-12.0517578125
0.0405,-10.890625,19.21875,-8.96875
0.041,-14.4541015625,18.73828125,-5.125
0.0415,-17.1767578125,17.0966796875,-0.8408203125
0.042,-19.0185546875,15.1748046875,2.9228515625
0.0425,-19.939453125,13.052734375,5.9658203125
0.043,-20.5,10.4501953125,9.1689453125
0.0435,-20.33984375,6.3662109375,13.052734375
0.044,-19.69921875,3.04296875,15.8154296875
0.0445,-18.0576171875,-0.8408203125,17.9775390625
0.045,-16.2958984375,-4.4443359375,19.859375
0.0455,-13.533203125,-7.20703125,19.939453125
0.046,-10.810546875,-10.25,20.2998046875
0.0465,-6.166015625,-13.9736328125,19.5791015625
0.047,-1.6015625,-16.65625,17.8974609375
0.0475,2.2822265625,-18.2978515625,15.8955078125
0.048,5.5654296875,-19.458984375,14.0537109375
0.0485,8.6884765625,-19.6591796875,11.291015625
0.049,12.4521484375,-19.21875,7.287109375
0.0495,15.4150390625,-18.578125,3.84375
0.05,17.9375,-16.6962890625,-0.5205078125
0.0505,19.6591796875,-14.814453125,-4.1240234375
0.051,20.01953125,-12.2119140625,-7.0869140625
0.0515,20.5,-9.5693359375,-10.2099609375
0.052,20.1796875,-5.3251953125,-14.09375
0.0525,19.1787109375,-1.681640625,-16.736328125
0.053,17.296875,1.8818359375,-18.4580078125
0.0535,15.4951171875,5.2451171875,-20.099609375
0.054,12.4921875,8.248046875,-20.099609375
0.0545,8.8486328125,11.6513671875,-20.01953125
0.055,4.8447265625,14.8544921875,-19.37890625
0.0555,0.0,17.376953125,-17.296875
0.056,-3.603515625,18.818359375,-15.3349609375
0.0565,-6.6865234375,19.3388671875,-13.0927734375
0.057,-9.76953125,19.6591796875,-10.4501953125
0.0575,-13.853515625,18.8984375,-5.845703125
0.058,-16.5361328125,17.77734375,-2.1220703125
0.0585,-18.578125,15.935546875,1.681640625
0.059,-20.1396484375,13.93359375,5.2451171875
0.0595,-20.2998046875,10.970703125,8.328125
0.06,-20.580078125,7.9677734375,11.7314453125
0.0605,-20.2197265625,4.1240234375,15.134765625
0.061,-18.6982421875,0.0400390625,17.77734375
0.0615,-16.6962890625,-3.4033203125,19.21875
0.062,-14.6943359375,-6.4462890625,20.33984375
0.0625,-11.8515625,-9.4892578125,20.5400390625
0.063,-7.1669921875,-13.3330078125,19.8994140625
0.0635,-3.36328125,-15.9755859375,18.8984375
0.064,1.28125,-18.2177734375,16.7763671875
0.0645,4.8046875,-19.5791015625,14.7744140625
0.065,7.8876953125,-19.69921875,12.01171875
0.0655,11.1708984375,-19.8994140625,9.12890625
0.066,14.974609375,-19.05859375,4.724609375
0.0665,17.6572265625,-17.3369140625,0.400390625
0.067,19.298828125,-15.4150390625,-3.1630859375
0.0675,20.4599609375,-13.2529296875,-6.40625
0.068,20.5400390625,-10.25,-9.4892578125
0.0685,20.4599609375,-6.4462890625,-13.2529296875
0.069,19.859375,-3.04296875,-16.095703125
0.0695,18.177734375,1.12109375,-18.5380859375
0.07,16.0556640625,4.5244140625,-19.8994140625
0.0705,13.4130859375,7.5673828125,-20.33984375
0.071,10.6103515625,10.6103515625,-20.7001953125
0.0715,5.525390625,14.57421875,-19.7392578125
0.072,1.28125,17.0166015625,-18.09765625
0.0725,-2.6025390625,18.73828125,-16.17578125
0.073,-6.1259765625,19.8994140625,-14.173828125
0.0735,-9.3291015625,19.7392578125,-11.05078125
0.074,-12.892578125,19.5390625,-7.4072265625
0.0745,-16.17578125,18.73828125,-3.4033203125
0.075,-18.73828125,16.65625,1.201171875
0.0755,-20.099609375,14.6943359375,4.484375
0.076,-20.8203125,12.1318359375,7.7275390625
0.0765,-21.0205078125,9.208984375,10.8505859375
0.077,-20.5400390625,4.8447265625,14.814453125
0.0775,-19.4990234375,1.2412109375,17.3369140625
0.078,-17.6572265625,-2.6025390625,19.3388671875
0.0785,-15.6953125,-5.92578125,20.7001953125
0.079,-12.3720703125,-8.96875,20.580078125
0.0795,-9.1689453125,-12.2119140625,20.66015625
0.08,-4.3642578125,-15.6953125,19.5791015625
0.0805,0.48046875,-18.017578125,17.296875
0.081,3.8837890625,-19.298828125,15.4150390625
0.0815,7.20703125,-20.2197265625,13.1328125
0.082,10.41015625,-19.939453125,9.9697265625
0.0825,14.2138671875,-19.298828125,5.685546875
0.083,17.0166015625,-18.1376953125,1.8818359375
0.0835,19.21875,-16.0556640625,-2.4423828125
0.084,20.33984375,-13.9736328125,-5.525390625
0.0845,20.66015625,-11.05078125,-8.8486328125
0.085,20.8203125,-8.087890625,-11.931640625
0.0855,20.2197265625,-3.9638671875,-15.53515625
0.086,18.6181640625,0.080078125,-17.8974609375
0.0865,16.7763671875,3.4033203125,-19.458984375
0.087,14.654296875,6.646484375,-20.580078125
0.0875,11.2509765625,9.7294921875,-20.419921875
0.088,7.20703125,13.29296875,-20.01953125
0.0885,3.04296875,16.17578125,-19.05859375
0.089,-1.7216796875,18.2978515625,-16.65625
0.0895,-4.8447265625,19.298828125,-14.7744140625
0.09,-8.087890625,19.8193359375,-12.1318359375
0.0905,-11.4111328125,19.69921875,-8.96875
0.091,-15.134765625,18.8583984375,-4.5244140625
0.0915,-17.77734375,17.216796875,-0.400390625
0.092,-19.5791015625,15.21484375,3.4033203125
0.0925,-20.5,13.052734375,6.486328125
0.093,-20.7001953125,9.8896484375,9.849609375
0.0935,-20.6201171875,6.40625,13.29296875
0.094,-20.0595703125,2.72265625,16.3759765625
0.0945,-18.09765625,-1.4814453125,18.6982421875
0.095,-16.1357421875,-4.6044921875,19.8994140625
0.0955,-13.8134765625,-7.7275390625,20.740234375
0.096,-10.41015625,-10.890625,20.6201171875
0.0965,-5.7255859375,-14.494140625,19.6591796875
0.097,-1.4814453125,-17.0966796875,18.2177734375
0.0975,2.8427734375,-18.978515625,16.0556640625
0.098,5.92578125,-19.69921875,13.8935546875
0.0985,9.2490234375,-19.859375,10.890625
0.099,12.7724609375,-19.619140625,7.3671875
0.0995,16.095703125,-18.6181640625,3.203125
0.1,18.498046875,-16.576171875,-1.201171875
0.1005,19.8994140625,-14.654296875,-4.5244140625
0.101,20.66015625,-12.171875,-7.7275390625
0.1015,20.7001953125,-8.96875,-11.0107421875
0.102,20.33984375,-5.0849609375,-14.4541015625
0.1025,19.37890625,-1.44140625,-17.1767578125
0.103,17.4169921875,2.642578125,-19.298828125
0.1035,15.21484375,5.685546875,-20.2197265625
0.104,12.412109375,8.888671875,-20.66015625
0.1045,8.80859375,12.2919921875,-20.580078125
0.105,4.1240234375,15.5751953125,-19.4189453125
0.1055,-0.48046875,17.857421875,-17.3369140625
0.106,-4.1240234375,19.4990234375,-15.53515625
0.1065,-7.3271484375,20.01953125,-13.1328125
0.107,-10.6904296875,19.8994140625,-9.8896484375
0.1075,-14.3740234375,19.458984375,-5.92578125
0.108,-17.45703125,18.177734375,-1.6416015625
0.1085,-19.619140625,15.9755859375,2.72265625
0.109,-20.7001953125,13.8935546875,5.845703125
0.1095,-21.30078125,11.05078125,9.2490234375
0.11,-21.2607421875,7.4873046875,12.8125
0.1105,-20.66015625,3.5234375,16.17578125
0.111,-19.0986328125,-0.4404296875,18.578125
0.1115,-17.1767578125,-4.32421875,20.580078125
0.112,-14.654296875,-7.3271484375,21.140625
0.1125,-11.451171875,-10.650390625,21.2607421875
0.113,-7.2470703125,-14.25390625,20.8603515625
0.1135,-2.482421875,-17.376953125,19.3388671875
0.114,2.2421875,-19.21875,16.9365234375
0.1145,5.5654296875,-20.419921875,14.974609375
0.115,8.96875,-20.7802734375,12.2119140625
0.1155,12.572265625,-20.3798828125,8.328125
0.116,15.9755859375,-19.619140625,4.3642578125
0.1165,18.7783203125,-17.8974609375,-0.16015625
0.117,20.7802734375,-15.6552734375,-4.2841796875
0.1175,21.3408203125,-13.1728515625,-7.3271484375
0.118,21.7412109375,-10.1298828125,-10.7705078125
0.1185,21.4609375,-6.1259765625,-14.5341796875
0.119,20.580078125,-2.2421875,-17.5771484375
0.1195,18.5380859375,1.8818359375,-19.5390625
0.12,16.5361328125,5.4453125,-21.220703125
0.1205,13.5732421875,8.6083984375,-21.5009765625
0.121,9.8896484375,12.01171875,-21.3408203125
0.1215,5.60546875,15.375,-20.66015625
0.122,0.7607421875,18.2578125,-18.7783203125
0.1225,-3.68359375,19.9794921875,-16.3759765625
0.123,-6.7666015625,20.5400390625,-14.1337890625
0.1235,-10.2099609375,20.8603515625,-11.2509765625
0.124,-14.1337890625,20.1796875,-6.966796875
0.1245,-17.1767578125,19.1787109375,-2.9228515625
0.125,-19.619140625,17.13671875,1.521484375
0.1255,-21.380859375,15.0146484375,5.4052734375
0.126,-21.701171875,12.171875,8.5283203125
0.1265,-21.94140625,8.80859375,12.1318359375
0.127,-21.5009765625,4.7646484375,15.6953125
0.1275,-20.2998046875,0.6806640625,18.6982421875
0.128,-18.017578125,-3.36328125,20.4599609375
0.1285,-15.8955078125,-6.6064453125,21.5810546875
0.129,-12.8525390625,-9.8896484375,21.94140625
0.1295,-8.48828125,-13.7333984375,21.380859375
0.13,-4.2041015625,-16.5361328125,20.259765625
0.1305,0.7607421875,-18.978515625,18.0576171875
0.131,4.8447265625,-20.580078125,15.8154296875
0.1315,7.9677734375,-20.7802734375,13.0927734375
0.132,11.2509765625,-21.0205078125,10.169921875
0.1325,15.3349609375,-20.2197265625,5.60546875
0.133,18.2578125,-18.73828125,1.2412109375
0.1335,20.2998046875,-16.5361328125,-2.9228515625
0.134,21.701171875,-14.3740234375,-6.486328125
0.1345,21.9013671875,-11.2509765625,-9.76953125
0.135,21.8212890625,-7.4873046875,-13.533203125
0.1355,21.1806640625,-3.8037109375,-16.6162109375
0.136,19.619140625,0.560546875,-19.37890625
0.1365,17.296875,4.484375,-21.0205078125
0.137,14.654296875,7.52734375,-21.5009765625
0.1375,11.771484375,10.810546875,-22.021484375
0.138,6.6865234375,14.89453125,-21.140625
0.1385,2.40234375,17.5771484375,-19.7392578125
0.139,-2.2021484375,19.4990234375,-17.4169921875
0.1395,-6.005859375,20.98046875,-15.3349609375
0.14,-9.208984375,20.8603515625,-12.2119140625
0.1405,-12.7724609375,20.7802734375,-8.728515625
0.141,-16.49609375,19.9794921875,-4.4443359375
0.1415,-19.3388671875,18.017578125,0.400390625
0.142,-21.1005859375,15.775390625,4.32421875
0.1425,-21.9814453125,13.29296875,7.6474609375
0.143,-22.341796875,10.25,11.0107421875
0.1435,-21.94140625,5.8056640625,15.1748046875
0.144,-21.0205078125,2.2421875,17.8974609375
0.1445,-19.138671875,-2.0419921875,20.1796875
0.145,-16.9365234375,-5.8857421875,21.9013671875
0.1455,-13.7734375,-8.96875,21.8212890625
0.146,-10.6904296875,-12.171875,22.1015625
0.1465,-5.525390625,-16.0556640625,21.060546875
0.147,-0.640625,-18.73828125,19.0185546875
0.1475,3.5234375,-20.259765625,16.65625
0.148,7.0869140625,-21.30078125,14.4541015625
0.1485,10.5302734375,-21.220703125,11.2109375
0.149,14.333984375,-20.7001953125,6.88671875
0.1495,17.537109375,-19.7392578125,3.0029296875
0.15,20.1796875,-17.537109375,-1.8017578125
0.1505,21.701171875,-15.294921875,-5.60546875
0.151,22.0615234375,-12.33203125,-8.8486328125
0.1515,22.421875,-9.369140625,-12.171875
0.152,21.78125,-4.7646484375,-16.2158203125
0.1525,20.419921875,-0.80078125,-18.8984375
0.153,18.2578125,3.123046875,-20.6201171875
0.1535,16.1357421875,6.7265625,-22.181640625
0.154,12.4921875,10.08984375,-21.94140625
0.1545,8.6484375,13.6533203125,-21.78125
0.155,4.1640625,16.9365234375,-20.8203125
0.1555,-1.1611328125,19.4990234375,-18.337890625
0.156,-4.9248046875,20.7802734375,-16.095703125
0.1565,-8.328125,21.380859375,-13.4931640625
0.157,-11.7314453125,21.4609375,-10.41015625
0.1575,-16.015625,20.4599609375,-5.365234375
0.158,-18.8583984375,19.05859375,-1.201171875
0.1585,-21.0205078125,16.8564453125,3.1630859375
0.159,-22.421875,14.5341796875,6.8466796875
0.1595,-22.4619140625,11.0908203125,10.2900390625
0.16,-22.58203125,7.6875,13.853515625
0.1605,-21.861328125,3.443359375,17.45703125
0.161,-20.01953125,-1.1611328125,20.1396484375
0.1615,-17.6572265625,-4.8447265625,21.5009765625
0.162,-15.375,-8.16796875,22.58203125
0.1625,-11.8115234375,-11.4111328125,22.4619140625
0.163,-6.7666015625,-15.4150390625,21.5810546875
0.1635,-2.5625,-18.1376953125,20.2998046875
0.164,2.5224609375,-20.3798828125,17.77734375
0.1645,6.2861328125,-21.5009765625,15.375
0.165,9.689453125,-21.5009765625,12.2119140625
0.1655,13.1328125,-21.5009765625,8.96875
0.166,17.13671875,-20.419921875,4.0439453125
0.1665,19.8994140625,-18.337890625,-0.720703125
0.167,21.5009765625,-16.17578125,-4.484375
0.1675,22.5419921875,-13.6533203125,-8.0078125
0.168,22.421875,-10.169921875,-11.4111328125
0.1685,22.1416015625,-6.166015625,-15.21484375
0.169,21.30078125,-2.4423828125,-18.1376953125
0.1695,19.21875,2.162109375,-20.580078125
0.17,16.65625,5.8056640625,-21.7412109375
0.1705,13.7734375,9.0888671875,-22.181640625
0.171,10.5703125,12.2919921875,-22.3017578125
0.1715,5.0849609375,16.3359375,-21.060546875
0.172,0.6005859375,18.818359375,-19.21875
0.1725,-3.7236328125,20.580078125,-16.9765625
0.173,-7.3671875,21.5810546875,-14.57421875
0.1735,-10.890625,21.30078125,-10.970703125
0.174,-14.5341796875,21.0205078125,-7.2470703125
0.1745,-17.9775390625,19.859375,-2.8427734375
0.175,-20.580078125,17.45703125,2.162109375
0.1755,-21.861328125,15.21484375,5.60546875
0.176,-22.58203125,12.412109375,9.12890625
0.1765,-22.58203125,9.0087890625,12.5322265625
0.177,-21.94140625,4.4443359375,16.49609375
0.1775,-20.66015625,0.560546875,19.0986328125
0.178,-18.578125,-3.6435546875,21.1806640625
0.1785,-16.095703125,-7.0869140625,22.26171875
0.179,-12.572265625,-10.41015625,22.2216796875
0.1795,-9.12890625,-13.7734375,22.181640625
0.18,-3.84375,-17.376953125,20.7802734375
0.1805,1.28125,-19.6591796875,18.2177734375
0.181,4.9248046875,-20.98046875,16.1357421875
0.1815,8.48828125,-21.7412109375,13.533203125
0.182,12.01171875,-21.380859375,9.9296875
0.1825,15.85546875,-20.6201171875,5.4853515625
0.183,18.818359375,-19.2587890625,1.28125
0.1835,21.140625,-16.81640625,-3.36328125
0.184,22.0615234375,-14.4541015625,-6.7265625
0.1845,22.421875,-11.291015625,-10.2900390625
0.185,22.421875,-7.8876953125,-13.693359375
0.1855,21.62109375,-3.5634765625,-17.3369140625
0.186,19.7392578125,0.7607421875,-19.6591796875
0.1865,17.6171875,4.484375,-21.30078125
0.187,15.0546875,7.927734375,-22.26171875
0.1875,11.3310546875,11.2109375,-21.9814453125
0.188,7.0869140625,14.8544921875,-21.5009765625
0.1885,2.482421875,17.9775390625,-20.1796875
0.189,-2.6025390625,20.0595703125,-17.45703125
0.1895,-5.92578125,20.98046875,-15.3349609375
0.19,-9.4091796875,21.4208984375,-12.4921875
0.1905,-13.052734375,21.060546875,-8.728515625
0.191,-16.736328125,20.0595703125,-4.2041015625
0.1915,-19.298828125,18.2177734375,0.2802734375
0.192,-21.3408203125,15.9755859375,4.404296875
0.1925,-22.0615234375,13.373046875,7.6474609375
0.193,-22.2216796875,9.9296875,11.2109375
0.1935,-21.94140625,6.2060546875,14.734375
0.194,-21.140625,2.2021484375,17.9775390625
0.1945,-18.8583984375,-2.2421875,20.1396484375
0.195,-16.736328125,-5.525390625,21.380859375
0.1955,-14.09375,-8.80859375,22.0615234375
0.196,-10.2900390625,-12.1318359375,21.7412109375
0.1965,-5.60546875,-15.6953125,20.7001953125
0.197,-1.0810546875,-18.2978515625,19.05859375
0.1975,3.5234375,-20.1796875,16.6162109375
0.198,6.6865234375,-20.740234375,14.2138671875
0.1985,10.169921875,-20.900390625,11.1708984375
0.199,13.8134765625,-20.5,7.287109375
0.1995,17.0966796875,-19.298828125,2.9228515625
0.2,19.458984375,-17.13671875,-1.521484375
0.2005,21.060546875,-15.0947265625,-5.0849609375
0.201,21.5009765625,-12.4521484375,-8.328125
0.2015,21.5009765625,-9.048828125,-11.69140625
0.202,20.98046875,-5.125,-15.0947265625
0.2025,19.8994140625,-1.28125,-17.8974609375
0.203,17.8173828125,2.8828125,-19.8994140625
0.2035,15.4951171875,5.9658203125,-20.7001953125
0.204,12.6923828125,9.1689453125,-21.220703125
0.2045,8.80859375,12.65234375,-20.98046875
0.205,4.2041015625,15.935546875,-19.779296875
0.2055,-0.3603515625,18.1376953125,-17.697265625
0.206,-4.1640625,19.779296875,-15.775390625
0.2065,-7.3271484375,20.1796875,-13.3330078125
0.207,-10.650390625,20.1396484375,-10.08984375
0.2075,-14.333984375,19.69921875,-6.1259765625
0.208,-17.3369140625,18.2978515625,-1.8818359375
0.2085,-19.4990234375,16.1357421875,2.482421875
0.209,-20.580078125,14.0537109375,5.5654296875
0.2095,-21.140625,11.2509765625,8.888671875
0.21,-21.1005859375,7.6875,12.4521484375
0.2105,-20.5,3.8837890625,15.6953125
0.211,-19.05859375,0.0400390625,18.0576171875
0.2115,-17.1767578125,-3.84375,20.099609375
0.212,-14.734375,-6.7666015625,20.6201171875
0.2125,-11.8115234375,-9.849609375,20.8603515625
0.213,-7.6474609375,-13.453125,20.4599609375
0.2135,-3.0029296875,-16.5361328125,19.05859375
0.214,1.521484375,-18.41796875,16.7763671875
0.2145,4.8046875,-19.69921875,14.974609375
0.215,8.0478515625,-20.0595703125,12.33203125
0.2155,11.53125,-19.7392578125,8.728515625
0.216,14.8544921875,-19.1787109375,4.96484375
0.2165,17.6171875,-17.5771484375,0.640625
0.217,19.619140625,-15.53515625,-3.36328125
0.2175,20.259765625,-13.212890625,-6.326171875
0.218,20.740234375,-10.41015625,-9.5693359375
0.2185,20.5400390625,-6.56640625,-13.212890625
0.219,19.859375,-2.8427734375,-16.1357421875
