wavelength,x,y,z
0.0,1.651611328125,-5.915771484375,2.292236328125
0.0005,0.610595703125,-6.436279296875,3.773681640625
0.001,0.010009765625,-6.836669921875,4.814697265625
0.0015,-0.870849609375,-6.796630859375,5.495361328125
0.002,-2.072021484375,-5.795654296875,5.975830078125
0.0025,-3.473388671875,-4.514404296875,6.296142578125
0.003,-4.794677734375,-3.113037109375,6.456298828125
0.0035,-5.635498046875,-2.072021484375,6.656494140625
0.004,-5.915771484375,-1.431396484375,6.536376953125
0.0045,-5.755615234375,-0.710693359375,5.975830078125
0.005,-5.435302734375,0.450439453125,4.854736328125
0.0055,-5.235107421875,1.851806640625,3.533447265625
0.006,-5.195068359375,3.333251953125,2.252197265625
0.0065,-5.114990234375,4.334228515625,1.411376953125
0.007,-4.834716796875,4.894775390625,0.690673828125
0.0075,-3.913818359375,5.054931640625,-0.350341796875
0.008,-2.632568359375,5.255126953125,-1.751708984375
0.0085,-1.311279296875,5.615478515625,-3.353271484375
0.009,-0.430419921875,6.015869140625,-4.754638671875
0.0095,0.370361328125,6.336181640625,-5.715576171875
0.01,1.171142578125,5.895751953125,-6.236083984375
0.0105,2.492431640625,4.734619140625,-6.556396484375
0.011,3.933837890625,3.253173828125,-6.756591796875
0.0115,5.135009765625,1.851806640625,-6.916748046875
0.012,5.735595703125,0.930908203125,-6.956787109375
0.0125,5.895751953125,0.290283203125,-6.716552734375
0.013,5.495361328125,-0.670654296875,-5.795654296875
0.0135,5.215087890625,-1.951904296875,-4.514404296875
0.014,5.014892578125,-3.513427734375,-2.992919921875
0.0145,4.974853515625,-4.914794921875,-1.791748046875
0.015,4.774658203125,-5.715576171875,-0.990966796875
0.0155,4.134033203125,-6.075927734375,-0.190185546875
0.016,2.932861328125,-6.115966796875,1.091064453125
0.0165,1.531494140625,-6.356201171875,2.692626953125
0.017,0.210205078125,-6.676513671875,4.334228515625
0.0175,-0.590576171875,-6.956787109375,5.415283203125
0.018,-1.311279296875,-7.036865234375,6.256103515625
0.0185,-2.432373046875,-6.156005859375,6.616455078125
0.019,-3.873779296875,-4.674560546875,6.856689453125
0.0195,-5.195068359375,-3.153076171875,6.976806640625
0.02,-6.236083984375,-1.791748046875,7.016845703125
0.0205,-6.556396484375,-1.031005859375,6.896728515625
0.021,-6.396240234375,-0.310302734375,6.336181640625
0.0215,-5.915771484375,0.890869140625,5.094970703125
0.022,-5.595458984375,2.292236328125,3.573486328125
0.0225,-5.395263671875,3.813720703125,2.092041015625
0.023,-5.275146484375,4.974853515625,1.010986328125
0.0235,-4.914794921875,5.535400390625,0.290283203125
0.024,-3.993896484375,5.655517578125,-0.670654296875
0.0245,-2.592529296875,5.695556640625,-2.072021484375
0.025,-1.111083984375,5.895751953125,-3.793701171875
0.0255,0.010009765625,6.095947265625,-5.155029296875
0.026,0.770751953125,6.416259765625,-6.156005859375
0.0265,1.571533203125,6.176025390625,-6.796630859375
0.027,2.812744140625,4.974853515625,-7.036865234375
0.0275,4.214111328125,3.413330078125,-7.197021484375
0.028,5.455322265625,1.851806640625,-7.237060546875
0.0285,6.216064453125,0.650634765625,-7.197021484375
0.029,6.336181640625,0.010009765625,-6.956787109375
0.0295,5.975830078125,-0.910888671875,-6.115966796875
0.03,5.495361328125,-2.072021484375,-4.754638671875
0.0305,5.175048828125,-3.553466796875,-3.193115234375
0.031,5.014892578125,-5.074951171875,-1.711669921875
0.0315,4.814697265625,-5.995849609375,-0.790771484375
0.032,4.334228515625,-6.436279296875,0.010009765625
0.0325,3.173095703125,-6.476318359375,0.970947265625
0.033,1.691650390625,-6.556396484375,2.532470703125
0.0335,0.210205078125,-6.796630859375,4.093994140625
0.034,-0.790771484375,-6.996826171875,5.455322265625
0.0345,-1.351318359375,-7.116943359375,6.336181640625
0.035,-2.272216796875,-6.556396484375,6.776611328125
0.0355,-3.593505859375,-5.155029296875,6.976806640625
0.036,-4.994873046875,-3.633544921875,7.056884765625
0.0365,-6.115966796875,-2.112060546875,7.056884765625
0.037,-6.636474609375,-1.151123046875,7.016845703125
0.0375,-6.596435546875,-0.510498046875,6.656494140625
0.038,-6.156005859375,0.450439453125,5.655517578125
0.0385,-5.755615234375,1.771728515625,4.214111328125
0.039,-5.475341796875,3.253173828125,2.692626953125
0.0395,-5.355224609375,4.654541015625,1.371337890625
0.04,-5.114990234375,5.415283203125,0.610595703125
0.0405,-4.434326171875,5.655517578125,-0.310302734375
0.041,-3.233154296875,5.695556640625,-1.431396484375
0.0415,-1.631591796875,5.895751953125,-3.072998046875
0.042,-0.390380859375,6.095947265625,-4.634521484375
0.0425,0.490478515625,6.376220703125,-5.755615234375
0.043,1.131103515625,6.456298828125,-6.556396484375
0.0435,2.132080078125,5.615478515625,-6.916748046875
0.044,3.573486328125,4.134033203125,-7.076904296875
0.0445,4.894775390625,2.612548828125,-7.197021484375
0.045,5.935791015625,1.171142578125,-7.197021484375
0.0455,6.256103515625,0.450439453125,-7.116943359375
0.046,6.135986328125,-0.390380859375,-6.556396484375
0.0465,5.695556640625,-1.351318359375,-5.435302734375
0.047,5.335205078125,-2.792724609375,-3.953857421875
0.0475,5.094970703125,-4.394287109375,-2.392333984375
0.048,5.014892578125,-5.595458984375,-1.271240234375
0.0485,4.734619140625,-6.236083984375,-0.550537109375
0.049,3.813720703125,-6.436279296875,0.450439453125
0.0495,2.492431640625,-6.396240234375,1.771728515625
0.05,0.930908203125,-6.596435546875,3.493408203125
0.0505,-0.390380859375,-6.876708984375,4.974853515625
0.051,-1.031005859375,-7.116943359375,5.935791015625
0.0515,-1.791748046875,-6.996826171875,6.656494140625
0.052,-2.992919921875,-5.835693359375,6.896728515625
0.0525,-4.474365234375,-4.274169921875,7.096923828125
0.053,-5.755615234375,-2.712646484375,7.136962890625
0.0535,-6.556396484375,-1.471435546875,7.096923828125
0.054,-6.716552734375,-0.790771484375,6.936767578125
0.0545,-6.396240234375,0.130126953125,6.135986328125
0.055,-5.915771484375,1.291259765625,4.814697265625
0.0555,-5.635498046875,2.812744140625,3.213134765625
0.056,-5.435302734375,4.334228515625,1.771728515625
0.0565,-5.275146484375,5.295166015625,0.810791015625
0.057,-4.794677734375,5.735595703125,0.010009765625
0.0575,-3.793701171875,5.855712890625,-0.990966796875
0.058,-2.192138671875,5.895751953125,-2.632568359375
0.0585,-0.630615234375,6.095947265625,-4.354248046875
0.059,0.450439453125,6.376220703125,-5.715576171875
0.0595,1.010986328125,6.536376953125,-6.516357421875
0.06,1.931884765625,5.975830078125,-6.996826171875
0.0605,3.293212890625,4.574462890625,-7.197021484375
0.061,4.654541015625,2.972900390625,-7.277099609375
0.0615,5.815673828125,1.411376953125,-7.277099609375
0.062,6.376220703125,0.450439453125,-7.156982421875
0.0625,6.336181640625,-0.310302734375,-6.796630859375
0.063,5.895751953125,-1.231201171875,-5.795654296875
0.0635,5.415283203125,-2.512451171875,-4.354248046875
0.064,5.094970703125,-4.033935546875,-2.712646484375
0.0645,4.974853515625,-5.435302734375,-1.431396484375
0.065,4.734619140625,-6.196044921875,-0.630615234375
0.0655,4.013916015625,-6.596435546875,0.130126953125
0.066,2.812744140625,-6.396240234375,1.371337890625
0.0665,1.291259765625,-6.476318359375,2.932861328125
0.067,-0.190185546875,-6.676513671875,4.494384765625
0.0675,-0.990966796875,-6.956787109375,5.655517578125
0.068,-1.551513671875,-7.036865234375,6.376220703125
0.0685,-2.512451171875,-6.276123046875,6.696533203125
0.069,-3.873779296875,-4.794677734375,6.896728515625
0.0695,-5.155029296875,-3.233154296875,6.976806640625
0.07,-6.156005859375,-1.911865234375,7.016845703125
0.0705,-6.516357421875,-1.151123046875,6.896728515625
0.071,-6.396240234375,-0.510498046875,6.416259765625
0.0715,-5.915771484375,0.570556640625,5.335205078125
0.072,-5.595458984375,1.851806640625,3.933837890625
0.0725,-5.315185546875,3.333251953125,2.452392578125
0.073,-5.275146484375,4.534423828125,1.331298828125
0.0735,-4.954833984375,5.335205078125,0.650634765625
0.074,-4.274169921875,5.455322265625,-0.310302734375
0.0745,-3.072998046875,5.495361328125,-1.431396484375
0.075,-1.591552734375,5.735595703125,-3.072998046875
0.0755,-0.430419921875,6.015869140625,-4.554443359375
0.076,0.330322265625,6.336181640625,-5.635498046875
0.0765,1.010986328125,6.336181640625,-6.316162109375
0.077,2.052001953125,5.375244140625,-6.596435546875
0.0775,3.493408203125,3.973876953125,-6.876708984375
0.078,4.814697265625,2.452392578125,-6.956787109375
0.0785,5.695556640625,1.291259765625,-7.036865234375
0.079,5.935791015625,0.610595703125,-6.956787109375
0.0795,5.735595703125,-0.230224609375,-6.356201171875
0.08,5.375244140625,-1.231201171875,-5.235107421875
0.0805,5.054931640625,-2.632568359375,-3.793701171875
0.081,4.974853515625,-4.154052734375,-2.432373046875
0.0815,4.774658203125,-5.275146484375,-1.391357421875
0.082,4.614501953125,-5.755615234375,-0.790771484375
0.0825,3.693603515625,-5.915771484375,0.210205078125
0.083,2.412353515625,-6.075927734375,1.531494140625
0.0835,1.010986328125,-6.276123046875,3.133056640625
0.084,0.050048828125,-6.676513671875,4.494384765625
0.0845,-0.630615234375,-6.996826171875,5.455322265625
0.085,-1.431396484375,-6.716552734375,6.015869140625
0.0855,-2.632568359375,-5.595458984375,6.296142578125
0.086,-3.993896484375,-4.194091796875,6.496337890625
0.0865,-5.195068359375,-2.792724609375,6.656494140625
0.087,-5.915771484375,-1.831787109375,6.696533203125
0.0875,-6.035888671875,-1.271240234375,6.576416015625
0.088,-5.755615234375,-0.470458984375,5.775634765625
0.0885,-5.435302734375,0.650634765625,4.614501953125
0.089,-5.275146484375,2.052001953125,3.333251953125
0.0895,-5.195068359375,3.453369140625,1.971923828125
0.09,-5.155029296875,4.414306640625,1.331298828125
0.0905,-4.674560546875,4.854736328125,0.650634765625
0.091,-3.793701171875,5.014892578125,-0.390380859375
0.0915,-2.552490234375,5.255126953125,-1.791748046875
0.092,-1.271240234375,5.575439453125,-3.353271484375
0.0925,-0.470458984375,5.935791015625,-4.594482421875
0.093,0.210205078125,6.256103515625,-5.475341796875
0.0935,1.091064453125,5.775634765625,-5.915771484375
0.094,2.372314453125,4.614501953125,-6.236083984375
0.0945,3.653564453125,3.293212890625,-6.436279296875
0.095,4.814697265625,2.011962890625,-6.636474609375
0.0955,5.335205078125,1.291259765625,-6.756591796875
0.096,5.415283203125,0.650634765625,-6.476318359375
0.0965,5.175048828125,-0.310302734375,-5.715576171875
0.097,4.854736328125,-1.431396484375,-4.554443359375
0.0975,4.854736328125,-2.872802734375,-3.273193359375
0.098,4.814697265625,-4.154052734375,-2.272216796875
0.0985,4.774658203125,-4.994873046875,-1.551513671875
0.099,4.214111328125,-5.315185546875,-0.790771484375
0.0995,3.173095703125,-5.515380859375,0.370361328125
0.1,2.052001953125,-5.795654296875,1.771728515625
0.1005,0.930908203125,-6.236083984375,3.293212890625
0.101,0.250244140625,-6.716552734375,4.454345703125
0.1015,-0.510498046875,-6.796630859375,5.255126953125
0.102,-1.551513671875,-6.115966796875,5.655517578125
0.1025,-2.832763671875,-4.994873046875,5.975830078125
0.103,-4.154052734375,-3.673583984375,6.256103515625
0.1035,-5.114990234375,-2.592529296875,6.456298828125
0.104,-5.595458984375,-1.951904296875,6.536376953125
0.1045,-5.475341796875,-1.311279296875,6.135986328125
0.105,-5.275146484375,-0.470458984375,5.255126953125
0.1055,-5.195068359375,0.850830078125,4.214111328125
0.106,-5.114990234375,2.372314453125,2.892822265625
0.1065,-5.155029296875,3.493408203125,2.052001953125
0.107,-4.994873046875,4.134033203125,1.411376953125
0.1075,-4.354248046875,4.494384765625,0.610595703125
0.108,-3.353271484375,4.774658203125,-0.630615234375
0.1085,-2.192138671875,5.135009765625,-2.192138671875
0.109,-1.231201171875,5.615478515625,-3.553466796875
0.1095,-0.630615234375,6.055908203125,-4.554443359375
0.11,0.170166015625,5.975830078125,-5.275146484375
0.1105,1.291259765625,5.135009765625,-5.635498046875
0.111,2.572509765625,4.013916015625,-5.995849609375
0.1115,3.893798828125,2.692626953125,-6.276123046875
0.112,4.694580078125,1.891845703125,-6.476318359375
0.1125,4.974853515625,1.211181640625,-6.516357421875
0.113,4.934814453125,0.530517578125,-6.035888671875
0.1135,4.774658203125,-0.510498046875,-5.155029296875
0.114,4.614501953125,-1.791748046875,-3.953857421875
0.1145,4.774658203125,-3.193115234375,-2.912841796875
0.115,4.774658203125,-4.154052734375,-2.192138671875
0.1155,4.534423828125,-4.754638671875,-1.551513671875
0.116,3.773681640625,-5.074951171875,-0.630615234375
0.1165,2.772705078125,-5.395263671875,0.730712890625
0.117,1.651611328125,-5.795654296875,2.252197265625
0.1175,0.890869140625,-6.356201171875,3.493408203125
0.118,0.290283203125,-6.716552734375,4.494384765625
0.1185,-0.670654296875,-6.436279296875,5.094970703125
0.119,-1.871826171875,-5.555419921875,5.495361328125
0.1195,-3.153076171875,-4.394287109375,5.815673828125
0.12,-4.394287109375,-3.193115234375,6.135986328125
0.1205,-5.074951171875,-2.552490234375,6.296142578125
0.121,-5.275146484375,-1.951904296875,6.296142578125
0.1215,-5.155029296875,-1.151123046875,5.655517578125
0.122,-5.074951171875,0.130126953125,4.694580078125
0.1225,-5.074951171875,1.451416015625,3.573486328125
0.123,-5.155029296875,2.812744140625,2.612548828125
0.1235,-5.155029296875,3.693603515625,1.931884765625
0.124,-4.754638671875,4.134033203125,1.211181640625
0.1245,-3.873779296875,4.494384765625,0.130126953125
0.125,-2.832763671875,4.894775390625,-1.351318359375
0.1255,-1.791748046875,5.415283203125,-2.872802734375
0.126,-1.071044921875,5.895751953125,-4.033935546875
0.1265,-0.390380859375,6.095947265625,-4.914794921875
0.127,0.730712890625,5.495361328125,-5.395263671875
0.1275,2.011962890625,4.494384765625,-5.795654296875
0.128,3.333251953125,3.173095703125,-6.115966796875
0.1285,4.494384765625,2.172119140625,-6.396240234375
0.129,4.934814453125,1.451416015625,-6.556396484375
0.1295,4.974853515625,0.770751953125,-6.196044921875
0.13,4.774658203125,-0.190185546875,-5.395263671875
0.1305,4.694580078125,-1.391357421875,-4.314208984375
0.131,4.734619140625,-2.872802734375,-3.153076171875
0.1315,4.774658203125,-4.033935546875,-2.272216796875
0.132,4.654541015625,-4.754638671875,-1.591552734375
0.1325,3.973876953125,-5.074951171875,-0.790771484375
0.133,3.012939453125,-5.395263671875,0.530517578125
0.1335,1.851806640625,-5.755615234375,1.971923828125
0.134,0.930908203125,-6.276123046875,3.413330078125
0.1345,0.290283203125,-6.716552734375,4.494384765625
0.135,-0.630615234375,-6.556396484375,5.135009765625
0.1355,-1.791748046875,-5.715576171875,5.575439453125
0.136,-3.113037109375,-4.514404296875,5.895751953125
0.1365,-4.514404296875,-3.233154296875,6.256103515625
0.137,-5.195068359375,-2.352294921875,6.376220703125
0.1375,-5.475341796875,-1.791748046875,6.376220703125
0.138,-5.355224609375,-0.990966796875,5.735595703125
0.1385,-5.114990234375,0.130126953125,4.774658203125
0.139,-5.034912109375,1.451416015625,3.613525390625
0.1395,-5.114990234375,2.852783203125,2.492431640625
0.14,-5.074951171875,3.813720703125,1.771728515625
0.1405,-4.754638671875,4.334228515625,1.010986328125
0.141,-3.913818359375,4.574462890625,0.130126953125
0.1415,-2.872802734375,4.934814453125,-1.311279296875
0.142,-1.671630859375,5.375244140625,-2.872802734375
0.1425,-0.910888671875,5.775634765625,-4.073974609375
0.143,-0.310302734375,6.135986328125,-5.034912109375
0.1435,0.730712890625,5.735595703125,-5.555419921875
0.144,1.971923828125,4.614501953125,-5.915771484375
0.1445,3.213134765625,3.213134765625,-6.276123046875
0.145,4.494384765625,2.052001953125,-6.436279296875
0.1455,5.094970703125,1.331298828125,-6.596435546875
0.146,5.215087890625,0.770751953125,-6.396240234375
0.1465,4.974853515625,-0.190185546875,-5.635498046875
0.147,4.814697265625,-1.311279296875,-4.514404296875
0.1475,4.774658203125,-2.752685546875,-3.233154296875
0.148,4.814697265625,-4.073974609375,-2.272216796875
0.1485,4.734619140625,-4.874755859375,-1.551513671875
0.149,4.174072265625,-5.275146484375,-0.790771484375
0.1495,3.173095703125,-5.475341796875,0.410400390625
0.15,1.971923828125,-5.795654296875,1.851806640625
0.1505,0.890869140625,-6.276123046875,3.373291015625
0.151,0.250244140625,-6.676513671875,4.494384765625
0.1515,-0.630615234375,-6.796630859375,5.375244140625
0.152,-1.671630859375,-6.035888671875,5.735595703125
0.1525,-2.952880859375,-4.754638671875,6.135986328125
0.153,-4.394287109375,-3.473388671875,6.376220703125
0.1535,-5.395263671875,-2.392333984375,6.576416015625
0.154,-5.795654296875,-1.671630859375,6.576416015625
0.1545,-5.675537109375,-0.990966796875,6.095947265625
0.155,-5.395263671875,0.130126953125,5.094970703125
0.1555,-5.195068359375,1.411376953125,3.853759765625
0.156,-5.195068359375,2.932861328125,2.532470703125
0.1565,-5.155029296875,4.053955078125,1.611572265625
0.157,-4.914794921875,4.694580078125,0.930908203125
0.1575,-4.114013671875,4.894775390625,0.050048828125
0.158,-2.952880859375,5.135009765625,-1.311279296875
0.1585,-1.631591796875,5.455322265625,-2.952880859375
0.159,-0.670654296875,5.895751953125,-4.354248046875
0.1595,0.050048828125,6.256103515625,-5.395263671875
0.16,0.930908203125,6.015869140625,-6.035888671875
0.1605,2.052001953125,4.854736328125,-6.276123046875
0.161,3.573486328125,3.453369140625,-6.636474609375
0.1615,4.854736328125,1.971923828125,-6.796630859375
0.162,5.575439453125,1.131103515625,-6.876708984375
0.1625,5.735595703125,0.450439453125,-6.716552734375
0.163,5.455322265625,-0.510498046875,-5.875732421875
0.1635,5.135009765625,-1.671630859375,-4.634521484375
0.164,4.934814453125,-3.193115234375,-3.193115234375
0.1645,4.934814453125,-4.634521484375,-1.951904296875
0.165,4.774658203125,-5.515380859375,-1.151123046875
0.1655,4.294189453125,-5.915771484375,-0.350341796875
0.166,3.133056640625,-5.995849609375,0.850830078125
0.1665,1.731689453125,-6.236083984375,2.412353515625
0.167,0.370361328125,-6.516357421875,4.013916015625
0.1675,-0.510498046875,-6.916748046875,5.215087890625
0.168,-1.151123046875,-6.996826171875,6.055908203125
0.1685,-2.272216796875,-6.316162109375,6.536376953125
0.169,-3.593505859375,-4.874755859375,6.696533203125
0.1695,-4.954833984375,-3.353271484375,6.816650390625
0.17,-6.075927734375,-1.911865234375,6.896728515625
0.1705,-6.436279296875,-1.151123046875,6.816650390625
0.171,-6.316162109375,-0.390380859375,6.376220703125
0.1715,-5.835693359375,0.690673828125,5.175048828125
0.172,-5.555419921875,2.052001953125,3.773681640625
0.1725,-5.355224609375,3.573486328125,2.252197265625
0.173,-5.275146484375,4.814697265625,1.171142578125
0.1735,-4.914794921875,5.415283203125,0.450439453125
0.174,-4.114013671875,5.575439453125,-0.510498046875
0.1745,-2.792724609375,5.615478515625,-1.791748046875
0.175,-1.311279296875,5.815673828125,-3.473388671875
0.1755,0.010009765625,6.095947265625,-4.994873046875
0.176,0.610595703125,6.376220703125,-5.955810546875
0.1765,1.291259765625,6.055908203125,-6.676513671875
0.177,2.532470703125,5.094970703125,-6.916748046875
0.1775,3.973876953125,3.533447265625,-7.076904296875
0.178,5.255126953125,2.052001953125,-7.116943359375
0.1785,6.095947265625,0.810791015625,-7.116943359375
0.179,6.256103515625,0.130126953125,-6.916748046875
0.1795,5.975830078125,-0.710693359375,-6.236083984375
0.18,5.455322265625,-1.871826171875,-4.954833984375
0.1805,5.175048828125,-3.313232421875,-3.353271484375
0.181,4.974853515625,-4.834716796875,-1.951904296875
0.1815,4.814697265625,-5.835693359375,-0.990966796875
0.182,4.454345703125,-6.316162109375,-0.270263671875
0.1825,3.373291015625,-6.356201171875,0.770751953125
0.183,1.931884765625,-6.396240234375,2.252197265625
0.1835,0.450439453125,-6.596435546875,3.933837890625
0.184,-0.630615234375,-6.916748046875,5.255126953125
0.1845,-1.191162109375,-7.156982421875,6.055908203125
0.185,-2.112060546875,-6.716552734375,6.696533203125
0.1855,-3.433349609375,-5.395263671875,6.896728515625
0.186,-4.834716796875,-3.793701171875,7.056884765625
0.1865,-6.035888671875,-2.272216796875,7.056884765625
0.187,-6.596435546875,-1.271240234375,7.056884765625
0.1875,-6.676513671875,-0.590576171875,6.696533203125
0.188,-6.236083984375,0.370361328125,5.735595703125
