wavelength,x,y,z
0.0,1.131103515625,3.573486328125,-4.994873046875
0.0005,0.010009765625,4.534423828125,-4.874755859375
0.001,-1.071044921875,4.734619140625,-4.033935546875
0.0015,-1.711669921875,5.054931640625,-3.713623046875
0.002,-3.113037109375,5.215087890625,-2.472412109375
0.0025,-3.913818359375,5.175048828125,-1.591552734375
0.003,-4.634521484375,4.854736328125,-0.630615234375
0.0035,-5.315185546875,4.694580078125,0.250244140625
0.004,-5.275146484375,3.693603515625,1.131103515625
0.0045,-5.475341796875,3.373291015625,1.651611328125
0.005,-5.435302734375,1.971923828125,3.012939453125
0.0055,-5.275146484375,1.371337890625,3.413330078125
0.006,-5.114990234375,0.250244140625,4.334228515625
0.0065,-4.514404296875,-0.790771484375,4.734619140625
0.007,-3.753662109375,-1.751708984375,4.934814453125
0.0075,-3.032958984375,-2.672607421875,5.054931640625
0.008,-1.951904296875,-3.833740234375,5.094970703125
0.0085,-1.151123046875,-4.354248046875,4.774658203125
0.009,-0.150146484375,-5.275146484375,4.654541015625
0.0095,0.890869140625,-5.355224609375,3.733642578125
0.01,1.491455078125,-5.635498046875,3.453369140625
0.0105,2.892822265625,-5.715576171875,2.172119140625
0.011,3.653564453125,-5.715576171875,1.411376953125
0.0115,4.334228515625,-5.315185546875,0.370361328125
0.012,4.894775390625,-5.074951171875,-0.430419921875
0.0125,4.854736328125,-4.154052734375,-1.271240234375
0.013,5.054931640625,-3.713623046875,-1.871826171875
0.0135,5.094970703125,-2.432373046875,-3.193115234375
0.014,4.854736328125,-1.791748046875,-3.553466796875
0.0145,4.614501953125,-0.630615234375,-4.514404296875
0.015,3.853759765625,0.490478515625,-4.794677734375
0.0155,3.213134765625,1.411376953125,-4.994873046875
0.016,2.372314453125,2.452392578125,-5.114990234375
0.0165,1.371337890625,3.533447265625,-5.275146484375
0.017,0.490478515625,3.933837890625,-4.754638671875
0.0175,-0.510498046875,4.774658203125,-4.634521484375
0.018,-1.471435546875,4.814697265625,-3.633544921875
0.0185,-2.192138671875,5.094970703125,-3.233154296875
0.019,-3.593505859375,5.175048828125,-1.911865234375
0.0195,-4.234130859375,5.094970703125,-1.151123046875
0.02,-4.874755859375,4.574462890625,-0.150146484375
0.0205,-5.275146484375,4.214111328125,0.610595703125
0.021,-5.195068359375,3.333251953125,1.411376953125
0.0215,-5.275146484375,2.772705078125,2.092041015625
0.022,-5.395263671875,1.611572265625,3.253173828125
0.0225,-4.954833984375,0.850830078125,3.613525390625
0.023,-4.834716796875,-0.190185546875,4.494384765625
0.0235,-3.913818359375,-1.271240234375,4.534423828125
0.024,-3.473388671875,-1.951904296875,4.814697265625
0.0245,-2.432373046875,-3.153076171875,4.814697265625
0.025,-1.631591796875,-3.993896484375,4.894775390625
0.0255,-0.670654296875,-4.434326171875,4.334228515625
0.026,0.130126953125,-5.074951171875,4.294189453125
0.0265,1.051025390625,-5.074951171875,3.333251953125
0.027,1.731689453125,-5.355224609375,3.012939453125
0.0275,3.133056640625,-5.475341796875,1.771728515625
0.028,3.613525390625,-5.275146484375,1.131103515625
0.0285,4.254150390625,-4.954833984375,0.130126953125
0.029,4.494384765625,-4.514404296875,-0.590576171875
0.0295,4.614501953125,-3.833740234375,-1.311279296875
0.03,4.614501953125,-3.072998046875,-2.072021484375
0.0305,4.814697265625,-2.272216796875,-3.113037109375
0.031,4.334228515625,-1.311279296875,-3.513427734375
0.0315,4.254150390625,-0.390380859375,-4.314208984375
0.032,3.213134765625,0.770751953125,-4.354248046875
0.0325,2.932861328125,1.331298828125,-4.754638671875
0.033,1.811767578125,2.532470703125,-4.794677734375
0.0335,1.211181640625,3.253173828125,-4.874755859375
0.034,0.130126953125,3.813720703125,-4.234130859375
0.0345,-0.590576171875,4.334228515625,-4.114013671875
0.035,-1.471435546875,4.374267578125,-3.193115234375
0.0355,-2.232177734375,4.614501953125,-2.712646484375
0.036,-3.513427734375,4.774658203125,-1.631591796875
0.0365,-3.833740234375,4.414306640625,-0.950927734375
0.037,-4.514404296875,4.134033203125,-0.110107421875
0.0375,-4.514404296875,3.533447265625,0.610595703125
0.038,-4.674560546875,3.052978515625,1.211181640625
0.0385,-4.674560546875,2.172119140625,2.052001953125
0.039,-4.874755859375,1.571533203125,2.852783203125
0.0395,-4.314208984375,0.570556640625,3.213134765625
0.04,-4.274169921875,-0.150146484375,3.853759765625
0.0405,-3.353271484375,-1.231201171875,3.893798828125
0.041,-3.153076171875,-1.751708984375,4.254150390625
0.0415,-2.112060546875,-2.912841796875,4.334228515625
0.042,-1.591552734375,-3.313232421875,4.294189453125
0.0425,-0.710693359375,-3.913818359375,3.973876953125
0.043,0.010009765625,-4.234130859375,3.653564453125
0.0435,0.770751953125,-4.514404296875,3.093017578125
0.044,1.571533203125,-4.714599609375,2.492431640625
0.0445,2.612548828125,-4.994873046875,1.771728515625
0.045,2.932861328125,-4.554443359375,1.051025390625
0.0455,3.573486328125,-4.594482421875,0.490478515625
0.046,3.653564453125,-3.873779296875,-0.310302734375
0.0465,3.973876953125,-3.673583984375,-0.910888671875
0.047,4.053955078125,-2.752685546875,-1.831787109375
0.0475,4.214111328125,-2.272216796875,-2.472412109375
0.048,3.813720703125,-1.231201171875,-3.113037109375
0.0485,3.653564453125,-0.590576171875,-3.593505859375
0.049,2.852783203125,0.490478515625,-3.833740234375
0.0495,2.572509765625,1.091064453125,-4.154052734375
0.05,1.771728515625,2.252197265625,-4.354248046875
0.0505,1.131103515625,2.612548828125,-4.114013671875
0.051,0.330322265625,3.333251953125,-3.993896484375
0.0515,-0.430419921875,3.533447265625,-3.473388671875
0.052,-1.151123046875,3.853759765625,-3.072998046875
0.0525,-2.112060546875,3.973876953125,-2.272216796875
0.053,-2.912841796875,4.214111328125,-1.671630859375
0.0535,-3.233154296875,3.733642578125,-0.870849609375
0.054,-3.713623046875,3.773681640625,-0.470458984375
0.0545,-3.793701171875,3.012939453125,0.330322265625
0.055,-4.033935546875,2.772705078125,0.810791015625
0.0555,-4.194091796875,1.931884765625,1.771728515625
0.056,-4.154052734375,1.491455078125,2.212158203125
0.0565,-3.913818359375,0.490478515625,2.852783203125
0.057,-3.593505859375,-0.110107421875,3.133056640625
0.0575,-3.153076171875,-0.950927734375,3.453369140625
0.058,-2.712646484375,-1.591552734375,3.693603515625
0.0585,-2.152099609375,-2.432373046875,3.973876953125
0.059,-1.511474609375,-2.752685546875,3.653564453125
0.0595,-0.990966796875,-3.393310546875,3.773681640625
0.06,-0.190185546875,-3.553466796875,3.133056640625
0.0605,0.490478515625,-4.033935546875,2.972900390625
0.061,1.451416015625,-4.234130859375,2.212158203125
0.0615,1.971923828125,-4.434326171875,1.851806640625
0.062,2.532470703125,-4.154052734375,1.051025390625
0.0625,2.852783203125,-4.154052734375,0.730712890625
0.063,3.173095703125,-3.593505859375,-0.110107421875
0.0635,3.413330078125,-3.353271484375,-0.630615234375
0.064,3.773681640625,-2.712646484375,-1.591552734375
0.0645,3.573486328125,-2.112060546875,-2.031982421875
0.065,3.573486328125,-1.351318359375,-2.832763671875
0.0655,3.012939453125,-0.510498046875,-3.072998046875
0.066,2.852783203125,0.250244140625,-3.553466796875
0.0665,2.252197265625,1.131103515625,-3.793701171875
0.067,1.811767578125,1.811767578125,-3.993896484375
0.0675,1.010986328125,2.292236328125,-3.673583984375
0.068,0.570556640625,2.852783203125,-3.713623046875
0.0685,-0.390380859375,3.093017578125,-3.072998046875
0.069,-1.031005859375,3.493408203125,-2.872802734375
0.0695,-2.072021484375,3.773681640625,-2.072021484375
0.07,-2.432373046875,3.693603515625,-1.591552734375
0.0705,-3.032958984375,3.573486328125,-0.990966796875
0.071,-3.193115234375,3.253173828125,-0.510498046875
0.0715,-3.553466796875,2.892822265625,0.210205078125
0.072,-3.713623046875,2.412353515625,0.890869140625
0.0725,-3.993896484375,1.931884765625,1.571533203125
0.073,-3.673583984375,1.131103515625,2.052001953125
0.0735,-3.793701171875,0.610595703125,2.612548828125
0.074,-3.113037109375,-0.310302734375,2.852783203125
0.0745,-3.072998046875,-0.790771484375,3.333251953125
0.075,-2.352294921875,-1.791748046875,3.533447265625
0.0755,-1.991943359375,-2.232177734375,3.613525390625
0.076,-1.311279296875,-2.752685546875,3.493408203125
0.0765,-0.830810546875,-3.153076171875,3.333251953125
0.077,0.010009765625,-3.553466796875,2.892822265625
0.0775,0.730712890625,-3.873779296875,2.532470703125
0.078,1.571533203125,-4.194091796875,2.011962890625
0.0785,1.931884765625,-3.953857421875,1.451416015625
0.079,2.532470703125,-4.114013671875,1.091064453125
0.0795,2.692626953125,-3.633544921875,0.370361328125
0.08,3.133056640625,-3.513427734375,-0.190185546875
0.0805,3.333251953125,-2.912841796875,-1.031005859375
0.081,3.573486328125,-2.512451171875,-1.631591796875
0.0815,3.253173828125,-1.591552734375,-2.272216796875
0.082,3.253173828125,-0.990966796875,-2.752685546875
0.0825,2.692626953125,-0.070068359375,-3.113037109375
0.083,2.532470703125,0.610595703125,-3.553466796875
0.0835,1.931884765625,1.531494140625,-3.873779296875
0.084,1.331298828125,1.971923828125,-3.713623046875
0.0845,0.770751953125,2.612548828125,-3.713623046875
0.085,0.010009765625,2.892822265625,-3.233154296875
0.0855,-0.790771484375,3.333251953125,-2.912841796875
0.086,-1.671630859375,3.573486328125,-2.272216796875
0.0865,-2.432373046875,3.813720703125,-1.751708984375
0.087,-2.752685546875,3.413330078125,-1.031005859375
0.0875,-3.193115234375,3.493408203125,-0.670654296875
0.088,-3.353271484375,2.852783203125,0.090087890625
0.0885,-3.713623046875,2.572509765625,0.610595703125
0.089,-3.913818359375,1.891845703125,1.571533203125
0.0895,-3.873779296875,1.291259765625,2.052001953125
0.09,-3.673583984375,0.490478515625,2.612548828125
0.0905,-3.353271484375,-0.150146484375,2.932861328125
0.091,-2.872802734375,-0.910888671875,3.253173828125
0.0915,-2.512451171875,-1.631591796875,3.573486328125
0.092,-1.951904296875,-2.432373046875,3.813720703125
0.0925,-1.271240234375,-2.832763671875,3.453369140625
0.093,-0.790771484375,-3.353271484375,3.533447265625
0.0935,0.130126953125,-3.593505859375,2.852783203125
0.094,0.810791015625,-3.993896484375,2.572509765625
0.0945,1.771728515625,-4.234130859375,1.851806640625
0.095,2.372314453125,-4.234130859375,1.331298828125
0.0955,2.732666015625,-3.993896484375,0.690673828125
0.096,3.093017578125,-3.873779296875,0.290283203125
0.0965,3.253173828125,-3.353271484375,-0.590576171875
0.097,3.533447265625,-2.952880859375,-1.191162109375
0.0975,3.853759765625,-2.272216796875,-2.152099609375
0.098,3.453369140625,-1.351318359375,-2.592529296875
0.0985,3.333251953125,-0.670654296875,-3.153076171875
0.099,2.732666015625,0.210205078125,-3.353271484375
0.0995,2.412353515625,0.970947265625,-3.793701171875
0.1,1.771728515625,1.851806640625,-3.993896484375
0.1005,1.091064453125,2.572509765625,-4.033935546875
0.101,0.290283203125,2.892822265625,-3.553466796875
0.1015,-0.270263671875,3.453369140625,-3.553466796875
0.102,-1.351318359375,3.613525390625,-2.592529296875
0.1025,-2.031982421875,3.893798828125,-2.272216796875
0.103,-3.032958984375,4.053955078125,-1.431396484375
0.1035,-3.433349609375,3.773681640625,-0.710693359375
0.104,-3.793701171875,3.493408203125,-0.150146484375
0.1045,-3.993896484375,3.012939453125,0.490478515625
0.105,-4.114013671875,2.332275390625,1.291259765625
0.1055,-4.194091796875,1.731689453125,1.931884765625
0.106,-4.394287109375,1.051025390625,2.852783203125
0.1065,-3.753662109375,0.050048828125,3.173095703125
0.107,-3.673583984375,-0.550537109375,3.693603515625
0.1075,-2.752685546875,-1.551513671875,3.733642578125
0.108,-2.432373046875,-2.272216796875,4.053955078125
0.1085,-1.551513671875,-3.072998046875,4.053955078125
0.109,-0.830810546875,-3.713623046875,3.893798828125
0.1095,-0.150146484375,-3.913818359375,3.453369140625
0.11,0.610595703125,-4.354248046875,3.173095703125
0.1105,1.691650390625,-4.514404296875,2.212158203125
0.111,2.292236328125,-4.634521484375,1.771728515625
0.1115,3.213134765625,-4.714599609375,0.930908203125
0.112,3.493408203125,-4.194091796875,0.170166015625
0.1125,3.853759765625,-4.073974609375,-0.350341796875
0.113,3.893798828125,-3.353271484375,-1.191162109375
0.1135,4.134033203125,-2.712646484375,-1.991943359375
0.114,4.053955078125,-1.911865234375,-2.672607421875
0.1145,4.134033203125,-1.111083984375,-3.473388671875
0.115,3.253173828125,0.010009765625,-3.713623046875
0.1155,3.173095703125,0.610595703125,-4.194091796875
0.116,2.052001953125,1.811767578125,-4.234130859375
0.1165,1.651611328125,2.492431640625,-4.474365234375
0.117,0.690673828125,3.333251953125,-4.354248046875
0.1175,-0.150146484375,3.853759765625,-4.033935546875
0.118,-0.910888671875,4.013916015625,-3.553466796875
0.1185,-1.831787109375,4.414306640625,-2.952880859375
0.119,-2.992919921875,4.534423828125,-1.951904296875
0.1195,-3.553466796875,4.454345703125,-1.271240234375
0.12,-4.434326171875,4.414306640625,-0.390380859375
0.1205,-4.514404296875,3.653564453125,0.410400390625
0.121,-4.754638671875,3.333251953125,0.970947265625
0.1215,-4.794677734375,2.372314453125,2.011962890625
0.122,-4.914794921875,1.691650390625,2.732666015625
0.1225,-4.634521484375,0.730712890625,3.413330078125
0.123,-4.514404296875,-0.150146484375,4.134033203125
0.1235,-3.593505859375,-1.231201171875,4.214111328125
0.124,-3.313232421875,-1.871826171875,4.534423828125
0.1245,-2.072021484375,-3.193115234375,4.614501953125
0.125,-1.511474609375,-3.713623046875,4.534423828125
0.1255,-0.510498046875,-4.514404296875,4.334228515625
0.126,0.290283203125,-4.834716796875,3.853759765625
0.1265,1.051025390625,-4.994873046875,3.293212890625
0.127,2.092041015625,-5.275146484375,2.532470703125
0.1275,3.253173828125,-5.395263671875,1.531494140625
0.128,3.733642578125,-5.034912109375,0.690673828125
0.1285,4.494384765625,-4.994873046875,-0.150146484375
0.129,4.494384765625,-4.114013671875,-0.950927734375
0.1295,4.694580078125,-3.753662109375,-1.431396484375
0.13,4.734619140625,-2.592529296875,-2.632568359375
0.1305,4.734619140625,-1.951904296875,-3.353271484375
0.131,4.334228515625,-0.790771484375,-3.993896484375
0.1315,4.093994140625,0.130126953125,-4.634521484375
0.132,3.052978515625,1.211181640625,-4.634521484375
0.1325,2.612548828125,1.931884765625,-4.914794921875
0.133,1.411376953125,3.333251953125,-5.034912109375
0.1335,0.650634765625,3.813720703125,-4.794677734375
0.134,-0.390380859375,4.494384765625,-4.474365234375
0.1345,-1.231201171875,4.774658203125,-3.873779296875
0.135,-1.991943359375,4.854736328125,-3.193115234375
0.1355,-3.193115234375,5.094970703125,-2.272216796875
0.136,-4.354248046875,5.175048828125,-1.191162109375
0.1365,-4.714599609375,4.494384765625,-0.270263671875
0.137,-5.355224609375,4.414306640625,0.530517578125
0.1375,-5.195068359375,3.413330078125,1.371337890625
0.138,-5.315185546875,2.932861328125,1.971923828125
0.1385,-5.395263671875,1.691650390625,3.213134765625
0.139,-5.195068359375,0.890869140625,3.853759765625
0.1395,-4.674560546875,-0.310302734375,4.414306640625
0.14,-4.314208984375,-1.151123046875,4.854736328125
0.1405,-3.273193359375,-2.152099609375,4.814697265625
0.141,-2.712646484375,-2.912841796875,5.014892578125
0.1415,-1.551513671875,-4.234130859375,5.094970703125
0.142,-0.630615234375,-4.634521484375,4.534423828125
0.1425,0.250244140625,-5.275146484375,4.334228515625
0.143,1.131103515625,-5.395263671875,3.573486328125
0.1435,1.931884765625,-5.515380859375,2.932861328125
0.144,3.133056640625,-5.635498046875,1.891845703125
0.1445,4.134033203125,-5.755615234375,0.890869140625
0.145,4.454345703125,-4.994873046875,-0.150146484375
0.1455,5.054931640625,-4.834716796875,-0.710693359375
0.146,4.854736328125,-3.793701171875,-1.591552734375
0.1465,4.974853515625,-3.273193359375,-2.192138671875
0.147,5.054931640625,-2.072021484375,-3.473388671875
0.1475,4.734619140625,-1.231201171875,-3.993896484375
0.148,4.174072265625,0.010009765625,-4.594482421875
0.1485,3.693603515625,0.850830078125,-4.914794921875
0.149,2.732666015625,1.851806640625,-4.914794921875
0.1495,2.052001953125,2.652587890625,-5.074951171875
0.15,0.970947265625,3.933837890625,-5.235107421875
0.1505,0.010009765625,4.214111328125,-4.514404296875
0.151,-0.790771484375,4.854736328125,-4.354248046875
0.1515,-1.791748046875,4.934814453125,-3.433349609375
0.152,-2.592529296875,5.094970703125,-2.832763671875
0.1525,-3.833740234375,5.094970703125,-1.671630859375
0.153,-4.754638671875,5.054931640625,-0.750732421875
0.1535,-4.954833984375,4.294189453125,0.290283203125
0.154,-5.435302734375,4.134033203125,0.890869140625
0.1545,-5.275146484375,3.012939453125,1.771728515625
0.155,-5.315185546875,2.452392578125,2.412353515625
0.1555,-5.435302734375,1.291259765625,3.693603515625
0.156,-4.914794921875,0.330322265625,4.093994140625
0.1565,-4.474365234375,-0.750732421875,4.654541015625
0.157,-3.833740234375,-1.591552734375,4.814697265625
0.1575,-2.952880859375,-2.512451171875,4.814697265625
0.158,-2.192138671875,-3.353271484375,4.894775390625
0.1585,-1.151123046875,-4.514404296875,4.974853515625
0.159,-0.150146484375,-4.714599609375,4.134033203125
0.1595,0.490478515625,-5.275146484375,4.134033203125
0.16,1.571533203125,-5.275146484375,3.052978515625
0.1605,2.252197265625,-5.435302734375,2.532470703125
0.161,3.493408203125,-5.515380859375,1.411376953125
0.1615,4.134033203125,-5.275146484375,0.570556640625
0.162,4.414306640625,-4.634521484375,-0.350341796875
0.1625,4.694580078125,-4.354248046875,-0.950927734375
0.163,4.614501953125,-3.393310546875,-1.791748046875
0.1635,4.654541015625,-2.752685546875,-2.432373046875
0.164,4.854736328125,-1.791748046875,-3.593505859375
0.1645,4.174072265625,-0.710693359375,-3.913818359375
0.165,3.973876953125,0.170166015625,-4.554443359375
0.1655,3.052978515625,1.131103515625,-4.594482421875
0.166,2.492431640625,1.931884765625,-4.794677734375
0.1665,1.571533203125,2.892822265625,-4.834716796875
0.167,0.690673828125,3.853759765625,-4.834716796875
0.1675,-0.350341796875,4.093994140625,-4.033935546875
0.168,-0.910888671875,4.574462890625,-3.993896484375
0.1685,-2.072021484375,4.534423828125,-2.872802734375
0.169,-2.712646484375,4.734619140625,-2.432373046875
0.1695,-3.913818359375,4.854736328125,-1.311279296875
0.17,-4.354248046875,4.454345703125,-0.510498046875
0.1705,-4.714599609375,3.973876953125,0.330322265625
0.171,-4.834716796875,3.493408203125,0.930908203125
0.1715,-4.834716796875,2.612548828125,1.771728515625
0.172,-4.834716796875,1.931884765625,2.412353515625
0.1725,-4.994873046875,1.051025390625,3.453369140625
0.173,-4.194091796875,0.010009765625,3.693603515625
0.1735,-4.154052734375,-0.710693359375,4.294189453125
0.174,-3.153076171875,-1.671630859375,4.214111328125
0.1745,-2.712646484375,-2.392333984375,4.494384765625
0.175,-1.791748046875,-3.313232421875,4.454345703125
0.1755,-0.990966796875,-3.993896484375,4.334228515625
0.176,-0.150146484375,-4.354248046875,3.653564453125
0.1765,0.450439453125,-4.674560546875,3.533447265625
0.177,1.451416015625,-4.754638671875,2.572509765625
0.1775,2.092041015625,-4.874755859375,2.212158203125
0.178,3.173095703125,-4.994873046875,1.291259765625
0.1785,3.373291015625,-4.474365234375,0.490478515625
0.179,3.853759765625,-4.354248046875,0.010009765625
0.1795,3.853759765625,-3.713623046875,-0.710693359375
0.18,4.093994140625,-3.193115234375,-1.431396484375
0.1805,4.093994140625,-2.432373046875,-2.192138671875
0.181,4.214111328125,-1.791748046875,-2.992919921875
0.1815,3.533447265625,-0.710693359375,-3.353271484375
0.182,3.533447265625,-0.110107421875,-3.873779296875
0.1825,2.572509765625,0.930908203125,-3.873779296875
0.183,2.372314453125,1.571533203125,-4.314208984375
0.1835,1.451416015625,2.572509765625,-4.394287109375
0.184,0.610595703125,3.052978515625,-3.993896484375
0.1845,0.010009765625,3.493408203125,-3.833740234375
0.185,-0.790771484375,3.773681640625,-3.393310546875
0.1855,-1.711669921875,4.013916015625,-2.672607421875
0.186,-2.472412109375,4.174072265625,-2.112060546875
0.1865,-3.353271484375,4.294189453125,-1.351318359375
0.187,-3.553466796875,3.693603515625,-0.550537109375
0.1875,-4.033935546875,3.733642578125,-0.110107421875
0.188,-3.993896484375,2.852783203125,0.690673828125
