wavelength,x,y,z
0.0,-20.444946289062,-0.2652587890625,20.274780273438
0.0005,-18.442993164062,-4.7095947265625,22.677124023438
0.001,-14.479125976562,-9.7545166015625,23.838256835938
0.0015,-11.996704101562,-13.398071289062,24.999389648438
0.002,-6.3912353515625,-16.721313476562,22.917358398438
0.0025,-2.7476806640625,-18.883422851562,21.475952148438
0.003,2.6976318359375,-21.005493164062,18.312866210938
0.0035,7.6224365234375,-23.848266601562,16.310913085938
0.004,12.106811523438,-23.768188476562,11.826538085938
0.0045,15.710327148438,-24.368774414062,8.7835693359375
0.005,18.192749023438,-22.847290039062,4.8197021484375
0.0055,20.995483398438,-20.885375976562,-0.1451416015625
0.006,22.757202148438,-18.322875976562,-4.4693603515625
0.0065,24.478881835938,-15.079711914062,-9.4742431640625
0.007,24.799194335938,-12.036743164062,-12.797485351562
0.0075,23.838256835938,-7.0718994140625,-16.801391601562
0.008,22.436889648438,-4.0289306640625,-18.402954101562
0.0085,19.634155273438,1.5765380859375,-21.245727539062
0.009,17.351928710938,6.4613037109375,-23.968383789062
0.0095,12.907592773438,11.306030273438,-24.328735351562
0.01,10.425170898438,14.589233398438,-25.129516601562
0.0105,4.9398193359375,17.552124023438,-22.727172851562
0.011,0.7757568359375,19.834350585938,-20.885375976562
0.0115,-4.1890869140625,21.796264648438,-18.082641601562
0.012,-9.7144775390625,24.478881835938,-15.279907226562
0.0125,-13.317993164062,24.198608398438,-11.396118164062
0.013,-17.361938476562,24.038452148438,-7.1519775390625
0.0135,-19.083618164062,22.356811523438,-3.7886962890625
0.014,-21.926391601562,19.994506835938,1.5765380859375
0.0145,-23.608032226562,17.351928710938,5.9007568359375
0.015,-24.689086914062,13.428100585938,10.905639648438
0.0155,-25.009399414062,10.705444335938,13.948608398438
0.016,-23.367797851562,5.4202880859375,17.552124023438
0.0165,-21.646118164062,1.9769287109375,19.233764648438
0.017,-19.083618164062,-3.2281494140625,21.796264648438
0.0175,-16.360961914062,-8.5933837890625,24.478881835938
0.018,-11.916625976562,-12.637329101562,24.278686523438
0.0185,-8.7535400390625,-16.000610351562,24.518920898438
0.019,-3.6285400390625,-18.322875976562,21.796264648438
0.0195,1.3363037109375,-20.885375976562,19.514038085938
0.02,5.7005615234375,-22.567016601562,16.951538085938
0.0205,11.506225585938,-24.809204101562,13.428100585938
0.021,14.389038085938,-24.288696289062,10.064819335938
0.0215,18.473022460938,-23.648071289062,5.2601318359375
0.022,19.994506835938,-21.646118164062,1.7767333984375
0.0225,22.757202148438,-19.363891601562,-3.3883056640625
0.023,24.238647460938,-16.401000976562,-7.9527587890625
0.0235,24.839233398438,-12.357055664062,-12.517211914062
0.024,24.919311523438,-9.3941650390625,-15.560180664062
0.0245,22.757202148438,-4.3092041015625,-18.523071289062
0.025,20.635131835938,-0.1851806640625,-20.525024414062
0.0255,18.232788085938,4.6195068359375,-22.807250976562
0.026,14.869506835938,10.265014648438,-25.249633789062
0.0265,10.745483398438,13.628295898438,-24.488891601562
0.027,6.7816162109375,17.151733398438,-24.128540039062
0.0275,2.1771240234375,18.993530273438,-21.445922851562
0.028,-3.1881103515625,21.796264648438,-19.083618164062
0.0285,-7.4322509765625,23.197631835938,-16.240844726562
0.029,-12.957641601562,24.999389648438,-12.557250976562
0.0295,-15.760375976562,24.118530273438,-8.8736572265625
0.03,-19.203735351562,23.077514648438,-4.3492431640625
0.0305,-20.805297851562,20.675170898438,-0.3052978515625
0.031,-23.327758789062,18.513061523438,4.4593505859375
0.0315,-24.448852539062,14.949584960938,9.2239990234375
0.032,-24.649047851562,11.105834960938,13.187866210938
0.0325,-24.408813476562,7.7025146484375,16.310913085938
0.033,-22.086547851562,2.8177490234375,18.793334960938
0.0335,-19.844360351562,-1.7467041015625,21.115600585938
0.034,-17.281860351562,-6.1510009765625,22.997436523438
0.0345,-13.798461914062,-11.556274414062,25.039428710938
0.035,-9.5943603515625,-14.599243164062,23.878295898438
0.0355,-5.3101806640625,-17.802368164062,22.917358398438
0.036,-0.6256103515625,-19.484008789062,19.994506835938
0.0365,4.4193115234375,-22.366821289062,17.992553710938
0.037,8.9837646484375,-23.287719726562,14.389038085938
0.0375,13.508178710938,-24.689086914062,11.306030273438
0.038,16.631225585938,-23.688110351562,7.1820068359375
0.0385,19.433959960938,-22.286743164062,2.9378662109375
0.039,21.275756835938,-19.724243164062,-1.5865478515625
0.0395,23.517944335938,-17.642211914062,-5.9107666015625
0.04,24.478881835938,-13.918579101562,-10.635375976562
0.0405,24.198608398438,-10.154907226562,-14.198852539062
0.041,23.638061523438,-6.7115478515625,-17.001586914062
0.0415,20.995483398438,-1.7467041015625,-19.363891601562
0.042,19.033569335938,2.8978271484375,-21.926391601562
0.0425,15.790405273438,7.5423583984375,-23.367797851562
0.043,12.827514648438,12.226928710938,-25.129516601562
0.0435,8.0628662109375,15.390014648438,-23.567993164062
0.044,4.0589599609375,18.032592773438,-22.366821289062
0.0445,-0.9459228515625,19.834350585938,-19.283813476562
0.045,-5.5504150390625,22.717163085938,-17.642211914062
0.0455,-10.395141601562,23.357788085938,-13.438110351562
0.046,-14.158813476562,24.198608398438,-10.555297851562
0.0465,-17.161743164062,23.117553710938,-6.4713134765625
0.047,-19.684204101562,21.275756835938,-2.0670166015625
0.0475,-21.606079101562,18.833374023438,2.4173583984375
0.048,-23.447875976562,16.230834960938,6.9017333984375
0.0485,-24.368774414062,12.867553710938,11.145874023438
0.049,-23.688110351562,8.5032958984375,14.749389648438
0.0495,-22.887329101562,5.3802490234375,17.031616210938
0.05,-20.004516601562,0.2552490234375,19.393920898438
0.0505,-18.402954101562,-4.2691650390625,22.276733398438
0.051,-14.439086914062,-8.9937744140625,23.077514648438
0.0515,-11.956665039062,-12.877563476562,24.518920898438
0.052,-6.8316650390625,-16.040649414062,22.677124023438
0.0525,-2.7476806640625,-18.442993164062,21.115600585938
0.053,2.2572021484375,-20.364868164062,18.112670898438
0.0535,7.0618896484375,-23.047485351562,16.150756835938
0.054,11.466186523438,-23.527954101562,12.186889648438
0.0545,15.229858398438,-23.648071289062,8.5433349609375
0.055,17.552124023438,-22.727172851562,5.3001708984375
0.0555,20.234741210938,-20.444946289062,0.2952880859375
0.056,22.316772460938,-18.242797851562,-4.1090087890625
0.0565,23.557983398438,-14.879516601562,-8.6734619140625
0.057,24.598999023438,-12.317016601562,-12.357055664062
0.0575,23.277709960938,-7.3121337890625,-16.080688476562
0.058,22.156616210938,-4.1090087890625,-18.082641601562
0.0585,19.233764648438,1.2962646484375,-20.444946289062
0.059,17.432006835938,6.1009521484375,-23.527954101562
0.0595,12.947631835938,10.665405273438,-23.688110351562
0.06,10.224975585938,14.228881835938,-24.568969726562
0.0605,5.4603271484375,16.831420898438,-22.567016601562
0.061,0.9359130859375,19.353881835938,-20.605102539062
0.0615,-3.9088134765625,21.315795898438,-17.842407226562
0.062,-9.2340087890625,23.798217773438,-15.039672851562
0.0625,-12.837524414062,24.118530273438,-11.836547851562
0.063,-16.961547851562,23.517944335938,-7.0318603515625
0.0635,-18.603149414062,22.316772460938,-4.1490478515625
0.064,-21.405883789062,19.754272460938,1.2962646484375
0.0645,-23.567993164062,17.311889648438,5.8206787109375
0.065,-24.048461914062,13.147827148438,10.545288085938
0.0655,-24.969360351562,10.785522460938,13.788452148438
0.066,-23.087524414062,5.6204833984375,17.071655273438
0.0665,-21.606079101562,2.0169677734375,19.233764648438
0.067,-18.723266601562,-3.1480712890625,21.475952148438
0.0675,-16.360961914062,-8.5133056640625,24.478881835938
0.068,-12.036743164062,-12.437133789062,24.078491210938
0.0685,-8.4332275390625,-16.080688476562,24.318725585938
0.069,-3.9488525390625,-18.082641601562,21.916381835938
0.0695,1.3763427734375,-20.845336914062,19.514038085938
0.07,5.9407958984375,-22.647094726562,16.791381835938
0.0705,11.626342773438,-24.568969726562,13.067749023438
0.071,14.429077148438,-24.609008789062,10.265014648438
0.0715,18.553100585938,-23.487915039062,5.0198974609375
0.072,20.154663085938,-21.766235351562,1.6966552734375
0.0725,22.717163085938,-19.283813476562,-3.5084228515625
0.073,24.719116210938,-16.441040039062,-8.4732666015625
0.0735,24.679077148438,-12.116821289062,-12.717407226562
0.074,25.239624023438,-9.3140869140625,-15.960571289062
0.0745,22.797241210938,-4.2291259765625,-18.603149414062
0.075,20.795288085938,0.2952880859375,-21.045532226562
0.0755,18.032592773438,5.0198974609375,-23.007446289062
0.076,14.749389648438,10.825561523438,-25.609985351562
0.0765,10.745483398438,13.948608398438,-24.809204101562
0.077,6.3411865234375,17.752319335938,-24.248657226562
0.0775,2.0970458984375,19.273803710938,-21.726196289062
0.078,-3.5084228515625,22.236694335938,-19.203735351562
0.0785,-8.0328369140625,23.718139648438,-16.200805664062
0.079,-13.438110351562,25.119506835938,-12.196899414062
0.0795,-16.280883789062,24.719116210938,-8.9937744140625
0.08,-19.724243164062,23.197631835938,-3.9488525390625
0.0805,-21.445922851562,20.875366210938,0.1351318359375
0.081,-23.608032226562,18.432983398438,4.7796630859375
0.0815,-25.249633789062,14.909545898438,9.9447021484375
0.082,-24.849243164062,10.865600585938,13.628295898438
0.0825,-24.849243164062,7.4222412109375,17.031616210938
0.083,-22.286743164062,2.6976318359375,19.193725585938
0.0835,-20.044555664062,-2.1871337890625,21.796264648438
0.084,-17.161743164062,-6.6314697265625,23.357788085938
0.0845,-13.638305664062,-12.196899414062,25.559936523438
0.085,-9.6343994140625,-15.039672851562,24.398803710938
0.0855,-4.8297119140625,-18.483032226562,23.117553710938
0.086,-0.5054931640625,-19.924438476562,20.354858398438
0.0865,4.7796630859375,-22.767211914062,18.112670898438
0.087,9.6243896484375,-23.968383789062,14.469116210938
0.0875,14.068725585938,-24.849243164062,10.945678710938
0.088,17.151733398438,-24.288696289062,7.2220458984375
0.0885,19.914428710938,-22.526977539062,2.6175537109375
0.089,21.916381835938,-20.044555664062,-1.9468994140625
0.0895,23.758178710938,-17.682250976562,-6.2310791015625
0.09,25.159545898438,-13.958618164062,-11.276000976562
0.0905,24.478881835938,-9.9547119140625,-14.599243164062
0.091,23.998413085938,-6.3511962890625,-17.722290039062
0.0915,21.275756835938,-1.5865478515625,-19.684204101562
0.092,19.233764648438,3.2982177734375,-22.526977539062
0.0925,15.790405273438,7.9827880859375,-23.728149414062
0.093,12.547241210938,12.827514648438,-25.489868164062
0.0935,8.2230224609375,15.750366210938,-24.168579101562
0.094,3.6585693359375,18.633178710938,-22.567016601562
0.0945,-1.1060791015625,20.314819335938,-19.604125976562
0.095,-5.8306884765625,23.077514648438,-17.722290039062
0.0955,-10.995727539062,24.038452148438,-13.598266601562
0.096,-14.719360351562,24.398803710938,-10.194946289062
0.0965,-17.762329101562,23.678100585938,-6.5113525390625
0.097,-20.204711914062,21.475952148438,-1.7867431640625
0.0975,-22.286743164062,19.073608398438,2.8177490234375
0.098,-23.768188476562,16.190795898438,7.1820068359375
0.0985,-25.089477539062,12.867553710938,11.866577148438
0.099,-24.048461914062,8.3831787109375,15.309936523438
0.0995,-23.247680664062,5.0198974609375,17.872436523438
0.1,-20.324829101562,0.0150146484375,19.874389648438
0.1005,-18.643188476562,-4.6695556640625,22.917358398438
0.101,-14.519165039062,-9.5142822265625,23.678100585938
0.1015,-11.556274414062,-13.638305664062,24.919311523438
0.102,-6.9918212890625,-16.561157226562,23.357788085938
0.1025,-2.3472900390625,-19.163696289062,21.355834960938
0.103,2.6575927734375,-21.005493164062,18.392944335938
0.1035,7.4222412109375,-23.527954101562,16.150756835938
0.104,12.186889648438,-24.328735351562,12.307006835938
0.1045,15.870483398438,-24.048461914062,8.1829833984375
0.105,18.312866210938,-23.367797851562,5.0999755859375
0.1055,20.915405273438,-20.805297851562,-0.1851806640625
0.106,23.197631835938,-18.563110351562,-4.6695556640625
0.1065,24.038452148438,-14.839477539062,-9.2740478515625
0.107,25.359741210938,-12.196899414062,-13.197875976562
0.1075,23.758178710938,-7.1119384765625,-16.641235351562
0.108,22.597045898438,-3.5885009765625,-19.043579101562
0.1085,19.514038085938,1.6165771484375,-21.125610351562
0.109,17.632202148438,6.6614990234375,-24.288696289062
0.1095,13.067749023438,11.306030273438,-24.408813476562
0.11,9.8646240234375,15.069702148438,-25.009399414062
0.1105,5.4603271484375,17.512084960938,-23.207641601562
0.111,0.4154052734375,20.194702148438,-20.885375976562
0.1115,-4.4693603515625,22.076538085938,-18.082641601562
0.112,-9.7945556640625,24.278686523438,-14.959594726562
0.1125,-13.558227539062,24.919311523438,-11.916625976562
0.113,-17.602172851562,23.798217773438,-6.7115478515625
0.1135,-19.363891601562,22.757202148438,-3.9088134765625
0.114,-22.006469726562,19.914428710938,1.6566162109375
0.1145,-24.328735351562,17.592163085938,6.4212646484375
0.115,-24.448852539062,13.107788085938,10.985717773438
0.1155,-25.569946289062,10.665405273438,14.509155273438
0.116,-23.447875976562,5.5404052734375,17.512084960938
0.1165,-21.886352539062,1.5765380859375,19.874389648438
0.117,-18.923461914062,-3.4283447265625,21.916381835938
0.1175,-16.401000976562,-8.9136962890625,24.839233398438
0.118,-12.116821289062,-12.757446289062,24.558959960938
0.1185,-8.0328369140625,-16.641235351562,24.398803710938
0.119,-4.0689697265625,-18.322875976562,22.276733398438
0.1195,1.5765380859375,-21.125610351562,19.554077148438
0.12,6.1409912109375,-23.007446289062,16.951538085938
0.1205,11.706420898438,-24.528930664062,12.867553710938
0.121,14.749389648438,-25.009399414062,10.425170898438
0.1215,18.593139648438,-23.487915039062,4.8997802734375
0.122,20.234741210938,-21.926391601562,1.7366943359375
0.1225,22.557006835938,-19.203735351562,-3.3482666015625
0.123,24.839233398438,-16.561157226562,-8.3531494140625
0.1235,24.478881835938,-12.036743164062,-12.437133789062
0.124,25.119506835938,-9.1939697265625,-16.000610351562
0.1245,22.757202148438,-4.6295166015625,-18.162719726562
0.125,20.795288085938,0.0550537109375,-20.845336914062
0.1255,17.952514648438,4.6995849609375,-22.607055664062
0.126,14.709350585938,10.385131835938,-25.089477539062
0.1265,11.065795898438,13.468139648438,-24.649047851562
0.127,6.2210693359375,17.311889648438,-23.728149414062
0.1275,2.7376708984375,18.593139648438,-21.646118164062
0.128,-2.9078369140625,21.435913085938,-18.963500976562
0.1285,-7.5523681640625,23.317749023438,-16.280883789062
0.129,-12.637329101562,24.158569335938,-12.076782226562
0.1295,-15.640258789062,24.398803710938,-9.3541259765625
0.13,-18.643188476562,22.597045898438,-4.4693603515625
0.1305,-20.484985351562,20.755249023438,-0.6256103515625
0.131,-22.486938476562,18.272827148438,3.8587646484375
0.1315,-24.609008789062,15.109741210938,9.1439208984375
0.132,-24.008422851562,11.145874023438,12.507202148438
0.1325,-24.208618164062,7.5423583984375,16.270874023438
0.133,-21.926391601562,3.6986083984375,17.832397460938
0.1335,-19.884399414062,-1.3062744140625,20.755249023438
0.134,-17.081665039062,-5.7906494140625,22.476928710938
0.1345,-13.518188476562,-11.235961914062,24.398803710938
0.135,-10.315063476562,-13.958618164062,24.038452148438
0.1355,-5.2301025390625,-17.361938476562,22.436889648438
0.136,-1.4664306640625,-18.763305664062,20.154663085938
0.1365,3.5784912109375,-21.485961914062,17.912475585938
0.137,8.7435302734375,-23.407836914062,14.709350585938
0.1375,12.867553710938,-23.808227539062,10.945678710938
0.138,16.270874023438,-23.848266601562,7.7025146484375
0.1385,18.593139648438,-21.926391601562,3.3782958984375
0.139,20.995483398438,-19.884399414062,-1.1461181640625
0.1395,22.637084960938,-17.482055664062,-5.1900634765625
0.14,24.438842773438,-14.078735351562,-10.435180664062
0.1405,23.838256835938,-10.315063476562,-13.518188476562
0.141,23.397827148438,-6.4312744140625,-16.961547851562
0.1415,20.995483398438,-2.4674072265625,-18.523071289062
0.142,19.113647460938,2.5374755859375,-21.606079101562
0.1425,15.790405273438,7.3421630859375,-23.087524414062
0.143,12.307006835938,12.066772460938,-24.448852539062
0.1435,8.7435302734375,15.029663085938,-23.928344726562
0.144,3.8988037109375,17.832397460938,-21.966430664062
0.1445,-0.5455322265625,19.554077148438,-19.443969726562
0.145,-5.0299072265625,21.996459960938,-17.482055664062
0.1455,-10.515258789062,23.718139648438,-13.798461914062
0.146,-13.998657226562,23.598022460938,-10.154907226562
0.1465,-17.281860351562,23.437866210938,-6.6715087890625
0.147,-19.363891601562,21.115600585938,-2.1871337890625
0.1475,-21.806274414062,19.033569335938,2.4173583984375
0.148,-23.047485351562,16.110717773438,6.6214599609375
0.1485,-24.649047851562,12.827514648438,11.466186523438
0.149,-23.688110351562,8.7034912109375,14.629272460938
0.1495,-22.807250976562,4.8597412109375,17.552124023438
0.15,-20.124633789062,0.4954833984375,19.233764648438
0.1505,-18.442993164062,-4.2691650390625,22.276733398438
0.151,-14.559204101562,-9.1939697265625,23.397827148438
0.1515,-11.235961914062,-13.197875976562,24.158569335938
0.152,-7.3121337890625,-16.160766601562,23.237670898438
0.1525,-2.3472900390625,-18.683227539062,20.875366210938
0.153,2.4173583984375,-20.645141601562,18.232788085938
0.1535,6.9017333984375,-22.767211914062,15.870483398438
0.154,11.906616210938,-24.208618164062,12.467163085938
0.1545,15.349975585938,-23.367797851562,8.1429443359375
0.155,18.072631835938,-23.007446289062,5.0198974609375
0.1555,20.274780273438,-20.324829101562,0.1351318359375
0.156,22.797241210938,-18.442993164062,-4.4293212890625
0.1565,23.357788085938,-14.719360351562,-8.7135009765625
0.157,24.799194335938,-11.916625976562,-12.877563476562
0.1575,23.437866210938,-7.4722900390625,-16.000610351562
0.158,22.076538085938,-3.5084228515625,-18.603149414062
0.1585,19.193725585938,1.2562255859375,-20.404907226562
0.159,17.231811523438,6.1409912109375,-23.327758789062
0.1595,13.147827148438,10.825561523438,-24.048461914062
0.16,9.4642333984375,14.469116210938,-24.048461914062
0.1605,5.8206787109375,16.831420898438,-22.927368164062
0.161,0.6556396484375,19.233764648438,-20.244750976562
0.1615,-4.0289306640625,21.395874023438,-17.882446289062
0.162,-8.8736572265625,22.997436523438,-14.599243164062
0.1625,-12.877563476562,24.358764648438,-12.036743164062
0.163,-16.521118164062,22.877319335938,-6.8717041015625
0.1635,-18.603149414062,22.156616210938,-3.9888916015625
0.164,-20.685180664062,19.313842773438,0.9759521484375
0.1645,-23.287719726562,17.311889648438,5.5804443359375
0.165,-23.247680664062,13.147827148438,9.7445068359375
0.1655,-24.328735351562,10.345092773438,13.628295898438
0.166,-22.807250976562,6.3411865234375,16.150756835938
0.1665,-21.005493164062,1.9368896484375,18.713256835938
0.167,-18.483032226562,-2.5074462890625,20.555053710938
0.1675,-15.960571289062,-7.5523681640625,23.077514648438
0.168,-12.557250976562,-11.516235351562,23.798217773438
0.1685,-7.9927978515625,-15.279907226562,22.917358398438
0.169,-4.8297119140625,-17.041625976562,21.676147460938
0.1695,0.6156005859375,-19.484008789062,18.753295898438
0.17,5.0198974609375,-21.766235351562,16.831420898438
0.1705,9.9847412109375,-22.687133789062,12.747436523438
0.171,13.348022460938,-23.928344726562,10.745483398438
0.1715,16.711303710938,-22.286743164062,5.7406005859375
0.172,18.833374023438,-21.165649414062,2.4173583984375
0.1725,20.755249023438,-18.603149414062,-2.1070556640625
0.173,23.277709960938,-16.360961914062,-6.9517822265625
0.1735,23.117553710938,-12.517211914062,-10.675415039062
0.174,23.678100585938,-9.1138916015625,-14.599243164062
0.1745,22.156616210938,-5.7506103515625,-16.401000976562
0.175,19.994506835938,-0.7857666015625,-19.203735351562
0.1755,17.712280273438,3.5784912109375,-21.285766601562
0.176,14.389038085938,8.8236083984375,-23.207641601562
0.1765,11.826538085938,12.026733398438,-24.008422851562
0.177,6.5814208984375,15.670288085938,-22.526977539062
0.1775,3.5384521484375,17.311889648438,-21.165649414062
0.178,-1.7467041015625,19.794311523438,-18.442993164062
