wavelength,x,y,z
0.0,-4.8397216796875,-16.290893554688,20.545043945312
0.0005,0.1651611328125,-19.053588867188,18.623168945312
0.001,3.8887939453125,-20.575073242188,16.581176757812
0.0015,7.2120361328125,-21.616088867188,14.539184570312
0.002,10.615356445312,-21.255737304688,11.135864257812
0.0025,14.379028320312,-20.695190429688,7.0518798828125
0.003,17.862426757812,-19.654174804688,2.6876220703125
0.0035,20.424926757812,-17.612182617188,-2.1571044921875
0.004,21.706176757812,-15.249877929688,-5.5604248046875
0.0045,22.226684570312,-12.447143554688,-8.8436279296875
0.005,22.346801757812,-9.3641357421875,-12.046752929688
0.0055,21.505981445312,-4.5194091796875,-16.170776367188
0.006,20.224731445312,-0.4354248046875,-18.933471679688
0.0065,18.302856445312,3.4083251953125,-20.855346679688
0.007,15.980590820312,6.8917236328125,-22.096557617188
0.0075,12.216918945312,10.214965820312,-21.776245117188
0.008,8.3731689453125,13.778442382812,-21.616088867188
0.0085,3.3282470703125,17.421997070312,-20.454956054688
0.009,-1.9569091796875,19.984497070312,-18.012573242188
0.0095,-5.2000732421875,21.065551757812,-16.050659179688
0.01,-8.4832763671875,21.666137695312,-13.688354492188
0.0105,-11.846557617188,21.465942382812,-10.285034179688
0.011,-16.010620117188,20.464965820312,-5.2401123046875
0.0115,-19.093627929688,19.023559570312,-0.7957763671875
0.012,-21.455932617188,16.781372070312,3.6485595703125
0.0125,-22.376831054688,14.459106445312,6.9317626953125
0.013,-22.697143554688,11.135864257812,10.415161132812
0.0135,-22.577026367188,7.7725830078125,13.778442382812
0.014,-21.776245117188,3.1280517578125,17.662231445312
0.0145,-19.894409179688,-1.4764404296875,20.384887695312
0.015,-17.772338867188,-4.9998779296875,21.786254882812
0.0155,-15.450073242188,-8.2830810546875,22.827270507812
0.016,-11.526245117188,-11.686401367188,22.426879882812
0.0165,-6.5614013671875,-15.610229492188,21.546020507812
0.017,-1.8367919921875,-18.933471679688,20.184692382812
0.0175,3.3282470703125,-21.095581054688,17.742309570312
0.018,6.5714111328125,-21.816284179688,15.460083007812
0.0185,10.014770507812,-22.096557617188,12.497192382812
0.019,13.498168945312,-21.816284179688,8.9737548828125
0.0195,17.582153320312,-20.535034179688,3.8087158203125
0.02,20.464965820312,-18.573120117188,-1.0760498046875
0.0205,22.266723632812,-16.370971679688,-4.9598388671875
0.021,22.947387695312,-13.808471679688,-8.0028076171875
0.0215,22.867309570312,-10.124877929688,-11.846557617188
0.022,22.426879882812,-6.0408935546875,-15.530151367188
0.0225,21.546020507812,-1.7967529296875,-18.893432617188
0.023,19.343872070312,2.8878173828125,-21.335815429688
0.0235,16.821411132812,6.2510986328125,-22.296752929688
0.024,14.058715820312,9.6143798828125,-22.897338867188
0.0245,9.9346923828125,13.137817382812,-22.536987304688
0.025,4.4493408203125,17.101684570312,-21.135620117188
0.0255,-0.3553466796875,19.864379882812,-19.413940429688
0.026,-4.6795654296875,21.706176757812,-17.171752929688
0.0265,-7.8426513671875,22.146606445312,-14.729370117188
0.027,-11.486206054688,22.026489257812,-11.165893554688
0.0275,-15.209838867188,21.465942382812,-7.1219482421875
0.028,-18.853393554688,20.064575195312,-2.1971435546875
0.0285,-21.455932617188,17.742309570312,2.7276611328125
0.029,-22.697143554688,15.420043945312,6.2510986328125
0.0295,-23.337768554688,12.617309570312,9.6143798828125
0.03,-23.057495117188,8.7735595703125,13.297973632812
0.0305,-22.256713867188,4.2491455078125,16.941528320312
0.031,-21.015502929688,0.0850830078125,19.984497070312
0.0315,-18.853393554688,-4.2791748046875,22.146606445312
0.032,-16.170776367188,-7.4422607421875,22.707153320312
0.0325,-13.007690429688,-10.885620117188,22.907348632812
0.033,-8.6434326171875,-14.569213867188,22.426879882812
0.0335,-3.1180419921875,-18.132690429688,20.785278320312
0.034,1.9268798828125,-20.454956054688,18.422973632812
0.0345,5.6104736328125,-21.816284179688,16.380981445312
0.035,8.8135986328125,-22.136596679688,13.738403320312
0.0355,12.296997070312,-21.776245117188,10.054809570312
0.036,16.100708007812,-20.975463867188,5.6104736328125
0.0365,19.383911132812,-19.373901367188,0.9259033203125
0.037,21.626098632812,-16.971557617188,-3.7586669921875
0.0375,22.346801757812,-14.609252929688,-6.8416748046875
0.038,22.747192382812,-11.566284179688,-10.244995117188
0.0385,22.466918945312,-7.7225341796875,-13.848510742188
0.039,21.546020507812,-3.3182373046875,-17.331909179688
0.0395,19.864379882812,0.9259033203125,-19.894409179688
0.04,17.862426757812,4.7296142578125,-21.736206054688
0.0405,15.059692382812,7.8526611328125,-22.376831054688
0.041,11.496215820312,11.175903320312,-22.096557617188
0.0415,6.8917236328125,15.059692382812,-21.495971679688
0.042,1.8868408203125,18.422973632812,-20.014526367188
0.0425,-2.8778076171875,20.384887695312,-17.572143554688
0.043,-6.0008544921875,21.265747070312,-15.570190429688
0.0435,-9.2840576171875,21.666137695312,-12.887573242188
0.044,-12.927612304688,21.145629882812,-8.9237060546875
0.0445,-16.611206054688,20.184692382812,-4.4393310546875
0.045,-19.574096679688,18.382934570312,0.2852783203125
0.0455,-21.616088867188,16.140747070312,4.4893798828125
0.046,-22.096557617188,13.658325195312,7.4122314453125
0.0465,-22.416870117188,10.415161132812,10.935668945312
0.047,-22.016479492188,6.4112548828125,14.739379882812
0.0475,-21.135620117188,2.0870361328125,18.102661132812
0.048,-19.133666992188,-2.1971435546875,20.344848632812
0.0485,-17.131713867188,-5.6004638671875,21.786254882812
0.049,-14.369018554688,-8.8035888671875,22.266723632812
0.0495,-10.285034179688,-12.286987304688,21.866333007812
0.05,-5.5604248046875,-15.890502929688,20.905395507812
0.0505,-0.5155029296875,-19.013549804688,19.223754882812
0.051,3.9688720703125,-20.855346679688,16.901489257812
0.0515,6.9317626953125,-21.295776367188,14.659301757812
0.052,10.335083007812,-21.656127929688,11.776489257812
0.0525,14.338989257812,-20.975463867188,7.3321533203125
0.053,17.702270507812,-19.774291992188,2.8878173828125
0.0535,20.224731445312,-17.812377929688,-1.6365966796875
0.054,21.906372070312,-15.650268554688,-5.4403076171875
0.0545,22.266723632812,-12.847534179688,-8.4832763671875
0.055,22.266723632812,-9.3641357421875,-12.206909179688
0.0555,21.746215820312,-5.1199951171875,-15.770385742188
0.056,20.665161132812,-0.8358154296875,-19.013549804688
0.0565,18.503051757812,3.3282470703125,-20.935424804688
0.057,16.060668945312,6.4512939453125,-21.816284179688
0.0575,13.177856445312,9.8546142578125,-22.336791992188
0.058,8.2930908203125,13.898559570312,-21.656127929688
0.0585,3.7286376953125,17.101684570312,-20.494995117188
0.059,-1.1561279296875,19.704223632812,-18.453002929688
0.0595,-5.1199951171875,21.305786132812,-16.370971679688
0.06,-8.0428466796875,21.385864257812,-13.768432617188
0.0605,-11.526245117188,21.505981445312,-10.645385742188
0.061,-15.650268554688,20.625122070312,-5.8006591796875
0.0615,-18.893432617188,19.063598632812,-1.1160888671875
0.062,-21.015502929688,16.901489257812,3.1280517578125
0.0625,-22.216674804688,14.659301757812,6.5313720703125
0.063,-22.456909179688,11.656372070312,9.7745361328125
0.0635,-22.376831054688,7.5723876953125,13.778442382812
0.064,-21.495971679688,3.5284423828125,16.981567382812
0.0645,-20.054565429688,-0.8758544921875,19.864379882812
0.065,-17.812377929688,-4.8397216796875,21.626098632812
0.0655,-15.089721679688,-7.7225341796875,21.906372070312
0.066,-12.206909179688,-10.885620117188,22.346801757812
0.0665,-6.9217529296875,-15.089721679688,21.345825195312
0.067,-2.0369873046875,-18.092651367188,19.784301757812
0.0675,2.4073486328125,-20.054565429688,17.542114257812
0.068,6.0108642578125,-21.295776367188,15.580200195312
0.0685,9.0938720703125,-21.295776367188,12.617309570312
0.069,12.537231445312,-21.095581054688,9.0938720703125
0.0695,16.340942382812,-20.214721679688,4.6895751953125
0.07,19.343872070312,-18.372924804688,-0.1551513671875
0.0705,21.105590820312,-16.170776367188,-4.0789794921875
0.071,21.746215820312,-13.768432617188,-7.1219482421875
0.0715,22.066528320312,-10.845581054688,-10.285034179688
0.072,21.626098632812,-6.3211669921875,-14.409057617188
0.0725,20.705200195312,-2.5574951171875,-17.331909179688
0.073,18.943481445312,1.4464111328125,-19.574096679688
0.0735,16.941528320312,5.2100830078125,-21.295776367188
0.074,13.818481445312,8.1729736328125,-21.215698242188
0.0745,10.775512695312,11.536254882812,-21.295776367188
0.075,5.5704345703125,15.299926757812,-20.454956054688
0.0755,0.6456298828125,18.222778320312,-18.653198242188
0.076,-3.2781982421875,19.704223632812,-16.691284179688
0.0765,-6.3211669921875,20.625122070312,-14.689331054688
0.077,-9.4842529296875,20.745239257812,-11.806518554688
0.0775,-13.368041992188,20.024536132812,-7.4022216796875
0.078,-16.571166992188,19.143676757812,-3.3983154296875
0.0785,-19.213745117188,17.301879882812,1.0460205078125
0.079,-20.815307617188,15.219848632812,4.7296142578125
0.0795,-21.135620117188,12.577270507812,7.5723876953125
0.08,-21.495971679688,9.6544189453125,10.815551757812
0.0805,-20.895385742188,5.1700439453125,14.779418945312
0.081,-19.854370117188,1.1260986328125,17.702270507812
0.0815,-17.972534179688,-2.4373779296875,19.423950195312
0.082,-16.090698242188,-5.6805419921875,20.825317382812
0.0825,-13.087768554688,-8.6434326171875,20.905395507812
0.083,-8.9637451171875,-12.206909179688,20.505004882812
0.0835,-4.6395263671875,-15.490112304688,19.664184570312
0.084,0.3253173828125,-18.212768554688,17.622192382812
0.0845,3.8887939453125,-19.574096679688,15.700317382812
0.085,6.6915283203125,-19.974487304688,13.498168945312
0.0855,9.7745361328125,-20.294799804688,11.015747070312
0.086,13.938598632812,-19.453979492188,6.1309814453125
0.0865,16.781372070312,-18.212768554688,2.1671142578125
0.087,18.903442382812,-16.411010742188,-1.6766357421875
0.0875,20.304809570312,-14.569213867188,-4.9998779296875
0.088,20.464965820312,-11.726440429688,-7.8426513671875
0.0885,20.545043945312,-8.4832763671875,-11.286010742188
0.089,20.104614257812,-4.6395263671875,-14.769409179688
0.0895,18.863403320312,-0.5155029296875,-17.572143554688
0.09,16.901489257812,2.9678955078125,-19.093627929688
0.0905,14.859497070312,5.8106689453125,-19.894409179688
0.091,12.136840820312,8.8536376953125,-20.334838867188
0.0915,7.0919189453125,12.897583007812,-19.494018554688
0.092,3.1680908203125,15.700317382812,-18.533081054688
0.0925,-1.0360107421875,17.862426757812,-16.731323242188
0.093,-4.3592529296875,19.223754882812,-15.009643554688
0.0935,-7.1219482421875,19.223754882812,-12.447143554688
0.094,-10.244995117188,19.423950195312,-9.7244873046875
0.0945,-14.168823242188,18.703247070312,-5.2801513671875
0.095,-17.051635742188,17.101684570312,-0.9158935546875
0.0955,-18.733276367188,15.259887695312,2.3272705078125
0.096,-19.734252929688,13.418090820312,5.4503173828125
0.0965,-20.014526367188,10.815551757812,8.2930908203125
0.097,-19.894409179688,6.6915283203125,12.176879882812
0.0975,-19.373901367188,3.3282470703125,15.099731445312
0.098,-18.012573242188,-0.5155029296875,17.622192382812
0.0985,-16.170776367188,-3.7987060546875,19.143676757812
0.099,-13.768432617188,-6.4412841796875,19.383911132812
0.0995,-11.205932617188,-9.4442138671875,19.864379882812
0.1,-6.0809326171875,-13.448120117188,18.903442382812
0.1005,-1.6766357421875,-16.170776367188,17.462036132812
0.101,1.8468017578125,-17.812377929688,15.860473632812
0.1015,4.9298095703125,-19.013549804688,14.218872070312
0.102,7.8126220703125,-19.013549804688,11.536254882812
0.1025,11.336059570312,-18.733276367188,7.9327392578125
0.103,14.619262695312,-18.132690429688,4.1690673828125
0.1035,17.221801757812,-16.451049804688,0.0050048828125
0.104,18.583129882812,-14.729370117188,-3.1580810546875
0.1045,19.223754882812,-12.527221679688,-5.9608154296875
0.105,19.584106445312,-10.084838867188,-8.8436279296875
0.1055,19.223754882812,-5.7205810546875,-12.807495117188
0.106,18.422973632812,-2.1971435546875,-15.410034179688
0.1065,17.021606445312,1.1260986328125,-17.371948242188
0.107,15.339965820312,4.3292236328125,-18.893432617188
0.1075,12.457153320312,7.0919189453125,-18.933471679688
0.108,9.2540283203125,10.335083007812,-19.013549804688
0.1085,4.8497314453125,13.898559570312,-18.412963867188
0.109,0.3653564453125,16.380981445312,-16.571166992188
0.1095,-2.6375732421875,17.662231445312,-15.089721679688
0.11,-5.4403076171875,18.543090820312,-13.328002929688
0.1105,-8.3231201171875,18.703247070312,-10.885620117188
0.111,-12.327026367188,18.062622070312,-6.4012451171875
0.1115,-15.249877929688,17.221801757812,-2.7176513671875
0.112,-17.371948242188,15.580200195312,0.9659423828125
0.1125,-18.653198242188,13.898559570312,3.8887939453125
0.113,-18.973510742188,11.376098632812,6.6915283203125
0.1135,-19.373901367188,8.6534423828125,9.8145751953125
0.114,-18.973510742188,4.6495361328125,13.458129882812
0.1145,-17.892456054688,0.8858642578125,16.180786132812
0.115,-16.370971679688,-2.1571044921875,17.622192382812
0.1155,-14.729370117188,-4.9998779296875,18.903442382812
0.116,-11.886596679688,-7.8026123046875,18.983520507812
0.1165,-7.6024169921875,-11.526245117188,18.503051757812
0.117,-3.6785888671875,-14.609252929688,17.782348632812
0.1175,0.6456298828125,-16.811401367188,15.980590820312
0.118,3.5284423828125,-17.972534179688,14.579223632812
0.1185,6.3311767578125,-18.332885742188,12.256958007812
0.119,9.2940673828125,-18.613159179688,9.7344970703125
0.1195,13.217895507812,-17.892456054688,5.2901611328125
0.12,15.980590820312,-16.611206054688,1.2862548828125
0.1205,17.622192382812,-15.049682617188,-1.9168701171875
0.121,18.703247070312,-13.287963867188,-4.7596435546875
0.1215,18.903442382812,-10.565307617188,-7.5623779296875
0.122,18.903442382812,-7.1619873046875,-10.965698242188
0.1225,18.583129882812,-3.7186279296875,-14.128784179688
0.123,17.261840820312,0.1251220703125,-16.611206054688
0.1235,15.500122070312,3.0880126953125,-17.852416992188
0.124,13.418090820312,5.8907470703125,-18.613159179688
0.1245,10.695434570312,8.8135986328125,-18.933471679688
0.125,5.7706298828125,12.737426757812,-18.092651367188
0.1255,1.8468017578125,15.420043945312,-17.051635742188
0.126,-1.5965576171875,17.261840820312,-15.530151367188
0.1265,-4.5594482421875,18.222778320312,-13.928588867188
0.127,-7.5223388671875,18.302856445312,-11.245971679688
0.1275,-10.885620117188,18.262817382812,-8.0828857421875
0.128,-14.409057617188,17.582153320312,-3.9188232421875
0.1285,-17.011596679688,15.900512695312,0.3253173828125
0.129,-18.292846679688,14.218872070312,3.1680908203125
0.1295,-19.173706054688,12.216918945312,6.0509033203125
0.13,-19.373901367188,9.5743408203125,8.9337158203125
0.1305,-19.013549804688,5.4102783203125,12.737426757812
0.131,-18.493041992188,1.9268798828125,15.500122070312
0.1315,-16.971557617188,-1.5965576171875,17.702270507812
0.132,-15.129760742188,-4.5194091796875,18.783325195312
0.1325,-12.487182617188,-7.3621826171875,19.063598632812
0.133,-9.3240966796875,-10.565307617188,19.263793945312
0.1335,-4.4793701171875,-14.248901367188,18.222778320312
0.134,0.0050048828125,-16.651245117188,16.461059570312
0.1345,3.0079345703125,-18.012573242188,15.019653320312
0.135,5.8907470703125,-18.853393554688,13.137817382812
0.1355,8.8936767578125,-18.733276367188,10.295043945312
0.136,12.497192382812,-18.292846679688,6.3311767578125
0.1365,15.620239257812,-17.371948242188,2.4874267578125
0.137,17.782348632812,-15.570190429688,-1.5965576171875
0.1375,18.703247070312,-13.728393554688,-4.3992919921875
0.138,19.223754882812,-11.245971679688,-7.2020263671875
0.1385,19.343872070312,-8.3231201171875,-10.244995117188
0.139,18.903442382812,-4.3192138671875,-13.808471679688
0.1395,17.662231445312,-0.6356201171875,-16.370971679688
0.14,16.180786132812,2.5274658203125,-17.972534179688
0.1405,14.218872070312,5.4102783203125,-18.933471679688
0.141,11.215942382812,8.2930908203125,-18.933471679688
0.1415,7.3321533203125,11.816528320312,-18.653198242188
0.142,3.0479736328125,15.059692382812,-17.812377929688
0.1425,-1.2762451171875,17.101684570312,-15.810424804688
0.143,-3.8387451171875,17.982543945312,-14.328979492188
0.1435,-6.7215576171875,18.583129882812,-12.246948242188
0.144,-9.8045654296875,18.503051757812,-9.2440185546875
0.1445,-13.448120117188,17.742309570312,-4.9998779296875
0.145,-16.250854492188,16.461059570312,-1.1160888671875
0.1455,-18.252807617188,14.739379882812,2.4874267578125
0.146,-18.853393554688,12.857543945312,5.0899658203125
0.1465,-19.093627929688,10.174926757812,8.0528564453125
0.147,-19.093627929688,6.8516845703125,11.336059570312
0.1475,-18.613159179688,3.1680908203125,14.659301757812
0.148,-17.131713867188,-0.6356201171875,16.901489257812
0.1485,-15.530151367188,-3.4383544921875,18.102661132812
0.149,-13.528198242188,-6.2410888671875,19.023559570312
0.1495,-10.365112304688,-9.2440185546875,18.903442382812
0.15,-5.9608154296875,-12.727416992188,18.142700195312
0.1505,-1.7166748046875,-15.690307617188,17.021606445312
0.151,2.0469970703125,-17.452026367188,15.299926757812
0.1515,4.6094970703125,-18.132690429688,13.618286132812
0.152,7.5723876953125,-18.533081054688,11.215942382812
0.1525,10.895629882812,-18.372924804688,7.8927001953125
0.153,14.258911132812,-17.572143554688,3.8487548828125
0.1535,16.741333007812,-15.970581054688,-0.1551513671875
0.154,18.182739257812,-14.328979492188,-3.1580810546875
0.1545,18.903442382812,-12.246948242188,-5.8406982421875
0.155,19.063598632812,-9.3641357421875,-8.8436279296875
0.1555,18.703247070312,-5.7606201171875,-12.246948242188
0.156,18.182739257812,-2.2371826171875,-15.249877929688
0.1565,16.621215820312,1.4464111328125,-17.331909179688
0.157,14.779418945312,4.1290283203125,-18.212768554688
0.1575,12.497192382812,7.0118408203125,-18.933471679688
0.158,8.9337158203125,10.375122070312,-18.813354492188
0.1585,4.4893798828125,13.778442382812,-17.892456054688
0.159,0.3653564453125,16.180786132812,-16.370971679688
0.1595,-2.9578857421875,17.782348632812,-14.889526367188
0.16,-5.6004638671875,18.262817382812,-13.007690429688
0.1605,-8.6033935546875,18.422973632812,-10.325073242188
0.161,-12.246948242188,18.062622070312,-6.5213623046875
0.1615,-15.410034179688,17.101684570312,-2.4373779296875
0.162,-17.612182617188,15.339965820312,1.5264892578125
0.1625,-18.693237304688,13.578247070312,4.2491455078125
0.163,-19.373901367188,11.255981445312,7.1719970703125
0.1635,-19.494018554688,8.0128173828125,10.535278320312
0.164,-18.973510742188,4.2891845703125,13.898559570312
0.1645,-17.972534179688,0.6055908203125,16.581176757812
0.165,-16.411010742188,-2.9178466796875,18.543090820312
0.1655,-14.369018554688,-5.6405029296875,19.143676757812
0.166,-11.646362304688,-8.5233154296875,19.504028320312
0.1665,-7.4822998046875,-12.246948242188,19.183715820312
0.167,-2.8778076171875,-15.490112304688,17.942504882812
0.1675,1.3663330078125,-17.532104492188,16.060668945312
0.168,4.3292236328125,-18.813354492188,14.539184570312
0.1685,7.2520751953125,-19.253784179688,12.216918945312
0.169,10.535278320312,-19.093627929688,8.9737548828125
0.1695,14.098754882812,-18.493041992188,5.0499267578125
0.17,17.061645507812,-17.091674804688,0.7657470703125
0.1705,19.063598632812,-15.209838867188,-3.0780029296875
0.171,19.664184570312,-13.087768554688,-5.7606201171875
0.1715,20.184692382812,-10.485229492188,-8.8836669921875
0.172,19.984497070312,-6.5213623046875,-12.647338867188
0.1725,19.303833007812,-2.7576904296875,-15.770385742188
0.173,17.782348632812,1.0059814453125,-17.972534179688
0.1735,16.060668945312,4.3292236328125,-19.654174804688
0.174,13.418090820312,7.2120361328125,-19.974487304688
0.1745,10.054809570312,10.495239257812,-19.974487304688
0.175,5.6104736328125,14.098754882812,-19.293823242188
0.1755,0.9259033203125,17.141723632812,-17.852416992188
0.176,-2.9578857421875,18.743286132812,-15.810424804688
0.1765,-5.7606201171875,19.423950195312,-13.968627929688
0.177,-8.9237060546875,19.704223632812,-11.406127929688
0.1775,-12.647338867188,19.183715820312,-7.2020263671875
0.178,-15.850463867188,18.222778320312,-3.2381591796875
