wavelength,x,y,z
0.0,-10.725463867188,-12.927612304688,22.667114257812
0.0005,-7.2020263671875,-15.890502929688,21.786254882812
0.001,-2.5975341796875,-18.212768554688,19.463989257812
0.0015,2.2471923828125,-20.374877929688,17.061645507812
0.002,6.2110595703125,-22.456909179688,15.219848632812
0.0025,10.815551757812,-23.578002929688,11.776489257812
0.003,14.218872070312,-23.017456054688,8.1329345703125
0.0035,16.861450195312,-22.456909179688,4.7696533203125
0.004,19.023559570312,-19.974487304688,0.4854736328125
0.0045,21.786254882812,-18.092651367188,-4.1990966796875
0.005,22.266723632812,-15.289916992188,-7.5623779296875
0.0055,23.427856445312,-11.846557617188,-12.206909179688
0.006,22.346801757812,-7.8426513671875,-14.969604492188
0.0065,20.825317382812,-3.9588623046875,-17.331909179688
0.007,18.222778320312,0.9659423828125,-19.333862304688
0.0075,16.501098632812,5.0899658203125,-21.656127929688
0.008,13.137817382812,9.5343017578125,-22.456909179688
0.0085,9.2940673828125,13.297973632812,-22.376831054688
0.009,5.6905517578125,15.820434570312,-21.335815429688
0.0095,0.8057861328125,18.142700195312,-18.653198242188
0.01,-4.0389404296875,20.585083007812,-16.771362304688
0.0105,-7.8826904296875,22.026489257812,-13.968627929688
0.011,-12.046752929688,23.227661132812,-11.085815429688
0.0115,-15.329956054688,22.146606445312,-6.9217529296875
0.012,-17.772338867188,21.185668945312,-3.6785888671875
0.0125,-19.974487304688,18.623168945312,1.1260986328125
0.013,-22.577026367188,16.901489257812,5.4102783203125
0.0135,-22.697143554688,13.378051757812,8.9737548828125
0.014,-23.417846679688,9.8946533203125,13.257934570312
0.0145,-22.256713867188,6.0909423828125,15.740356445312
0.015,-20.214721679688,1.6866455078125,18.062622070312
0.0155,-17.812377929688,-3.1580810546875,20.144653320312
0.016,-15.650268554688,-7.2420654296875,22.066528320312
0.0165,-12.367065429688,-11.526245117188,22.787231445312
0.017,-8.2030029296875,-15.129760742188,22.026489257812
0.0175,-4.5594482421875,-17.251831054688,20.505004882812
0.018,0.4854736328125,-19.734252929688,17.862426757812
0.0185,5.0499267578125,-22.296752929688,16.060668945312
0.019,9.4942626953125,-22.777221679688,12.457153320312
0.0195,13.177856445312,-23.898315429688,9.9747314453125
0.02,16.260864257812,-22.617065429688,5.6505126953125
0.0205,18.382934570312,-21.095581054688,2.1671142578125
0.021,20.745239257812,-18.573120117188,-2.7977294921875
0.0215,22.907348632812,-16.611206054688,-7.0018310546875
0.022,22.987426757812,-12.767456054688,-10.725463867188
0.0225,23.027465820312,-9.0037841796875,-14.609252929688
0.023,21.505981445312,-5.5604248046875,-16.491088867188
0.0235,19.263793945312,-0.5955810546875,-18.933471679688
0.024,17.301879882812,4.0889892578125,-21.135620117188
0.0245,13.978637695312,8.2530517578125,-22.416870117188
0.025,10.935668945312,12.136840820312,-23.137573242188
0.0255,6.4112548828125,15.540161132812,-21.776245117188
0.026,2.6075439453125,17.462036132812,-19.734252929688
0.0265,-2.5975341796875,19.904418945312,-17.251831054688
0.027,-7.0819091796875,22.546997070312,-15.410034179688
0.0275,-11.245971679688,22.546997070312,-11.326049804688
0.028,-14.729370117188,23.267700195312,-8.6834716796875
0.0285,-17.331909179688,21.586059570312,-4.5994873046875
0.029,-19.614135742188,19.784301757812,-0.5955810546875
0.0295,-21.856323242188,17.341918945312,4.3292236328125
0.03,-23.337768554688,14.619262695312,8.3731689453125
0.0305,-23.417846679688,11.015747070312,12.176879882812
0.031,-22.777221679688,6.8917236328125,15.660278320312
0.0315,-21.255737304688,3.3282470703125,17.301879882812
0.032,-18.853393554688,-1.9168701171875,19.984497070312
0.0325,-16.611206054688,-6.3612060546875,22.066528320312
0.033,-12.807495117188,-10.845581054688,22.587036132812
0.0335,-10.044799804688,-14.369018554688,23.107543945312
0.034,-5.2401123046875,-17.051635742188,21.185668945312
0.0345,-1.2762451171875,-19.093627929688,19.063598632812
0.035,3.8487548828125,-21.335815429688,16.621215820312
0.0355,8.6534423828125,-23.658081054688,14.098754882812
0.036,12.296997070312,-23.457885742188,10.415161132812
0.0365,15.900512695312,-23.578002929688,7.0518798828125
0.037,18.182739257812,-21.776245117188,3.2481689453125
0.0375,20.625122070312,-19.734252929688,-1.4364013671875
0.038,22.907348632812,-17.331909179688,-5.9207763671875
0.0385,23.227661132812,-13.728393554688,-10.124877929688
0.039,23.547973632812,-10.645385742188,-13.608276367188
0.0395,22.546997070312,-6.2410888671875,-16.651245117188
0.04,20.344848632812,-2.7176513671875,-18.092651367188
0.0405,17.902465820312,2.6475830078125,-20.695190429688
0.041,15.700317382812,7.0518798828125,-22.777221679688
0.0415,11.456176757812,11.376098632812,-22.777221679688
0.042,8.3731689453125,14.819458007812,-22.937377929688
0.0425,3.8487548828125,16.981567382812,-20.494995117188
0.043,-0.8758544921875,19.504028320312,-18.292846679688
0.0435,-5.6004638671875,21.465942382812,-16.090698242188
0.044,-10.365112304688,23.187622070312,-12.807495117188
0.0445,-13.688354492188,23.187622070312,-9.6844482421875
0.045,-17.131713867188,22.466918945312,-5.7606201171875
0.0455,-18.012573242188,20.745239257812,-2.3572998046875
0.046,-21.175659179688,18.262817382812,2.6475830078125
0.0465,-22.937377929688,15.940551757812,6.8116455078125
0.047,-23.337768554688,11.976684570312,11.175903320312
0.0475,-23.658081054688,8.8536376953125,14.379028320312
0.048,-21.816284179688,4.4493408203125,16.861450195312
0.0485,-19.694213867188,0.3653564453125,18.743286132812
0.049,-17.492065429688,-4.5194091796875,21.065551757812
0.0495,-14.849487304688,-9.3240966796875,22.947387695312
0.05,-10.845581054688,-12.967651367188,22.627075195312
0.0505,-7.4022216796875,-16.370971679688,22.346801757812
0.051,-3.1981201171875,-17.812377929688,19.744262695312
0.0515,1.9669189453125,-20.695190429688,17.662231445312
0.052,6.3311767578125,-22.296752929688,15.299926757812
0.0525,11.496215820312,-23.578002929688,11.536254882812
0.053,14.258911132812,-23.537963867188,8.7735595703125
0.0535,17.221801757812,-22.496948242188,4.4893798828125
0.054,19.063598632812,-20.334838867188,0.8458251953125
0.0545,21.786254882812,-18.332885742188,-4.1590576171875
0.055,23.107543945312,-15.490112304688,-8.2830810546875
0.0555,23.147583007812,-11.406127929688,-12.367065429688
0.056,23.027465820312,-8.2430419921875,-15.329956054688
0.0565,20.865356445312,-3.9989013671875,-17.411987304688
0.057,18.703247070312,0.3653564453125,-19.894409179688
0.0575,16.220825195312,4.9298095703125,-21.536010742188
0.058,13.257934570312,9.9747314453125,-23.217651367188
0.0585,9.8145751953125,13.458129882812,-22.577026367188
0.059,5.6104736328125,16.661254882812,-21.696166992188
0.0595,1.3663330078125,17.982543945312,-18.933471679688
0.06,-3.9989013671875,21.065551757812,-16.971557617188
0.0605,-8.3631591796875,22.466918945312,-14.128784179688
0.061,-12.647338867188,23.107543945312,-10.645385742188
0.0615,-15.530151367188,22.907348632812,-7.6424560546875
0.062,-18.132690429688,21.265747070312,-3.2381591796875
0.0625,-20.174682617188,18.903442382812,1.0059814453125
0.063,-22.577026367188,16.941528320312,5.3302001953125
0.0635,-23.377807617188,13.738403320312,9.7344970703125
0.064,-23.377807617188,9.5743408203125,13.418090820312
0.0645,-22.817260742188,6.2510986328125,16.180786132812
0.065,-19.814331054688,1.5665283203125,17.782348632812
0.0655,-18.252807617188,-3.0780029296875,20.505004882812
0.066,-15.249877929688,-6.9617919921875,21.786254882812
0.0665,-12.447143554688,-12.166870117188,23.307739257812
0.067,-8.8836669921875,-15.049682617188,22.426879882812
0.0675,-3.9588623046875,-17.812377929688,20.745239257812
0.068,0.2852783203125,-19.694213867188,17.942504882812
0.0685,4.8497314453125,-22.296752929688,16.340942382812
0.069,9.5743408203125,-23.217651367188,12.857543945312
0.0695,13.418090820312,-23.658081054688,9.4542236328125
0.07,16.461059570312,-23.257690429688,6.3311767578125
0.0705,18.623168945312,-21.095581054688,1.9268798828125
0.071,20.905395507812,-18.613159179688,-2.5574951171875
0.0715,22.787231445312,-16.531127929688,-6.6014404296875
0.072,23.668090820312,-13.167846679688,-11.165893554688
0.0725,22.546997070312,-9.2440185546875,-14.288940429688
0.073,22.266723632812,-5.9207763671875,-17.091674804688
0.0735,18.943481445312,-0.9959716796875,-18.573120117188
0.074,17.862426757812,3.8487548828125,-21.576049804688
0.0745,14.579223632812,8.0528564453125,-22.336791992188
0.075,10.615356445312,12.457153320312,-23.057495117188
0.0755,7.1719970703125,15.299926757812,-22.136596679688
0.076,2.4073486328125,17.742309570312,-19.934448242188
0.0765,-2.2772216796875,19.744262695312,-17.291870117188
0.077,-6.5213623046875,22.066528320312,-15.570190429688
0.0775,-11.406127929688,22.947387695312,-11.966674804688
0.078,-14.208862304688,22.587036132812,-8.4432373046875
0.0785,-17.331909179688,22.106567382812,-5.1199951171875
0.079,-19.534057617188,19.704223632812,-0.5955810546875
0.0795,-21.856323242188,17.542114257812,4.1290283203125
0.08,-22.937377929688,14.779418945312,7.6524658203125
0.0805,-23.818237304688,11.656372070312,12.176879882812
0.081,-22.456909179688,7.5323486328125,15.019653320312
0.0815,-21.776245117188,3.4483642578125,17.341918945312
0.082,-18.453002929688,-1.3162841796875,19.263793945312
0.0825,-16.771362304688,-5.6805419921875,21.786254882812
0.083,-13.368041992188,-9.9647216796875,22.386840820312
0.0835,-9.8446044921875,-14.008666992188,22.667114257812
0.084,-6.4012451171875,-16.531127929688,21.626098632812
0.0845,-1.7567138671875,-18.933471679688,19.023559570312
0.085,3.7686767578125,-21.095581054688,16.501098632812
0.0855,7.3721923828125,-22.777221679688,14.459106445312
0.086,11.816528320312,-23.698120117188,11.095825195312
0.0865,15.339965820312,-22.496948242188,6.9317626953125
0.087,17.462036132812,-21.936401367188,4.0089111328125
0.0875,19.864379882812,-19.574096679688,-1.2762451171875
0.088,22.426879882812,-18.052612304688,-5.3201904296875
0.0885,22.186645507812,-14.449096679688,-9.0838623046875
0.089,23.668090820312,-10.885620117188,-13.408081054688
0.0895,22.466918945312,-6.8817138671875,-15.850463867188
0.09,20.464965820312,-2.8377685546875,-17.972534179688
0.0905,17.622192382812,2.2071533203125,-20.134643554688
0.091,15.860473632812,6.4112548828125,-22.136596679688
0.0915,12.417114257812,10.855590820312,-22.697143554688
0.092,7.8126220703125,14.419067382812,-22.136596679688
0.0925,4.5294189453125,16.781372070312,-20.615112304688
0.093,-0.5555419921875,19.263793945312,-18.332885742188
0.0935,-5.0799560546875,21.505981445312,-16.170776367188
0.094,-9.6043701171875,22.546997070312,-12.487182617188
0.0945,-13.127807617188,23.187622070312,-10.525268554688
0.095,-16.611206054688,21.906372070312,-5.8006591796875
0.0955,-18.292846679688,21.105590820312,-2.5574951171875
0.096,-20.735229492188,18.062622070312,2.3673095703125
0.0965,-23.417846679688,16.180786132812,6.6514892578125
0.097,-23.017456054688,12.176879882812,10.535278320312
0.0975,-23.417846679688,8.6134033203125,14.379028320312
0.098,-21.495971679688,5.0899658203125,16.501098632812
0.0985,-19.814331054688,0.5255126953125,18.983520507812
0.099,-17.492065429688,-4.4393310546875,21.265747070312
0.0995,-14.449096679688,-8.4432373046875,22.587036132812
0.1,-11.406127929688,-12.807495117188,23.027465820312
0.1005,-6.9217529296875,-16.691284179688,21.986450195312
0.101,-3.3582763671875,-18.052612304688,20.144653320312
0.1015,1.9268798828125,-20.895385742188,17.662231445312
0.102,6.4512939453125,-22.657104492188,15.740356445312
0.1025,10.855590820312,-22.897338867188,11.536254882812
0.103,14.058715820312,-24.298706054688,8.9737548828125
0.1035,17.141723632812,-22.456909179688,4.5694580078125
0.104,19.343872070312,-20.855346679688,0.8057861328125
0.1045,21.826293945312,-18.132690429688,-4.1190185546875
0.105,23.748168945312,-15.810424804688,-8.4432373046875
0.1055,23.507934570312,-12.046752929688,-12.286987304688
0.106,23.387817382812,-7.6824951171875,-15.970581054688
0.1065,21.345825195312,-4.5194091796875,-17.331909179688
0.107,18.943481445312,0.6856689453125,-19.774291992188
0.1075,16.621215820312,5.2901611328125,-22.136596679688
0.108,12.937622070312,9.9346923828125,-23.337768554688
0.1085,10.094848632812,13.498168945312,-23.057495117188
0.109,5.0899658203125,16.781372070312,-21.135620117188
0.1095,1.2061767578125,18.222778320312,-19.413940429688
0.11,-3.9188232421875,20.985473632812,-16.851440429688
0.1105,-8.3231201171875,23.307739257812,-14.609252929688
0.111,-12.327026367188,22.947387695312,-10.485229492188
0.1115,-16.010620117188,23.267700195312,-7.5623779296875
0.112,-18.573120117188,21.546020507812,-3.3182373046875
0.1125,-20.935424804688,19.343872070312,1.0860595703125
0.113,-22.536987304688,17.101684570312,4.8897705078125
0.1135,-23.658081054688,13.538208007812,9.5343017578125
0.114,-23.738159179688,10.094848632812,13.177856445312
0.1145,-22.817260742188,5.9708251953125,16.901489257812
0.115,-20.775268554688,2.1270751953125,18.222778320312
0.1155,-18.453002929688,-2.8377685546875,20.745239257812
0.116,-16.010620117188,-7.2420654296875,22.266723632812
0.1165,-11.646362304688,-11.686401367188,22.627075195312
0.117,-8.8035888671875,-14.809448242188,22.987426757812
0.1175,-3.7987060546875,-17.852416992188,20.705200195312
0.118,0.1251220703125,-19.894409179688,18.583129882812
0.1185,4.2891845703125,-22.056518554688,16.300903320312
0.119,9.6544189453125,-23.457885742188,13.297973632812
0.1195,13.257934570312,-23.017456054688,9.6143798828125
0.12,16.581176757812,-23.658081054688,6.0909423828125
0.1205,18.463012695312,-21.455932617188,2.2471923828125
0.121,21.145629882812,-19.293823242188,-2.1170654296875
0.1215,22.667114257812,-16.811401367188,-6.6815185546875
0.122,23.427856445312,-12.887573242188,-10.605346679688
0.1225,23.347778320312,-9.6444091796875,-14.569213867188
0.123,21.906372070312,-5.0399169921875,-17.612182617188
0.1235,19.704223632812,-1.2362060546875,-18.292846679688
0.124,17.742309570312,3.8487548828125,-21.015502929688
0.1245,15.059692382812,7.8126220703125,-22.977416992188
0.125,10.615356445312,12.096801757812,-22.577026367188
0.1255,7.3721923828125,15.339965820312,-22.536987304688
0.126,2.5675048828125,17.221801757812,-19.854370117188
0.1265,-1.9168701171875,20.344848632812,-17.812377929688
0.127,-6.0809326171875,21.626098632812,-15.329956054688
0.1275,-11.045776367188,23.267700195312,-11.926635742188
0.128,-14.128784179688,22.787231445312,-8.7235107421875
0.1285,-17.612182617188,21.986450195312,-4.6795654296875
0.129,-19.133666992188,19.864379882812,-1.1961669921875
0.1295,-21.816284179688,17.782348632812,3.3282470703125
0.13,-22.937377929688,15.099731445312,7.6524658203125
0.1305,-23.457885742188,10.895629882812,12.056762695312
0.131,-22.897338867188,7.7325439453125,14.819458007812
0.1315,-21.616088867188,3.1680908203125,17.462036132812
0.132,-18.853393554688,-1.1160888671875,19.463989257812
0.1325,-16.731323242188,-5.0399169921875,21.385864257812
0.133,-13.448120117188,-10.285034179688,22.867309570312
0.1335,-9.7645263671875,-14.248901367188,22.386840820312
0.134,-6.1209716796875,-16.651245117188,21.626098632812
0.1345,-1.4764404296875,-18.693237304688,19.023559570312
0.135,3.2481689453125,-21.455932617188,17.021606445312
0.1355,7.2921142578125,-22.737182617188,14.459106445312
0.136,12.016723632812,-23.858276367188,10.855590820312
0.1365,15.099731445312,-23.457885742188,7.6524658203125
0.137,18.142700195312,-22.096557617188,3.6485595703125
0.1375,19.944458007812,-19.734252929688,-0.7957763671875
0.138,22.266723632812,-18.332885742188,-5.0799560546875
0.1385,22.907348632812,-14.929565429688,-9.1639404296875
0.139,22.947387695312,-10.645385742188,-13.408081054688
0.1395,22.747192382812,-7.0819091796875,-16.010620117188
0.14,20.384887695312,-2.1971435546875,-17.732299804688
0.1405,18.342895507812,2.0069580078125,-21.135620117188
0.141,15.860473632812,6.1309814453125,-21.696166992188
0.1415,12.497192382812,11.015747070312,-23.938354492188
0.142,8.2530517578125,14.419067382812,-22.456909179688
0.1425,4.1290283203125,17.381958007812,-20.975463867188
0.143,-0.7957763671875,19.263793945312,-18.372924804688
0.1435,-5.1600341796875,22.026489257812,-16.531127929688
0.144,-9.4842529296875,22.667114257812,-13.127807617188
0.1445,-13.608276367188,23.427856445312,-9.6444091796875
0.145,-16.731323242188,22.947387695312,-5.9207763671875
0.1455,-19.333862304688,21.145629882812,-1.7967529296875
0.146,-21.696166992188,18.302856445312,2.6475830078125
0.1465,-22.737182617188,16.220825195312,6.4512939453125
0.147,-22.176635742188,13.017700195312,11.175903320312
0.1475,-21.936401367188,8.5333251953125,14.899536132812
0.148,-21.295776367188,5.0499267578125,17.502075195312
0.1485,-20.575073242188,0.0850830078125,19.223754882812
0.149,-19.614135742188,-4.6395263671875,21.706176757812
0.1495,-18.733276367188,-8.6434326171875,22.346801757812
0.15,-17.972534179688,-13.087768554688,23.467895507812
0.1505,-17.572143554688,-16.290893554688,22.226684570312
0.151,-17.572143554688,-18.773315429688,20.264770507812
0.1515,-18.052612304688,-20.815307617188,17.542114257812
0.152,-18.893432617188,-22.857299804688,16.020629882812
0.1525,-20.414916992188,-23.337768554688,11.856567382812
0.153,-22.697143554688,-23.738159179688,8.2930908203125
0.1535,-25.379760742188,-23.377807617188,4.8497314453125
0.154,-28.703002929688,-21.095581054688,0.2452392578125
0.1545,-31.906127929688,-18.252807617188,-4.0389404296875
0.155,-33.667846679688,-15.730346679688,-7.9627685546875
0.1555,-35.429565429688,-12.367065429688,-12.046752929688
0.156,-36.190307617188,-7.7225341796875,-15.690307617188
0.1565,-36.951049804688,-4.4393310546875,-17.812377929688
0.157,-36.911010742188,0.7657470703125,-19.894409179688
0.1575,-36.991088867188,5.0899658203125,-22.376831054688
0.158,43.607543945312,9.4542236328125,-22.697143554688
0.1585,33.477661132812,13.578247070312,-23.497924804688
0.159,26.630981445312,16.501098632812,-22.136596679688
0.1595,19.504028320312,18.382934570312,-19.654174804688
0.16,12.457153320312,20.825317382812,-16.771362304688
0.1605,6.7315673828125,22.747192382812,-15.249877929688
0.161,0.8458251953125,23.067504882812,-11.526245117188
0.1615,-4.4793701171875,22.747192382812,-7.2821044921875
0.162,-7.8826904296875,21.746215820312,-4.1590576171875
0.1625,-11.406127929688,19.383911132812,0.8458251953125
0.163,-14.809448242188,17.181762695312,5.4102783203125
0.1635,-15.890502929688,13.618286132812,9.1339111328125
0.164,-17.732299804688,10.535278320312,13.177856445312
0.1645,-16.971557617188,5.9307861328125,16.220825195312
0.165,-16.090698242188,2.1270751953125,18.382934570312
0.1655,-13.808471679688,-2.9979248046875,20.545043945312
0.166,-12.487182617188,-7.0819091796875,22.466918945312
0.1665,-8.7235107421875,-11.766479492188,22.587036132812
0.167,-5.7606201171875,-15.129760742188,23.027465820312
0.1675,-1.9168701171875,-17.411987304688,20.905395507812
0.168,2.8477783203125,-20.214721679688,18.863403320312
0.1685,7.0919189453125,-22.296752929688,16.300903320312
0.169,11.496215820312,-23.658081054688,13.097778320312
0.1695,14.859497070312,-24.298706054688,10.295043945312
0.17,18.422973632812,-23.137573242188,5.6104736328125
0.1705,20.104614257812,-21.816284179688,2.5274658203125
0.171,22.546997070312,-19.373901367188,-2.5574951171875
0.1715,24.709106445312,-17.131713867188,-6.9617919921875
0.172,24.308715820312,-12.887573242188,-10.885620117188
0.1725,24.909301757812,-9.8045654296875,-14.529174804688
0.173,23.027465820312,-5.6405029296875,-17.171752929688
0.1735,21.065551757812,-1.1160888671875,-18.933471679688
0.174,18.543090820312,3.7686767578125,-21.656127929688
0.1745,15.700317382812,8.2130126953125,-23.097534179688
0.175,11.656372070312,12.256958007812,-22.777221679688
0.1755,7.3721923828125,16.060668945312,-22.617065429688
0.176,3.4083251953125,17.782348632812,-20.454956054688
0.1765,-1.9168701171875,20.545043945312,-18.092651367188
0.177,-6.4412841796875,22.667114257812,-15.810424804688
0.1775,-11.125854492188,23.147583007812,-11.766479492188
0.178,-14.288940429688,23.828247070312,-9.3240966796875
