wavelength,x,y,z
0.0,19.43896484375,-9.30908203125,-9.26904296875
0.0005,18.95849609375,-5.18505859375,-13.07275390625
0.001,17.91748046875,-1.62158203125,-15.63525390625
0.0015,16.19580078125,2.02197265625,-17.55712890625
0.002,14.19384765625,5.34521484375,-18.83837890625
0.0025,11.35107421875,8.22802734375,-18.91845703125
0.003,8.10791015625,11.43115234375,-18.95849609375
0.0035,3.98388671875,14.67431640625,-18.27783203125
0.004,-0.78076171875,17.03662109375,-16.19580078125
0.0045,-3.82373046875,18.23779296875,-14.43408203125
0.005,-6.78662109375,18.95849609375,-12.55224609375
0.0055,-9.50927734375,19.19873046875,-10.14990234375
0.006,-13.07275390625,18.43798828125,-6.02587890625
0.0065,-15.71533203125,17.39697265625,-2.50244140625
0.007,-17.71728515625,15.47509765625,1.46142578125
0.0075,-18.75830078125,13.35302734375,4.58447265625
0.008,-19.03857421875,10.67041015625,7.54736328125
0.0085,-19.23876953125,7.78759765625,10.59033203125
0.009,-18.75830078125,3.90380859375,14.07373046875
0.0095,-17.31689453125,-0.18017578125,16.63623046875
0.01,-15.39501953125,-3.42333984375,18.03759765625
0.0105,-13.51318359375,-6.42626953125,19.23876953125
0.011,-10.67041015625,-9.26904296875,19.27880859375
0.0115,-6.46630859375,-12.83251953125,18.71826171875
0.012,-2.58251953125,-15.67529296875,17.91748046875
0.0125,1.94189453125,-17.83740234375,15.79541015625
0.013,4.98486328125,-18.75830078125,13.91357421875
0.0135,8.02783203125,-19.19873046875,11.55126953125
0.014,10.87060546875,-19.35888671875,8.98876953125
0.0145,14.39404296875,-18.51806640625,4.78466796875
0.015,17.03662109375,-16.91650390625,0.66064453125
0.0155,18.55810546875,-15.03466796875,-2.74267578125
0.016,19.39892578125,-12.79248046875,-5.78564453125
0.0165,19.51904296875,-9.94970703125,-8.78857421875
0.017,19.27880859375,-6.34619140625,-12.23193359375
0.0175,18.79833984375,-2.82275390625,-15.27490234375
0.018,16.95654296875,1.54150390625,-17.71728515625
0.0185,14.75439453125,4.78466796875,-18.79833984375
0.019,12.43212890625,7.82763671875,-19.55908203125
0.0195,9.38916015625,10.91064453125,-19.75927734375
0.02,4.62451171875,14.47412109375,-18.71826171875
0.0205,0.46044921875,17.11669921875,-17.31689453125
0.021,-3.54345703125,18.87841796875,-15.35498046875
0.0215,-6.62646484375,19.55908203125,-13.19287109375
0.022,-9.74951171875,19.67919921875,-10.39013671875
0.0225,-12.83251953125,19.43896484375,-7.26708984375
0.023,-15.99560546875,18.43798828125,-3.22314453125
0.0235,-18.43798828125,16.31591796875,1.34130859375
0.024,-19.47900390625,14.15380859375,4.50439453125
0.0245,-20.03955078125,11.71142578125,7.54736328125
0.025,-20.11962890625,8.54833984375,10.67041015625
0.0255,-19.47900390625,4.42431640625,14.15380859375
0.026,-18.43798828125,0.70068359375,16.91650390625
0.0265,-16.47607421875,-3.38330078125,19.03857421875
0.027,-14.07373046875,-6.46630859375,19.79931640625
0.0275,-11.23095703125,-9.54931640625,20.11962890625
0.028,-7.70751953125,-12.83251953125,19.99951171875
0.0285,-3.06298828125,-16.07568359375,18.75830078125
0.029,1.58154296875,-18.31787109375,16.59619140625
0.0295,4.94482421875,-19.55908203125,14.75439453125
0.03,7.98779296875,-20.15966796875,12.47216796875
0.0305,11.11083984375,-19.99951171875,9.46923828125
0.031,14.39404296875,-19.31884765625,5.58544921875
0.0315,17.31689453125,-18.07763671875,1.58154296875
0.032,19.35888671875,-15.79541015625,-2.82275390625
0.0325,19.99951171875,-13.43310546875,-5.74560546875
0.033,20.39990234375,-10.75048828125,-8.90869140625
0.0335,20.19970703125,-7.30712890625,-12.19189453125
0.034,19.47900390625,-3.34326171875,-15.39501953125
0.0345,17.79736328125,0.78076171875,-17.79736328125
0.035,15.79541015625,4.42431640625,-19.43896484375
0.0355,13.31298828125,7.46728515625,-20.07958984375
0.036,10.06982421875,10.59033203125,-20.03955078125
0.0365,6.06591796875,13.99365234375,-19.51904296875
0.037,1.58154296875,16.95654296875,-18.27783203125
0.0375,-3.02294921875,18.91845703125,-15.91552734375
0.038,-5.90576171875,19.67919921875,-13.99365234375
0.0385,-8.94873046875,20.15966796875,-11.63134765625
0.039,-12.15185546875,19.83935546875,-8.30810546875
0.0395,-15.35498046875,18.91845703125,-4.38427734375
0.04,-17.95751953125,17.27685546875,-0.22021484375
0.0405,-19.71923828125,15.03466796875,3.82373046875
0.041,-20.11962890625,12.55224609375,6.66650390625
0.0415,-20.35986328125,9.58935546875,9.82958984375
0.042,-19.95947265625,5.94580078125,13.27294921875
0.0425,-19.19873046875,2.06201171875,16.35595703125
0.043,-17.23681640625,-2.18212890625,18.51806640625
0.0435,-15.15478515625,-5.30517578125,19.67919921875
0.044,-12.75244140625,-8.34814453125,20.35986328125
0.0445,-9.10888671875,-11.67138671875,20.11962890625
0.045,-4.82470703125,-14.87451171875,19.23876953125
0.0455,-0.30029296875,-17.63720703125,17.67724609375
0.046,3.98388671875,-19.47900390625,15.51513671875
0.0465,6.86669921875,-19.87939453125,13.31298828125
0.047,9.94970703125,-20.31982421875,10.79052734375
0.0475,13.47314453125,-19.87939453125,7.06689453125
0.048,16.47607421875,-18.79833984375,3.10302734375
0.0485,18.83837890625,-16.83642578125,-1.26123046875
0.049,20.19970703125,-14.67431640625,-4.78466796875
0.0495,20.56005859375,-12.03173828125,-7.78759765625
0.05,20.68017578125,-8.54833984375,-11.27099609375
0.0505,20.03955078125,-4.70458984375,-14.47412109375
0.051,18.99853515625,-0.66064453125,-17.55712890625
0.0515,16.67626953125,3.58349609375,-19.51904296875
0.052,14.23388671875,6.66650390625,-20.19970703125
0.0525,11.59130859375,9.86962890625,-20.80029296875
0.053,7.22705078125,13.59326171875,-20.35986328125
0.0535,2.98291015625,16.59619140625,-19.19873046875
0.054,-1.74169921875,18.91845703125,-17.15673828125
0.0545,-5.62548828125,20.47998046875,-15.07470703125
0.055,-8.58837890625,20.64013671875,-12.51220703125
0.0555,-11.71142578125,20.80029296875,-9.70947265625
0.056,-15.39501953125,20.03955078125,-5.50537109375
0.0565,-18.31787109375,18.51806640625,-1.10107421875
0.057,-20.31982421875,16.11572265625,3.26318359375
0.0575,-21.20068359375,13.63330078125,6.54638671875
0.058,-21.56103515625,10.75048828125,9.86962890625
0.0585,-21.28076171875,6.70654296875,13.71337890625
0.059,-20.43994140625,2.86279296875,16.67626953125
0.0595,-18.83837890625,-1.54150390625,19.39892578125
0.06,-16.39599609375,-5.62548828125,21.16064453125
0.0605,-13.47314453125,-8.58837890625,21.32080078125
0.061,-10.67041015625,-11.75146484375,21.76123046875
0.0615,-5.70556640625,-15.67529296875,20.84033203125
0.062,-0.98095703125,-18.55810546875,19.19873046875
0.0625,3.58349609375,-20.35986328125,16.79638671875
0.063,7.18701171875,-21.48095703125,14.59423828125
0.0635,10.39013671875,-21.52099609375,11.59130859375
0.064,13.79345703125,-21.16064453125,8.06787109375
0.0645,17.07666015625,-20.27978515625,3.98388671875
0.065,19.91943359375,-18.23779296875,-0.86083984375
0.0655,21.48095703125,-15.71533203125,-4.94482421875
0.066,21.84130859375,-12.87255859375,-8.02783203125
0.0665,22.08154296875,-9.90966796875,-11.31103515625
0.067,21.40087890625,-5.26513671875,-15.27490234375
0.0675,20.19970703125,-1.34130859375,-18.03759765625
0.068,18.15771484375,2.86279296875,-20.11962890625
0.0685,15.67529296875,6.70654296875,-21.64111328125
0.069,12.35205078125,9.86962890625,-21.48095703125
0.0695,8.90869140625,13.15283203125,-21.52099609375
0.07,4.22412109375,16.67626953125,-20.47998046875
0.0705,-0.98095703125,19.47900390625,-18.43798828125
0.071,-4.98486328125,20.88037109375,-15.99560546875
0.0715,-8.18798828125,21.48095703125,-13.67333984375
0.072,-11.31103515625,21.64111328125,-10.87060546875
0.0725,-15.03466796875,20.68017578125,-6.46630859375
0.073,-17.83740234375,19.51904296875,-2.66259765625
0.0735,-20.23974609375,17.31689453125,1.98193359375
0.074,-21.60107421875,14.79443359375,5.82568359375
0.0745,-21.64111328125,11.79150390625,8.86865234375
0.075,-21.76123046875,8.62841796875,12.23193359375
0.0755,-21.04052734375,4.14404296875,15.99560546875
0.076,-19.59912109375,-0.26025390625,18.83837890625
0.0765,-17.27685546875,-4.10400390625,20.47998046875
0.077,-14.99462890625,-7.50732421875,21.64111328125
0.0775,-11.87158203125,-10.67041015625,21.68115234375
0.078,-7.34716796875,-14.35400390625,21.12060546875
0.0785,-3.18310546875,-17.31689453125,20.11962890625
0.079,1.94189453125,-19.87939453125,17.79736328125
0.0795,5.78564453125,-21.12060546875,15.51513671875
0.08,8.90869140625,-21.36083984375,12.79248046875
0.0805,12.03173828125,-21.64111328125,10.18994140625
0.081,15.99560546875,-20.60009765625,5.34521484375
0.0815,18.79833984375,-19.03857421875,1.02099609375
0.082,20.68017578125,-16.75634765625,-3.10302734375
0.0825,21.80126953125,-14.27392578125,-6.62646484375
0.083,21.72119140625,-11.03076171875,-9.78955078125
0.0835,21.60107421875,-7.22705078125,-13.51318359375
0.084,20.84033203125,-3.34326171875,-16.67626953125
0.0845,19.07861328125,1.30126953125,-19.47900390625
0.085,16.43603515625,5.18505859375,-20.84033203125
0.0855,13.79345703125,8.38818359375,-21.48095703125
0.086,10.83056640625,11.59130859375,-21.80126953125
0.0865,5.46533203125,15.67529296875,-20.68017578125
0.087,1.26123046875,18.39794921875,-19.31884765625
0.0875,-3.46337890625,20.47998046875,-16.99658203125
0.088,-7.14697265625,21.56103515625,-14.71435546875
0.0885,-10.39013671875,21.44091796875,-11.55126953125
0.089,-13.47314453125,21.40087890625,-8.62841796875
0.0895,-17.11669921875,20.31982421875,-4.10400390625
0.09,-19.91943359375,18.15771484375,0.90087890625
0.0905,-21.28076171875,15.75537109375,4.62451171875
0.091,-22.04150390625,13.11279296875,7.98779296875
0.0915,-22.00146484375,9.86962890625,11.19091796875
0.092,-21.44091796875,5.30517578125,15.23486328125
0.0925,-20.39990234375,1.50146484375,17.99755859375
0.093,-18.39794921875,-3.02294921875,20.47998046875
0.0935,-15.71533203125,-6.74658203125,21.72119140625
0.094,-12.63232421875,-9.94970703125,21.80126953125
0.0945,-9.54931640625,-13.11279296875,22.00146484375
0.095,-4.14404296875,-16.99658203125,20.64013671875
0.0955,0.82080078125,-19.67919921875,18.55810546875
0.096,4.82470703125,-21.08056640625,16.31591796875
0.0965,8.30810546875,-21.96142578125,13.95361328125
0.097,11.67138671875,-21.76123046875,10.55029296875
0.0975,15.19482421875,-21.08056640625,6.66650390625
0.098,18.27783203125,-19.91943359375,2.58251953125
0.0985,20.80029296875,-17.47705078125,-2.42236328125
0.099,21.76123046875,-14.91455078125,-5.90576171875
0.0995,22.08154296875,-11.99169921875,-9.22900390625
0.1,22.08154296875,-8.82861328125,-12.35205078125
0.1005,21.16064453125,-4.14404296875,-16.23583984375
0.101,19.63916015625,0.14013671875,-18.91845703125
0.1015,17.43701171875,4.18408203125,-20.80029296875
0.102,14.87451171875,7.74755859375,-21.88134765625
0.1025,11.23095703125,11.11083984375,-21.68115234375
0.103,7.38720703125,14.59423828125,-21.48095703125
0.1035,2.66259765625,17.91748046875,-20.23974609375
0.104,-2.70263671875,20.35986328125,-17.63720703125
0.1045,-6.10595703125,21.28076171875,-15.39501953125
0.105,-9.38916015625,21.80126953125,-12.95263671875
0.1055,-12.55224609375,21.64111328125,-9.74951171875
0.106,-16.27587890625,20.52001953125,-5.10498046875
0.1065,-19.07861328125,18.99853515625,-0.90087890625
0.107,-21.12060546875,16.59619140625,3.58349609375
0.1075,-21.80126953125,13.95361328125,6.90673828125
0.108,-21.84130859375,10.63037109375,10.27001953125
0.1085,-21.72119140625,7.14697265625,13.63330078125
0.109,-20.84033203125,2.82275390625,17.15673828125
0.1095,-18.87841796875,-1.78173828125,19.71923828125
0.11,-16.47607421875,-5.38525390625,21.00048828125
0.1105,-14.07373046875,-8.66845703125,21.92138671875
0.111,-10.47021484375,-11.87158203125,21.68115234375
0.1115,-5.74560546875,-15.55517578125,20.80029296875
0.112,-1.34130859375,-18.43798828125,19.47900390625
0.1125,3.58349609375,-20.60009765625,16.95654296875
0.113,6.90673828125,-21.28076171875,14.59423828125
0.1135,10.22998046875,-21.52099609375,11.79150390625
0.114,13.39306640625,-21.40087890625,8.62841796875
0.1145,16.95654296875,-20.15966796875,4.02392578125
0.115,19.59912109375,-18.15771484375,-0.62060546875
0.1155,21.12060546875,-15.87548828125,-4.38427734375
0.116,21.76123046875,-13.23291015625,-7.66748046875
0.1165,21.64111328125,-9.82958984375,-10.91064453125
0.117,21.16064453125,-5.82568359375,-14.51416015625
0.1175,20.35986328125,-1.94189453125,-17.63720703125
0.118,18.15771484375,2.74267578125,-20.03955078125
0.1185,15.51513671875,6.22607421875,-20.96044921875
0.119,12.87255859375,9.46923828125,-21.64111328125
0.1195,9.14892578125,12.95263671875,-21.52099609375
0.12,4.14404296875,16.55615234375,-20.31982421875
0.1205,-0.54052734375,19.15869140625,-18.51806640625
0.121,-4.82470703125,20.92041015625,-16.31591796875
0.1215,-7.98779296875,21.48095703125,-13.79345703125
0.122,-11.39111328125,21.44091796875,-10.63037109375
0.1225,-14.75439453125,21.00048828125,-7.02685546875
0.123,-17.95751953125,19.67919921875,-2.62255859375
0.1235,-20.43994140625,17.23681640625,2.26220703125
0.124,-21.48095703125,14.79443359375,5.70556640625
0.1245,-21.96142578125,11.99169921875,9.02880859375
0.125,-21.76123046875,8.30810546875,12.51220703125
0.1255,-20.96044921875,4.02392578125,16.03564453125
0.126,-19.63916015625,-0.14013671875,18.87841796875
0.1265,-17.35693359375,-4.50439453125,21.00048828125
0.127,-14.63427734375,-7.70751953125,21.52099609375
0.1275,-11.55126953125,-10.95068359375,21.84130859375
0.128,-7.58740234375,-14.55419921875,21.52099609375
0.1285,-2.58251953125,-17.91748046875,20.03955078125
0.129,2.38232421875,-20.19970703125,17.63720703125
0.1295,6.06591796875,-21.36083984375,15.51513671875
0.13,9.30908203125,-21.76123046875,12.83251953125
0.1305,12.67236328125,-21.56103515625,9.46923828125
0.131,16.15576171875,-20.76025390625,5.38525390625
0.1315,19.15869140625,-19.15869140625,0.94091796875
0.132,21.28076171875,-16.63623046875,-3.74365234375
0.1325,21.80126953125,-13.95361328125,-6.90673828125
0.133,22.08154296875,-10.91064453125,-10.31005859375
0.1335,21.80126953125,-7.02685546875,-13.91357421875
0.134,20.80029296875,-2.82275390625,-17.15673828125
0.1345,18.91845703125,1.58154296875,-19.55908203125
0.135,16.59619140625,5.54541015625,-21.32080078125
0.1355,13.67333984375,8.78857421875,-21.72119140625
0.136,10.22998046875,12.11181640625,-21.68115234375
0.1365,5.82568359375,15.63525390625,-21.00048828125
0.137,0.94091796875,18.71826171875,-19.35888671875
0.1375,-3.86376953125,20.60009765625,-16.75634765625
0.138,-7.06689453125,21.28076171875,-14.51416015625
0.1385,-10.39013671875,21.68115234375,-11.83154296875
0.139,-13.63330078125,21.16064453125,-8.14794921875
0.1395,-16.91650390625,20.03955078125,-3.98388671875
0.14,-19.55908203125,18.07763671875,0.62060546875
0.1405,-21.28076171875,15.55517578125,4.78466796875
0.141,-21.56103515625,12.75244140625,7.82763671875
0.1415,-21.76123046875,9.62939453125,11.19091796875
0.142,-21.20068359375,5.50537109375,14.75439453125
0.1425,-20.19970703125,1.42138671875,17.87744140625
0.143,-17.87744140625,-2.94287109375,19.91943359375
0.1435,-15.63525390625,-6.34619140625,21.12060546875
0.144,-12.83251953125,-9.46923828125,21.76123046875
0.1445,-8.94873046875,-12.95263671875,21.24072265625
0.145,-4.62451171875,-16.07568359375,20.23974609375
0.1455,0.30029296875,-18.87841796875,18.43798828125
0.146,4.62451171875,-20.56005859375,15.99560546875
0.1465,7.54736328125,-20.84033203125,13.59326171875
0.147,10.75048828125,-21.16064453125,10.95068359375
0.1475,14.39404296875,-20.60009765625,6.90673828125
0.148,17.35693359375,-19.35888671875,2.82275390625
0.1485,19.67919921875,-17.19677734375,-1.66162109375
0.149,21.00048828125,-14.83447265625,-5.30517578125
0.1495,21.28076171875,-12.03173828125,-8.38818359375
0.15,21.28076171875,-8.58837890625,-11.91162109375
0.1505,20.64013671875,-4.66455078125,-15.11474609375
0.151,19.39892578125,-0.50048828125,-18.15771484375
0.1515,16.99658203125,3.82373046875,-19.99951171875
0.152,14.47412109375,6.90673828125,-20.64013671875
0.1525,11.87158203125,10.02978515625,-21.28076171875
0.153,7.38720703125,13.95361328125,-20.72021484375
0.1535,3.06298828125,16.79638671875,-19.51904296875
0.154,-1.70166015625,19.15869140625,-17.35693359375
0.1545,-5.58544921875,20.64013671875,-15.27490234375
0.155,-8.58837890625,20.80029296875,-12.63232421875
0.1555,-11.63134765625,20.92041015625,-9.86962890625
0.156,-15.23486328125,20.15966796875,-5.70556640625
0.1565,-18.15771484375,18.55810546875,-1.18115234375
0.157,-20.07958984375,16.19580078125,2.98291015625
0.1575,-20.96044921875,13.79345703125,6.22607421875
0.158,-21.32080078125,10.91064453125,9.46923828125
0.1585,-21.08056640625,6.86669921875,13.31298828125
0.159,-20.23974609375,3.18310546875,16.19580078125
0.1595,-18.63818359375,-1.14111328125,18.87841796875
0.16,-16.31591796875,-5.14501953125,20.60009765625
0.1605,-13.59326171875,-8.02783203125,20.84033203125
0.161,-10.91064453125,-11.23095703125,21.24072265625
0.1615,-6.06591796875,-14.91455078125,20.43994140625
0.162,-1.42138671875,-17.79736328125,18.83837890625
0.1625,2.98291015625,-19.59912109375,16.63623046875
0.163,6.46630859375,-20.80029296875,14.51416015625
0.1635,9.62939453125,-20.88037109375,11.71142578125
0.164,12.95263671875,-20.64013671875,8.30810546875
0.1645,16.19580078125,-19.71923828125,4.50439453125
0.165,18.87841796875,-17.87744140625,-0.18017578125
0.1655,20.52001953125,-15.51513671875,-4.10400390625
0.166,20.92041015625,-12.87255859375,-7.14697265625
0.1665,21.20068359375,-10.10986328125,-10.22998046875
0.167,20.72021484375,-5.70556640625,-14.19384765625
0.1675,19.71923828125,-1.90185546875,-17.03662109375
0.168,17.67724609375,2.18212890625,-19.07861328125
0.1685,15.47509765625,5.90576171875,-20.68017578125
0.169,12.35205078125,8.94873046875,-20.76025390625
0.1695,9.02880859375,12.31201171875,-20.80029296875
0.17,4.66455078125,15.71533203125,-19.95947265625
0.1705,-0.38037109375,18.51806640625,-17.95751953125
0.171,-4.30419921875,19.91943359375,-15.75537109375
0.1715,-7.38720703125,20.60009765625,-13.55322265625
0.172,-10.43017578125,20.84033203125,-10.99072265625
0.1725,-14.07373046875,20.03955078125,-6.66650390625
0.173,-16.87646484375,18.99853515625,-2.94287109375
0.1735,-19.23876953125,16.91650390625,1.46142578125
0.174,-20.64013671875,14.51416015625,5.18505859375
0.1745,-20.76025390625,11.67138671875,8.18798828125
0.175,-21.00048828125,8.66845703125,11.39111328125
0.1755,-20.31982421875,4.46435546875,15.03466796875
0.176,-18.95849609375,0.22021484375,17.87744140625
0.1765,-16.71630859375,-3.66357421875,19.47900390625
0.177,-14.63427734375,-6.86669921875,20.60009765625
0.1775,-11.71142578125,-9.78955078125,20.80029296875
0.178,-7.38720703125,-13.47314453125,20.23974609375
0.1785,-3.46337890625,-16.27587890625,19.27880859375
0.179,1.42138671875,-18.71826171875,17.15673828125
0.1795,5.10498046875,-20.03955078125,15.03466796875
0.18,8.06787109375,-20.23974609375,12.51220703125
0.1805,10.95068359375,-20.60009765625,10.18994140625
0.181,14.83447265625,-19.71923828125,5.62548828125
0.1815,17.55712890625,-18.23779296875,1.50146484375
0.182,19.35888671875,-16.15576171875,-2.34228515625
0.1825,20.43994140625,-13.83349609375,-5.70556640625
0.183,20.47998046875,-10.95068359375,-8.66845703125
0.1835,20.39990234375,-7.30712890625,-12.31201171875
0.184,19.79931640625,-3.78369140625,-15.31494140625
0.1845,18.23779296875,0.62060546875,-18.03759765625
0.185,15.83544921875,4.34423828125,-19.43896484375
0.1855,13.39306640625,7.38720703125,-19.99951171875
0.186,10.83056640625,10.31005859375,-20.52001953125
0.1865,5.78564453125,14.27392578125,-19.55908203125
0.187,1.78173828125,16.83642578125,-18.27783203125
0.1875,-2.50244140625,18.75830078125,-16.23583984375
0.188,-5.94580078125,19.91943359375,-14.15380859375
0.1885,-8.94873046875,19.91943359375,-11.39111328125
0.189,-11.87158203125,19.95947265625,-8.66845703125
0.1895,-15.31494140625,19.19873046875,-4.62451171875
0.19,-17.99755859375,17.19677734375,0.02001953125
0.1905,-19.39892578125,15.07470703125,3.50341796875
0.191,-20.15966796875,12.67236328125,6.58642578125
0.1915,-20.35986328125,9.94970703125,9.54931640625
