wavelength,x,y,z
0.0,-3.873779296875,-3.833740234375,6.135986328125
0.0005,-4.914794921875,-2.552490234375,6.216064453125
0.001,-5.515380859375,-1.671630859375,6.216064453125
0.0015,-5.675537109375,-0.830810546875,5.935791015625
0.002,-5.635498046875,0.090087890625,5.255126953125
0.0025,-5.515380859375,1.291259765625,4.174072265625
0.003,-5.475341796875,2.652587890625,3.093017578125
0.0035,-5.275146484375,3.813720703125,1.931884765625
0.004,-4.994873046875,4.494384765625,1.091064453125
0.0045,-4.354248046875,4.934814453125,0.250244140625
0.005,-3.393310546875,5.135009765625,-0.990966796875
0.0055,-2.152099609375,5.455322265625,-2.432373046875
0.006,-0.950927734375,5.615478515625,-3.833740234375
0.0065,0.010009765625,5.775634765625,-4.794677734375
0.007,0.690673828125,5.735595703125,-5.515380859375
0.0075,1.811767578125,4.974853515625,-6.035888671875
0.008,3.213134765625,3.733642578125,-6.396240234375
0.0085,4.494384765625,2.452392578125,-6.676513671875
0.009,5.295166015625,1.211181640625,-6.596435546875
0.0095,5.615478515625,0.450439453125,-6.396240234375
0.01,5.695556640625,-0.590576171875,-5.915771484375
0.0105,5.575439453125,-1.671630859375,-4.994873046875
0.011,5.415283203125,-3.072998046875,-3.713623046875
0.0115,5.215087890625,-4.434326171875,-2.392333984375
0.012,4.854736328125,-5.315185546875,-1.351318359375
0.0125,4.414306640625,-5.915771484375,-0.510498046875
0.013,3.493408203125,-6.115966796875,0.570556640625
0.0135,2.172119140625,-6.276123046875,1.971923828125
0.014,0.850830078125,-6.476318359375,3.533447265625
0.0145,-0.390380859375,-6.476318359375,4.694580078125
0.015,-1.071044921875,-6.556396484375,5.495361328125
0.0155,-1.951904296875,-6.115966796875,6.055908203125
0.016,-3.193115234375,-5.074951171875,6.456298828125
0.0165,-4.554443359375,-3.673583984375,6.696533203125
0.017,-5.635498046875,-2.312255859375,6.736572265625
0.0175,-6.276123046875,-1.231201171875,6.616455078125
0.018,-6.316162109375,-0.390380859375,6.216064453125
0.0185,-6.115966796875,0.610595703125,5.375244140625
0.019,-5.915771484375,1.891845703125,4.174072265625
0.0195,-5.755615234375,3.213134765625,2.892822265625
0.02,-5.435302734375,4.454345703125,1.611572265625
0.0205,-4.994873046875,5.094970703125,0.690673828125
0.021,-4.354248046875,5.455322265625,-0.270263671875
0.0215,-3.353271484375,5.615478515625,-1.271240234375
0.022,-1.951904296875,5.735595703125,-2.792724609375
0.0225,-0.630615234375,5.895751953125,-4.274169921875
0.023,0.450439453125,5.895751953125,-5.235107421875
0.0235,1.091064453125,5.895751953125,-5.955810546875
0.024,2.052001953125,5.175048828125,-6.436279296875
0.0245,3.333251953125,3.933837890625,-6.716552734375
0.025,4.614501953125,2.612548828125,-6.956787109375
0.0255,5.455322265625,1.091064453125,-6.916748046875
0.026,6.015869140625,0.290283203125,-6.676513671875
0.0265,6.055908203125,-0.630615234375,-6.236083984375
0.027,5.815673828125,-1.591552734375,-5.315185546875
0.0275,5.575439453125,-2.952880859375,-4.033935546875
0.028,5.415283203125,-4.394287109375,-2.672607421875
0.0285,5.014892578125,-5.435302734375,-1.471435546875
0.029,4.574462890625,-6.035888671875,-0.630615234375
0.0295,3.813720703125,-6.276123046875,0.410400390625
0.03,2.612548828125,-6.436279296875,1.611572265625
0.0305,1.211181640625,-6.556396484375,3.173095703125
0.031,-0.270263671875,-6.596435546875,4.574462890625
0.0315,-1.031005859375,-6.676513671875,5.455322265625
0.032,-1.751708984375,-6.476318359375,6.095947265625
0.0325,-2.872802734375,-5.595458984375,6.536376953125
0.033,-4.234130859375,-4.194091796875,6.736572265625
0.0335,-5.595458984375,-2.832763671875,7.016845703125
0.034,-6.156005859375,-1.551513671875,6.696533203125
0.0345,-6.436279296875,-0.670654296875,6.456298828125
0.035,-6.396240234375,0.290283203125,5.815673828125
0.0355,-6.115966796875,1.411376953125,4.774658203125
0.036,-5.835693359375,2.732666015625,3.493408203125
0.0365,-5.635498046875,4.134033203125,2.052001953125
0.037,-5.235107421875,4.974853515625,0.970947265625
0.0375,-4.714599609375,5.495361328125,0.170166015625
0.038,-3.793701171875,5.655517578125,-0.910888671875
0.0385,-2.432373046875,5.775634765625,-2.272216796875
0.039,-1.111083984375,6.015869140625,-3.873779296875
0.0395,0.210205078125,5.935791015625,-5.034912109375
0.04,0.890869140625,6.015869140625,-5.835693359375
0.0405,1.651611328125,5.615478515625,-6.396240234375
0.041,2.932861328125,4.494384765625,-6.756591796875
0.0415,4.174072265625,3.012939453125,-6.916748046875
0.042,5.455322265625,1.651611328125,-7.076904296875
0.0425,6.015869140625,0.530517578125,-6.796630859375
0.043,6.135986328125,-0.350341796875,-6.476318359375
0.0435,5.975830078125,-1.311279296875,-5.715576171875
0.044,5.735595703125,-2.592529296875,-4.474365234375
0.0445,5.535400390625,-4.033935546875,-3.072998046875
0.045,5.215087890625,-5.275146484375,-1.751708984375
0.0455,4.774658203125,-5.995849609375,-0.750732421875
0.046,4.134033203125,-6.396240234375,0.170166015625
0.0465,3.052978515625,-6.476318359375,1.291259765625
0.047,1.571533203125,-6.636474609375,2.852783203125
0.0475,0.130126953125,-6.716552734375,4.414306640625
0.048,-0.950927734375,-6.676513671875,5.375244140625
0.0485,-1.631591796875,-6.636474609375,6.095947265625
0.049,-2.632568359375,-5.955810546875,6.536376953125
0.0495,-4.114013671875,-4.674560546875,6.896728515625
0.05,-5.235107421875,-3.193115234375,6.976806640625
0.0505,-6.156005859375,-1.791748046875,6.896728515625
0.051,-6.556396484375,-0.790771484375,6.616455078125
0.0515,-6.556396484375,0.130126953125,6.095947265625
0.052,-6.276123046875,1.091064453125,5.175048828125
0.0525,-6.035888671875,2.452392578125,3.813720703125
0.053,-5.755615234375,3.893798828125,2.412353515625
0.0535,-5.395263671875,4.934814453125,1.211181640625
0.054,-4.914794921875,5.495361328125,0.330322265625
0.0545,-4.073974609375,5.735595703125,-0.670654296875
0.055,-2.872802734375,5.815673828125,-1.871826171875
0.0555,-1.471435546875,5.975830078125,-3.393310546875
0.056,0.010009765625,5.975830078125,-4.834716796875
0.0565,0.690673828125,5.975830078125,-5.635498046875
0.057,1.451416015625,5.775634765625,-6.276123046875
0.0575,2.412353515625,4.774658203125,-6.676513671875
0.058,3.893798828125,3.533447265625,-6.916748046875
0.0585,5.094970703125,2.092041015625,-7.036865234375
0.059,5.815673828125,0.890869140625,-6.796630859375
0.0595,6.095947265625,0.010009765625,-6.596435546875
0.06,5.975830078125,-0.950927734375,-5.955810546875
0.0605,5.735595703125,-1.991943359375,-4.954833984375
0.061,5.495361328125,-3.313232421875,-3.673583984375
0.0615,5.215087890625,-4.674560546875,-2.272216796875
0.062,4.814697265625,-5.555419921875,-1.191162109375
0.0625,4.414306640625,-6.075927734375,-0.430419921875
0.063,3.493408203125,-6.236083984375,0.610595703125
0.0635,2.212158203125,-6.356201171875,1.931884765625
0.064,0.890869140625,-6.516357421875,3.453369140625
0.0645,-0.470458984375,-6.556396484375,4.614501953125
0.065,-1.111083984375,-6.556396484375,5.455322265625
0.0655,-1.871826171875,-6.356201171875,5.895751953125
0.066,-2.952880859375,-5.275146484375,6.336181640625
0.0665,-4.274169921875,-3.993896484375,6.576416015625
0.067,-5.435302734375,-2.592529296875,6.656494140625
0.0675,-5.995849609375,-1.471435546875,6.456298828125
0.068,-6.156005859375,-0.750732421875,6.256103515625
0.0685,-6.035888671875,0.170166015625,5.615478515625
0.069,-5.835693359375,1.291259765625,4.494384765625
0.0695,-5.715576171875,2.612548828125,3.373291015625
0.07,-5.435302734375,3.893798828125,2.052001953125
0.0705,-5.114990234375,4.654541015625,1.131103515625
0.071,-4.594482421875,5.135009765625,0.330322265625
0.0715,-3.713623046875,5.335205078125,-0.710693359375
0.072,-2.472412109375,5.575439453125,-2.112060546875
0.0725,-1.151123046875,5.695556640625,-3.673583984375
0.073,-0.190185546875,5.775634765625,-4.634521484375
0.0735,0.610595703125,5.775634765625,-5.635498046875
0.074,1.491455078125,5.415283203125,-5.995849609375
0.0745,2.732666015625,4.334228515625,-6.356201171875
0.075,4.013916015625,3.093017578125,-6.676513671875
0.0755,5.054931640625,1.731689453125,-6.676513671875
0.076,5.575439453125,0.770751953125,-6.556396484375
0.0765,5.735595703125,0.010009765625,-6.276123046875
0.077,5.575439453125,-0.990966796875,-5.515380859375
0.0775,5.375244140625,-2.272216796875,-4.354248046875
0.078,5.255126953125,-3.673583984375,-3.072998046875
0.0785,4.974853515625,-4.754638671875,-1.951904296875
0.079,4.654541015625,-5.435302734375,-1.071044921875
0.0795,3.973876953125,-5.755615234375,-0.270263671875
0.08,2.932861328125,-5.955810546875,0.970947265625
0.0805,1.771728515625,-6.276123046875,2.332275390625
0.081,0.370361328125,-6.316162109375,3.813720703125
0.0815,-0.390380859375,-6.396240234375,4.654541015625
0.082,-1.151123046875,-6.356201171875,5.415283203125
0.0825,-2.112060546875,-5.675537109375,5.815673828125
0.083,-3.473388671875,-4.434326171875,6.135986328125
0.0835,-4.634521484375,-3.193115234375,6.416259765625
0.084,-5.435302734375,-2.072021484375,6.336181640625
0.0845,-5.795654296875,-1.271240234375,6.216064453125
0.085,-5.755615234375,-0.510498046875,5.735595703125
0.0855,-5.635498046875,0.530517578125,4.934814453125
0.086,-5.515380859375,1.731689453125,3.893798828125
0.0865,-5.355224609375,3.052978515625,2.612548828125
0.087,-5.114990234375,3.973876953125,1.651611328125
0.0875,-4.794677734375,4.614501953125,0.890869140625
0.088,-4.114013671875,4.894775390625,0.090087890625
0.0885,-2.952880859375,5.094970703125,-1.231201171875
0.089,-1.951904296875,5.375244140625,-2.592529296875
0.0895,-0.790771484375,5.495361328125,-3.713623046875
0.09,0.010009765625,5.695556640625,-4.714599609375
0.0905,0.690673828125,5.535400390625,-5.315185546875
0.091,1.731689453125,4.854736328125,-5.755615234375
0.0915,3.012939453125,3.733642578125,-6.115966796875
0.092,4.174072265625,2.412353515625,-6.356201171875
0.0925,4.894775390625,1.451416015625,-6.316162109375
0.093,5.255126953125,0.730712890625,-6.276123046875
0.0935,5.255126953125,-0.150146484375,-5.755615234375
0.094,5.135009765625,-1.151123046875,-4.954833984375
0.0945,5.094970703125,-2.392333984375,-3.913818359375
0.095,4.934814453125,-3.633544921875,-2.752685546875
0.0955,4.694580078125,-4.514404296875,-1.871826171875
0.096,4.414306640625,-5.114990234375,-1.151123046875
0.0965,3.693603515625,-5.435302734375,-0.190185546875
0.097,2.612548828125,-5.755615234375,1.131103515625
0.0975,1.411376953125,-5.955810546875,2.532470703125
0.098,0.490478515625,-6.156005859375,3.653564453125
0.0985,-0.310302734375,-6.356201171875,4.534423828125
0.099,-1.151123046875,-6.035888671875,5.094970703125
0.0995,-2.272216796875,-5.155029296875,5.535400390625
0.1,-3.473388671875,-4.154052734375,5.935791015625
0.1005,-4.514404296875,-2.912841796875,6.055908203125
0.101,-5.155029296875,-1.991943359375,6.095947265625
0.1015,-5.435302734375,-1.311279296875,5.895751953125
0.102,-5.435302734375,-0.550537109375,5.415283203125
0.1025,-5.315185546875,0.610595703125,4.494384765625
0.103,-5.315185546875,1.931884765625,3.493408203125
0.1035,-5.155029296875,3.012939453125,2.412353515625
0.104,-4.954833984375,3.813720703125,1.651611328125
0.1045,-4.554443359375,4.134033203125,0.890869140625
0.105,-3.713623046875,4.574462890625,-0.190185546875
0.1055,-2.752685546875,4.974853515625,-1.351318359375
0.106,-1.631591796875,5.175048828125,-2.792724609375
0.1065,-0.870849609375,5.455322265625,-3.793701171875
0.107,-0.190185546875,5.575439453125,-4.594482421875
0.1075,0.850830078125,5.135009765625,-5.155029296875
0.108,2.052001953125,4.214111328125,-5.595458984375
0.1085,3.253173828125,3.173095703125,-5.955810546875
0.109,4.174072265625,2.052001953125,-6.075927734375
0.1095,4.734619140625,1.291259765625,-6.115966796875
0.11,4.934814453125,0.610595703125,-5.835693359375
0.1105,4.934814453125,-0.350341796875,-5.275146484375
0.111,4.894775390625,-1.471435546875,-4.434326171875
0.1115,4.854736328125,-2.752685546875,-3.353271484375
0.112,4.734619140625,-3.793701171875,-2.432373046875
0.1125,4.494384765625,-4.594482421875,-1.711669921875
0.113,4.013916015625,-4.954833984375,-0.910888671875
0.1135,3.133056640625,-5.275146484375,0.250244140625
0.114,2.172119140625,-5.715576171875,1.571533203125
0.1145,1.091064453125,-5.875732421875,2.852783203125
0.115,0.450439453125,-6.156005859375,3.813720703125
0.1155,-0.470458984375,-6.115966796875,4.534423828125
0.116,-1.431396484375,-5.595458984375,5.094970703125
0.1165,-2.632568359375,-4.634521484375,5.495361328125
0.117,-3.833740234375,-3.473388671875,5.775634765625
0.1175,-4.634521484375,-2.512451171875,5.895751953125
0.118,-5.074951171875,-1.831787109375,5.895751953125
0.1185,-5.195068359375,-1.111083984375,5.535400390625
0.119,-5.155029296875,-0.150146484375,4.854736328125
0.1195,-5.275146484375,1.131103515625,4.053955078125
0.12,-5.155029296875,2.372314453125,2.972900390625
0.1205,-4.994873046875,3.173095703125,2.052001953125
0.121,-4.754638671875,3.853759765625,1.371337890625
0.1215,-4.154052734375,4.294189453125,0.530517578125
0.122,-3.233154296875,4.734619140625,-0.790771484375
0.1225,-2.192138671875,5.094970703125,-2.112060546875
0.123,-1.311279296875,5.335205078125,-3.233154296875
0.1235,-0.630615234375,5.575439453125,-4.154052734375
0.124,0.330322265625,5.335205078125,-4.834716796875
0.1245,1.451416015625,4.614501953125,-5.315185546875
0.125,2.732666015625,3.613525390625,-5.795654296875
0.1255,3.853759765625,2.412353515625,-5.995849609375
0.126,4.494384765625,1.571533203125,-6.115966796875
0.1265,4.814697265625,0.890869140625,-5.995849609375
0.127,4.894775390625,0.090087890625,-5.515380859375
0.1275,4.854736328125,-1.071044921875,-4.754638671875
0.128,4.934814453125,-2.432373046875,-3.713623046875
0.1285,4.894775390625,-3.553466796875,-2.712646484375
0.129,4.614501953125,-4.394287109375,-1.911865234375
0.1295,4.174072265625,-4.874755859375,-1.111083984375
0.13,3.373291015625,-5.195068359375,0.010009765625
0.1305,2.412353515625,-5.595458984375,1.291259765625
0.131,1.291259765625,-5.835693359375,2.612548828125
0.1315,0.570556640625,-6.115966796875,3.693603515625
0.132,-0.310302734375,-6.196044921875,4.494384765625
0.1325,-1.271240234375,-5.715576171875,5.054931640625
0.133,-2.512451171875,-4.754638671875,5.455322265625
0.1335,-3.753662109375,-3.673583984375,5.815673828125
0.134,-4.634521484375,-2.552490234375,5.935791015625
0.1345,-5.155029296875,-1.791748046875,5.975830078125
0.135,-5.315185546875,-1.111083984375,5.655517578125
0.1355,-5.275146484375,-0.190185546875,4.974853515625
0.136,-5.275146484375,1.010986328125,4.134033203125
0.1365,-5.195068359375,2.412353515625,3.093017578125
0.137,-5.074951171875,3.333251953125,2.052001953125
0.1375,-4.834716796875,3.973876953125,1.291259765625
0.138,-4.234130859375,4.414306640625,0.490478515625
0.1385,-3.273193359375,4.734619140625,-0.750732421875
0.139,-2.272216796875,5.135009765625,-2.112060546875
0.1395,-1.231201171875,5.335205078125,-3.313232421875
0.14,-0.510498046875,5.615478515625,-4.314208984375
0.1405,0.370361328125,5.455322265625,-4.994873046875
0.141,1.451416015625,4.774658203125,-5.475341796875
0.1415,2.772705078125,3.693603515625,-5.915771484375
0.142,3.973876953125,2.412353515625,-6.156005859375
0.1425,4.734619140625,1.451416015625,-6.236083984375
0.143,5.054931640625,0.770751953125,-6.115966796875
0.1435,5.094970703125,-0.150146484375,-5.635498046875
0.144,5.054931640625,-1.271240234375,-4.754638671875
0.1445,5.054931640625,-2.512451171875,-3.673583984375
0.145,4.894775390625,-3.793701171875,-2.592529296875
0.1455,4.654541015625,-4.674560546875,-1.711669921875
0.146,4.294189453125,-5.155029296875,-0.950927734375
0.1465,3.493408203125,-5.435302734375,0.130126953125
0.147,2.372314453125,-5.755615234375,1.451416015625
0.1475,1.171142578125,-6.035888671875,2.892822265625
0.148,0.290283203125,-6.236083984375,3.973876953125
0.1485,-0.510498046875,-6.316162109375,4.814697265625
0.149,-1.471435546875,-5.835693359375,5.375244140625
0.1495,-2.672607421875,-4.834716796875,5.735595703125
0.15,-3.953857421875,-3.713623046875,6.095947265625
0.1505,-4.954833984375,-2.472412109375,6.216064453125
0.151,-5.515380859375,-1.591552734375,6.135986328125
0.1515,-5.635498046875,-0.830810546875,5.815673828125
0.152,-5.555419921875,0.130126953125,5.135009765625
0.1525,-5.435302734375,1.411376953125,4.134033203125
0.153,-5.395263671875,2.692626953125,2.892822265625
0.1535,-5.155029296875,3.773681640625,1.851806640625
0.154,-4.914794921875,4.494384765625,1.091064453125
0.1545,-4.234130859375,4.814697265625,0.210205078125
0.155,-3.233154296875,5.014892578125,-0.990966796875
0.1555,-2.112060546875,5.375244140625,-2.392333984375
0.156,-0.910888671875,5.535400390625,-3.753662109375
0.1565,-0.150146484375,5.735595703125,-4.714599609375
0.157,0.650634765625,5.655517578125,-5.435302734375
0.1575,1.731689453125,4.934814453125,-5.915771484375
0.158,3.093017578125,3.693603515625,-6.276123046875
0.1585,4.374267578125,2.412353515625,-6.516357421875
0.159,5.135009765625,1.291259765625,-6.476318359375
0.1595,5.535400390625,0.490478515625,-6.396240234375
0.16,5.535400390625,-0.510498046875,-5.835693359375
0.1605,5.415283203125,-1.471435546875,-4.874755859375
0.161,5.295166015625,-2.912841796875,-3.793701171875
0.1615,5.094970703125,-4.314208984375,-2.432373046875
0.162,4.814697265625,-5.155029296875,-1.431396484375
0.1625,4.454345703125,-5.755615234375,-0.630615234375
0.163,3.533447265625,-5.955810546875,0.410400390625
0.1635,2.252197265625,-6.115966796875,1.851806640625
0.164,0.970947265625,-6.436279296875,3.373291015625
0.1645,-0.270263671875,-6.436279296875,4.534423828125
0.165,-0.950927734375,-6.556396484375,5.375244140625
0.1655,-1.831787109375,-6.115966796875,5.935791015625
0.166,-3.072998046875,-5.074951171875,6.336181640625
0.1665,-4.474365234375,-3.713623046875,6.616455078125
0.167,-5.635498046875,-2.272216796875,6.696533203125
0.1675,-6.115966796875,-1.231201171875,6.496337890625
0.168,-6.276123046875,-0.470458984375,6.176025390625
0.1685,-6.115966796875,0.610595703125,5.455322265625
0.169,-5.835693359375,1.891845703125,4.053955078125
0.1695,-5.755615234375,3.213134765625,2.852783203125
0.17,-5.435302734375,4.494384765625,1.571533203125
0.1705,-4.994873046875,5.135009765625,0.650634765625
0.171,-4.314208984375,5.455322265625,-0.310302734375
0.1715,-3.233154296875,5.615478515625,-1.391357421875
0.172,-1.791748046875,5.735595703125,-2.992919921875
0.1725,-0.510498046875,5.895751953125,-4.474365234375
0.173,0.490478515625,5.895751953125,-5.315185546875
0.1735,1.171142578125,5.855712890625,-6.075927734375
0.174,2.252197265625,5.054931640625,-6.476318359375
0.1745,3.573486328125,3.733642578125,-6.756591796875
0.175,4.814697265625,2.412353515625,-6.996826171875
0.1755,5.735595703125,1.010986328125,-6.836669921875
0.176,6.095947265625,0.090087890625,-6.596435546875
0.1765,6.055908203125,-0.790771484375,-6.035888671875
0.177,5.775634765625,-1.911865234375,-5.155029296875
0.1775,5.495361328125,-3.273193359375,-3.713623046875
0.178,5.295166015625,-4.634521484375,-2.352294921875
0.1785,4.934814453125,-5.595458984375,-1.231201171875
0.179,4.494384765625,-6.156005859375,-0.390380859375
0.1795,3.573486328125,-6.356201171875,0.610595703125
0.18,2.332275390625,-6.436279296875,1.891845703125
0.1805,0.930908203125,-6.596435546875,3.453369140625
0.181,-0.510498046875,-6.556396484375,4.814697265625
0.1815,-1.231201171875,-6.636474609375,5.615478515625
0.182,-1.911865234375,-6.396240234375,6.176025390625
0.1825,-3.072998046875,-5.435302734375,6.536376953125
0.183,-4.434326171875,-3.953857421875,6.736572265625
0.1835,-5.635498046875,-2.592529296875,6.856689453125
0.184,-6.276123046875,-1.351318359375,6.656494140625
0.1845,-6.396240234375,-0.510498046875,6.416259765625
0.185,-6.316162109375,0.370361328125,5.695556640625
0.1855,-6.075927734375,1.531494140625,4.614501953125
0.186,-5.835693359375,2.852783203125,3.293212890625
0.1865,-5.515380859375,4.214111328125,1.931884765625
0.187,-5.155029296875,5.054931640625,0.890869140625
0.1875,-4.634521484375,5.495361328125,0.130126953125
0.188,-3.713623046875,5.655517578125,-0.950927734375
