wavelength,x,y,z
0.0,2.8377685546875,-19.544067382812,16.571166992188
0.0005,7.6824951171875,-20.825317382812,14.569213867188
0.001,9.6444091796875,-20.625122070312,11.366088867188
0.0015,13.087768554688,-20.344848632812,7.8026123046875
0.002,16.531127929688,-19.423950195312,3.6385498046875
0.0025,19.053588867188,-17.221801757812,-1.1661376953125
0.003,20.575073242188,-15.099731445312,-4.7696533203125
0.0035,21.375854492188,-12.537231445312,-8.0128173828125
0.004,21.616088867188,-9.7745361328125,-11.055786132812
0.0045,21.095581054688,-5.2501220703125,-15.059692382812
0.005,19.974487304688,-1.6466064453125,-17.502075195312
0.0055,18.012573242188,2.3973388671875,-19.544067382812
0.006,15.970581054688,5.8807373046875,-21.065551757812
0.0065,12.647338867188,10.244995117188,-20.985473632812
0.007,9.6444091796875,12.086791992188,-21.225708007812
0.0075,4.5994873046875,15.770385742188,-20.064575195312
0.008,-0.3253173828125,18.052612304688,-17.662231445312
0.0085,-3.8887939453125,19.453979492188,-15.780395507812
0.009,-7.2120361328125,20.454956054688,-13.658325195312
0.0095,-10.335083007812,20.414916992188,-10.655395507812
0.01,-14.178833007812,19.614135742188,-6.2110595703125
0.0105,-17.101684570312,18.493041992188,-2.2872314453125
0.011,-19.383911132812,16.290893554688,2.2371826171875
0.0115,-20.745239257812,14.208862304688,5.6004638671875
0.012,-21.145629882812,11.245971679688,10.244995117188
0.0125,-21.505981445312,8.5233154296875,12.006713867188
0.013,-20.865356445312,4.1190185546875,15.770385742188
0.0135,-19.183715820312,0.0350341796875,18.212768554688
0.014,-17.181762695312,-3.6085205078125,19.854370117188
0.0145,-15.259887695312,-6.8516845703125,21.215698242188
0.015,-11.896606445312,-9.9747314453125,21.095581054688
0.0155,-7.8526611328125,-13.498168945312,20.695190429688
0.016,-3.3682861328125,-16.541137695312,19.494018554688
0.0165,1.5965576171875,-18.743286132812,16.971557617188
0.017,4.9598388671875,-19.864379882812,15.049682617188
0.0175,8.1629638671875,-20.344848632812,12.487182617188
0.018,11.245971679688,-20.424926757812,9.6043701171875
0.0185,15.209838867188,-19.383911132812,4.7996826171875
0.019,17.772338867188,-17.702270507812,0.5955810546875
0.0195,19.734252929688,-15.620239257812,-3.4884033203125
0.02,20.855346679688,-13.458129882812,-6.6114501953125
0.0205,21.015502929688,-8.9737548828125,-9.9747314453125
0.021,21.015502929688,-6.9718017578125,-13.257934570312
0.0215,20.374877929688,-3.1680908203125,-16.421020507812
0.022,18.332885742188,2.5574951171875,-18.743286132812
0.0225,16.290893554688,4.5994873046875,-20.064575195312
0.023,14.008666992188,8.9637451171875,-21.025512695312
0.0235,10.845581054688,10.725463867188,-21.065551757812
0.024,5.8807373046875,14.569213867188,-20.024536132812
0.0245,1.7166748046875,17.091674804688,-18.663208007812
0.025,-2.8477783203125,19.053588867188,-16.380981445312
0.0255,-5.9708251953125,19.974487304688,-14.379028320312
0.026,-9.3341064453125,20.134643554688,-11.296020507812
0.0265,-12.657348632812,19.974487304688,-8.0528564453125
0.027,-16.140747070312,18.933471679688,-3.6485595703125
0.0275,-18.583129882812,16.851440429688,0.9959716796875
0.028,-20.184692382812,14.769409179688,4.4793701171875
0.0285,-21.105590820312,12.447143554688,7.7225341796875
0.029,-21.225708007812,9.3240966796875,10.925659179688
0.0295,-20.825317382812,5.2801513671875,14.569213867188
0.03,-19.944458007812,1.6365966796875,17.291870117188
0.0305,-17.822387695312,-2.6475830078125,19.494018554688
0.031,-15.740356445312,-5.8106689453125,20.655151367188
0.0315,-12.977661132812,-7.6925048828125,21.135620117188
0.032,-9.7745361328125,-12.176879882812,21.255737304688
0.0325,-4.5294189453125,-15.780395507812,19.854370117188
0.033,0.0750732421875,-17.982543945312,17.732299804688
0.0335,3.9188232421875,-19.624145507812,15.730346679688
0.034,7.0819091796875,-20.424926757812,13.568237304688
0.0345,10.405151367188,-20.304809570312,10.365112304688
0.035,13.928588867188,-19.864379882812,6.4813232421875
0.0355,17.011596679688,-18.583129882812,2.2371826171875
0.036,19.333862304688,-16.220825195312,-2.4073486328125
0.0365,20.575073242188,-14.178833007812,-5.6505126953125
0.037,21.175659179688,-11.496215820312,-7.6925048828125
0.0375,21.295776367188,-8.2930908203125,-12.216918945312
0.038,20.655151367188,-4.1290283203125,-15.740356445312
0.0385,19.173706054688,-0.2852783203125,-18.102661132812
0.039,17.211791992188,3.7987060546875,-20.184692382812
0.0395,14.889526367188,6.8817138671875,-21.025512695312
0.04,11.766479492188,10.044799804688,-21.185668945312
0.0405,7.8826904296875,13.568237304688,-21.025512695312
0.041,3.0379638671875,16.731323242188,-19.584106445312
0.0415,-1.8067626953125,18.773315429688,-17.101684570312
0.042,-3.8487548828125,20.054565429688,-15.259887695312
0.0425,-8.3731689453125,20.615112304688,-12.777465820312
0.043,-11.816528320312,20.414916992188,-9.2940673828125
0.0435,-15.420043945312,19.574096679688,-5.0098876953125
0.044,-18.182739257812,19.213745117188,-0.6456298828125
0.0445,-20.384887695312,15.650268554688,3.7987060546875
0.045,-21.225708007812,13.368041992188,6.9617919921875
0.0455,-21.746215820312,10.285034179688,10.405151367188
0.046,-21.586059570312,6.6414794921875,13.928588867188
0.0465,-20.825317382812,2.6375732421875,17.211791992188
0.047,-18.743286132812,-1.5665283203125,19.333862304688
0.0475,-16.821411132812,-5.1700439453125,21.015502929688
0.048,-14.298950195312,-8.2930908203125,21.736206054688
0.0485,-10.735473632812,-11.576293945312,21.576049804688
0.049,-6.2911376953125,-15.099731445312,20.815307617188
0.0495,-1.4464111328125,-17.982543945312,19.053588867188
0.05,3.1981201171875,-19.784301757812,16.571166992188
0.0505,6.3211669921875,-20.585083007812,14.529174804688
0.051,9.6444091796875,-20.945434570312,11.686401367188
0.0515,13.247924804688,-19.223754882812,8.9637451171875
0.052,16.571166992188,-19.343872070312,3.4783935546875
0.0525,19.013549804688,-17.341918945312,-1.0059814453125
0.053,20.895385742188,-15.139770507812,-4.9698486328125
0.0535,21.415893554688,-12.537231445312,-8.0928955078125
0.054,21.696166992188,-9.4141845703125,-11.496215820312
0.0545,21.255737304688,-5.4503173828125,-14.979614257812
0.055,20.214721679688,-1.4864501953125,-18.022583007812
0.0555,17.852416992188,2.7977294921875,-19.824340820312
0.056,15.850463867188,6.0008544921875,-21.025512695312
0.0565,13.087768554688,9.1239013671875,-21.666137695312
0.057,9.0838623046875,12.607299804688,-21.265747070312
0.0575,4.6795654296875,15.810424804688,-20.184692382812
0.058,-0.1651611328125,18.212768554688,-18.102661132812
0.0585,-4.3292236328125,19.934448242188,-15.900512695312
0.059,-7.2120361328125,20.334838867188,-13.538208007812
0.0595,-10.455200195312,20.615112304688,-10.895629882812
0.06,-14.298950195312,19.894409179688,-5.1300048828125
0.0605,-17.261840820312,18.493041992188,-2.1270751953125
0.061,-19.423950195312,16.330932617188,2.2371826171875
0.0615,-20.985473632812,14.208862304688,5.8006591796875
0.062,-21.385864257812,11.446166992188,9.0037841796875
0.0625,-21.546020507812,7.9627685546875,12.527221679688
0.063,-21.025512695312,4.1990966796875,15.770385742188
0.0635,-19.544067382812,0.1151123046875,18.412963867188
0.064,-17.301879882812,-4.0489501953125,20.174682617188
0.0645,-15.059692382812,-6.9317626953125,21.055541992188
0.065,-12.377075195312,-10.014770507812,21.576049804688
0.0655,-7.7325439453125,-13.818481445312,20.975463867188
0.066,-3.2882080078125,-16.621215820312,19.494018554688
0.0665,2.5574951171875,-18.583129882812,17.251831054688
0.067,5.0799560546875,-20.184692382812,15.289916992188
0.0675,8.0428466796875,-20.384887695312,12.647338867188
0.068,11.326049804688,-20.384887695312,9.5242919921875
0.0685,15.009643554688,-19.704223632812,5.3201904296875
0.069,17.812377929688,-17.902465820312,0.8358154296875
0.0695,19.814331054688,-15.700317382812,-3.3682861328125
0.07,20.855346679688,-13.538208007812,-6.5313720703125
0.0705,21.335815429688,-10.775512695312,-9.7745361328125
0.071,21.135620117188,-6.8116455078125,-13.538208007812
0.0715,20.454956054688,-3.2481689453125,-16.380981445312
0.072,18.733276367188,0.7957763671875,-18.743286132812
0.0725,16.731323242188,4.6395263671875,-20.585083007812
0.073,13.968627929688,7.6024169921875,-20.905395507812
0.0735,11.205932617188,10.645385742188,-21.305786132812
0.074,6.3612060546875,14.569213867188,-19.223754882812
0.0745,1.7567138671875,17.251831054688,-18.823364257812
0.075,-1.2862548828125,18.973510742188,-16.581176757812
0.0755,-5.9307861328125,20.254760742188,-14.699340820312
0.076,-9.1739501953125,20.454956054688,-11.816528320312
0.0765,-12.777465820312,20.054565429688,-7.9727783203125
0.077,-15.980590820312,19.253784179688,-4.1690673828125
0.0775,-18.623168945312,17.211791992188,0.5555419921875
0.078,-19.223754882812,15.089721679688,4.4793701171875
0.0785,-21.185668945312,12.567260742188,7.6424560546875
0.079,-20.505004882812,9.8045654296875,10.845581054688
0.0795,-21.345825195312,5.4002685546875,14.929565429688
0.08,-20.224731445312,1.5565185546875,17.612182617188
0.0805,-18.222778320312,-2.4473876953125,19.574096679688
0.081,-16.380981445312,-5.9708251953125,21.415893554688
0.0815,-13.217895507812,-9.0137939453125,21.455932617188
0.082,-9.7344970703125,-12.417114257812,21.455932617188
0.0825,-3.8487548828125,-15.860473632812,20.454956054688
0.083,1.2762451171875,-18.422973632812,18.212768554688
0.0835,3.9588623046875,-19.944458007812,15.970581054688
0.084,7.0819091796875,-20.665161132812,13.848510742188
0.0845,10.365112304688,-20.985473632812,11.005737304688
0.085,14.369018554688,-20.064575195312,6.2410888671875
0.0855,17.291870117188,-18.863403320312,2.3572998046875
0.086,19.574096679688,-16.741333007812,-2.1270751953125
0.0865,21.175659179688,-14.619262695312,-5.8507080078125
0.087,21.455932617188,-11.576293945312,-9.0538330078125
0.0875,23.057495117188,-8.6134033203125,-12.377075195312
0.088,21.335815429688,-4.3692626953125,-16.020629882812
0.0885,19.654174804688,-0.2052001953125,-18.623168945312
0.089,17.371948242188,3.6785888671875,-20.224731445312
0.0895,16.651245117188,6.9217529296875,-21.586059570312
0.09,12.166870117188,10.044799804688,-21.666137695312
0.0905,7.6024169921875,13.848510742188,-21.105590820312
0.091,3.4783935546875,17.932495117188,-19.904418945312
0.0915,-1.5264892578125,18.893432617188,-17.502075195312
0.092,-5.2100830078125,20.294799804688,-15.420043945312
0.0925,-8.3331298828125,20.454956054688,-12.617309570312
0.093,-11.456176757812,20.735229492188,-9.9747314453125
0.0935,-15.540161132812,19.694213867188,-5.0098876953125
0.094,-18.182739257812,17.892456054688,-0.6456298828125
0.0945,-20.064575195312,15.730346679688,3.3582763671875
0.095,-21.425903320312,13.608276367188,6.8416748046875
0.0955,-21.546020507812,10.485229492188,10.044799804688
0.096,-21.505981445312,6.8016357421875,13.608276367188
0.0965,-20.785278320312,3.1580810546875,17.932495117188
0.097,-18.943481445312,-1.3262939453125,19.013549804688
0.0975,-16.741333007812,-4.8497314453125,20.615112304688
0.098,-14.379028320312,-7.8526611328125,21.335815429688
0.0985,-10.255004882812,-10.855590820312,21.616088867188
0.099,-6.2110595703125,-14.899536132812,21.776245117188
0.0995,-1.9669189453125,-17.301879882812,18.853393554688
0.1,2.4373779296875,-19.103637695312,17.932495117188
0.1005,5.9207763671875,-20.384887695312,14.689331054688
0.101,9.0838623046875,-20.264770507812,12.807495117188
0.1015,12.327026367188,-20.184692382812,8.3231201171875
0.102,15.930541992188,-17.942504882812,3.9989013671875
0.1025,18.453002929688,-17.061645507812,-0.6456298828125
0.103,19.974487304688,-15.019653320312,-4.1690673828125
0.1035,20.855346679688,-12.657348632812,-7.4522705078125
0.104,21.135620117188,-9.9747314453125,-10.455200195312
0.1045,20.735229492188,-5.6505126953125,-14.298950195312
0.105,19.694213867188,-2.2872314453125,-16.901489257812
0.1055,17.852416992188,1.9168701171875,-18.943481445312
0.106,15.890502929688,5.3602294921875,-19.223754882812
0.1065,14.088745117188,8.3231201171875,-20.585083007812
0.107,10.124877929688,11.366088867188,-20.985473632812
0.1075,4.9998779296875,15.089721679688,-19.864379882812
0.108,0.4354248046875,17.331909179688,-17.742309570312
0.1085,-3.2882080078125,18.893432617188,-15.780395507812
0.109,-6.5313720703125,19.974487304688,-13.858520507812
0.1095,-9.6544189453125,19.934448242188,-10.855590820312
0.11,-13.418090820312,19.333862304688,-6.7315673828125
0.1105,-16.340942382812,18.372924804688,-2.8878173828125
0.111,-18.703247070312,16.210815429688,1.6365966796875
0.1115,-20.144653320312,14.208862304688,4.9598388671875
0.112,-20.705200195312,11.406127929688,8.2430419921875
0.1125,-21.025512695312,8.8035888671875,11.245971679688
0.113,-20.585083007812,4.3992919921875,15.089721679688
0.1135,-19.103637695312,0.5955810546875,17.532104492188
0.114,-17.181762695312,-3.0880126953125,19.253784179688
0.1145,-15.420043945312,-6.2911376953125,20.775268554688
0.115,-12.056762695312,-9.3341064453125,20.655151367188
0.1155,-8.4132080078125,-12.737426757812,21.776245117188
0.116,-3.9288330078125,-15.900512695312,19.373901367188
0.1165,0.9559326171875,-18.062622070312,16.931518554688
0.117,4.3192138671875,-19.263793945312,15.089721679688
0.1175,7.4822998046875,-19.944458007812,12.767456054688
0.118,10.525268554688,-20.024536132812,9.9246826171875
0.1185,14.529174804688,-19.103637695312,5.2401123046875
0.119,17.131713867188,-17.662231445312,2.5574951171875
0.1195,19.133666992188,-15.660278320312,-2.7677001953125
0.12,20.374877929688,-13.618286132812,-6.0108642578125
0.1205,20.575073242188,-10.575317382812,-9.2540283203125
0.121,20.615112304688,-7.5323486328125,-12.537231445312
0.1215,20.134643554688,-3.6085205078125,-15.820434570312
0.122,18.252807617188,0.6756591796875,-18.022583007812
0.1225,16.250854492188,5.1199951171875,-19.664184570312
0.123,14.208862304688,7.0819091796875,-20.585083007812
0.1235,11.125854492188,10.044799804688,-20.625122070312
0.124,6.4412841796875,13.768432617188,-19.824340820312
0.1245,2.3572998046875,16.370971679688,-18.583129882812
0.125,-2.1270751953125,18.332885742188,-16.300903320312
0.1255,-5.2901611328125,19.373901367188,-14.419067382812
0.126,-8.5733642578125,19.654174804688,-11.576293945312
0.1265,-11.736450195312,19.694213867188,-8.4932861328125
0.127,-14.098754882812,18.653198242188,-4.1290283203125
0.1275,-17.822387695312,17.932495117188,0.3153076171875
0.128,-19.504028320312,14.729370117188,5.1199951171875
0.1285,-19.223754882812,12.487182617188,7.0418701171875
0.129,-20.705200195312,9.5242919921875,10.164916992188
0.1295,-20.424926757812,5.7205810546875,13.728393554688
0.13,-19.704223632812,2.1971435546875,16.491088867188
0.1305,-17.702270507812,-2.1270751953125,18.693237304688
0.131,-15.700317382812,-5.1700439453125,19.894409179688
0.1315,-13.177856445312,-8.2130126953125,20.535034179688
0.132,-10.134887695312,-11.255981445312,20.695190429688
0.1325,-5.0499267578125,-14.899536132812,19.453979492188
0.133,-0.6456298828125,-17.141723632812,17.572143554688
0.1335,3.1981201171875,-18.863403320312,15.610229492188
0.134,7.6824951171875,-19.704223632812,13.528198242188
0.1345,9.5242919921875,-19.864379882812,10.565307617188
0.135,12.967651367188,-19.383911132812,6.9617919921875
0.1355,16.130737304688,-18.262817382812,2.7977294921875
0.136,18.453002929688,-16.100708007812,-1.6866455078125
0.1365,19.694213867188,-14.218872070312,-4.8497314453125
0.137,20.454956054688,-11.656372070312,-8.0928955078125
0.1375,20.615112304688,-8.5733642578125,-11.255981445312
0.138,20.094604492188,-4.6495361328125,-14.779418945312
0.1385,18.853393554688,-0.9259033203125,-17.141723632812
0.139,16.931518554688,2.9979248046875,-19.143676757812
0.1395,14.769409179688,6.0008544921875,-20.104614257812
0.14,11.886596679688,9.0438232421875,-20.384887695312
0.1405,8.3231201171875,12.407104492188,-20.304809570312
0.141,3.6785888671875,15.610229492188,-18.983520507812
0.1415,-1.0059814453125,17.612182617188,-16.701293945312
0.142,-4.1690673828125,19.053588867188,-14.979614257812
0.1425,-7.2921142578125,19.694213867188,-12.777465820312
0.143,-10.615356445312,19.574096679688,-9.6143798828125
0.1435,-14.178833007812,18.933471679688,-5.5303955078125
0.144,-16.941528320312,17.492065429688,-1.4063720703125
0.1445,-19.183715820312,16.651245117188,2.8778076171875
0.145,-20.224731445312,13.328002929688,5.8807373046875
0.1455,-20.745239257812,10.525268554688,9.2440185546875
0.146,-20.865356445312,7.1619873046875,12.687377929688
0.1465,-20.144653320312,3.3182373046875,15.850463867188
0.147,-18.342895507812,-0.7257080078125,18.052612304688
0.1475,-16.581176757812,-4.2091064453125,19.854370117188
0.148,-14.298950195312,-7.2120361328125,20.735229492188
0.1485,-11.055786132812,-10.375122070312,20.735229492188
0.149,-6.8516845703125,-13.818481445312,20.174682617188
0.1495,-2.2471923828125,-16.741333007812,18.613159179688
0.15,2.4774169921875,-18.583129882812,16.210815429688
0.1505,5.4403076171875,-19.624145507812,14.369018554688
0.151,8.6434326171875,-20.104614257812,11.806518554688
0.1515,12.166870117188,-19.824340820312,8.1629638671875
0.152,15.410034179688,-18.943481445312,4.0789794921875
0.1525,19.213745117188,-17.061645507812,-0.2852783203125
0.153,19.974487304688,-15.059692382812,-4.2491455078125
0.1535,20.615112304688,-12.617309570312,-7.2520751953125
0.154,21.055541992188,-9.6544189453125,-10.735473632812
0.1545,20.815307617188,-5.7706298828125,-12.817504882812
0.155,19.894409179688,-2.0469970703125,-17.101684570312
0.1555,17.692260742188,2.1170654296875,-19.103637695312
0.156,15.850463867188,5.4002685546875,-20.464965820312
0.1565,13.207885742188,8.5233154296875,-21.145629882812
0.157,9.5242919921875,11.926635742188,-20.905395507812
0.1575,5.0799560546875,15.169799804688,-19.984497070312
0.158,0.4354248046875,17.772338867188,-17.862426757812
0.1585,-3.9288330078125,19.494018554688,-15.900512695312
0.159,-6.8116455078125,20.014526367188,-13.698364257812
0.1595,-10.094848632812,20.414916992188,-10.935668945312
0.16,-13.938598632812,19.774291992188,-6.6114501953125
0.1605,-16.981567382812,18.493041992188,-2.4473876953125
0.161,-19.263793945312,16.330932617188,1.9569091796875
0.1615,-20.985473632812,14.369018554688,5.6405029296875
0.162,-21.385864257812,11.606323242188,8.7635498046875
0.1625,-21.666137695312,8.2430419921875,12.407104492188
0.163,-21.025512695312,4.3192138671875,15.690307617188
0.1635,-19.704223632812,0.2752685546875,18.412963867188
0.164,-17.421997070312,-2.5675048828125,20.334838867188
0.1645,-15.259887695312,-6.8516845703125,21.175659179688
0.165,-12.497192382812,-10.014770507812,21.696166992188
0.1655,-7.9327392578125,-13.818481445312,21.095581054688
0.166,-3.5284423828125,-16.701293945312,19.694213867188
0.1665,1.2362060546875,-18.743286132812,17.371948242188
0.167,5.0799560546875,-20.344848632812,16.651245117188
0.1675,8.0828857421875,-19.223754882812,12.687377929688
0.168,11.366088867188,-20.585083007812,9.6444091796875
0.1685,15.089721679688,-19.824340820312,5.2801513671875
0.169,19.213745117188,-18.102661132812,0.8758544921875
0.1695,19.894409179688,-15.740356445312,-3.3282470703125
0.17,20.975463867188,-13.818481445312,-6.6114501953125
0.1705,21.415893554688,-10.775512695312,-9.8145751953125
0.171,21.255737304688,-6.9317626953125,-13.498168945312
0.1715,20.454956054688,-3.2882080078125,-16.380981445312
0.172,18.693237304688,0.8358154296875,-18.623168945312
0.1725,16.611206054688,4.6395263671875,-20.464965820312
0.173,13.928588867188,7.5223388671875,-20.785278320312
0.1735,11.286010742188,10.405151367188,-21.185668945312
0.174,6.4412841796875,14.288940429688,-20.464965820312
0.1745,2.0770263671875,16.931518554688,-18.783325195312
0.175,-2.2872314453125,18.613159179688,-16.461059570312
0.1755,-5.6905517578125,19.974487304688,-14.659301757812
0.176,-8.8135986328125,20.054565429688,-11.816528320312
0.1765,-12.256958007812,19.774291992188,-8.2930908203125
0.177,-15.500122070312,19.013549804688,-4.3292236328125
0.1775,-18.062622070312,17.091674804688,0.2752685546875
0.178,-19.944458007812,14.889526367188,4.0789794921875
