wavelength,x,y,z
0.0,-3.153076171875,-1.751708984375,4.294189453125
0.0005,-2.152099609375,-2.952880859375,4.494384765625
0.001,-1.591552734375,-3.353271484375,4.254150390625
0.0015,-0.790771484375,-4.073974609375,4.214111328125
0.002,0.090087890625,-4.274169921875,3.573486328125
0.0025,0.810791015625,-4.634521484375,3.253173828125
0.003,1.931884765625,-4.834716796875,2.292236328125
0.0035,2.852783203125,-5.034912109375,1.611572265625
0.004,3.213134765625,-4.674560546875,0.890869140625
0.0045,3.813720703125,-4.634521484375,0.290283203125
0.005,3.893798828125,-3.873779296875,-0.590576171875
0.0055,4.134033203125,-3.553466796875,-1.151123046875
0.006,4.334228515625,-2.592529296875,-2.272216796875
0.0065,4.294189453125,-1.991943359375,-2.752685546875
0.007,4.053955078125,-1.111083984375,-3.433349609375
0.0075,3.573486328125,-0.270263671875,-3.793701171875
0.008,2.972900390625,0.610595703125,-3.993896484375
0.0085,2.372314453125,1.411376953125,-4.194091796875
0.009,1.611572265625,2.412353515625,-4.514404296875
0.0095,0.930908203125,2.812744140625,-4.033935546875
0.01,0.290283203125,3.493408203125,-4.114013671875
0.0105,-0.630615234375,3.573486328125,-3.313232421875
0.011,-1.271240234375,3.973876953125,-3.032958984375
0.0115,-2.472412109375,4.134033203125,-1.991943359375
0.012,-3.153076171875,4.214111328125,-1.431396484375
0.0125,-3.553466796875,3.853759765625,-0.670654296875
0.013,-3.953857421875,3.773681640625,-0.190185546875
0.0135,-4.033935546875,3.052978515625,0.610595703125
0.014,-4.234130859375,2.652587890625,1.171142578125
0.0145,-4.514404296875,1.891845703125,2.172119140625
0.015,-4.314208984375,1.291259765625,2.532470703125
0.0155,-4.274169921875,0.570556640625,3.253173828125
0.016,-3.673583984375,-0.310302734375,3.453369140625
0.0165,-3.353271484375,-1.031005859375,3.813720703125
0.017,-2.592529296875,-1.951904296875,3.853759765625
0.0175,-2.072021484375,-2.672607421875,4.134033203125
0.018,-1.311279296875,-3.072998046875,3.813720703125
0.0185,-0.790771484375,-3.713623046875,3.893798828125
0.019,0.130126953125,-3.873779296875,3.173095703125
0.0195,0.810791015625,-4.314208984375,2.892822265625
0.02,1.931884765625,-4.514404296875,1.971923828125
0.0205,2.492431640625,-4.554443359375,1.571533203125
0.021,3.052978515625,-4.394287109375,0.810791015625
0.0215,3.293212890625,-4.154052734375,0.290283203125
0.022,3.573486328125,-3.673583984375,-0.510498046875
0.0225,3.773681640625,-3.153076171875,-1.191162109375
0.023,4.134033203125,-2.512451171875,-2.112060546875
0.0235,3.773681640625,-1.751708984375,-2.512451171875
0.024,3.853759765625,-1.151123046875,-3.233154296875
0.0245,3.052978515625,-0.150146484375,-3.393310546875
0.025,2.852783203125,0.530517578125,-3.833740234375
0.0255,2.011962890625,1.571533203125,-3.993896484375
0.026,1.571533203125,2.252197265625,-4.154052734375
0.0265,0.770751953125,2.692626953125,-3.833740234375
0.027,0.250244140625,3.173095703125,-3.753662109375
0.0275,-0.670654296875,3.373291015625,-3.072998046875
0.028,-1.471435546875,3.773681640625,-2.632568359375
0.0285,-2.592529296875,4.013916015625,-1.791748046875
0.029,-2.952880859375,3.813720703125,-1.231201171875
0.0295,-3.513427734375,3.773681640625,-0.630615234375
0.03,-3.673583984375,3.253173828125,0.010009765625
0.0305,-3.913818359375,2.892822265625,0.650634765625
0.031,-4.073974609375,2.212158203125,1.451416015625
0.0315,-4.354248046875,1.691650390625,2.172119140625
0.032,-3.913818359375,0.850830078125,2.572509765625
0.0325,-3.993896484375,0.290283203125,3.133056640625
0.033,-3.193115234375,-0.630615234375,3.253173828125
0.0335,-3.032958984375,-1.231201171875,3.693603515625
0.034,-2.192138671875,-2.272216796875,3.853759765625
0.0345,-1.751708984375,-2.632568359375,3.853759765625
0.035,-1.031005859375,-3.233154296875,3.653564453125
0.0355,-0.430419921875,-3.553466796875,3.413330078125
0.036,0.370361328125,-3.873779296875,2.852783203125
0.0365,1.251220703125,-4.194091796875,2.372314453125
0.037,2.172119140625,-4.514404296875,1.731689453125
0.0375,2.492431640625,-4.154052734375,1.131103515625
0.038,3.052978515625,-4.274169921875,0.650634765625
0.0385,3.173095703125,-3.633544921875,-0.070068359375
0.039,3.533447265625,-3.433349609375,-0.670654296875
0.0395,3.773681640625,-2.632568359375,-1.631591796875
0.04,3.893798828125,-2.232177734375,-2.232177734375
0.0405,3.533447265625,-1.311279296875,-2.752685546875
0.041,3.413330078125,-0.710693359375,-3.233154296875
0.0415,2.732666015625,0.290283203125,-3.433349609375
0.042,2.412353515625,0.970947265625,-3.833740234375
0.0425,1.731689453125,1.931884765625,-4.033935546875
0.043,1.131103515625,2.372314453125,-3.833740234375
0.0435,0.490478515625,2.932861328125,-3.833740234375
0.044,-0.310302734375,3.213134765625,-3.233154296875
0.0445,-1.111083984375,3.533447265625,-2.832763671875
0.045,-2.072021484375,3.813720703125,-2.112060546875
0.0455,-2.872802734375,3.973876953125,-1.551513671875
0.046,-3.193115234375,3.533447265625,-0.790771484375
0.0465,-3.673583984375,3.573486328125,-0.390380859375
0.047,-3.713623046875,2.852783203125,0.450439453125
0.0475,-3.993896484375,2.572509765625,1.010986328125
0.048,-4.234130859375,1.771728515625,1.971923828125
0.0485,-4.154052734375,1.171142578125,2.412353515625
0.049,-3.873779296875,0.330322265625,2.932861328125
0.0495,-3.553466796875,-0.270263671875,3.253173828125
0.05,-2.952880859375,-1.071044921875,3.493408203125
0.0505,-2.512451171875,-1.831787109375,3.733642578125
0.051,-1.871826171875,-2.632568359375,3.933837890625
0.0515,-1.151123046875,-2.952880859375,3.533447265625
0.052,-0.670654296875,-3.553466796875,3.613525390625
0.0525,0.250244140625,-3.713623046875,2.892822265625
0.053,0.970947265625,-4.114013671875,2.572509765625
0.0535,1.931884765625,-4.314208984375,1.771728515625
0.054,2.532470703125,-4.394287109375,1.291259765625
0.0545,2.852783203125,-4.073974609375,0.610595703125
0.055,3.213134765625,-3.993896484375,0.250244140625
0.0555,3.413330078125,-3.273193359375,-0.630615234375
0.056,3.693603515625,-2.952880859375,-1.271240234375
0.0565,3.973876953125,-2.272216796875,-2.232177734375
0.057,3.613525390625,-1.551513671875,-2.632568359375
0.0575,3.493408203125,-0.790771484375,-3.193115234375
0.058,2.892822265625,0.090087890625,-3.393310546875
0.0585,2.492431640625,0.850830078125,-3.753662109375
0.059,1.891845703125,1.731689453125,-3.953857421875
0.0595,1.291259765625,2.492431640625,-4.073974609375
0.06,0.490478515625,2.812744140625,-3.633544921875
0.0605,0.010009765625,3.333251953125,-3.673583984375
0.061,-1.111083984375,3.493408203125,-2.752685546875
0.0615,-1.831787109375,3.853759765625,-2.392333984375
0.062,-2.872802734375,4.013916015625,-1.551513671875
0.0625,-3.273193359375,3.853759765625,-0.950927734375
0.063,-3.673583984375,3.573486328125,-0.310302734375
0.0635,-3.913818359375,3.213134765625,0.290283203125
0.064,-4.114013671875,2.532470703125,1.131103515625
0.0645,-4.274169921875,1.931884765625,1.771728515625
0.065,-4.514404296875,1.291259765625,2.692626953125
0.0655,-3.913818359375,0.450439453125,3.052978515625
0.066,-3.873779296875,-0.190185546875,3.573486328125
0.0665,-3.072998046875,-1.151123046875,3.653564453125
0.067,-2.632568359375,-1.911865234375,3.973876953125
0.0675,-1.831787109375,-2.752685546875,3.973876953125
0.068,-1.191162109375,-3.353271484375,3.973876953125
0.0685,-0.510498046875,-3.633544921875,3.533447265625
0.069,0.170166015625,-4.114013671875,3.333251953125
0.0695,1.291259765625,-4.234130859375,2.372314453125
0.07,1.971923828125,-4.474365234375,1.931884765625
0.0705,2.852783203125,-4.634521484375,1.171142578125
0.071,3.173095703125,-4.234130859375,0.530517578125
0.0715,3.533447265625,-4.033935546875,0.010009765625
0.072,3.693603515625,-3.513427734375,-0.790771484375
0.0725,3.893798828125,-2.912841796875,-1.591552734375
0.073,3.933837890625,-2.232177734375,-2.312255859375
0.0735,4.093994140625,-1.551513671875,-3.072998046875
0.074,3.373291015625,-0.590576171875,-3.273193359375
0.0745,3.333251953125,0.050048828125,-3.793701171875
0.075,2.332275390625,1.171142578125,-3.873779296875
0.0755,1.971923828125,1.851806640625,-4.194091796875
0.076,1.131103515625,2.692626953125,-4.154052734375
0.0765,0.490478515625,3.213134765625,-3.993896484375
0.077,-0.270263671875,3.493408203125,-3.553466796875
0.0775,-1.111083984375,3.893798828125,-3.193115234375
0.078,-2.232177734375,4.093994140625,-2.232177734375
0.0785,-2.872802734375,4.134033203125,-1.671630859375
0.079,-3.713623046875,4.254150390625,-0.950927734375
0.0795,-3.913818359375,3.693603515625,-0.150146484375
0.08,-4.314208984375,3.493408203125,0.370361328125
0.0805,-4.394287109375,2.612548828125,1.331298828125
0.081,-4.634521484375,2.052001953125,2.052001953125
0.0815,-4.514404296875,1.251220703125,2.812744140625
0.082,-4.554443359375,0.610595703125,3.493408203125
0.0825,-3.793701171875,-0.430419921875,3.693603515625
0.083,-3.633544921875,-1.031005859375,4.134033203125
0.0835,-2.472412109375,-2.272216796875,4.174072265625
0.084,-1.991943359375,-2.872802734375,4.334228515625
0.0845,-1.151123046875,-3.713623046875,4.214111328125
0.085,-0.390380859375,-4.154052734375,3.893798828125
0.0855,0.330322265625,-4.394287109375,3.453369140625
0.086,1.331298828125,-4.714599609375,2.812744140625
0.0865,2.452392578125,-4.874755859375,1.891845703125
0.087,3.052978515625,-4.754638671875,1.171142578125
0.0875,3.773681640625,-4.834716796875,0.490478515625
0.088,3.853759765625,-4.154052734375,-0.310302734375
0.0885,4.134033203125,-3.913818359375,-0.830810546875
0.089,4.254150390625,-2.872802734375,-1.991943359375
0.0895,4.414306640625,-2.272216796875,-2.592529296875
0.09,4.134033203125,-1.351318359375,-3.273193359375
0.0905,4.053955078125,-0.590576171875,-3.873779296875
0.091,3.173095703125,0.450439453125,-3.993896484375
0.0915,2.852783203125,1.131103515625,-4.354248046875
0.092,1.771728515625,2.412353515625,-4.474365234375
0.0925,1.211181640625,2.892822265625,-4.434326171875
0.093,0.330322265625,3.653564453125,-4.314208984375
0.0935,-0.510498046875,3.933837890625,-3.793701171875
0.094,-1.191162109375,4.214111328125,-3.353271484375
0.0945,-2.312255859375,4.414306640625,-2.432373046875
0.095,-3.393310546875,4.614501953125,-1.591552734375
0.0955,-3.873779296875,4.294189453125,-0.790771484375
0.096,-4.554443359375,4.254150390625,-0.150146484375
0.0965,-4.514404296875,3.413330078125,0.690673828125
0.097,-4.834716796875,3.133056640625,1.251220703125
0.0975,-4.914794921875,2.011962890625,2.452392578125
0.098,-4.914794921875,1.411376953125,3.052978515625
0.0985,-4.634521484375,0.450439453125,3.693603515625
0.099,-4.354248046875,-0.350341796875,4.174072265625
0.0995,-3.553466796875,-1.311279296875,4.294189453125
0.1,-3.072998046875,-2.072021484375,4.534423828125
0.1005,-1.951904296875,-3.353271484375,4.654541015625
0.101,-1.271240234375,-3.793701171875,4.414306640625
0.1015,-0.430419921875,-4.514404296875,4.334228515625
0.102,0.450439453125,-4.714599609375,3.653564453125
0.1025,1.211181640625,-4.994873046875,3.173095703125
0.103,2.452392578125,-5.155029296875,2.172119140625
0.1035,3.453369140625,-5.315185546875,1.291259765625
0.104,3.853759765625,-4.914794921875,0.410400390625
0.1045,4.494384765625,-4.834716796875,-0.230224609375
0.105,4.454345703125,-3.993896484375,-1.071044921875
0.1055,4.614501953125,-3.473388671875,-1.671630859375
0.106,4.814697265625,-2.312255859375,-2.952880859375
0.1065,4.574462890625,-1.591552734375,-3.513427734375
0.107,4.254150390625,-0.590576171875,-4.154052734375
0.1075,3.773681640625,0.330322265625,-4.474365234375
0.108,2.932861328125,1.251220703125,-4.514404296875
0.1085,2.252197265625,2.132080078125,-4.754638671875
0.109,1.251220703125,3.373291015625,-4.914794921875
0.1095,0.370361328125,3.693603515625,-4.394287109375
0.11,-0.350341796875,4.334228515625,-4.314208984375
0.1105,-1.271240234375,4.414306640625,-3.473388671875
0.111,-2.031982421875,4.614501953125,-2.952880859375
0.1115,-3.353271484375,4.814697265625,-1.791748046875
0.112,-4.234130859375,4.774658203125,-0.990966796875
0.1125,-4.554443359375,4.134033203125,0.010009765625
0.113,-4.994873046875,4.013916015625,0.530517578125
0.1135,-4.954833984375,3.133056640625,1.411376953125
0.114,-5.034912109375,2.612548828125,2.052001953125
0.1145,-5.235107421875,1.531494140625,3.253173828125
0.115,-4.834716796875,0.690673828125,3.653564453125
0.1155,-4.554443359375,-0.270263671875,4.294189453125
0.116,-3.953857421875,-1.111083984375,4.494384765625
0.1165,-3.193115234375,-1.951904296875,4.574462890625
0.117,-2.432373046875,-2.872802734375,4.654541015625
0.1175,-1.511474609375,-3.913818359375,4.814697265625
0.118,-0.630615234375,-4.234130859375,4.174072265625
0.1185,0.050048828125,-4.834716796875,4.174072265625
0.119,1.010986328125,-4.874755859375,3.253173828125
0.1195,1.771728515625,-5.155029296875,2.732666015625
0.12,3.093017578125,-5.395263671875,1.611572265625
0.1205,3.773681640625,-5.275146484375,0.890869140625
0.121,4.134033203125,-4.794677734375,0.010009765625
0.1215,4.534423828125,-4.514404296875,-0.590576171875
0.122,4.534423828125,-3.593505859375,-1.471435546875
0.1225,4.614501953125,-2.992919921875,-2.152099609375
0.123,4.894775390625,-1.991943359375,-3.353271484375
0.1235,4.334228515625,-1.111083984375,-3.713623046875
0.124,4.134033203125,-0.190185546875,-4.354248046875
0.1245,3.333251953125,0.770751953125,-4.514404296875
0.125,2.692626953125,1.611572265625,-4.634521484375
0.1255,1.771728515625,2.612548828125,-4.754638671875
0.126,0.930908203125,3.573486328125,-4.834716796875
0.1265,0.010009765625,3.853759765625,-4.114013671875
0.127,-0.630615234375,4.414306640625,-4.114013671875
0.1275,-1.751708984375,4.414306640625,-3.032958984375
0.128,-2.432373046875,4.614501953125,-2.512451171875
0.1285,-3.753662109375,4.734619140625,-1.391357421875
0.129,-4.234130859375,4.414306640625,-0.630615234375
0.1295,-4.594482421875,4.013916015625,0.210205078125
0.13,-4.834716796875,3.613525390625,0.810791015625
0.1305,-4.834716796875,2.732666015625,1.651611328125
0.131,-4.874755859375,2.092041015625,2.332275390625
0.1315,-5.114990234375,1.211181640625,3.453369140625
0.132,-4.434326171875,0.250244140625,3.693603515625
0.1325,-4.354248046875,-0.510498046875,4.214111328125
0.133,-3.353271484375,-1.431396484375,4.214111328125
0.1335,-2.912841796875,-2.152099609375,4.454345703125
0.134,-1.951904296875,-3.153076171875,4.494384765625
0.1345,-1.231201171875,-3.873779296875,4.454345703125
0.135,-0.350341796875,-4.154052734375,3.853759765625
0.1355,0.210205078125,-4.634521484375,3.813720703125
0.136,1.291259765625,-4.674560546875,2.732666015625
0.1365,1.971923828125,-4.954833984375,2.332275390625
0.137,3.173095703125,-5.114990234375,1.331298828125
0.1375,3.493408203125,-4.674560546875,0.610595703125
0.138,3.973876953125,-4.514404296875,0.010009765625
0.1385,4.093994140625,-3.913818359375,-0.670654296875
0.139,4.254150390625,-3.353271484375,-1.471435546875
0.1395,4.334228515625,-2.552490234375,-2.272216796875
0.14,4.534423828125,-1.871826171875,-3.193115234375
0.1405,3.853759765625,-0.830810546875,-3.513427734375
0.141,3.813720703125,-0.150146484375,-4.114013671875
0.1415,2.812744140625,0.930908203125,-4.114013671875
0.142,2.452392578125,1.611572265625,-4.434326171875
0.1425,1.531494140625,2.652587890625,-4.514404296875
0.143,0.770751953125,3.253173828125,-4.354248046875
0.1435,-0.030029296875,3.693603515625,-3.833740234375
0.144,-0.710693359375,3.973876953125,-3.633544921875
0.1445,-1.791748046875,4.134033203125,-2.672607421875
0.145,-2.552490234375,4.334228515625,-2.112060546875
0.1455,-3.593505859375,4.494384765625,-1.271240234375
0.146,-3.833740234375,3.933837890625,-0.470458984375
0.1465,-4.314208984375,3.853759765625,0.090087890625
0.147,-4.354248046875,3.052978515625,0.930908203125
0.1475,-4.554443359375,2.532470703125,1.611572265625
0.148,-4.554443359375,1.691650390625,2.412353515625
0.1485,-4.634521484375,1.051025390625,3.133056640625
0.149,-3.953857421875,0.050048828125,3.413330078125
0.1495,-3.873779296875,-0.510498046875,3.853759765625
0.15,-2.912841796875,-1.551513671875,3.853759765625
0.1505,-2.592529296875,-2.192138671875,4.134033203125
0.151,-1.671630859375,-3.113037109375,4.174072265625
0.1515,-0.990966796875,-3.553466796875,3.813720703125
0.152,-0.350341796875,-3.993896484375,3.653564453125
0.1525,0.450439453125,-4.234130859375,3.133056640625
0.153,1.331298828125,-4.434326171875,2.452392578125
0.1535,2.092041015625,-4.554443359375,1.891845703125
0.154,2.892822265625,-4.674560546875,1.251220703125
0.1545,3.133056640625,-4.154052734375,0.490478515625
0.155,3.573486328125,-4.194091796875,0.090087890625
0.1555,3.613525390625,-3.353271484375,-0.790771484375
0.156,3.893798828125,-3.032958984375,-1.391357421875
0.1565,3.973876953125,-2.232177734375,-2.272216796875
0.157,3.973876953125,-1.631591796875,-2.832763671875
0.1575,3.493408203125,-0.670654296875,-3.233154296875
0.158,3.253173828125,0.010009765625,-3.633544921875
0.1585,2.492431640625,0.970947265625,-3.833740234375
0.159,2.132080078125,1.611572265625,-4.154052734375
0.1595,1.371337890625,2.492431640625,-4.234130859375
0.16,0.610595703125,2.852783203125,-3.833740234375
0.1605,0.050048828125,3.373291015625,-3.793701171875
0.161,-0.990966796875,3.653564453125,-3.032958984375
0.1615,-1.791748046875,3.973876953125,-2.552490234375
0.162,-2.632568359375,4.013916015625,-1.751708984375
0.1625,-3.273193359375,4.134033203125,-1.191162109375
0.163,-3.553466796875,3.573486328125,-0.390380859375
0.1635,-3.993896484375,3.533447265625,0.050048828125
0.164,-4.033935546875,2.612548828125,1.010986328125
0.1645,-4.314208984375,2.292236328125,1.611572265625
0.165,-4.434326171875,1.451416015625,2.492431640625
0.1655,-4.154052734375,0.770751953125,2.892822265625
0.166,-3.833740234375,-0.070068359375,3.333251953125
0.1665,-3.353271484375,-0.790771484375,3.573486328125
0.167,-2.672607421875,-1.711669921875,3.813720703125
0.1675,-2.152099609375,-2.392333984375,3.893798828125
0.168,-1.471435546875,-3.153076171875,3.973876953125
0.1685,-0.750732421875,-3.393310546875,3.493408203125
0.169,-0.190185546875,-3.873779296875,3.493408203125
0.1695,0.890869140625,-3.993896484375,2.532470703125
0.17,1.571533203125,-4.354248046875,2.212158203125
0.1705,2.372314453125,-4.354248046875,1.411376953125
0.171,2.812744140625,-4.314208984375,0.970947265625
0.1715,3.052978515625,-3.913818359375,0.290283203125
0.172,3.333251953125,-3.713623046875,-0.190185546875
0.1725,3.573486328125,-2.992919921875,-1.111083984375
0.173,3.733642578125,-2.552490234375,-1.671630859375
0.1735,3.893798828125,-1.911865234375,-2.512451171875
0.174,3.453369140625,-1.111083984375,-2.832763671875
0.1745,3.333251953125,-0.390380859375,-3.353271484375
0.175,2.612548828125,0.490478515625,-3.553466796875
0.1755,2.252197265625,1.251220703125,-3.913818359375
0.176,1.571533203125,1.931884765625,-3.953857421875
0.1765,1.010986328125,2.572509765625,-3.993896484375
0.177,0.290283203125,2.892822265625,-3.553466796875
0.1775,-0.350341796875,3.453369140625,-3.473388671875
0.178,-1.511474609375,3.653564453125,-2.472412109375
0.1785,-2.192138671875,3.893798828125,-2.112060546875
0.179,-2.992919921875,3.973876953125,-1.351318359375
0.1795,-3.353271484375,3.733642578125,-0.790771484375
0.18,-3.713623046875,3.453369140625,-0.150146484375
0.1805,-3.873779296875,2.972900390625,0.530517578125
0.181,-4.194091796875,2.372314453125,1.411376953125
0.1815,-4.194091796875,1.771728515625,2.011962890625
0.182,-4.354248046875,1.131103515625,2.812744140625
0.1825,-3.753662109375,0.210205078125,3.052978515625
0.183,-3.673583984375,-0.390380859375,3.533447265625
0.1835,-2.752685546875,-1.471435546875,3.653564453125
0.184,-2.392333984375,-2.192138671875,3.893798828125
0.1845,-1.591552734375,-2.712646484375,3.853759765625
0.185,-1.031005859375,-3.353271484375,3.773681640625
0.1855,-0.350341796875,-3.593505859375,3.293212890625
0.186,0.410400390625,-3.993896484375,2.972900390625
0.1865,1.491455078125,-4.194091796875,2.132080078125
0.187,2.052001953125,-4.354248046875,1.651611328125
0.1875,2.732666015625,-4.354248046875,1.091064453125
0.188,2.932861328125,-3.953857421875,0.490478515625
