wavelength,x,y,z
0.0,-20.454956054688,20.104614257812,-0.1551513671875
0.0005,-22.176635742188,17.862426757812,3.8487548828125
0.001,-23.858276367188,14.579223632812,8.8536376953125
0.0015,-22.737182617188,10.214965820312,12.176879882812
0.002,-22.777221679688,6.6915283203125,15.740356445312
0.0025,-20.895385742188,2.9278564453125,17.742309570312
0.003,-19.413940429688,-1.7166748046875,20.825317382812
0.0035,-16.531127929688,-6.3612060546875,22.546997070312
0.004,-12.447143554688,-11.045776367188,23.107543945312
0.0045,-9.2440185546875,-14.168823242188,22.987426757812
0.005,-4.1990966796875,-17.371948242188,21.265747070312
0.0055,0.1251220703125,-19.413940429688,19.263793945312
0.006,4.2091064453125,-21.856323242188,17.582153320312
0.0065,9.4542236328125,-23.738159179688,14.258911132812
0.007,13.137817382812,-22.737182617188,9.6143798828125
0.0075,16.621215820312,-23.217651367188,6.7716064453125
0.008,18.943481445312,-21.135620117188,2.2471923828125
0.0085,21.826293945312,-19.734252929688,-1.9969482421875
0.009,22.707153320312,-17.011596679688,-5.7606201171875
0.0095,23.748168945312,-13.448120117188,-10.605346679688
0.01,22.987426757812,-9.4041748046875,-13.648315429688
0.0105,22.386840820312,-5.4403076171875,-17.131713867188
0.011,20.304809570312,-1.4364013671875,-18.973510742188
0.0115,18.863403320312,3.0079345703125,-22.016479492188
0.012,15.380004882812,7.9327392578125,-23.377807617188
0.0125,10.815551757812,12.176879882812,-23.017456054688
0.013,7.9727783203125,15.139770507812,-23.297729492188
0.0135,2.6876220703125,17.982543945312,-21.095581054688
0.014,-1.4364013671875,20.424926757812,-19.213745117188
0.0145,-5.5604248046875,22.066528320312,-17.051635742188
0.015,-10.645385742188,23.748168945312,-13.608276367188
0.0155,-14.128784179688,22.627075195312,-9.0037841796875
0.016,-17.572143554688,22.707153320312,-5.7606201171875
0.0165,-19.654174804688,20.545043945312,-1.5565185546875
0.017,-22.456909179688,19.063598632812,2.8477783203125
0.0175,-23.017456054688,15.700317382812,6.7716064453125
0.018,-23.578002929688,11.816528320312,11.456176757812
0.0185,-23.097534179688,8.4532470703125,14.338989257812
0.019,-21.776245117188,3.9288330078125,17.582153320312
0.0195,-19.854370117188,-0.1151123046875,19.664184570312
0.02,-18.012573242188,-4.5594482421875,22.266723632812
0.0205,-14.529174804688,-9.3641357421875,23.628051757812
0.021,-9.7244873046875,-13.247924804688,22.587036132812
0.0215,-6.8817138671875,-16.170776367188,22.707153320312
0.022,-1.2762451171875,-18.933471679688,19.984497070312
0.0225,3.0079345703125,-21.696166992188,18.543090820312
0.023,7.3721923828125,-22.897338867188,15.380004882812
0.0235,12.136840820312,-23.978393554688,11.976684570312
0.024,15.460083007812,-22.857299804688,7.7325439453125
0.0245,18.703247070312,-22.456909179688,3.8487548828125
0.025,20.865356445312,-20.254760742188,-0.5155029296875
0.0255,23.507934570312,-18.573120117188,-4.9998779296875
0.026,23.668090820312,-14.649291992188,-9.0438232421875
0.0265,23.788208007812,-10.445190429688,-13.448120117188
0.027,23.387817382812,-7.4022216796875,-16.130737304688
0.0275,21.425903320312,-2.2371826171875,-19.333862304688
0.028,19.504028320312,2.0469970703125,-21.656127929688
0.0285,16.581176757812,6.8917236328125,-23.578002929688
0.029,13.057739257812,11.376098632812,-24.578979492188
0.0295,8.0128173828125,15.139770507812,-23.337768554688
0.03,4.6895751953125,17.782348632812,-22.817260742188
0.0305,-0.8358154296875,20.505004882812,-19.894409179688
0.031,-5.4403076171875,23.307739257812,-18.212768554688
0.0315,-10.004760742188,23.708129882812,-14.168823242188
0.032,-14.128784179688,24.468872070312,-10.805541992188
0.0325,-17.331909179688,23.347778320312,-6.5614013671875
0.033,-20.214721679688,22.026489257812,-2.1971435546875
0.0335,-22.456909179688,19.664184570312,2.2071533203125
0.034,-24.739135742188,17.301879882812,7.0518798828125
0.0345,-24.378784179688,13.057739257812,10.975708007812
0.035,-24.058471679688,8.6134033203125,15.059692382812
0.0355,-23.377807617188,5.6104736328125,17.421997070312
0.036,-20.855346679688,0.1251220703125,20.505004882812
0.0365,-18.973510742188,-4.3992919921875,23.067504882812
0.037,-15.209838867188,-9.2440185546875,24.228637695312
0.0375,-11.726440429688,-13.287963867188,24.669067382812
0.038,-6.9617919921875,-16.811401367188,23.227661132812
0.0385,-2.7176513671875,-19.253784179688,21.786254882812
0.039,2.4874267578125,-21.736206054688,19.263793945312
0.0395,7.4923095703125,-24.619018554688,17.021606445312
0.04,11.816528320312,-24.218627929688,12.417114257812
0.0405,15.780395507812,-24.699096679688,8.8936767578125
0.041,18.583129882812,-23.377807617188,4.8497314453125
0.0415,21.425903320312,-21.656127929688,0.2052001953125
0.042,23.467895507812,-19.253784179688,-4.1590576171875
0.0425,25.149536132812,-16.050659179688,-9.0438232421875
0.043,24.629028320312,-11.966674804688,-12.767456054688
0.0435,23.988403320312,-7.5223388671875,-16.571166992188
0.044,22.747192382812,-4.1990966796875,-18.653198242188
0.0445,20.344848632812,1.2061767578125,-21.656127929688
0.045,18.102661132812,6.0509033203125,-24.298706054688
0.0455,13.778442382812,10.815551757812,-24.619018554688
0.046,10.295043945312,14.459106445312,-24.899291992188
0.0465,5.5303955078125,17.622192382812,-23.377807617188
0.047,0.9659423828125,20.184692382812,-21.295776367188
0.0475,-3.7186279296875,22.306762695312,-18.933471679688
0.048,-9.0838623046875,24.949340820312,-16.290893554688
0.0485,-13.127807617188,24.108520507812,-11.446166992188
0.049,-16.971557617188,24.348754882812,-8.0028076171875
0.0495,-19.413940429688,22.667114257812,-4.0389404296875
0.05,-22.056518554688,20.865356445312,0.7657470703125
0.0505,-23.818237304688,18.302856445312,5.0098876953125
0.051,-24.859252929688,14.579223632812,9.8946533203125
0.0515,-24.538940429688,10.775512695312,13.418090820312
0.052,-23.457885742188,6.2510986328125,16.941528320312
0.0525,-21.976440429688,2.6475830078125,19.063598632812
0.053,-19.814331054688,-2.3572998046875,21.906372070312
0.0535,-17.051635742188,-7.5623779296875,24.348754882812
0.054,-12.447143554688,-11.846557617188,24.028442382812
0.0545,-9.2440185546875,-15.369995117188,24.188598632812
0.055,-4.3592529296875,-18.172729492188,22.226684570312
0.0555,0.5255126953125,-20.895385742188,20.304809570312
0.056,4.8096923828125,-22.817260742188,17.902465820312
0.0565,10.415161132812,-24.859252929688,14.659301757812
0.057,13.938598632812,-24.058471679688,10.174926757812
0.0575,17.902465820312,-23.978393554688,6.3712158203125
0.058,19.904418945312,-22.216674804688,2.4073486328125
0.0585,22.747192382812,-20.575073242188,-2.3572998046875
0.059,24.308715820312,-17.492065429688,-6.8016357421875
0.0595,24.588989257812,-13.328002929688,-11.486206054688
0.06,24.588989257812,-9.8846435546875,-14.809448242188
0.0605,23.067504882812,-5.0399169921875,-18.092651367188
0.061,21.265747070312,-1.0360107421875,-20.414916992188
0.0615,19.263793945312,3.5684814453125,-23.177612304688
0.062,15.940551757812,9.2540283203125,-25.379760742188
0.0625,10.855590820312,13.177856445312,-24.258666992188
0.063,7.6524658203125,16.781372070312,-24.699096679688
0.0635,2.5675048828125,19.343872070312,-22.096557617188
0.064,-2.3973388671875,22.226684570312,-20.174682617188
0.0645,-6.7215576171875,23.708129882812,-17.411987304688
0.065,-12.286987304688,25.309692382812,-13.528198242188
0.0655,-15.530151367188,24.348754882812,-9.2440185546875
0.066,-19.494018554688,23.708129882812,-4.8797607421875
0.0665,-21.295776367188,21.626098632812,-0.8758544921875
0.067,-24.098510742188,19.704223632812,3.9688720703125
0.0675,-25.219604492188,16.140747070312,8.6534423828125
0.068,-24.939331054688,11.376098632812,13.177856445312
0.0685,-24.899291992188,8.3331298828125,16.260864257812
0.069,-22.897338867188,3.1680908203125,19.343872070312
0.0695,-20.895385742188,-1.2762451171875,21.786254882812
0.07,-18.332885742188,-6.0008544921875,23.948364257812
0.0705,-14.769409179688,-11.406127929688,25.910278320312
0.071,-9.4041748046875,-15.049682617188,24.068481445312
0.0715,-5.9207763671875,-18.412963867188,24.028442382812
0.072,-0.5155029296875,-20.775268554688,21.065551757812
0.0725,4.4093017578125,-23.858276367188,19.343872070312
0.073,8.9737548828125,-24.699096679688,15.660278320312
0.0735,14.098754882812,-25.700073242188,11.496215820312
0.074,17.221801757812,-24.619018554688,7.6925048828125
0.0745,20.825317382812,-23.457885742188,2.8077392578125
0.075,22.707153320312,-21.095581054688,-1.5565185546875
0.0755,25.229614257812,-18.973510742188,-6.1610107421875
0.076,25.830200195312,-15.089721679688,-10.885620117188
0.0765,24.989379882812,-10.004760742188,-15.089721679688
0.077,24.829223632812,-7.0819091796875,-17.852416992188
0.0775,22.146606445312,-1.3963623046875,-20.855346679688
0.078,20.304809570312,2.9278564453125,-23.537963867188
0.0785,16.861450195312,7.9327392578125,-24.739135742188
0.079,13.177856445312,13.017700195312,-26.220581054688
0.0795,8.0128173828125,16.380981445312,-24.538940429688
0.08,4.0089111328125,19.544067382812,-23.698120117188
0.0805,-1.2762451171875,21.666137695312,-20.615112304688
0.081,-6.1209716796875,24.749145507812,-18.893432617188
0.0815,-10.925659179688,25.069458007812,-14.529174804688
0.082,-15.410034179688,25.309692382812,-10.405151367188
0.0825,-18.332885742188,24.588989257812,-6.8817138671875
0.083,-21.816284179688,22.667114257812,-1.6365966796875
0.0835,-23.618041992188,20.424926757812,2.7276611328125
0.084,-25.499877929688,17.702270507812,7.4122314453125
0.0845,-25.900268554688,13.538208007812,12.016723632812
0.085,-24.619018554688,8.6534423828125,15.860473632812
0.0855,-24.298706054688,5.6905517578125,18.422973632812
0.086,-21.495971679688,0.1251220703125,21.265747070312
0.0865,-19.894409179688,-4.5594482421875,24.188598632812
0.087,-15.650268554688,-9.3641357421875,24.669067382812
0.0875,-11.846557617188,-14.008666992188,25.549926757812
0.088,-7.2420654296875,-17.091674804688,24.028442382812
0.0885,-2.4774169921875,-20.214721679688,22.346801757812
0.089,2.3673095703125,-22.176635742188,19.584106445312
0.0895,7.5323486328125,-25.059448242188,17.341918945312
0.09,12.016723632812,-25.019409179688,13.017700195312
0.0905,16.260864257812,-24.859252929688,8.6534423828125
0.091,18.903442382812,-24.178588867188,5.4102783203125
0.0915,21.906372070312,-22.096557617188,0.2052001953125
0.092,24.188598632812,-19.854370117188,-4.3192138671875
0.0925,25.309692382812,-16.330932617188,-8.9637451171875
0.093,25.750122070312,-12.527221679688,-13.328002929688
0.0935,24.428833007812,-7.7225341796875,-16.971557617188
0.094,23.547973632812,-4.1590576171875,-19.494018554688
0.0945,20.865356445312,1.0059814453125,-22.056518554688
0.095,18.903442382812,6.2110595703125,-25.139526367188
0.0955,14.098754882812,10.855590820312,-25.059448242188
0.096,10.295043945312,15.099731445312,-25.539916992188
0.0965,6.0108642578125,17.942504882812,-24.178588867188
0.097,0.7257080078125,20.985473632812,-22.016479492188
0.0975,-4.0389404296875,23.187622070312,-19.494018554688
0.098,-9.5643310546875,25.589965820312,-16.491088867188
0.0985,-13.728393554688,25.309692382812,-12.086791992188
0.099,-17.772338867188,24.869262695312,-7.6424560546875
0.0995,-20.094604492188,23.668090820312,-4.1990966796875
0.1,-22.977416992188,21.425903320312,1.1260986328125
0.1005,-25.299682617188,18.943481445312,5.9307861328125
0.101,-25.740112304688,14.579223632812,10.735473632812
0.1015,-25.940307617188,10.895629882812,14.699340820312
0.102,-24.418823242188,6.1309814453125,17.942504882812
0.1025,-22.937377929688,2.0870361328125,20.505004882812
0.103,-20.374877929688,-3.0379638671875,23.067504882812
0.1035,-17.692260742188,-8.6033935546875,25.950317382812
0.104,-12.567260742188,-12.967651367188,25.189575195312
0.1045,-8.7235107421875,-16.971557617188,25.309692382812
0.105,-4.1590576171875,-19.413940429688,23.307739257812
0.1055,1.4063720703125,-22.657104492188,20.865356445312
0.106,6.0509033203125,-24.338745117188,18.262817382812
0.1065,11.776489257812,-26.140502929688,14.379028320312
0.107,15.380004882812,-25.539916992188,10.295043945312
0.1075,19.343872070312,-24.659057617188,5.7305908203125
0.108,21.465942382812,-23.137573242188,1.8468017578125
0.1085,24.308715820312,-20.735229492188,-3.2781982421875
0.109,26.190551757812,-17.892456054688,-8.3231201171875
0.1095,25.830200195312,-12.967651367188,-12.767456054688
0.11,25.950317382812,-9.6444091796875,-16.491088867188
0.1105,23.988403320312,-4.7196044921875,-19.413940429688
0.111,22.066528320312,-0.1951904296875,-22.056518554688
0.1115,19.544067382812,4.6094970703125,-24.298706054688
0.112,16.060668945312,10.495239257812,-26.661010742188
0.1125,10.855590820312,14.258911132812,-25.219604492188
0.113,7.0518798828125,18.062622070312,-25.299682617188
0.1135,2.4073486328125,20.224731445312,-22.617065429688
0.114,-2.9979248046875,23.227661132812,-20.655151367188
0.1145,-7.7225341796875,24.869262695312,-17.612182617188
0.115,-13.207885742188,25.950317382812,-13.127807617188
0.1155,-16.491088867188,25.349731445312,-9.4442138671875
0.116,-20.094604492188,24.068481445312,-4.4393310546875
0.1165,-22.056518554688,22.226684570312,-0.7156982421875
0.117,-24.578979492188,20.104614257812,4.0089111328125
0.1175,-26.220581054688,16.581176757812,9.2139892578125
0.118,-25.179565429688,11.416137695312,13.458129882812
0.1185,-25.499877929688,8.3331298828125,16.861450195312
0.119,-23.097534179688,3.5284423828125,19.343872070312
0.1195,-21.335815429688,-1.2362060546875,22.226684570312
0.12,-18.613159179688,-5.8006591796875,24.068481445312
0.1205,-14.889526367188,-11.526245117188,26.070434570312
0.121,-10.004760742188,-14.889526367188,24.508911132812
0.1215,-5.7606201171875,-18.533081054688,23.868286132812
0.122,-1.1961669921875,-20.414916992188,21.305786132812
0.1225,3.8487548828125,-23.457885742188,19.584106445312
0.123,8.8536376953125,-24.859252929688,15.980590820312
0.1235,13.778442382812,-25.219604492188,11.496215820312
0.124,16.941528320312,-25.139526367188,8.3331298828125
0.1245,20.184692382812,-23.337768554688,3.2882080078125
0.125,22.426879882812,-21.495971679688,-0.9158935546875
0.1255,24.468872070312,-19.213745117188,-5.2801513671875
0.126,26.030395507812,-15.530151367188,-10.525268554688
0.1265,24.669067382812,-10.365112304688,-14.409057617188
0.127,24.909301757812,-7.3221435546875,-17.692260742188
0.1275,22.186645507812,-2.3172607421875,-20.014526367188
0.128,20.745239257812,2.4073486328125,-23.257690429688
0.1285,17.141723632812,7.1719970703125,-24.538940429688
0.129,13.297973632812,12.537231445312,-25.940307617188
0.1295,8.8536376953125,15.820434570312,-24.979370117188
0.13,4.1290283203125,19.263793945312,-23.457885742188
0.1305,-0.5955810546875,21.185668945312,-20.815307617188
0.131,-5.4403076171875,24.188598632812,-19.293823242188
0.1315,-10.725463867188,25.269653320312,-15.049682617188
0.132,-15.209838867188,24.989379882812,-10.405151367188
0.1325,-18.172729492188,24.989379882812,-7.4022216796875
0.133,-21.175659179688,22.546997070312,-2.1170654296875
0.1335,-23.658081054688,20.785278320312,2.3673095703125
0.134,-25.019409179688,17.782348632812,6.8116455078125
0.1345,-26.220581054688,13.818481445312,12.016723632812
0.135,-24.699096679688,8.7735595703125,15.660278320312
0.1355,-24.458862304688,5.4102783203125,18.783325195312
0.136,-21.536010742188,0.2852783203125,20.985473632812
0.1365,-20.054565429688,-4.6395263671875,24.348754882812
0.137,-15.770385742188,-9.5643310546875,24.949340820312
0.1375,-11.526245117188,-14.409057617188,25.549926757812
0.138,-7.6024169921875,-17.331909179688,24.588989257812
0.1385,-2.1571044921875,-20.535034179688,22.426879882812
0.139,2.5675048828125,-22.496948242188,19.824340820312
0.1395,7.6124267578125,-25.139526367188,17.622192382812
0.14,12.577270507812,-25.780151367188,13.217895507812
0.1405,16.781372070312,-24.979370117188,8.2930908203125
0.141,19.504028320312,-24.659057617188,5.2901611328125
0.1415,22.346801757812,-22.096557617188,-0.1551513671875
0.142,24.949340820312,-20.134643554688,-4.7596435546875
0.1425,25.549926757812,-16.330932617188,-9.2440185546875
0.143,26.310668945312,-12.407104492188,-13.968627929688
0.1435,24.789184570312,-7.6824951171875,-17.251831054688
0.144,23.708129882812,-3.5985107421875,-20.254760742188
0.1445,20.825317382812,1.4063720703125,-22.376831054688
0.145,18.903442382812,6.6514892578125,-25.660034179688
0.1455,14.138793945312,11.336059570312,-25.660034179688
0.146,9.7344970703125,15.820434570312,-25.619995117188
0.1465,6.0909423828125,18.382934570312,-24.659057617188
0.147,0.3253173828125,21.505981445312,-21.976440429688
0.1475,-4.3592529296875,23.547973632812,-19.574096679688
0.148,-9.6043701171875,25.509887695312,-16.290893554688
0.1485,-14.088745117188,25.790161132812,-12.246948242188
0.149,-17.972534179688,24.789184570312,-7.3621826171875
0.1495,-20.454956054688,23.828247070312,-3.9989013671875
0.15,-22.937377929688,21.265747070312,1.1661376953125
0.1505,-25.499877929688,19.063598632812,6.0108642578125
0.151,-25.339721679688,14.539184570312,10.375122070312
0.1515,-25.900268554688,10.775512695312,14.779418945312
0.152,-24.378784179688,6.4112548828125,17.662231445312
0.1525,-22.777221679688,1.9268798828125,20.545043945312
0.153,-20.214721679688,-2.8778076171875,22.707153320312
0.1535,-17.572143554688,-8.2830810546875,25.469848632812
0.154,-12.967651367188,-12.487182617188,25.109497070312
0.1545,-8.4432373046875,-16.611206054688,24.709106445312
0.155,-4.7996826171875,-18.813354492188,23.347778320312
0.1555,0.9659423828125,-21.776245117188,20.705200195312
0.156,5.5303955078125,-23.938354492188,18.422973632812
0.1565,10.735473632812,-25.059448242188,14.379028320312
0.157,14.659301757812,-25.339721679688,10.815551757812
0.1575,18.262817382812,-24.178588867188,6.0909423828125
0.158,20.665161132812,-22.937377929688,2.3673095703125
0.1585,23.067504882812,-20.575073242188,-2.3973388671875
0.159,25.469848632812,-18.012573242188,-7.4422607421875
0.1595,24.789184570312,-13.287963867188,-11.526245117188
0.16,25.189575195312,-9.6444091796875,-15.650268554688
0.1605,23.547973632812,-5.7205810546875,-18.052612304688
0.161,21.706176757812,-0.8358154296875,-21.095581054688
0.1615,19.263793945312,3.7686767578125,-23.217651367188
0.162,15.900512695312,9.2940673828125,-25.339721679688
0.1625,11.576293945312,13.137817382812,-24.859252929688
0.163,7.1319580078125,16.981567382812,-24.258666992188
0.1635,3.4083251953125,18.943481445312,-22.536987304688
0.164,-1.9569091796875,21.786254882812,-20.174682617188
0.1645,-6.7615966796875,24.108520507812,-17.732299804688
0.165,-11.726440429688,24.468872070312,-13.127807617188
0.1655,-15.410034179688,24.829223632812,-9.9647216796875
0.166,-18.573120117188,23.227661132812,-5.2401123046875
0.1665,-21.015502929688,21.826293945312,-1.3963623046875
0.167,-23.137573242188,19.664184570312,3.0479736328125
0.1675,-25.259643554688,16.541137695312,8.2930908203125
0.168,-24.258666992188,11.736450195312,12.176879882812
0.1685,-24.538940429688,8.1729736328125,16.020629882812
0.169,-22.777221679688,4.4093017578125,18.022583007812
0.1695,-20.895385742188,-0.6356201171875,21.185668945312
0.17,-18.412963867188,-5.1600341796875,23.227661132812
0.1705,-14.529174804688,-10.525268554688,24.669067382812
0.171,-10.565307617188,-13.968627929688,24.188598632812
0.1715,-5.9207763671875,-17.532104492188,23.107543945312
0.172,-1.7967529296875,-19.534057617188,21.105590820312
0.1725,3.0479736328125,-22.256713867188,19.103637695312
0.173,8.3331298828125,-24.378784179688,16.060668945312
0.1735,12.777465820312,-24.018432617188,11.296020507812
0.174,16.300903320312,-24.578979492188,8.4132080078125
0.1745,19.063598632812,-22.577026367188,3.6885986328125
0.175,21.706176757812,-21.135620117188,-0.5155029296875
0.1755,23.427856445312,-18.733276367188,-4.6795654296875
0.176,25.109497070312,-15.169799804688,-9.9647216796875
0.1765,24.028442382812,-10.645385742188,-13.448120117188
0.177,23.948364257812,-7.0418701171875,-17.131713867188
0.1775,21.786254882812,-2.9979248046875,-18.973510742188
0.178,20.184692382812,1.9268798828125,-22.176635742188
