wavelength,x,y,z
0.0,23.993408203125,-12.682373046875,-11.361083984375
0.0005,22.872314453125,-8.197998046875,-14.924560546875
0.001,22.552001953125,-4.754638671875,-18.007568359375
0.0015,20.029541015625,0.610595703125,-20.850341796875
0.002,18.548095703125,5.014892578125,-23.693115234375
0.0025,13.943603515625,9.619384765625,-23.693115234375
0.003,10.540283203125,14.063720703125,-24.654052734375
0.0035,6.135986328125,17.306884765625,-23.572998046875
0.004,1.091064453125,20.710205078125,-21.931396484375
0.0045,-3.673583984375,22.712158203125,-19.328857421875
0.005,-8.197998046875,24.874267578125,-17.046630859375
0.0055,-12.522216796875,24.634033203125,-12.562255859375
0.006,-16.406005859375,24.393798828125,-8.598388671875
0.0065,-19.248779296875,23.833251953125,-5.155029296875
0.007,-22.251708984375,21.551025390625,0.210205078125
0.0075,-23.893310546875,19.028564453125,4.414306640625
0.008,-24.093505859375,14.904541015625,8.778564453125
0.0085,-24.573974609375,11.220947265625,12.942626953125
0.009,-23.212646484375,6.416259765625,16.466064453125
0.0095,-22.411865234375,2.532470703125,19.509033203125
0.01,-19.849365234375,-2.712646484375,22.151611328125
0.0105,-17.767333984375,-7.477294921875,24.954345703125
0.011,-12.522216796875,-12.081787109375,24.273681640625
0.0115,-9.038818359375,-16.165771484375,24.914306640625
0.012,-4.394287109375,-19.248779296875,23.352783203125
0.0125,1.291259765625,-22.572021484375,21.150634765625
0.013,5.495361328125,-24.133544921875,18.588134765625
0.0135,10.820556640625,-25.695068359375,14.984619140625
0.014,14.584228515625,-25.334716796875,10.900634765625
0.0145,18.548095703125,-24.694091796875,6.336181640625
0.015,21.270751953125,-23.532958984375,2.452392578125
0.0155,23.833251953125,-21.130615234375,-2.672607421875
0.016,25.234619140625,-18.247802734375,-6.956787109375
0.0165,24.754150390625,-13.403076171875,-11.481201171875
0.017,25.114501953125,-10.079833984375,-15.244873046875
0.0175,23.312744140625,-4.914794921875,-18.648193359375
0.018,21.791259765625,-0.310302734375,-21.731201171875
0.0185,19.308837890625,4.454345703125,-23.853271484375
0.019,16.185791015625,9.899658203125,-26.175537109375
0.0195,10.940673828125,14.063720703125,-25.054443359375
0.02,7.096923828125,18.067626953125,-25.294677734375
0.0205,2.172119140625,20.870361328125,-23.212646484375
0.021,-3.553466796875,24.073486328125,-20.850341796875
0.0215,-7.397216796875,25.194580078125,-18.207763671875
0.022,-12.922607421875,26.195556640625,-13.763427734375
0.0225,-16.165771484375,25.715087890625,-10.119873046875
0.023,-20.209716796875,24.634033203125,-5.074951171875
0.0235,-22.451904296875,22.912353515625,-1.031005859375
0.024,-24.493896484375,20.349853515625,3.693603515625
0.0245,-25.614990234375,16.866455078125,8.378173828125
0.025,-24.654052734375,11.581298828125,12.662353515625
0.0255,-24.974365234375,8.338134765625,16.265869140625
0.026,-22.892333984375,3.213134765625,19.428955078125
0.0265,-21.210693359375,-1.631591796875,22.552001953125
0.027,-18.688232421875,-5.795654296875,24.113525390625
0.0275,-14.724365234375,-11.521240234375,25.915283203125
0.028,-9.959716796875,-15.124755859375,24.754150390625
0.0285,-5.675537109375,-19.168701171875,24.513916015625
0.029,-0.710693359375,-21.490966796875,21.951416015625
0.0295,4.454345703125,-24.373779296875,19.869384765625
0.03,8.618408203125,-25.174560546875,16.586181640625
0.0305,13.783447265625,-25.614990234375,11.901611328125
0.031,16.866455078125,-25.334716796875,8.658447265625
0.0315,20.750244140625,-23.893310546875,3.373291015625
0.032,22.872314453125,-22.051513671875,-0.790771484375
0.0325,24.313720703125,-19.609130859375,-4.674560546875
0.033,25.394775390625,-15.685302734375,-9.759521484375
0.0335,24.113525390625,-10.720458984375,-13.603271484375
0.034,24.353759765625,-7.317138671875,-17.166748046875
0.0345,22.071533203125,-2.272216796875,-19.929443359375
0.035,20.469970703125,2.532470703125,-23.172607421875
0.0355,17.467041015625,6.736572265625,-24.333740234375
0.036,13.102783203125,12.342041015625,-25.574951171875
0.0365,8.938720703125,15.705322265625,-24.734130859375
0.037,4.093994140625,19.709228515625,-23.933349609375
0.0375,-0.830810546875,21.911376953125,-21.370849609375
0.038,-5.275146484375,24.513916015625,-19.569091796875
0.0385,-10.039794921875,25.314697265625,-15.685302734375
0.039,-14.604248046875,25.194580078125,-11.160888671875
0.0395,-17.687255859375,25.274658203125,-8.197998046875
0.04,-21.210693359375,23.232666015625,-2.552490234375
0.0405,-23.372802734375,21.270751953125,1.571533203125
0.041,-24.333740234375,18.427978515625,5.455322265625
0.0415,-25.334716796875,14.103759765625,10.780517578125
0.042,-24.053466796875,9.299072265625,14.384033203125
0.0425,-24.053466796875,5.655517578125,18.147705078125
0.043,-21.531005859375,0.530517578125,20.790283203125
0.0435,-20.169677734375,-4.114013671875,23.993408203125
0.044,-16.165771484375,-8.678466796875,24.593994140625
0.0445,-11.841552734375,-13.963623046875,25.474853515625
0.045,-7.837646484375,-17.246826171875,24.754150390625
0.0455,-2.272216796875,-21.130615234375,23.112548828125
0.046,2.732666015625,-23.212646484375,20.429931640625
0.0465,7.056884765625,-25.454833984375,18.427978515625
0.047,12.141845703125,-25.895263671875,13.823486328125
0.0475,16.265869140625,-25.334716796875,9.218994140625
0.048,19.509033203125,-25.334716796875,6.015869140625
0.0485,22.832275390625,-22.892333984375,0.210205078125
0.049,24.954345703125,-20.810302734375,-4.154052734375
0.0495,25.154541015625,-17.046630859375,-8.197998046875
0.05,25.955322265625,-12.882568359375,-13.202880859375
0.0505,24.393798828125,-7.957763671875,-16.646240234375
0.051,23.833251953125,-3.673583984375,-20.369873046875
0.0515,21.030517578125,1.771728515625,-22.892333984375
0.052,19.348876953125,6.456298828125,-25.975341796875
0.0525,14.263916015625,11.301025390625,-25.655029296875
0.053,10.019775390625,16.105712890625,-26.215576171875
0.0535,5.855712890625,19.308837890625,-25.294677734375
0.054,-0.310302734375,23.032470703125,-22.932373046875
0.0545,-5.195068359375,24.994384765625,-20.169677734375
0.055,-9.879638671875,26.716064453125,-17.286865234375
0.0555,-14.524169921875,26.836181640625,-12.842529296875
0.056,-18.447998046875,25.715087890625,-7.877685546875
0.0565,-21.490966796875,25.234619140625,-4.394287109375
0.057,-24.413818359375,22.351806640625,1.531494140625
0.0575,-26.295654296875,19.789306640625,5.975830078125
0.058,-25.775146484375,14.984619140625,10.380126953125
0.0585,-26.415771484375,11.060791015625,15.024658203125
0.059,-24.614013671875,6.055908203125,18.267822265625
0.0595,-23.452880859375,1.411376953125,21.831298828125
0.06,-20.570068359375,-3.833740234375,24.073486328125
0.0605,-18.247802734375,-8.878662109375,26.836181640625
0.061,-12.762451171875,-13.523193359375,25.955322265625
0.0615,-8.398193359375,-17.887451171875,25.955322265625
0.062,-4.194091796875,-20.770263671875,24.674072265625
0.0625,2.212158203125,-24.213623046875,21.871337890625
0.063,6.696533203125,-25.895263671875,19.188720703125
0.0635,11.901611328125,-26.816162109375,14.944580078125
0.064,15.905517578125,-26.896240234375,11.180908203125
0.0645,19.709228515625,-25.534912109375,5.935791015625
0.065,22.552001953125,-24.533935546875,2.092041015625
0.0655,25.034423828125,-21.651123046875,-3.353271484375
0.066,26.716064453125,-18.888427734375,-7.837646484375
0.0665,25.594970703125,-13.523193359375,-12.161865234375
0.067,26.115478515625,-9.879638671875,-16.365966796875
0.0675,24.233642578125,-5.074951171875,-19.288818359375
0.068,22.552001953125,0.170166015625,-22.812255859375
0.0685,19.829345703125,4.854736328125,-24.734130859375
0.069,16.466064453125,10.300048828125,-26.896240234375
0.0695,11.461181640625,14.544189453125,-26.095458984375
0.07,6.856689453125,18.748291015625,-25.655029296875
0.0705,2.572509765625,21.310791015625,-24.053466796875
0.071,-3.553466796875,24.593994140625,-21.330810546875
0.0715,-7.877685546875,26.235595703125,-18.728271484375
0.072,-13.162841796875,26.475830078125,-13.763427734375
0.0725,-16.646240234375,26.595947265625,-10.600341796875
0.073,-20.369873046875,24.994384765625,-5.315185546875
0.0735,-23.012451171875,23.552978515625,-1.231201171875
0.074,-24.974365234375,20.750244140625,3.733642578125
0.0745,-26.535888671875,17.346923828125,8.738525390625
0.075,-25.134521484375,11.901611328125,12.862548828125
0.0755,-25.494873046875,8.338134765625,16.866455078125
0.076,-23.693115234375,3.773681640625,19.629150390625
0.0765,-21.851318359375,-1.671630859375,23.192626953125
0.077,-19.128662109375,-6.156005859375,24.954345703125
0.0775,-14.804443359375,-11.881591796875,26.355712890625
0.078,-10.520263671875,-15.565185546875,25.795166015625
0.0785,-5.555419921875,-19.649169921875,24.914306640625
0.079,-0.950927734375,-22.051513671875,22.752197265625
0.0795,4.534423828125,-24.974365234375,20.349853515625
0.08,9.339111328125,-26.415771484375,17.106689453125
0.0805,14.384033203125,-26.175537109375,11.821533203125
0.081,17.627197265625,-26.415771484375,8.858642578125
0.0815,21.390869140625,-24.614013671875,3.333251953125
0.082,23.993408203125,-22.772216796875,-1.111083984375
0.0825,25.274658203125,-19.929443359375,-5.275146484375
0.083,26.676025390625,-16.005615234375,-10.760498046875
0.0835,25.154541015625,-10.840576171875,-14.444091796875
0.084,25.194580078125,-6.956787109375,-18.407958984375
0.0845,22.992431640625,-2.112060546875,-21.010498046875
0.085,21.190673828125,3.253173828125,-24.533935546875
0.0855,17.787353515625,7.937744140625,-25.855224609375
0.086,12.982666015625,13.583251953125,-26.656005859375
0.0865,9.098876953125,16.946533203125,-26.135498046875
0.087,3.493408203125,21.110595703125,-24.654052734375
0.0875,-1.471435546875,23.392822265625,-22.171630859375
0.088,-6.236083984375,25.875244140625,-20.009521484375
0.0885,-11.561279296875,27.036376953125,-16.005615234375
0.089,-16.005615234375,26.235595703125,-10.840576171875
0.0895,-19.248779296875,26.395751953125,-7.797607421875
0.09,-22.692138671875,23.993408203125,-1.951904296875
0.0905,-25.134521484375,21.951416015625,2.652587890625
0.091,-25.735107421875,18.548095703125,6.736572265625
0.0915,-26.856201171875,14.103759765625,12.382080078125
0.092,-25.254638671875,9.098876953125,15.825439453125
0.0925,-24.854248046875,4.814697265625,19.749267578125
0.093,-22.331787109375,-0.150146484375,22.151611328125
0.0935,-20.650146484375,-5.114990234375,25.474853515625
0.094,-16.365966796875,-10.119873046875,26.115478515625
0.0945,-11.441162109375,-15.324951171875,26.435791015625
0.095,-7.717529296875,-18.488037109375,25.915283203125
0.0955,-1.511474609375,-22.331787109375,23.593017578125
0.096,3.453369140625,-24.533935546875,20.990478515625
0.0965,7.857666015625,-26.415771484375,18.548095703125
0.097,13.423095703125,-27.296630859375,13.943603515625
0.0975,17.266845703125,-26.015380859375,8.858642578125
0.098,20.670166015625,-26.055419921875,5.615478515625
0.0985,23.673095703125,-23.252685546875,-0.270263671875
0.099,25.955322265625,-21.210693359375,-4.634521484375
0.0995,25.875244140625,-17.126708984375,-8.758544921875
0.1,26.676025390625,-12.682373046875,-14.083740234375
0.1005,25.114501953125,-8.037841796875,-17.166748046875
0.101,24.073486328125,-3.193115234375,-21.090576171875
0.1015,21.430908203125,1.731689453125,-23.252685546875
0.102,19.589111328125,6.656494140625,-26.255615234375
0.1025,14.544189453125,11.781494140625,-26.415771484375
0.103,9.659423828125,16.506103515625,-26.255615234375
0.1035,6.095947265625,19.509033203125,-25.775146484375
0.104,-0.430419921875,23.112548828125,-22.932373046875
0.1045,-5.074951171875,25.274658203125,-20.570068359375
0.105,-9.559326171875,26.475830078125,-17.326904296875
0.1055,-14.724365234375,27.276611328125,-13.162841796875
0.106,-18.207763671875,25.675048828125,-8.077880859375
0.1065,-21.490966796875,25.314697265625,-4.434326171875
0.107,-24.053466796875,22.351806640625,1.171142578125
0.1075,-26.215576171875,20.149658203125,5.575439453125
0.108,-25.574951171875,15.224853515625,9.899658203125
0.1085,-26.135498046875,10.980712890625,14.824462890625
0.109,-24.734130859375,6.696533203125,17.747314453125
0.1095,-23.212646484375,1.451416015625,21.470947265625
0.11,-20.730224609375,-3.233154296875,23.633056640625
0.1105,-18.247802734375,-8.197998046875,26.075439453125
0.111,-13.282958984375,-13.162841796875,26.115478515625
0.1115,-8.318115234375,-17.366943359375,25.434814453125
0.112,-4.754638671875,-20.209716796875,24.714111328125
0.1125,1.731689453125,-23.572998046875,21.671142578125
0.113,6.135986328125,-25.695068359375,19.509033203125
0.1135,11.060791015625,-26.095458984375,14.944580078125
0.114,15.505126953125,-26.896240234375,11.541259765625
0.1145,18.908447265625,-25.214599609375,6.496337890625
0.115,22.151611328125,-24.333740234375,2.372314453125
0.1155,24.353759765625,-21.490966796875,-2.752685546875
0.116,26.315673828125,-19.048583984375,-7.237060546875
0.1165,25.314697265625,-13.843505859375,-11.521240234375
0.117,25.635009765625,-9.759521484375,-16.005615234375
0.1175,24.313720703125,-5.755615234375,-18.728271484375
0.118,22.271728515625,0.050048828125,-22.451904296875
0.1185,19.909423828125,4.494384765625,-24.493896484375
0.119,16.265869140625,9.819580078125,-26.215576171875
0.1195,11.861572265625,14.303955078125,-26.295654296875
0.12,6.696533203125,18.347900390625,-25.174560546875
0.1205,2.852783203125,20.990478515625,-24.013427734375
0.121,-3.313232421875,24.033447265625,-21.090576171875
0.1215,-7.757568359375,26.195556640625,-18.928466796875
0.122,-12.762451171875,25.875244140625,-13.563232421875
0.1225,-16.526123046875,26.555908203125,-10.600341796875
0.123,-19.809326171875,24.834228515625,-5.635498046875
0.1235,-22.812255859375,23.312744140625,-1.071044921875
0.124,-24.533935546875,20.429931640625,3.573486328125
0.1245,-26.135498046875,17.226806640625,8.538330078125
0.125,-25.014404296875,12.101806640625,12.542236328125
0.1255,-24.894287109375,7.937744140625,16.706298828125
0.126,-23.572998046875,4.134033203125,19.148681640625
0.1265,-21.370849609375,-1.671630859375,22.752197265625
0.127,-18.968505859375,-6.035888671875,24.674072265625
0.1275,-14.404052734375,-11.441162109375,25.474853515625
0.128,-10.760498046875,-15.284912109375,25.715087890625
0.1285,-5.475341796875,-19.088623046875,24.153564453125
0.129,-1.111083984375,-21.571044921875,22.391845703125
0.1295,4.174072265625,-24.093505859375,19.789306640625
0.13,9.098876953125,-26.055419921875,16.946533203125
0.1305,13.623291015625,-25.174560546875,11.661376953125
0.131,17.146728515625,-25.695068359375,8.698486328125
0.1315,20.149658203125,-23.973388671875,4.053955078125
0.132,23.072509765625,-22.251708984375,-0.790771484375
0.1325,24.273681640625,-19.448974609375,-4.794677734375
0.133,25.474853515625,-15.605224609375,-9.879638671875
0.1335,24.553955078125,-11.200927734375,-13.483154296875
0.134,23.993408203125,-6.716552734375,-17.406982421875
0.1345,22.431884765625,-2.992919921875,-19.609130859375
0.135,20.389892578125,2.452392578125,-22.932373046875
0.1355,17.587158203125,7.177001953125,-24.934326171875
0.136,12.542236328125,12.221923828125,-24.854248046875
0.1365,9.459228515625,15.745361328125,-25.374755859375
0.137,4.093994140625,19.188720703125,-23.492919921875
0.1375,-0.630615234375,21.871337890625,-21.571044921875
0.138,-4.954833984375,23.913330078125,-19.328857421875
0.1385,-10.400146484375,25.835205078125,-15.845458984375
0.139,-14.203857421875,24.794189453125,-11.080810546875
0.1395,-17.807373046875,25.114501953125,-7.837646484375
0.14,-20.249755859375,23.112548828125,-3.473388671875
0.1405,-23.172607421875,21.270751953125,1.411376953125
0.141,-24.053466796875,18.107666015625,5.455322265625
0.1415,-24.734130859375,13.743408203125,10.620361328125
0.142,-24.253662109375,9.939697265625,13.943603515625
0.1425,-23.212646484375,5.255126953125,17.707275390625
0.143,-21.611083984375,1.371337890625,19.989501953125
0.1435,-19.769287109375,-3.553466796875,22.992431640625
0.144,-16.285888671875,-8.838623046875,24.834228515625
0.1445,-11.240966796875,-13.403076171875,24.273681640625
0.145,-8.318115234375,-16.806396484375,24.794189453125
0.1455,-2.712646484375,-19.929443359375,22.271728515625
0.146,2.132080078125,-22.652099609375,20.429931640625
0.1465,6.135986328125,-24.093505859375,17.907470703125
0.147,11.821533203125,-25.655029296875,13.903564453125
0.1475,15.104736328125,-24.533935546875,9.579345703125
0.148,18.908447265625,-24.493896484375,5.815673828125
0.1485,21.190673828125,-22.371826171875,1.371337890625
0.149,23.833251953125,-20.530029296875,-3.193115234375
0.1495,24.313720703125,-16.806396484375,-7.557373046875
0.15,24.513916015625,-12.241943359375,-12.362060546875
0.1505,24.233642578125,-8.918701171875,-15.405029296875
0.151,22.552001953125,-3.713623046875,-19.048583984375
0.1515,20.790283203125,0.610595703125,-21.490966796875
0.152,18.708251953125,5.135009765625,-23.973388671875
0.1525,14.584228515625,10.700439453125,-25.454833984375
0.153,9.579345703125,14.704345703125,-24.413818359375
0.1535,6.416259765625,18.067626953125,-24.654052734375
0.154,0.610595703125,21.030517578125,-21.771240234375
0.1545,-4.114013671875,23.833251953125,-20.009521484375
0.155,-8.278076171875,24.553955078125,-16.726318359375
0.1555,-13.523193359375,25.835205078125,-12.802490234375
0.156,-16.526123046875,24.593994140625,-8.678466796875
0.1565,-20.209716796875,23.913330078125,-4.274169921875
0.157,-22.131591796875,21.510986328125,0.090087890625
0.1575,-24.373779296875,19.388916015625,4.494384765625
0.158,-24.493896484375,14.984619140625,9.098876953125
0.1585,-24.213623046875,10.380126953125,13.503173828125
0.159,-24.013427734375,7.257080078125,16.466064453125
0.1595,-21.811279296875,1.811767578125,19.749267578125
0.16,-20.129638671875,-2.512451171875,22.271728515625
0.1605,-17.326904296875,-6.996826171875,23.953369140625
0.161,-13.282958984375,-12.322021484375,25.234619140625
0.1615,-8.318115234375,-15.925537109375,23.833251953125
0.162,-4.634521484375,-19.168701171875,23.512939453125
0.1625,0.970947265625,-21.651123046875,20.469970703125
0.163,5.295166015625,-24.253662109375,18.908447265625
0.1635,9.779541015625,-24.293701171875,14.544189453125
0.164,14.384033203125,-25.134521484375,10.860595703125
0.1645,17.266845703125,-24.213623046875,7.177001953125
0.165,20.750244140625,-22.852294921875,2.292236328125
0.1655,22.431884765625,-20.610107421875,-1.791748046875
0.166,24.033447265625,-18.127685546875,-5.835693359375
0.1665,24.193603515625,-13.803466796875,-10.480224609375
0.167,23.432861328125,-9.198974609375,-14.364013671875
0.1675,23.232666015625,-6.236083984375,-17.166748046875
0.168,20.750244140625,-0.710693359375,-20.169677734375
0.1685,19.348876953125,3.293212890625,-22.812255859375
0.169,15.425048828125,7.937744140625,-23.572998046875
0.1695,11.821533203125,12.822509765625,-24.814208984375
0.17,7.217041015625,16.185791015625,-23.532958984375
0.1705,2.972900390625,19.348876953125,-22.451904296875
0.171,-2.031982421875,21.591064453125,-19.849365234375
0.1715,-6.156005859375,24.073486328125,-18.287841796875
0.172,-10.760498046875,23.953369140625,-13.603271484375
0.1725,-14.764404296875,24.233642578125,-9.999755859375
0.173,-17.447021484375,23.713134765625,-6.876708984375
0.1735,-20.489990234375,21.791259765625,-1.791748046875
0.174,-22.251708984375,19.709228515625,2.052001953125
0.1745,-23.132568359375,16.426025390625,6.256103515625
0.175,-23.653076171875,12.502197265625,10.820556640625
0.1755,-22.572021484375,7.937744140625,14.343994140625
0.176,-22.251708984375,4.814697265625,17.146728515625
0.1765,-19.889404296875,-0.390380859375,19.869384765625
0.177,-18.648193359375,-4.474365234375,22.752197265625
0.1775,-13.963623046875,-9.198974609375,22.752197265625
0.178,-10.640380859375,-13.523193359375,23.833251953125
0.1785,-6.516357421875,-16.526123046875,22.752197265625
0.179,-1.631591796875,-19.609130859375,20.990478515625
0.1795,2.692626953125,-21.611083984375,18.788330078125
0.18,7.297119140625,-23.653076171875,16.345947265625
0.1805,11.541259765625,-23.653076171875,12.221923828125
