wavelength,x,y,z
0.0,-20.84033203125,8.38818359375,11.55126953125
0.0005,-20.07958984375,3.86376953125,15.31494140625
0.001,-18.47802734375,-0.62060546875,18.23779296875
0.0015,-16.59619140625,-3.98388671875,19.67919921875
0.002,-14.63427734375,-6.90673828125,20.80029296875
0.0025,-11.35107421875,-9.86962890625,20.47998046875
0.003,-6.62646484375,-13.63330078125,19.63916015625
0.0035,-2.06201171875,-16.95654296875,18.55810546875
0.004,2.82275390625,-19.39892578125,16.39599609375
0.0045,5.70556640625,-20.31982421875,14.67431640625
0.005,8.66845703125,-20.64013671875,12.23193359375
0.0055,11.67138671875,-20.56005859375,9.46923828125
0.006,15.55517578125,-19.47900390625,4.66455078125
0.0065,18.51806640625,-17.79736328125,0.14013671875
0.007,20.19970703125,-15.99560546875,-3.30322265625
0.0075,20.88037109375,-13.95361328125,-6.10595703125
0.008,20.64013671875,-10.87060546875,-8.94873046875
0.0085,20.27978515625,-6.98681640625,-12.51220703125
0.009,19.59912109375,-2.90283203125,-15.99560546875
0.0095,17.87744140625,1.58154296875,-18.71826171875
0.01,15.83544921875,4.74462890625,-19.79931640625
0.0105,13.43310546875,7.74755859375,-20.47998046875
0.011,10.10986328125,10.95068359375,-20.43994140625
0.0115,4.82470703125,14.91455078125,-19.23876953125
0.012,0.14013671875,17.99755859375,-17.87744140625
0.0125,-3.94384765625,19.95947265625,-15.99560546875
0.013,-6.82666015625,20.76025390625,-14.11376953125
0.0135,-10.10986328125,20.76025390625,-11.19091796875
0.014,-13.35302734375,20.47998046875,-7.78759765625
0.0145,-16.95654296875,19.27880859375,-3.22314453125
0.015,-19.79931640625,17.23681640625,1.70166015625
0.0155,-20.88037109375,15.31494140625,4.66455078125
0.016,-21.44091796875,12.83251953125,7.62744140625
0.0165,-21.12060546875,9.46923828125,10.75048828125
0.017,-20.39990234375,4.90478515625,14.59423828125
0.0175,-19.31884765625,0.70068359375,17.75732421875
0.018,-17.47705078125,-3.46337890625,20.11962890625
0.0185,-15.19482421875,-6.46630859375,20.84033203125
0.019,-12.19189453125,-9.58935546875,21.00048828125
0.0195,-8.30810546875,-13.11279296875,20.80029296875
0.02,-2.94287109375,-16.91650390625,19.35888671875
0.0205,2.14208984375,-19.51904296875,17.23681640625
0.021,5.46533203125,-20.96044921875,15.55517578125
0.0215,8.50830078125,-21.52099609375,13.31298828125
0.022,11.79150390625,-21.20068359375,9.98974609375
0.0225,15.35498046875,-20.39990234375,5.78564453125
0.023,18.59814453125,-18.99853515625,1.26123046875
0.0235,21.00048828125,-16.79638671875,-3.34326171875
0.024,21.52099609375,-14.59423828125,-6.02587890625
0.0245,21.76123046875,-11.83154296875,-9.10888671875
0.025,21.32080078125,-8.02783203125,-12.51220703125
0.0255,20.35986328125,-3.54345703125,-16.11572265625
0.026,18.71826171875,1.02099609375,-18.91845703125
0.0265,16.79638671875,4.70458984375,-20.72021484375
0.027,14.23388671875,7.70751953125,-21.28076171875
0.0275,10.79052734375,10.91064453125,-21.08056640625
0.028,6.30615234375,14.63427734375,-20.39990234375
0.0285,1.18115234375,18.11767578125,-18.95849609375
0.029,-3.70361328125,20.35986328125,-16.63623046875
0.0295,-6.50634765625,21.16064453125,-14.87451171875
0.03,-9.62939453125,21.60107421875,-12.43212890625
0.0305,-12.95263671875,21.08056640625,-8.82861328125
0.031,-16.51611328125,19.91943359375,-4.30419921875
0.0315,-19.47900390625,18.19775390625,0.42041015625
0.032,-21.40087890625,16.07568359375,4.38427734375
0.0325,-21.64111328125,13.63330078125,6.98681640625
0.033,-21.64111328125,10.43017578125,10.22998046875
0.0335,-21.00048828125,6.26611328125,13.75341796875
0.034,-19.99951171875,1.94189453125,17.23681640625
0.0345,-17.99755859375,-2.46240234375,19.59912109375
0.035,-16.03564453125,-5.58544921875,20.80029296875
0.0355,-13.51318359375,-8.58837890625,21.32080078125
0.036,-9.58935546875,-11.91162109375,20.80029296875
0.0365,-4.86474609375,-15.39501953125,19.71923828125
0.037,0.26025390625,-18.59814453125,18.11767578125
0.0375,4.54443359375,-20.56005859375,15.99560546875
0.038,7.18701171875,-21.00048828125,14.03369140625
0.0385,10.35009765625,-21.28076171875,11.39111328125
0.039,13.95361328125,-20.64013671875,7.38720703125
0.0395,17.23681640625,-19.39892578125,2.98291015625
0.04,19.87939453125,-17.43701171875,-1.54150390625
0.0405,21.24072265625,-15.55517578125,-4.82470703125
0.041,21.44091796875,-12.99267578125,-7.54736328125
0.0415,21.20068359375,-9.54931640625,-10.91064453125
0.042,20.47998046875,-5.30517578125,-14.35400390625
0.0425,19.39892578125,-0.94091796875,-17.71728515625
0.043,17.31689453125,3.30322265625,-19.83935546875
0.0435,15.15478515625,6.14599609375,-20.52001953125
0.044,12.47216796875,9.26904296875,-21.08056640625
0.0445,7.90771484375,13.11279296875,-20.43994140625
0.045,3.18310546875,16.43603515625,-19.23876953125
0.0455,-1.74169921875,19.19873046875,-17.31689453125
0.046,-5.42529296875,20.84033203125,-15.55517578125
0.0465,-8.14794921875,21.08056640625,-13.27294921875
0.047,-11.35107421875,21.12060546875,-10.39013671875
0.0475,-15.11474609375,20.31982421875,-6.02587890625
0.048,-18.39794921875,18.83837890625,-1.34130859375
0.0485,-20.60009765625,16.71630859375,2.90283203125
0.049,-21.48095703125,14.67431640625,5.82568359375
0.0495,-21.68115234375,11.83154296875,8.90869140625
0.05,-21.28076171875,7.70751953125,12.67236328125
0.0505,-20.35986328125,3.58349609375,15.91552734375
0.051,-18.91845703125,-0.94091796875,18.91845703125
0.0515,-16.79638671875,-4.82470703125,20.84033203125
0.052,-14.23388671875,-7.58740234375,21.04052734375
0.0525,-11.35107421875,-10.71044921875,21.28076171875
0.053,-6.22607421875,-14.75439453125,20.35986328125
0.0535,-1.22119140625,-17.99755859375,18.79833984375
0.054,3.30322265625,-20.03955078125,16.67626953125
0.0545,6.50634765625,-21.48095703125,14.87451171875
0.055,9.54931640625,-21.40087890625,12.23193359375
0.0555,12.91259765625,-21.00048828125,8.70849609375
0.056,16.35595703125,-20.03955078125,4.50439453125
0.0565,19.51904296875,-18.23779296875,-0.46044921875
0.057,21.24072265625,-16.15576171875,-4.22412109375
0.0575,21.48095703125,-13.79345703125,-6.86669921875
0.058,21.60107421875,-10.87060546875,-9.86962890625
0.0585,20.84033203125,-6.22607421875,-13.83349609375
0.059,19.83935546875,-2.10205078125,-16.91650390625
0.0595,17.95751953125,2.06201171875,-19.23876953125
0.06,15.95556640625,5.50537109375,-20.84033203125
0.0605,13.11279296875,8.42822265625,-20.80029296875
0.061,9.58935546875,11.71142578125,-20.64013671875
0.0615,4.82470703125,15.39501953125,-19.71923828125
0.062,-0.50048828125,18.55810546875,-17.91748046875
0.0625,-4.34423828125,20.23974609375,-15.91552734375
0.063,-7.06689453125,20.92041015625,-14.07373046875
0.0635,-10.10986328125,21.12060546875,-11.51123046875
0.064,-13.79345703125,20.23974609375,-7.18701171875
0.0645,-16.87646484375,19.19873046875,-3.18310546875
0.065,-19.51904296875,17.27685546875,1.34130859375
0.0655,-21.00048828125,15.23486328125,4.74462890625
0.066,-20.96044921875,12.63232421875,7.38720703125
0.0665,-21.00048828125,9.54931640625,10.55029296875
0.067,-20.19970703125,5.06494140625,14.27392578125
0.0675,-19.07861328125,0.78076171875,17.47705078125
0.068,-17.15673828125,-3.02294921875,19.31884765625
0.0685,-15.27490234375,-6.02587890625,20.47998046875
0.069,-12.39208984375,-8.94873046875,20.64013671875
0.0695,-7.98779296875,-12.67236328125,19.99951171875
0.07,-3.66357421875,-15.87548828125,19.03857421875
0.0705,1.42138671875,-18.63818359375,17.07666015625
0.071,4.90478515625,-20.19970703125,15.31494140625
0.0715,7.54736328125,-20.47998046875,13.15283203125
0.072,10.51025390625,-20.80029296875,10.75048828125
0.0725,14.51416015625,-19.87939453125,5.94580078125
0.073,17.55712890625,-18.51806640625,1.74169921875
0.0735,19.67919921875,-16.67626953125,-2.18212890625
0.074,20.80029296875,-14.75439453125,-5.14501953125
0.0745,20.72021484375,-11.95166015625,-7.90771484375
0.075,20.52001953125,-8.18798828125,-11.55126953125
0.0755,19.83935546875,-4.22412109375,-14.83447265625
0.076,18.47802734375,0.30029296875,-17.95751953125
0.0765,16.47607421875,3.86376953125,-19.55908203125
0.077,14.23388671875,6.66650390625,-20.19970703125
0.0775,11.51123046875,9.74951171875,-20.56005859375
0.078,6.14599609375,13.91357421875,-19.55908203125
0.0785,1.78173828125,16.95654296875,-18.31787109375
0.079,-2.66259765625,19.23876953125,-16.51611328125
0.0795,-5.90576171875,20.56005859375,-14.83447265625
0.08,-8.78857421875,20.56005859375,-12.19189453125
0.0805,-11.91162109375,20.52001953125,-9.26904296875
0.081,-15.71533203125,19.59912109375,-4.74462890625
0.0815,-18.75830078125,17.75732421875,0.14013671875
0.082,-20.35986328125,15.91552734375,3.54345703125
0.0825,-21.08056640625,13.75341796875,6.42626953125
0.083,-21.08056640625,10.87060546875,9.30908203125
0.0835,-20.47998046875,6.22607421875,13.43310546875
0.084,-19.59912109375,2.34228515625,16.47607421875
0.0845,-17.99755859375,-1.94189453125,19.07861328125
0.085,-15.99560546875,-5.42529296875,20.56005859375
0.0855,-13.11279296875,-8.22802734375,20.56005859375
0.086,-10.06982421875,-11.39111328125,20.80029296875
0.0865,-4.62451171875,-15.51513671875,19.59912109375
0.087,0.50048828125,-18.51806640625,17.75732421875
0.0875,4.14404296875,-20.03955078125,15.95556640625
0.088,7.22705078125,-21.12060546875,14.11376953125
0.0885,10.31005859375,-21.08056640625,11.15087890625
0.089,13.91357421875,-20.43994140625,7.14697265625
0.0895,17.23681640625,-19.47900390625,3.02294921875
0.09,19.99951171875,-17.35693359375,-1.82177734375
0.0905,21.04052734375,-15.35498046875,-4.82470703125
0.091,21.20068359375,-12.71240234375,-7.66748046875
0.0915,21.20068359375,-9.74951171875,-10.67041015625
0.092,20.39990234375,-4.82470703125,-14.79443359375
0.0925,19.07861328125,-0.58056640625,-17.75732421875
0.093,17.27685546875,3.22314453125,-19.67919921875
0.0935,15.23486328125,6.46630859375,-20.96044921875
0.094,11.83154296875,9.46923828125,-20.64013671875
0.0945,7.82763671875,13.11279296875,-20.35986328125
0.095,3.02294921875,16.71630859375,-19.31884765625
0.0955,-2.30224609375,19.47900390625,-17.11669921875
0.096,-5.42529296875,20.64013671875,-15.31494140625
0.0965,-8.42822265625,21.16064453125,-13.15283203125
0.097,-11.39111328125,21.16064453125,-10.35009765625
0.0975,-15.39501953125,19.99951171875,-5.42529296875
0.098,-18.47802734375,18.63818359375,-1.14111328125
0.0985,-20.60009765625,16.67626953125,3.02294921875
0.099,-21.44091796875,14.59423828125,5.90576171875
0.0995,-21.28076171875,11.51123046875,8.82861328125
0.1,-21.12060546875,7.98779296875,12.23193359375
0.1005,-20.27978515625,3.46337890625,15.99560546875
0.101,-18.55810546875,-1.18115234375,18.91845703125
0.1015,-16.59619140625,-4.50439453125,20.19970703125
0.102,-14.47412109375,-7.50732421875,21.20068359375
0.1025,-11.07080078125,-10.59033203125,20.92041015625
0.103,-6.02587890625,-14.51416015625,19.87939453125
0.1035,-1.38134765625,-17.75732421875,18.71826171875
0.104,3.38330078125,-20.03955078125,16.55615234375
0.1045,6.34619140625,-20.96044921875,14.71435546875
0.105,9.42919921875,-21.12060546875,12.03173828125
0.1055,12.51220703125,-21.04052734375,9.06884765625
0.106,16.31591796875,-19.71923828125,4.26416015625
0.1065,19.23876953125,-17.91748046875,-0.58056640625
0.107,20.76025390625,-15.99560546875,-3.82373046875
0.1075,21.40087890625,-13.83349609375,-6.66650390625
0.108,21.12060546875,-10.63037109375,-9.58935546875
0.1085,20.52001953125,-6.38623046875,-13.39306640625
0.109,19.75927734375,-2.26220703125,-16.67626953125
0.1095,17.95751953125,2.22216796875,-19.31884765625
0.11,15.75537109375,5.34521484375,-20.31982421875
0.1105,13.15283203125,8.34814453125,-20.80029296875
0.111,9.70947265625,11.63134765625,-20.72021484375
0.1115,4.30419921875,15.63525390625,-19.43896484375
0.112,-0.58056640625,18.55810546875,-17.75732421875
0.1125,-4.42431640625,20.31982421875,-15.95556640625
0.113,-7.30712890625,21.04052734375,-14.03369140625
0.1135,-10.55029296875,20.92041015625,-10.95068359375
0.114,-13.91357421875,20.47998046875,-7.30712890625
0.1145,-17.35693359375,19.31884765625,-2.82275390625
0.115,-20.11962890625,17.15673828125,2.06201171875
0.1155,-21.00048828125,15.11474609375,4.98486328125
0.116,-21.52099609375,12.67236328125,7.90771484375
0.1165,-21.28076171875,9.26904296875,11.07080078125
0.117,-20.39990234375,4.62451171875,14.95458984375
0.1175,-19.23876953125,0.42041015625,17.99755859375
0.118,-17.43701171875,-3.62353515625,20.19970703125
0.1185,-15.15478515625,-6.66650390625,21.00048828125
0.119,-12.03173828125,-9.70947265625,21.00048828125
0.1195,-7.98779296875,-13.35302734375,20.68017578125
0.12,-2.70263671875,-17.07666015625,19.27880859375
0.1205,2.42236328125,-19.67919921875,16.99658203125
0.121,5.54541015625,-20.88037109375,15.35498046875
0.1215,8.62841796875,-21.52099609375,13.15283203125
0.122,11.83154296875,-21.12060546875,9.82958984375
0.1225,15.51513671875,-20.19970703125,5.46533203125
0.123,18.71826171875,-18.83837890625,0.98095703125
0.1235,20.96044921875,-16.63623046875,-3.38330078125
0.124,21.40087890625,-14.47412109375,-6.02587890625
0.1245,21.52099609375,-11.55126953125,-9.06884765625
0.125,21.12060546875,-7.78759765625,-12.51220703125
0.1255,20.19970703125,-3.22314453125,-16.07568359375
0.126,18.47802734375,1.22119140625,-18.87841796875
0.1265,16.59619140625,4.66455078125,-20.47998046875
0.127,14.15380859375,7.70751953125,-21.12060546875
0.1275,10.55029296875,10.91064453125,-20.80029296875
0.128,5.94580078125,14.63427734375,-20.03955078125
0.1285,0.98095703125,18.03759765625,-18.71826171875
0.129,-3.82373046875,20.23974609375,-16.39599609375
0.1295,-6.54638671875,20.92041015625,-14.59423828125
0.13,-9.62939453125,21.36083984375,-12.15185546875
0.1305,-13.07275390625,20.88037109375,-8.54833984375
0.131,-16.59619140625,19.71923828125,-3.98388671875
0.1315,-19.47900390625,17.95751953125,0.66064453125
0.132,-21.24072265625,15.91552734375,4.42431640625
0.1325,-21.52099609375,13.51318359375,7.06689453125
0.133,-21.44091796875,10.22998046875,10.22998046875
0.1335,-20.80029296875,6.10595703125,13.79345703125
0.134,-19.87939453125,1.78173828125,17.27685546875
0.1345,-17.83740234375,-2.66259765625,19.59912109375
0.135,-15.79541015625,-5.70556640625,20.64013671875
0.1355,-13.31298828125,-8.66845703125,21.24072265625
0.136,-9.26904296875,-12.11181640625,20.72021484375
0.1365,-4.38427734375,-15.67529296875,19.51904296875
0.137,0.62060546875,-18.71826171875,17.83740234375
0.1375,4.74462890625,-20.64013671875,15.83544921875
0.138,7.38720703125,-20.96044921875,13.79345703125
0.1385,10.55029296875,-21.16064453125,11.07080078125
0.139,14.15380859375,-20.52001953125,7.06689453125
0.1395,17.51708984375,-19.27880859375,2.58251953125
0.14,19.99951171875,-17.27685546875,-1.94189453125
0.1405,21.20068359375,-15.35498046875,-4.98486328125
0.141,21.44091796875,-12.75244140625,-7.78759765625
0.1415,21.16064453125,-9.10888671875,-11.23095703125
0.142,20.31982421875,-4.90478515625,-14.59423828125
0.1425,19.19873046875,-0.62060546875,-17.83740234375
0.143,17.15673828125,3.58349609375,-19.91943359375
0.1435,14.83447265625,6.34619140625,-20.47998046875
0.144,12.19189453125,9.46923828125,-20.88037109375
0.1445,7.50732421875,13.27294921875,-20.23974609375
0.145,2.70263671875,16.63623046875,-18.95849609375
0.1455,-2.06201171875,19.11865234375,-16.95654296875
0.146,-5.50537109375,20.68017578125,-15.27490234375
0.1465,-8.26806640625,20.92041015625,-13.03271484375
0.147,-11.43115234375,20.80029296875,-10.10986328125
0.1475,-15.07470703125,20.03955078125,-5.74560546875
0.148,-18.27783203125,18.51806640625,-1.10107421875
0.1485,-20.47998046875,16.47607421875,3.10302734375
0.149,-21.12060546875,14.39404296875,5.78564453125
0.1495,-21.40087890625,11.59130859375,8.86865234375
0.15,-20.92041015625,7.46728515625,12.59228515625
0.1505,-19.99951171875,3.34326171875,15.83544921875
0.151,-18.51806640625,-0.98095703125,18.55810546875
0.1515,-16.59619140625,-4.66455078125,20.47998046875
0.152,-14.07373046875,-7.42724609375,20.68017578125
0.1525,-10.95068359375,-10.59033203125,20.80029296875
0.153,-6.10595703125,-14.47412109375,19.99951171875
0.1535,-1.02099609375,-17.75732421875,18.43798828125
0.154,3.34326171875,-19.79931640625,16.35595703125
0.1545,6.26611328125,-20.84033203125,14.71435546875
0.155,9.26904296875,-21.12060546875,12.19189453125
0.1555,12.79248046875,-20.56005859375,8.38818359375
0.156,16.11572265625,-19.67919921875,4.34423828125
0.1565,19.19873046875,-17.87744140625,-0.50048828125
0.157,20.88037109375,-15.87548828125,-4.14404296875
0.1575,21.08056640625,-13.43310546875,-6.70654296875
0.158,21.20068359375,-10.59033203125,-9.74951171875
0.1585,20.52001953125,-6.10595703125,-13.63330078125
0.159,19.51904296875,-1.94189453125,-16.83642578125
0.1595,17.63720703125,2.22216796875,-19.03857421875
0.16,15.75537109375,5.50537109375,-20.47998046875
0.1605,12.87255859375,8.34814453125,-20.60009765625
0.161,9.06884765625,11.79150390625,-20.31982421875
0.1615,4.54443359375,15.35498046875,-19.39892578125
0.162,-0.70068359375,18.51806640625,-17.59716796875
0.1625,-4.54443359375,20.19970703125,-15.67529296875
0.163,-7.18701171875,20.72021484375,-13.79345703125
0.1635,-10.27001953125,21.00048828125,-11.23095703125
0.164,-14.11376953125,20.15966796875,-6.74658203125
0.1645,-17.19677734375,18.99853515625,-2.66259765625
0.165,-19.71923828125,17.11669921875,1.78173828125
0.1655,-21.12060546875,15.11474609375,5.06494140625
0.166,-21.08056640625,12.39208984375,7.70751953125
0.1665,-21.08056640625,9.10888671875,11.07080078125
0.167,-20.23974609375,4.74462890625,14.67431640625
0.1675,-19.03857421875,0.30029296875,17.91748046875
0.168,-16.95654296875,-3.54345703125,19.67919921875
0.1685,-14.99462890625,-6.38623046875,20.56005859375
0.169,-12.15185546875,-9.38916015625,20.80029296875
0.1695,-7.38720703125,-13.27294921875,19.99951171875
0.17,-2.98291015625,-16.35595703125,18.83837890625
0.1705,1.94189453125,-19.03857421875,16.91650390625
0.171,5.42529296875,-20.47998046875,15.11474609375
0.1715,8.10791015625,-20.60009765625,12.79248046875
0.172,11.11083984375,-20.80029296875,10.22998046875
0.1725,15.03466796875,-19.83935546875,5.50537109375
0.173,18.07763671875,-18.27783203125,1.06103515625
0.1735,19.99951171875,-16.39599609375,-2.70263671875
0.174,20.88037109375,-14.43408203125,-5.54541015625
0.1745,20.80029296875,-11.59130859375,-8.34814453125
0.175,20.43994140625,-7.54736328125,-12.07177734375
0.1755,19.63916015625,-3.70361328125,-15.11474609375
0.176,18.19775390625,0.70068359375,-18.07763671875
0.1765,16.15576171875,4.26416015625,-19.71923828125
0.177,13.71337890625,6.98681640625,-19.87939453125
0.1775,11.03076171875,9.98974609375,-20.39990234375
0.178,5.74560546875,14.11376953125,-19.31884765625
0.1785,1.22119140625,17.11669921875,-17.95751953125
0.179,-2.94287109375,19.19873046875,-16.15576171875
0.1795,-6.06591796875,20.43994140625,-14.51416015625
0.18,-8.90869140625,20.35986328125,-11.87158203125
0.1805,-12.11181640625,20.19970703125,-8.66845703125
0.181,-15.63525390625,19.35888671875,-4.50439453125
0.1815,-18.59814453125,17.47705078125,0.30029296875
0.182,-20.15966796875,15.59521484375,3.66357421875
0.1825,-20.56005859375,13.43310546875,6.34619140625
0.183,-20.72021484375,10.63037109375,9.14892578125
0.1835,-20.07958984375,5.94580078125,13.27294921875
0.184,-19.15869140625,2.10205078125,16.23583984375
0.1845,-17.55712890625,-1.98193359375,18.63818359375
0.185,-15.67529296875,-5.26513671875,20.15966796875
0.1855,-12.79248046875,-7.98779296875,20.07958984375
0.186,-9.62939453125,-11.23095703125,20.15966796875
0.1865,-4.58447265625,-15.07470703125,19.15869140625
0.187,0.54052734375,-18.03759765625,17.23681640625
0.1875,3.98388671875,-19.59912109375,15.51513671875
0.188,6.90673828125,-20.47998046875,13.75341796875
0.1885,9.90966796875,-20.52001953125,11.07080078125
0.189,13.63330078125,-19.79931640625,6.78662109375
0.1895,16.79638671875,-18.83837890625,2.86279296875
0.19,19.31884765625,-16.95654296875,-1.58154296875
0.1905,20.47998046875,-15.03466796875,-4.54443359375
0.191,20.47998046875,-12.43212890625,-7.22705078125
0.1915,20.56005859375,-9.46923828125,-10.31005859375
