wavelength,x,y,z
0.0,-1.46142578125,-5.70556640625,5.26513671875
0.0005,-2.70263671875,-4.66455078125,5.62548828125
0.001,-3.94384765625,-3.38330078125,5.82568359375
0.0015,-4.94482421875,-2.38232421875,6.02587890625
0.002,-5.30517578125,-1.70166015625,6.14599609375
0.0025,-5.30517578125,-0.98095703125,5.70556640625
0.003,-5.14501953125,0.10009765625,4.86474609375
0.0035,-5.10498046875,1.26123046875,3.86376953125
0.004,-5.02490234375,2.62255859375,2.66259765625
0.0045,-5.06494140625,3.66357421875,1.90185546875
0.005,-4.78466796875,4.30419921875,1.14111328125
0.0055,-4.10400390625,4.62451171875,0.30029296875
0.006,-3.06298828125,4.90478515625,-1.06103515625
0.0065,-1.90185546875,5.22509765625,-2.50244140625
0.007,-0.94091796875,5.58544921875,-3.78369140625
0.0075,-0.30029296875,5.82568359375,-4.66455078125
0.008,0.62060546875,5.58544921875,-5.26513671875
0.0085,1.78173828125,4.66455078125,-5.70556640625
0.009,3.06298828125,3.46337890625,-6.06591796875
0.0095,4.30419921875,2.10205078125,-6.22607421875
0.01,4.98486328125,1.30126953125,-6.38623046875
0.0105,5.26513671875,0.62060546875,-6.26611328125
0.011,5.10498046875,-0.34033203125,-5.58544921875
0.0115,4.94482421875,-1.46142578125,-4.50439453125
0.012,4.78466796875,-2.74267578125,-3.30322265625
0.0125,4.78466796875,-4.06396484375,-2.26220703125
0.013,4.66455078125,-4.90478515625,-1.46142578125
0.0135,4.18408203125,-5.38525390625,-0.66064453125
0.014,3.22314453125,-5.62548828125,0.50048828125
0.0145,2.02197265625,-5.86572265625,1.90185546875
0.015,0.74072265625,-6.06591796875,3.34326171875
0.0155,0.02001953125,-6.38623046875,4.42431640625
0.016,-0.70068359375,-6.46630859375,5.14501953125
0.0165,-1.62158203125,-5.90576171875,5.58544921875
0.017,-2.86279296875,-4.78466796875,5.90576171875
0.0175,-4.14404296875,-3.54345703125,6.10595703125
0.018,-5.18505859375,-2.22216796875,6.22607421875
0.0185,-5.70556640625,-1.42138671875,6.26611328125
0.019,-5.74560546875,-0.70068359375,5.90576171875
0.0195,-5.46533203125,0.30029296875,5.02490234375
0.02,-5.26513671875,1.54150390625,3.86376953125
0.0205,-5.10498046875,2.90283203125,2.54248046875
0.021,-5.10498046875,4.06396484375,1.62158203125
0.0215,-4.86474609375,4.70458984375,0.90087890625
0.022,-4.14404296875,4.98486328125,0.06005859375
0.0225,-3.06298828125,5.22509765625,-1.26123046875
0.023,-1.78173828125,5.46533203125,-2.74267578125
0.0235,-0.62060546875,5.70556640625,-4.14404296875
0.024,0.10009765625,5.94580078125,-5.06494140625
0.0245,0.82080078125,5.74560546875,-5.70556640625
0.025,1.94189453125,4.90478515625,-6.10595703125
0.0255,3.30322265625,3.58349609375,-6.38623046875
0.026,4.54443359375,2.18212890625,-6.46630859375
0.0265,5.42529296875,1.10107421875,-6.54638671875
0.027,5.70556640625,0.38037109375,-6.42626953125
0.0275,5.58544921875,-0.58056640625,-5.82568359375
0.028,5.30517578125,-1.74169921875,-4.70458984375
0.0285,5.10498046875,-3.10302734375,-3.38330078125
0.029,4.94482421875,-4.50439453125,-2.06201171875
0.0295,4.82470703125,-5.42529296875,-1.22119140625
0.03,4.38427734375,-5.94580078125,-0.42041015625
0.0305,3.34326171875,-6.10595703125,0.66064453125
0.031,1.98193359375,-6.26611328125,2.18212890625
0.0315,0.58056640625,-6.38623046875,3.74365234375
0.032,-0.50048828125,-6.58642578125,4.94482421875
0.0325,-1.10107421875,-6.74658203125,5.70556640625
0.033,-1.94189453125,-6.22607421875,6.14599609375
0.0335,-3.22314453125,-4.98486328125,6.42626953125
0.034,-4.58447265625,-3.54345703125,6.62646484375
0.0345,-5.74560546875,-2.02197265625,6.62646484375
0.035,-6.26611328125,-1.10107421875,6.58642578125
0.0355,-6.30615234375,-0.34033203125,6.22607421875
0.036,-5.98583984375,0.66064453125,5.30517578125
0.0365,-5.62548828125,1.98193359375,3.90380859375
0.037,-5.38525390625,3.34326171875,2.50244140625
0.0375,-5.22509765625,4.62451171875,1.30126953125
0.038,-4.98486328125,5.34521484375,0.50048828125
0.0385,-4.26416015625,5.62548828125,-0.42041015625
0.039,-3.10302734375,5.70556640625,-1.54150390625
0.0395,-1.58154296875,5.82568359375,-3.18310546875
0.04,-0.22021484375,5.90576171875,-4.66455078125
0.0405,0.62060546875,6.10595703125,-5.70556640625
0.041,1.30126953125,5.98583984375,-6.34619140625
0.0415,2.30224609375,5.10498046875,-6.66650390625
0.042,3.74365234375,3.70361328125,-6.86669921875
0.0425,4.94482421875,2.22216796875,-6.90673828125
0.043,5.90576171875,0.86083984375,-6.90673828125
0.0435,6.22607421875,0.02001953125,-6.70654296875
0.044,6.10595703125,-0.90087890625,-6.10595703125
0.0445,5.74560546875,-1.94189453125,-5.02490234375
0.045,5.38525390625,-3.34326171875,-3.50341796875
0.0455,5.06494140625,-4.74462890625,-2.02197265625
0.046,4.86474609375,-5.78564453125,-0.98095703125
0.0465,4.46435546875,-6.34619140625,-0.22021484375
0.047,3.50341796875,-6.46630859375,0.78076171875
0.0475,2.10205078125,-6.50634765625,2.22216796875
0.048,0.62060546875,-6.58642578125,3.82373046875
0.0485,-0.78076171875,-6.70654296875,5.14501953125
0.049,-1.38134765625,-6.86669921875,5.94580078125
0.0495,-2.06201171875,-6.50634765625,6.42626953125
0.05,-3.18310546875,-5.42529296875,6.70654296875
0.0505,-4.50439453125,-3.86376953125,6.82666015625
0.051,-5.66552734375,-2.38232421875,6.74658203125
0.0515,-6.38623046875,-1.18115234375,6.70654296875
0.052,-6.54638671875,-0.50048828125,6.46630859375
0.0525,-6.26611328125,0.50048828125,5.70556640625
0.053,-5.82568359375,1.58154296875,4.46435546875
0.0535,-5.54541015625,2.98291015625,3.02294921875
0.054,-5.26513671875,4.34423828125,1.58154296875
0.0545,-5.10498046875,5.26513671875,0.70068359375
0.055,-4.58447265625,5.70556640625,-0.14013671875
0.0555,-3.58349609375,5.74560546875,-1.10107421875
0.056,-2.10205078125,5.82568359375,-2.58251953125
0.0565,-0.74072265625,5.90576171875,-4.10400390625
0.057,0.42041015625,6.02587890625,-5.30517578125
0.0575,0.98095703125,6.10595703125,-6.06591796875
0.058,1.82177734375,5.62548828125,-6.46630859375
0.0585,3.06298828125,4.42431640625,-6.70654296875
0.059,4.34423828125,2.94287109375,-6.90673828125
0.0595,5.50537109375,1.42138671875,-6.86669921875
0.06,6.06591796875,0.50048828125,-6.82666015625
0.0605,6.10595703125,-0.34033203125,-6.50634765625
0.061,5.78564453125,-1.26123046875,-5.62548828125
0.0615,5.42529296875,-2.54248046875,-4.18408203125
0.062,5.14501953125,-3.94384765625,-2.78271484375
0.0625,4.98486328125,-5.26513671875,-1.54150390625
0.063,4.74462890625,-6.02587890625,-0.70068359375
0.0635,4.06396484375,-6.34619140625,0.26025390625
0.064,2.90283203125,-6.42626953125,1.34130859375
0.0645,1.42138671875,-6.58642578125,2.90283203125
0.065,-0.14013671875,-6.66650390625,4.50439453125
0.0655,-0.98095703125,-6.82666015625,5.46533203125
0.066,-1.50146484375,-6.74658203125,6.14599609375
0.0665,-2.50244140625,-5.94580078125,6.46630859375
0.067,-3.86376953125,-4.58447265625,6.70654296875
0.0675,-5.10498046875,-3.14306640625,6.78662109375
0.068,-6.14599609375,-1.66162109375,6.74658203125
0.0685,-6.50634765625,-0.82080078125,6.66650390625
0.069,-6.42626953125,0.06005859375,6.10595703125
0.0695,-6.10595703125,1.06103515625,5.10498046875
0.07,-5.74560546875,2.42236328125,3.66357421875
0.0705,-5.42529296875,3.86376953125,2.10205078125
0.071,-5.30517578125,5.02490234375,1.06103515625
0.0715,-4.90478515625,5.62548828125,0.26025390625
0.072,-4.02392578125,5.78564453125,-0.74072265625
0.0725,-2.62255859375,5.82568359375,-2.10205078125
0.073,-1.22119140625,5.94580078125,-3.70361328125
0.0735,0.26025390625,6.02587890625,-5.18505859375
0.074,0.86083984375,6.22607421875,-5.94580078125
0.0745,1.58154296875,5.90576171875,-6.46630859375
0.075,2.70263671875,4.86474609375,-6.78662109375
0.0755,4.14404296875,3.30322265625,-6.94677734375
0.076,5.26513671875,1.78173828125,-6.90673828125
0.0765,6.10595703125,0.58056640625,-6.86669921875
0.077,6.22607421875,-0.30029296875,-6.58642578125
0.0775,5.98583984375,-1.14111328125,-5.82568359375
0.078,5.62548828125,-2.26220703125,-4.58447265625
0.0785,5.26513671875,-3.70361328125,-3.14306640625
0.079,4.98486328125,-5.06494140625,-1.70166015625
0.0795,4.78466796875,-5.90576171875,-0.82080078125
0.08,4.26416015625,-6.34619140625,0.06005859375
0.0805,3.18310546875,-6.42626953125,1.02099609375
0.081,1.78173828125,-6.54638671875,2.50244140625
0.0815,0.26025390625,-6.54638671875,4.02392578125
0.082,-0.86083984375,-6.58642578125,5.22509765625
0.0825,-1.38134765625,-6.70654296875,5.94580078125
0.083,-2.18212890625,-6.18603515625,6.34619140625
0.0835,-3.30322265625,-5.06494140625,6.54638671875
0.084,-4.58447265625,-3.66357421875,6.66650390625
0.0845,-5.70556640625,-2.14208984375,6.58642578125
0.085,-6.26611328125,-1.18115234375,6.54638671875
0.0855,-6.26611328125,-0.50048828125,6.26611328125
0.086,-5.94580078125,0.46044921875,5.42529296875
0.0865,-5.62548828125,1.58154296875,4.18408203125
0.087,-5.34521484375,2.94287109375,2.82275390625
0.0875,-5.14501953125,4.22412109375,1.58154296875
0.088,-4.98486328125,5.02490234375,0.82080078125
0.0885,-4.42431640625,5.38525390625,0.02001953125
0.089,-3.46337890625,5.46533203125,-1.06103515625
0.0895,-2.10205078125,5.62548828125,-2.50244140625
0.09,-0.70068359375,5.74560546875,-3.98388671875
0.0905,0.18017578125,6.02587890625,-5.06494140625
0.091,0.78076171875,6.06591796875,-5.78564453125
0.0915,1.66162109375,5.42529296875,-6.14599609375
0.092,2.94287109375,4.18408203125,-6.42626953125
0.0925,4.18408203125,2.86279296875,-6.58642578125
0.093,5.26513671875,1.50146484375,-6.66650390625
0.0935,5.74560546875,0.62060546875,-6.62646484375
0.094,5.74560546875,-0.18017578125,-6.26611328125
0.0945,5.50537109375,-1.14111328125,-5.38525390625
0.095,5.22509765625,-2.34228515625,-4.10400390625
0.0955,4.98486328125,-3.78369140625,-2.70263671875
0.096,4.94482421875,-4.94482421875,-1.66162109375
0.0965,4.62451171875,-5.70556640625,-0.94091796875
0.097,3.90380859375,-5.98583984375,0.06005859375
0.0975,2.78271484375,-6.10595703125,1.22119140625
0.098,1.42138671875,-6.26611328125,2.74267578125
0.0985,0.14013671875,-6.38623046875,4.14404296875
0.099,-0.62060546875,-6.62646484375,5.10498046875
0.0995,-1.26123046875,-6.46630859375,5.70556640625
0.1,-2.26220703125,-5.70556640625,6.02587890625
0.1005,-3.54345703125,-4.38427734375,6.26611328125
0.101,-4.78466796875,-2.94287109375,6.34619140625
0.1015,-5.66552734375,-1.82177734375,6.42626953125
0.102,-5.90576171875,-1.14111328125,6.34619140625
0.1025,-5.82568359375,-0.34033203125,5.74560546875
0.103,-5.58544921875,0.74072265625,4.78466796875
0.1035,-5.30517578125,1.98193359375,3.54345703125
0.104,-5.14501953125,3.34326171875,2.26220703125
0.1045,-5.10498046875,4.30419921875,1.34130859375
0.105,-4.74462890625,4.82470703125,0.62060546875
0.1055,-3.90380859375,5.06494140625,-0.34033203125
0.106,-2.70263671875,5.26513671875,-1.58154296875
0.1065,-1.46142578125,5.46533203125,-3.06298828125
0.107,-0.42041015625,5.70556640625,-4.30419921875
0.1075,0.26025390625,5.90576171875,-5.14501953125
0.108,1.02099609375,5.62548828125,-5.66552734375
0.1085,2.06201171875,4.70458984375,-5.98583984375
0.109,3.30322265625,3.50341796875,-6.26611328125
0.1095,4.50439453125,2.06201171875,-6.34619140625
0.11,5.22509765625,1.14111328125,-6.42626953125
0.1105,5.42529296875,0.50048828125,-6.26611328125
0.111,5.26513671875,-0.42041015625,-5.62548828125
0.1115,4.98486328125,-1.46142578125,-4.54443359375
0.112,4.82470703125,-2.70263671875,-3.38330078125
0.1125,4.78466796875,-4.02392578125,-2.30224609375
0.113,4.66455078125,-4.94482421875,-1.54150390625
0.1135,4.22412109375,-5.42529296875,-0.78076171875
0.114,3.38330078125,-5.62548828125,0.26025390625
0.1145,2.22216796875,-5.78564453125,1.58154296875
0.115,0.90087890625,-5.98583984375,3.06298828125
0.1155,0.14013671875,-6.30615234375,4.14404296875
0.116,-0.54052734375,-6.46630859375,4.94482421875
0.1165,-1.34130859375,-6.02587890625,5.38525390625
0.117,-2.50244140625,-5.02490234375,5.70556640625
0.1175,-3.66357421875,-3.86376953125,5.90576171875
0.118,-4.78466796875,-2.62255859375,6.06591796875
0.1185,-5.34521484375,-1.86181640625,6.18603515625
0.119,-5.46533203125,-1.18115234375,5.90576171875
0.1195,-5.30517578125,-0.38037109375,5.26513671875
0.12,-5.10498046875,0.78076171875,4.30419921875
0.1205,-4.98486328125,2.06201171875,3.10302734375
0.121,-5.06494140625,3.22314453125,2.22216796875
0.1215,-4.98486328125,3.98388671875,1.46142578125
0.122,-4.42431640625,4.46435546875,0.74072265625
0.1225,-3.54345703125,4.70458984375,-0.38037109375
0.123,-2.54248046875,5.06494140625,-1.66162109375
0.1235,-1.34130859375,5.30517578125,-3.06298828125
0.124,-0.70068359375,5.70556640625,-4.06396484375
0.1245,0.10009765625,5.74560546875,-4.82470703125
0.125,0.98095703125,5.18505859375,-5.30517578125
0.1255,2.22216796875,4.14404296875,-5.66552734375
0.126,3.38330078125,2.94287109375,-5.90576171875
0.1265,4.38427734375,1.94189453125,-6.14599609375
0.127,4.86474609375,1.30126953125,-6.26611328125
0.1275,4.94482421875,0.58056640625,-5.90576171875
0.128,4.82470703125,-0.42041015625,-5.14501953125
0.1285,4.74462890625,-1.58154296875,-4.18408203125
0.129,4.62451171875,-2.90283203125,-3.06298828125
0.1295,4.66455078125,-3.98388671875,-2.26220703125
0.13,4.54443359375,-4.66455078125,-1.58154296875
0.1305,3.90380859375,-5.02490234375,-0.74072265625
0.131,3.02294921875,-5.34521484375,0.50048828125
0.1315,1.94189453125,-5.62548828125,1.86181640625
0.132,0.94091796875,-6.02587890625,3.14306640625
0.1325,0.30029296875,-6.34619140625,4.14404296875
0.133,-0.54052734375,-6.22607421875,4.74462890625
0.1335,-1.54150390625,-5.58544921875,5.18505859375
0.134,-2.70263671875,-4.54443359375,5.54541015625
0.1345,-3.98388671875,-3.26318359375,5.78564453125
0.135,-4.82470703125,-2.42236328125,6.02587890625
0.1355,-5.18505859375,-1.78173828125,6.06591796875
0.136,-5.18505859375,-1.02099609375,5.54541015625
0.1365,-5.06494140625,0.02001953125,4.74462890625
0.137,-4.98486328125,1.22119140625,3.74365234375
0.1375,-5.06494140625,2.50244140625,2.70263671875
0.138,-5.02490234375,3.54345703125,1.94189453125
0.1385,-4.70458984375,4.14404296875,1.22119140625
0.139,-4.02392578125,4.50439453125,0.34033203125
0.1395,-3.02294921875,4.82470703125,-1.06103515625
0.14,-1.90185546875,5.18505859375,-2.46240234375
0.1405,-1.14111328125,5.54541015625,-3.62353515625
0.141,-0.50048828125,5.78564453125,-4.50439453125
0.1415,0.50048828125,5.42529296875,-5.06494140625
0.142,1.66162109375,4.54443359375,-5.46533203125
0.1425,2.90283203125,3.42333984375,-5.78564453125
0.143,4.06396484375,2.22216796875,-6.06591796875
0.1435,4.74462890625,1.42138671875,-6.22607421875
0.144,4.98486328125,0.74072265625,-6.02587890625
0.1445,4.86474609375,-0.26025390625,-5.42529296875
0.145,4.74462890625,-1.34130859375,-4.42431640625
0.1455,4.62451171875,-2.66259765625,-3.26318359375
0.146,4.74462890625,-3.82373046875,-2.34228515625
0.1465,4.62451171875,-4.62451171875,-1.62158203125
0.147,4.10400390625,-5.06494140625,-0.82080078125
0.1475,3.18310546875,-5.34521484375,0.34033203125
0.148,2.06201171875,-5.66552734375,1.70166015625
0.1485,0.94091796875,-5.94580078125,3.14306640625
0.149,0.30029296875,-6.30615234375,4.14404296875
0.1495,-0.50048828125,-6.34619140625,4.82470703125
0.15,-1.42138671875,-5.74560546875,5.26513671875
0.1505,-2.70263671875,-4.66455078125,5.62548828125
0.151,-3.86376953125,-3.38330078125,5.82568359375
0.1515,-4.86474609375,-2.34228515625,6.02587890625
0.152,-5.30517578125,-1.66162109375,6.10595703125
0.1525,-5.30517578125,-0.98095703125,5.66552734375
0.153,-5.14501953125,0.06005859375,4.82470703125
0.1535,-5.06494140625,1.18115234375,3.86376953125
0.154,-4.98486328125,2.62255859375,2.62255859375
0.1545,-5.02490234375,3.66357421875,1.86181640625
0.155,-4.78466796875,4.30419921875,1.14111328125
0.1555,-4.14404296875,4.62451171875,0.30029296875
0.156,-3.06298828125,4.86474609375,-1.02099609375
0.1565,-1.94189453125,5.18505859375,-2.38232421875
0.157,-0.94091796875,5.50537109375,-3.70361328125
0.1575,-0.34033203125,5.78564453125,-4.62451171875
0.158,0.54052734375,5.58544921875,-5.22509765625
0.1585,1.58154296875,4.78466796875,-5.62548828125
0.159,2.90283203125,3.58349609375,-5.94580078125
0.1595,4.14404296875,2.26220703125,-6.10595703125
0.16,4.90478515625,1.38134765625,-6.30615234375
0.1605,5.18505859375,0.62060546875,-6.22607421875
0.161,5.10498046875,-0.26025390625,-5.62548828125
0.1615,4.86474609375,-1.34130859375,-4.62451171875
0.162,4.78466796875,-2.54248046875,-3.46337890625
0.1625,4.74462890625,-3.86376953125,-2.34228515625
0.163,4.66455078125,-4.78466796875,-1.58154296875
0.1635,4.26416015625,-5.26513671875,-0.78076171875
0.164,3.34326171875,-5.50537109375,0.26025390625
0.1645,2.22216796875,-5.78564453125,1.62158203125
0.165,0.94091796875,-5.98583984375,3.10302734375
0.1655,0.18017578125,-6.34619140625,4.18408203125
0.166,-0.58056640625,-6.46630859375,5.02490234375
0.1665,-1.42138671875,-5.94580078125,5.46533203125
0.167,-2.66259765625,-4.90478515625,5.78564453125
0.1675,-3.90380859375,-3.66357421875,6.02587890625
0.168,-5.02490234375,-2.34228515625,6.14599609375
0.1685,-5.58544921875,-1.62158203125,6.22607421875
0.169,-5.66552734375,-0.90087890625,5.90576171875
0.1695,-5.46533203125,0.02001953125,5.14501953125
0.17,-5.26513671875,1.30126953125,4.02392578125
0.1705,-5.10498046875,2.66259765625,2.70263671875
0.171,-5.10498046875,3.86376953125,1.78173828125
0.1715,-4.90478515625,4.58447265625,1.02099609375
0.172,-4.26416015625,4.90478515625,0.22021484375
0.1725,-3.18310546875,5.10498046875,-1.02099609375
0.173,-1.98193359375,5.42529296875,-2.50244140625
0.1735,-0.74072265625,5.62548828125,-3.94384765625
0.174,0.02001953125,5.90576171875,-4.94482421875
0.1745,0.70068359375,5.82568359375,-5.58544921875
0.175,1.78173828125,5.02490234375,-5.94580078125
0.1755,3.14306640625,3.70361328125,-6.30615234375
0.176,4.42431640625,2.30224609375,-6.42626953125
0.1765,5.26513671875,1.14111328125,-6.54638671875
0.177,5.62548828125,0.38037109375,-6.46630859375
0.1775,5.50537109375,-0.54052734375,-5.90576171875
0.178,5.26513671875,-1.54150390625,-4.82470703125
0.1785,5.10498046875,-2.90283203125,-3.54345703125
0.179,4.86474609375,-4.30419921875,-2.18212890625
0.1795,4.82470703125,-5.34521484375,-1.26123046875
0.18,4.42431640625,-5.86572265625,-0.50048828125
0.1805,3.46337890625,-6.02587890625,0.58056640625
0.181,2.10205078125,-6.18603515625,1.98193359375
0.1815,0.62060546875,-6.34619140625,3.58349609375
0.182,-0.46044921875,-6.54638671875,4.82470703125
0.1825,-1.02099609375,-6.66650390625,5.62548828125
0.183,-1.86181640625,-6.18603515625,6.10595703125
0.1835,-3.06298828125,-5.02490234375,6.38623046875
0.184,-4.46435546875,-3.58349609375,6.54638671875
0.1845,-5.62548828125,-2.14208984375,6.54638671875
0.185,-6.22607421875,-1.22119140625,6.54638671875
0.1855,-6.26611328125,-0.50048828125,6.18603515625
0.186,-5.94580078125,0.58056640625,5.30517578125
0.1865,-5.62548828125,1.82177734375,3.98388671875
0.187,-5.34521484375,3.22314453125,2.58251953125
0.1875,-5.18505859375,4.50439453125,1.38134765625
0.188,-4.94482421875,5.22509765625,0.62060546875
0.1885,-4.30419921875,5.54541015625,-0.30029296875
0.189,-3.18310546875,5.62548828125,-1.38134765625
0.1895,-1.70166015625,5.74560546875,-2.98291015625
0.19,-0.30029296875,5.86572265625,-4.50439453125
0.1905,0.58056640625,6.06591796875,-5.50537109375
0.191,1.18115234375,5.98583984375,-6.14599609375
0.1915,2.18212890625,5.18505859375,-6.50634765625
0.192,3.50341796875,3.86376953125,-6.70654296875
0.1925,4.74462890625,2.34228515625,-6.86669921875
0.193,5.74560546875,0.94091796875,-6.86669921875
0.1935,6.06591796875,0.10009765625,-6.66650390625
0.194,6.02587890625,-0.70068359375,-6.18603515625
0.1945,5.66552734375,-1.70166015625,-5.10498046875
0.195,5.26513671875,-3.10302734375,-3.66357421875
0.1955,4.98486328125,-4.50439453125,-2.18212890625
0.196,4.86474609375,-5.62548828125,-1.14111328125
0.1965,4.50439453125,-6.14599609375,-0.38037109375
0.197,3.66357421875,-6.34619140625,0.62060546875
0.1975,2.38232421875,-6.42626953125,1.86181640625
0.198,0.86083984375,-6.54638671875,3.50341796875
0.1985,-0.58056640625,-6.58642578125,4.90478515625
0.199,-1.22119140625,-6.74658203125,5.74560546875
