wavelength,x,y,z
0.0,-16.971557617188,-5.4803466796875,21.626098632812
0.0005,-13.968627929688,-8.4031982421875,21.465942382812
0.001,-10.805541992188,-11.566284179688,21.666137695312
0.0015,-5.2801513671875,-15.810424804688,20.464965820312
0.002,-0.2752685546875,-18.653198242188,18.583129882812
0.0025,3.5284423828125,-20.294799804688,16.701293945312
0.003,6.7716064453125,-21.335815429688,14.779418945312
0.0035,9.9747314453125,-21.135620117188,11.576293945312
0.004,13.858520507812,-20.414916992188,7.1719970703125
0.0045,17.141723632812,-19.574096679688,2.9678955078125
0.005,19.864379882812,-17.532104492188,-1.4764404296875
0.0055,21.265747070312,-15.610229492188,-4.8397216796875
0.006,21.546020507812,-12.847534179688,-7.8026123046875
0.0065,21.666137695312,-9.7645263671875,-11.045776367188
0.007,20.985473632812,-4.8397216796875,-15.289916992188
0.0075,19.784301757812,-0.8358154296875,-18.132690429688
0.008,18.022583007812,2.7677001953125,-20.014526367188
0.0085,16.100708007812,6.0909423828125,-21.495971679688
0.009,12.657348632812,9.2139892578125,-21.135620117188
0.0095,8.5333251953125,12.937622070312,-20.855346679688
0.01,3.8487548828125,16.501098632812,-19.934448242188
0.0105,-1.2762451171875,19.143676757812,-17.772338867188
0.011,-4.5594482421875,20.424926757812,-15.970581054688
0.0115,-7.6024169921875,20.945434570312,-13.808471679688
0.012,-10.765502929688,20.865356445312,-10.725463867188
0.0125,-15.049682617188,19.864379882812,-5.5604248046875
0.013,-18.012573242188,18.543090820312,-1.3563232421875
0.0135,-20.214721679688,16.661254882812,2.5675048828125
0.014,-21.415893554688,14.699340820312,5.7305908203125
0.0145,-21.295776367188,11.496215820312,8.8135986328125
0.015,-21.295776367188,7.9727783203125,12.377075195312
0.0155,-20.615112304688,3.5684814453125,16.140747070312
0.016,-18.893432617188,-0.7557373046875,18.823364257812
0.0165,-17.171752929688,-4.0389404296875,20.304809570312
0.017,-15.129760742188,-7.0018310546875,21.305786132812
0.0175,-11.846557617188,-10.004760742188,21.105590820312
0.018,-6.6815185546875,-14.088745117188,20.184692382812
0.0185,-2.2772216796875,-17.171752929688,18.983520507812
0.019,2.2872314453125,-19.373901367188,16.941528320312
0.0195,5.4102783203125,-20.374877929688,15.179809570312
0.02,8.4532470703125,-20.454956054688,12.296997070312
0.0205,11.656372070312,-20.334838867188,9.2139892578125
0.021,15.620239257812,-19.333862304688,4.4093017578125
0.0215,18.463012695312,-17.572143554688,-0.1551513671875
0.022,20.104614257812,-15.850463867188,-3.3582763671875
0.0225,20.905395507812,-13.728393554688,-6.3612060546875
0.023,20.705200195312,-10.565307617188,-9.2840576171875
0.0235,20.344848632812,-6.4012451171875,-13.167846679688
0.024,19.664184570312,-2.5975341796875,-16.170776367188
0.0245,18.102661132812,1.4063720703125,-18.773315429688
0.025,16.140747070312,4.5694580078125,-19.974487304688
0.0255,13.578247070312,7.4122314453125,-20.374877929688
0.026,10.455200195312,10.615356445312,-20.494995117188
0.0265,5.0899658203125,14.739379882812,-19.373901367188
0.027,0.6456298828125,17.381958007812,-17.772338867188
0.0275,-3.0379638671875,19.103637695312,-16.130737304688
0.028,-6.0008544921875,20.024536132812,-14.328979492188
0.0285,-9.0037841796875,19.824340820312,-11.245971679688
0.029,-12.607299804688,19.463989257812,-7.4022216796875
0.0295,-16.050659179688,18.503051757812,-3.2781982421875
0.03,-18.613159179688,16.621215820312,1.1260986328125
0.0305,-19.894409179688,14.899536132812,4.0089111328125
0.031,-20.454956054688,12.497192382812,6.9718017578125
0.0315,-20.454956054688,9.4542236328125,9.9747314453125
0.032,-19.894409179688,4.9298095703125,14.098754882812
0.0325,-18.933471679688,1.1260986328125,16.901489257812
0.033,-17.452026367188,-2.3973388671875,19.023559570312
0.0335,-15.610229492188,-5.4002685546875,20.144653320312
0.034,-12.527221679688,-8.2430419921875,20.024536132812
0.0345,-8.9637451171875,-11.686401367188,19.984497070312
0.035,-3.9588623046875,-15.450073242188,18.903442382812
0.0355,0.7657470703125,-17.932495117188,16.901489257812
0.036,3.7686767578125,-19.213745117188,15.420043945312
0.0365,6.7315673828125,-19.894409179688,13.418090820312
0.037,9.7745361328125,-19.654174804688,10.295043945312
0.0375,13.658325195312,-18.933471679688,5.8907470703125
0.038,16.661254882812,-17.812377929688,1.9268798828125
0.0385,18.943481445312,-16.050659179688,-2.0770263671875
0.039,19.864379882812,-14.128784179688,-4.5994873046875
0.0395,20.064575195312,-11.486206054688,-7.8026123046875
0.04,19.984497070312,-8.1629638671875,-11.085815429688
0.0405,19.463989257812,-3.9989013671875,-14.849487304688
0.041,17.982543945312,0.0850830078125,-17.331909179688
0.0415,16.581176757812,3.1680908203125,-18.973510742188
0.042,14.539184570312,6.1309814453125,-19.974487304688
0.0425,11.215942382812,9.1339111328125,-19.774291992188
0.043,6.8516845703125,12.937622070312,-19.253784179688
0.0435,2.4874267578125,16.140747070312,-18.252807617188
0.044,-1.9969482421875,18.302856445312,-16.290893554688
0.0445,-4.7596435546875,19.263793945312,-14.689331054688
0.045,-7.7625732421875,19.584106445312,-12.206909179688
0.0455,-11.085815429688,19.343872070312,-8.9237060546875
0.046,-14.809448242188,18.463012695312,-4.4393310546875
0.0465,-17.612182617188,16.981567382812,-0.3153076171875
0.047,-19.614135742188,15.339965820312,3.2081298828125
0.0475,-20.174682617188,13.257934570312,6.0108642578125
0.048,-20.214721679688,10.174926757812,9.0938720703125
0.0485,-19.934448242188,6.2510986328125,12.777465820312
0.049,-19.293823242188,2.3272705078125,16.140747070312
0.0495,-17.652221679688,-1.6766357421875,18.463012695312
0.05,-15.970581054688,-4.5194091796875,19.664184570312
0.0505,-13.688354492188,-7.4422607421875,20.304809570312
0.051,-10.044799804688,-10.645385742188,19.984497070312
0.0515,-5.0799560546875,-14.328979492188,18.943481445312
0.052,-0.7156982421875,-17.171752929688,17.542114257812
0.0525,3.2481689453125,-19.093627929688,15.780395507812
0.053,5.9708251953125,-19.694213867188,13.858520507812
0.0535,9.0137939453125,-19.654174804688,11.015747070312
0.054,12.617309570312,-19.253784179688,7.2120361328125
0.0545,15.980590820312,-18.172729492188,2.9678955078125
0.055,18.382934570312,-16.411010742188,-1.2362060546875
0.0555,19.704223632812,-14.769409179688,-4.1590576171875
0.056,20.184692382812,-12.367065429688,-7.0418701171875
0.0565,19.984497070312,-9.0037841796875,-10.244995117188
0.057,19.463989257812,-4.9197998046875,-13.808471679688
0.0575,18.543090820312,-1.1561279296875,-16.691284179688
0.058,16.941528320312,2.5675048828125,-18.773315429688
0.0585,14.939575195312,5.2901611328125,-19.494018554688
0.059,12.256958007812,8.1729736328125,-19.814331054688
0.0595,8.1729736328125,11.616333007812,-19.574096679688
0.06,3.6085205078125,15.099731445312,-18.372924804688
0.0605,-0.7557373046875,17.421997070312,-16.571166992188
0.061,-3.9188232421875,18.943481445312,-15.089721679688
0.0615,-6.6815185546875,19.303833007812,-12.967651367188
0.062,-9.7244873046875,19.103637695312,-9.9246826171875
0.0625,-13.328002929688,18.543090820312,-5.8807373046875
0.063,-16.451049804688,17.341918945312,-1.7567138671875
0.0635,-18.573120117188,15.540161132812,2.1671142578125
0.064,-19.494018554688,13.778442382812,4.7696533203125
0.0645,-19.894409179688,11.175903320312,7.6925048828125
0.065,-19.694213867188,7.6124267578125,11.215942382812
0.0655,-19.093627929688,3.6885986328125,14.579223632812
0.066,-17.812377929688,0.0050048828125,17.021606445312
0.0665,-16.411010742188,-3.3582763671875,18.943481445312
0.067,-14.208862304688,-6.0408935546875,19.504028320312
0.0675,-11.286010742188,-8.9637451171875,19.463989257812
0.068,-7.0018310546875,-12.607299804688,19.023559570312
0.0685,-2.3572998046875,-15.890502929688,17.782348632812
0.069,1.8868408203125,-17.852416992188,15.860473632812
0.0695,4.6094970703125,-18.933471679688,14.379028320312
0.07,7.4923095703125,-19.253784179688,12.056762695312
0.0705,10.815551757812,-18.893432617188,8.5333251953125
0.071,14.138793945312,-18.252807617188,4.6094970703125
0.0715,16.941528320312,-16.811401367188,0.6055908203125
0.072,18.943481445312,-15.169799804688,-2.9979248046875
0.0725,19.383911132812,-13.087768554688,-5.6004638671875
0.073,19.624145507812,-10.244995117188,-8.6033935546875
0.0735,19.343872070312,-6.3211669921875,-12.246948242188
0.074,18.703247070312,-2.5574951171875,-15.450073242188
0.0745,17.141723632812,1.1260986328125,-17.572143554688
0.075,15.660278320312,4.1290283203125,-19.093627929688
0.0755,13.257934570312,6.9718017578125,-19.534057617188
0.076,9.6143798828125,10.214965820312,-19.253784179688
0.0765,5.3302001953125,13.698364257812,-18.613159179688
0.077,0.7657470703125,16.661254882812,-17.211791992188
0.0775,-3.0379638671875,18.463012695312,-15.490112304688
0.078,-5.6405029296875,19.063598632812,-13.728393554688
0.0785,-8.6434326171875,19.343872070312,-11.205932617188
0.079,-12.447143554688,18.703247070312,-7.2020263671875
0.0795,-15.610229492188,17.862426757812,-3.0780029296875
0.08,-17.972534179688,16.260864257812,0.9259033203125
0.0805,-19.734252929688,14.579223632812,4.1290283203125
0.081,-19.934448242188,12.136840820312,6.8917236328125
0.0815,-20.054565429688,8.8936767578125,10.255004882812
0.082,-19.574096679688,4.8497314453125,13.818481445312
0.0825,-18.653198242188,0.8858642578125,16.941528320312
0.083,-16.891479492188,-2.7576904296875,18.863403320312
0.0835,-15.129760742188,-5.4403076171875,19.784301757812
0.084,-12.487182617188,-8.4031982421875,20.184692382812
0.0845,-8.0028076171875,-12.166870117188,19.544067382812
0.085,-3.6785888671875,-15.329956054688,18.503051757812
0.0855,0.8858642578125,-17.812377929688,16.741333007812
0.086,4.4093017578125,-19.494018554688,15.099731445312
0.0865,7.0518798828125,-19.614135742188,12.777465820312
0.087,10.094848632812,-19.614135742188,10.054809570312
0.0875,14.018676757812,-18.973510742188,5.6104736328125
0.088,17.021606445312,-17.652221679688,1.3663330078125
0.0885,19.063598632812,-15.970581054688,-2.3973388671875
0.089,20.184692382812,-14.048706054688,-5.3201904296875
0.0895,20.344848632812,-11.245971679688,-8.2430419921875
0.09,20.144653320312,-7.2821044921875,-12.046752929688
0.0905,19.624145507812,-3.5584716796875,-15.249877929688
0.091,18.222778320312,0.4454345703125,-17.852416992188
0.0915,16.461059570312,3.9688720703125,-19.654174804688
0.092,13.938598632812,6.5714111328125,-19.894409179688
0.0925,11.255981445312,9.6143798828125,-20.214721679688
0.093,6.2110595703125,13.698364257812,-19.373901367188
0.0935,1.7667236328125,16.621215820312,-18.012573242188
0.094,-2.1971435546875,18.503051757812,-16.210815429688
0.0945,-5.4403076171875,19.864379882812,-14.649291992188
0.095,-8.2830810546875,19.704223632812,-11.886596679688
0.0955,-11.686401367188,19.383911132812,-8.3231201171875
0.096,-15.209838867188,18.703247070312,-4.3192138671875
0.0965,-18.092651367188,16.981567382812,0.1651611328125
0.097,-19.854370117188,15.259887695312,3.6885986328125
0.0975,-20.454956054688,13.057739257812,6.4112548828125
0.098,-20.655151367188,10.255004882812,9.4542236328125
0.0985,-20.094604492188,5.7305908203125,13.578247070312
0.099,-19.293823242188,1.9268798828125,16.501098632812
0.0995,-17.772338867188,-1.7967529296875,18.623168945312
0.1,-16.130737304688,-5.0799560546875,20.344848632812
0.1005,-13.167846679688,-7.8426513671875,20.224731445312
0.101,-10.004760742188,-10.965698242188,20.224731445312
0.1015,-5.0799560546875,-14.809448242188,19.343872070312
0.102,-0.2352294921875,-17.652221679688,17.582153320312
0.1025,3.4083251953125,-19.213745117188,15.740356445312
0.103,6.3712158203125,-20.054565429688,13.938598632812
0.1035,9.3341064453125,-20.094604492188,11.175903320312
0.104,13.217895507812,-19.373901367188,6.6915283203125
0.1045,16.260864257812,-18.493041992188,2.8878173828125
0.105,18.783325195312,-16.691284179688,-1.3162841796875
0.1055,20.344848632812,-14.849487304688,-4.5994873046875
0.106,20.424926757812,-12.166870117188,-7.4022216796875
0.1065,20.585083007812,-9.2440185546875,-10.565307617188
0.107,19.984497070312,-4.6395263671875,-14.569213867188
0.1075,18.863403320312,-0.6356201171875,-17.452026367188
0.108,17.101684570312,2.8077392578125,-19.093627929688
0.1085,15.299926757812,5.8907470703125,-20.454956054688
0.109,12.176879882812,8.8936767578125,-20.334838867188
0.1095,7.8126220703125,12.537231445312,-19.894409179688
0.11,3.5284423828125,15.700317382812,-19.253784179688
0.1105,-1.3162841796875,18.422973632812,-17.051635742188
0.111,-4.5994873046875,19.784301757812,-15.329956054688
0.1115,-7.5223388671875,20.024536132812,-12.927612304688
0.112,-10.525268554688,20.144653320312,-10.244995117188
0.1125,-14.729370117188,19.143676757812,-5.2401123046875
0.113,-17.692260742188,17.782348632812,-0.9959716796875
0.1135,-19.734252929688,16.020629882812,2.7276611328125
0.114,-20.975463867188,14.098754882812,5.8907470703125
0.1145,-20.815307617188,11.135864257812,9.0137939453125
0.115,-20.815307617188,7.3321533203125,12.537231445312
0.1155,-20.174682617188,3.1680908203125,16.060668945312
0.116,-18.653198242188,-1.1160888671875,18.863403320312
0.1165,-16.691284179688,-4.3992919921875,20.264770507812
0.117,-14.489135742188,-7.3221435546875,20.985473632812
0.1175,-11.446166992188,-10.285034179688,20.985473632812
0.118,-5.9207763671875,-14.569213867188,19.904418945312
0.1185,-1.5565185546875,-17.452026367188,18.623168945312
0.119,2.8477783203125,-19.574096679688,16.701293945312
0.1195,6.0909423828125,-20.775268554688,14.859497070312
0.12,9.1739501953125,-20.535034179688,11.776489257812
0.1205,12.337036132812,-20.454956054688,8.6134033203125
0.121,16.260864257812,-19.373901367188,3.8487548828125
0.1215,19.143676757812,-17.492065429688,-0.8358154296875
0.122,20.625122070312,-15.650268554688,-4.0789794921875
0.1225,21.425903320312,-13.408081054688,-7.2420654296875
0.123,21.185668945312,-10.124877929688,-10.204956054688
0.1235,20.665161132812,-5.6405029296875,-14.248901367188
0.124,19.864379882812,-1.8367919921875,-17.291870117188
0.1245,18.222778320312,2.2471923828125,-19.654174804688
0.125,16.140747070312,5.5303955078125,-20.855346679688
0.1255,13.177856445312,8.4532470703125,-20.975463867188
0.126,9.9346923828125,11.696411132812,-21.015502929688
0.1265,4.4093017578125,15.820434570312,-19.814331054688
0.127,-0.3953857421875,18.503051757812,-17.932495117188
0.1275,-3.9188232421875,20.024536132812,-16.170776367188
0.128,-7.0819091796875,20.905395507812,-14.248901367188
0.1285,-10.244995117188,20.545043945312,-10.885620117188
0.129,-13.968627929688,19.984497070312,-6.7215576171875
0.1295,-17.331909179688,18.903442382812,-2.4774169921875
0.13,-19.934448242188,16.821411132812,2.2071533203125
0.1305,-21.095581054688,14.899536132812,5.1700439453125
0.131,-21.495971679688,12.176879882812,8.3331298828125
0.1315,-21.375854492188,8.9737548828125,11.496215820312
0.132,-20.655151367188,4.1290283203125,15.540161132812
0.1325,-19.293823242188,0.1251220703125,18.302856445312
0.133,-17.652221679688,-3.4783935546875,20.224731445312
0.1335,-15.570190429688,-6.5614013671875,21.265747070312
0.134,-12.046752929688,-9.6444091796875,20.945434570312
0.1345,-8.2030029296875,-13.127807617188,20.665161132812
0.135,-3.1580810546875,-16.771362304688,19.463989257812
0.1355,1.9268798828125,-19.253784179688,17.141723632812
0.136,4.9698486328125,-20.414916992188,15.460083007812
0.1365,8.0528564453125,-21.015502929688,13.137817382812
0.137,11.255981445312,-20.535034179688,9.8145751953125
0.1375,15.179809570312,-19.574096679688,5.0899658203125
0.138,18.182739257812,-18.252807617188,0.9259033203125
0.1385,20.384887695312,-16.330932617188,-3.1981201171875
0.139,21.145629882812,-14.208862304688,-6.1209716796875
0.1395,21.185668945312,-11.085815429688,-9.3641357421875
0.14,21.025512695312,-7.5223388671875,-12.687377929688
0.1405,20.304809570312,-3.1580810546875,-16.370971679688
0.141,18.623168945312,1.1661376953125,-18.933471679688
0.1415,16.781372070312,4.3292236328125,-20.374877929688
0.142,14.579223632812,7.3721923828125,-21.215698242188
0.1425,10.895629882812,10.535278320312,-20.815307617188
0.143,6.1309814453125,14.379028320312,-20.054565429688
0.1435,1.5665283203125,17.582153320312,-18.853393554688
0.144,-3.0780029296875,19.704223632812,-16.651245117188
0.1445,-6.0408935546875,20.464965820312,-14.809448242188
0.145,-9.1639404296875,20.705200195312,-12.006713867188
0.1455,-12.607299804688,20.344848632812,-8.4432373046875
0.146,-16.411010742188,19.223754882812,-3.7586669921875
0.1465,-19.213745117188,17.462036132812,0.7657470703125
0.147,-20.975463867188,15.660278320312,4.3292236328125
0.1475,-21.576049804688,13.257934570312,7.3321533203125
0.148,-21.495971679688,9.8145751953125,10.655395507812
0.1485,-21.015502929688,5.6905517578125,14.379028320312
0.149,-20.174682617188,1.5665283203125,17.742309570312
0.1495,-18.252807617188,-2.7176513671875,20.144653320312
0.15,-16.290893554688,-5.7606201171875,21.105590820312
0.1505,-13.648315429688,-8.8436279296875,21.626098632812
0.151,-9.6844482421875,-12.206909179688,21.225708007812
0.1515,-4.4393310546875,-16.050659179688,19.984497070312
0.152,0.3253173828125,-18.853393554688,18.222778320312
0.1525,4.4093017578125,-20.775268554688,16.340942382812
0.153,7.3721923828125,-21.135620117188,14.098754882812
0.1535,10.655395507812,-21.015502929688,10.935668945312
0.154,14.379028320312,-20.494995117188,6.7315673828125
0.1545,17.902465820312,-19.213745117188,2.1671142578125
0.155,20.384887695312,-17.171752929688,-2.4373779296875
0.1555,21.626098632812,-15.209838867188,-5.5604248046875
0.156,22.066528320312,-12.407104492188,-8.6834716796875
0.1565,21.746215820312,-8.6033935546875,-12.327026367188
0.157,20.985473632812,-4.1990966796875,-15.970581054688
0.1575,19.864379882812,0.0050048828125,-18.933471679688
0.158,17.902465820312,4.0089111328125,-21.095581054688
0.1585,15.420043945312,6.9718017578125,-21.656127929688
0.159,12.337036132812,10.214965820312,-21.856323242188
0.1595,7.7325439453125,14.098754882812,-21.295776367188
0.16,2.6075439453125,17.622192382812,-19.934448242188
0.1605,-2.2371826171875,19.904418945312,-17.772338867188
0.161,-5.7606201171875,21.465942382812,-15.970581054688
0.1615,-8.9637451171875,21.626098632812,-13.408081054688
0.162,-12.367065429688,21.265747070312,-9.6444091796875
0.1625,-16.210815429688,20.424926757812,-5.1199951171875
0.163,-19.534057617188,18.863403320312,-0.3553466796875
0.1635,-21.736206054688,16.661254882812,4.0089111328125
0.164,-22.456909179688,14.379028320312,7.0518798828125
0.1645,-22.777221679688,11.215942382812,10.455200195312
0.165,-22.296752929688,6.8516845703125,14.459106445312
0.1655,-21.295776367188,2.4073486328125,17.942504882812
0.166,-19.574096679688,-1.8768310546875,20.505004882812
0.1665,-17.732299804688,-5.7205810546875,22.466918945312
0.167,-14.769409179688,-8.6834716796875,22.627075195312
0.1675,-11.205932617188,-12.126831054688,22.466918945312
0.168,-6.0809326171875,-16.090698242188,21.546020507812
0.1685,-0.7557373046875,-19.494018554688,19.824340820312
0.169,3.8887939453125,-21.415893554688,17.421997070312
0.1695,7.0919189453125,-22.256713867188,15.460083007812
0.17,10.455200195312,-22.456909179688,12.417114257812
0.1705,14.379028320312,-21.616088867188,7.9327392578125
0.171,17.902465820312,-20.494995117188,3.4884033203125
0.1715,20.865356445312,-18.573120117188,-1.3963623046875
0.172,22.747192382812,-16.370971679688,-5.4403076171875
0.1725,22.907348632812,-13.528198242188,-8.4031982421875
0.173,22.947387695312,-10.164916992188,-11.926635742188
0.1735,22.306762695312,-5.3201904296875,-16.010620117188
0.174,21.105590820312,-0.9959716796875,-19.293823242188
0.1745,18.943481445312,3.1680908203125,-21.335815429688
0.175,16.941528320312,6.6915283203125,-22.777221679688
0.1755,13.618286132812,9.8946533203125,-22.777221679688
0.176,9.2139892578125,13.578247070312,-22.176635742188
0.1765,4.3292236328125,17.181762695312,-21.135620117188
0.177,-1.0760498046875,20.304809570312,-19.093627929688
0.1775,-5.2000732421875,21.826293945312,-17.171752929688
0.178,-8.2030029296875,22.266723632812,-14.449096679688
