wavelength,x,y,z
0.0,-4.554443359375,3.733642578125,1.331298828125
0.0005,-4.354248046875,4.494384765625,0.610595703125
0.001,-3.473388671875,4.854736328125,-0.710693359375
0.0015,-2.272216796875,4.934814453125,-1.951904296875
0.002,-1.111083984375,4.974853515625,-3.153076171875
0.0025,-0.510498046875,5.175048828125,-3.953857421875
0.003,0.370361328125,5.255126953125,-4.834716796875
0.0035,1.251220703125,5.295166015625,-5.755615234375
0.004,2.612548828125,3.813720703125,-5.875732421875
0.0045,3.693603515625,2.372314453125,-5.795654296875
0.005,4.374267578125,1.411376953125,-5.755615234375
0.0055,4.774658203125,0.770751953125,-5.755615234375
0.006,5.094970703125,0.090087890625,-5.715576171875
0.0065,5.135009765625,-1.031005859375,-5.074951171875
0.007,4.814697265625,-2.192138671875,-3.833740234375
0.0075,4.494384765625,-3.353271484375,-2.512451171875
0.008,4.294189453125,-4.114013671875,-1.751708984375
0.0085,4.053955078125,-4.834716796875,-1.031005859375
0.009,3.893798828125,-5.555419921875,-0.310302734375
0.0095,2.492431640625,-5.675537109375,1.171142578125
0.01,1.211181640625,-5.635498046875,2.492431640625
0.0105,0.330322265625,-5.715576171875,3.413330078125
0.011,-0.390380859375,-5.915771484375,4.254150390625
0.0115,-1.191162109375,-5.795654296875,5.094970703125
0.012,-2.192138671875,-5.475341796875,5.815673828125
0.0125,-3.473388671875,-3.993896484375,5.855712890625
0.013,-4.474365234375,-2.512451171875,5.655517578125
0.0135,-4.954833984375,-1.791748046875,5.655517578125
0.014,-5.235107421875,-1.111083984375,5.575439453125
0.0145,-5.595458984375,-0.430419921875,5.575439453125
0.015,-5.395263671875,0.930908203125,4.334228515625
0.0155,-5.074951171875,2.092041015625,3.133056640625
0.016,-4.754638671875,3.093017578125,2.052001953125
0.0165,-4.554443359375,3.773681640625,1.291259765625
0.017,-4.314208984375,4.414306640625,0.570556640625
0.0175,-3.953857421875,5.014892578125,-0.430419921875
0.018,-2.432373046875,5.054931640625,-1.791748046875
0.0185,-1.111083984375,5.014892578125,-3.113037109375
0.019,-0.430419921875,5.175048828125,-3.953857421875
0.0195,0.370361328125,5.255126953125,-4.794677734375
0.02,1.251220703125,5.175048828125,-5.715576171875
0.0205,2.572509765625,4.134033203125,-6.115966796875
0.021,3.693603515625,2.772705078125,-6.115966796875
0.0215,4.494384765625,1.491455078125,-5.915771484375
0.022,4.854736328125,0.730712890625,-5.835693359375
0.0225,5.135009765625,0.050048828125,-5.755615234375
0.023,5.415283203125,-0.830810546875,-5.555419921875
0.0235,5.054931640625,-2.272216796875,-4.033935546875
0.024,4.614501953125,-3.473388671875,-2.592529296875
0.0245,4.334228515625,-4.314208984375,-1.711669921875
0.025,4.093994140625,-4.954833984375,-0.990966796875
0.0255,3.733642578125,-5.595458984375,-0.190185546875
0.026,2.812744140625,-5.915771484375,1.171142578125
0.0265,1.371337890625,-5.835693359375,2.492431640625
0.027,0.250244140625,-5.795654296875,3.613525390625
0.0275,-0.510498046875,-5.915771484375,4.414306640625
0.028,-1.271240234375,-5.915771484375,5.175048828125
0.0285,-2.112060546875,-5.795654296875,6.095947265625
0.029,-3.593505859375,-4.154052734375,6.135986328125
0.0295,-4.674560546875,-2.592529296875,5.975830078125
0.03,-5.235107421875,-1.631591796875,5.855712890625
0.0305,-5.475341796875,-0.990966796875,5.735595703125
0.031,-5.755615234375,-0.190185546875,5.535400390625
0.0315,-5.795654296875,0.970947265625,4.814697265625
0.032,-5.435302734375,2.252197265625,3.373291015625
0.0325,-4.954833984375,3.453369140625,1.931884765625
0.033,-4.634521484375,4.093994140625,1.091064453125
0.0335,-4.354248046875,4.654541015625,0.330322265625
0.034,-3.993896484375,5.375244140625,-0.550537109375
0.0345,-2.432373046875,5.415283203125,-2.192138671875
0.035,-0.990966796875,5.375244140625,-3.473388671875
0.0355,0.010009765625,5.375244140625,-4.434326171875
0.036,0.650634765625,5.415283203125,-5.155029296875
0.0365,1.571533203125,5.175048828125,-5.955810546875
0.037,2.612548828125,4.694580078125,-6.716552734375
0.0375,4.053955078125,2.932861328125,-6.636474609375
0.038,5.014892578125,1.291259765625,-6.316162109375
0.0385,5.375244140625,0.450439453125,-6.115966796875
0.039,5.535400390625,-0.390380859375,-5.915771484375
0.0395,5.735595703125,-1.231201171875,-5.595458984375
0.04,5.495361328125,-2.752685546875,-4.114013671875
0.0405,5.014892578125,-3.993896484375,-2.672607421875
0.041,4.534423828125,-4.954833984375,-1.431396484375
0.0415,4.134033203125,-5.515380859375,-0.630615234375
0.042,3.693603515625,-5.955810546875,0.290283203125
0.0425,3.052978515625,-6.476318359375,1.291259765625
0.043,1.211181640625,-6.356201171875,3.012939453125
0.0435,-0.310302734375,-6.115966796875,4.294189453125
0.044,-0.990966796875,-6.115966796875,4.974853515625
0.0445,-1.671630859375,-6.035888671875,5.695556640625
0.045,-2.672607421875,-5.635498046875,6.456298828125
0.0455,-4.073974609375,-4.354248046875,6.816650390625
0.046,-5.155029296875,-2.752685546875,6.616455078125
0.0465,-5.835693359375,-1.311279296875,6.256103515625
0.047,-6.035888671875,-0.590576171875,5.975830078125
0.0475,-6.115966796875,0.290283203125,5.615478515625
0.048,-6.276123046875,1.211181640625,5.215087890625
0.0485,-5.755615234375,2.812744140625,3.293212890625
0.049,-5.155029296875,3.933837890625,1.771728515625
0.0495,-4.754638671875,4.654541015625,0.770751953125
0.05,-4.314208984375,5.135009765625,0.010009765625
0.0505,-3.793701171875,5.615478515625,-0.950927734375
0.051,-2.592529296875,5.935791015625,-2.272216796875
0.0515,-0.990966796875,5.735595703125,-3.753662109375
0.052,0.450439453125,5.495361328125,-4.874755859375
0.0525,1.010986328125,5.455322265625,-5.515380859375
0.053,1.811767578125,5.255126953125,-6.236083984375
0.0535,2.732666015625,4.974853515625,-7.036865234375
0.054,4.334228515625,3.052978515625,-6.996826171875
0.0545,5.255126953125,1.491455078125,-6.676513671875
0.055,5.735595703125,0.370361328125,-6.396240234375
0.0555,5.815673828125,-0.470458984375,-6.115966796875
0.056,5.895751953125,-1.271240234375,-5.635498046875
0.0565,5.895751953125,-2.512451171875,-4.834716796875
0.057,5.335205078125,-3.913818359375,-3.113037109375
0.0575,4.654541015625,-5.114990234375,-1.471435546875
0.058,4.294189453125,-5.595458984375,-0.630615234375
0.0585,3.813720703125,-6.075927734375,0.250244140625
0.059,3.333251953125,-6.596435546875,1.091064453125
0.0595,1.571533203125,-6.596435546875,2.812744140625
0.06,0.090087890625,-6.396240234375,4.134033203125
0.0605,-1.071044921875,-6.196044921875,5.054931640625
0.061,-1.631591796875,-6.156005859375,5.695556640625
0.0615,-2.512451171875,-5.795654296875,6.376220703125
0.062,-3.553466796875,-5.315185546875,7.056884765625
0.0625,-4.994873046875,-3.273193359375,6.896728515625
0.063,-5.915771484375,-1.631591796875,6.416259765625
0.0635,-6.156005859375,-0.790771484375,6.176025390625
0.064,-6.236083984375,0.130126953125,5.855712890625
0.0645,-6.396240234375,0.890869140625,5.415283203125
0.065,-6.115966796875,2.412353515625,3.973876953125
0.0655,-5.595458984375,3.613525390625,2.412353515625
0.066,-4.994873046875,4.614501953125,1.051025390625
0.0665,-4.514404296875,5.135009765625,0.250244140625
0.067,-3.993896484375,5.615478515625,-0.630615234375
0.0675,-3.433349609375,6.055908203125,-1.631591796875
0.068,-1.471435546875,5.895751953125,-3.353271484375
0.0685,0.170166015625,5.615478515625,-4.634521484375
0.069,0.890869140625,5.575439453125,-5.395263671875
0.0695,1.571533203125,5.455322265625,-6.075927734375
0.07,2.532470703125,5.054931640625,-6.796630859375
0.0705,3.853759765625,3.853759765625,-7.197021484375
0.071,4.974853515625,2.212158203125,-7.036865234375
0.0715,5.735595703125,0.610595703125,-6.516357421875
0.072,5.935791015625,-0.310302734375,-6.276123046875
0.0725,5.975830078125,-1.111083984375,-5.915771484375
0.073,6.135986328125,-1.951904296875,-5.515380859375
0.0735,5.575439453125,-3.593505859375,-3.593505859375
0.074,4.974853515625,-4.754638671875,-1.951904296875
0.0745,4.494384765625,-5.515380859375,-0.950927734375
0.075,4.053955078125,-6.035888671875,0.010009765625
0.0755,3.493408203125,-6.476318359375,0.850830078125
0.076,2.412353515625,-6.796630859375,2.172119140625
0.0765,0.610595703125,-6.556396484375,3.693603515625
0.077,-0.910888671875,-6.236083984375,4.894775390625
0.0775,-1.471435546875,-6.236083984375,5.575439453125
0.078,-2.232177734375,-6.075927734375,6.216064453125
0.0785,-3.113037109375,-5.755615234375,7.016845703125
0.079,-4.674560546875,-3.873779296875,7.056884765625
0.0795,-5.675537109375,-2.232177734375,6.696533203125
0.08,-6.115966796875,-0.990966796875,6.336181640625
0.0805,-6.316162109375,-0.310302734375,6.015869140625
0.081,-6.396240234375,0.610595703125,5.615478515625
0.0815,-6.436279296875,1.731689453125,4.854736328125
0.082,-5.835693359375,3.253173828125,3.052978515625
0.0825,-5.155029296875,4.454345703125,1.411376953125
0.083,-4.714599609375,5.054931640625,0.530517578125
0.0835,-4.274169921875,5.495361328125,-0.350341796875
0.084,-3.793701171875,6.055908203125,-1.231201171875
0.0845,-2.072021484375,6.055908203125,-2.872802734375
0.085,-0.510498046875,5.815673828125,-4.274169921875
0.0855,0.690673828125,5.575439453125,-5.195068359375
0.086,1.331298828125,5.495361328125,-5.835693359375
0.0865,2.252197265625,5.175048828125,-6.556396484375
0.087,3.173095703125,4.774658203125,-7.317138671875
0.0875,4.614501953125,2.732666015625,-7.076904296875
0.088,5.495361328125,1.010986328125,-6.636474609375
0.0885,5.855712890625,0.050048828125,-6.356201171875
0.089,5.935791015625,-0.790771484375,-6.035888671875
0.0895,5.975830078125,-1.631591796875,-5.635498046875
0.09,5.735595703125,-2.952880859375,-4.234130859375
0.0905,5.175048828125,-4.194091796875,-2.672607421875
0.091,4.614501953125,-5.195068359375,-1.271240234375
0.0915,4.134033203125,-5.755615234375,-0.470458984375
0.092,3.693603515625,-6.156005859375,0.410400390625
0.0925,3.173095703125,-6.676513671875,1.291259765625
0.093,1.291259765625,-6.436279296875,2.932861328125
0.0935,-0.350341796875,-6.156005859375,4.294189453125
0.094,-1.151123046875,-6.115966796875,5.054931640625
0.0945,-1.751708984375,-6.075927734375,5.695556640625
0.095,-2.632568359375,-5.795654296875,6.376220703125
0.0955,-3.793701171875,-4.794677734375,6.816650390625
0.096,-4.954833984375,-3.113037109375,6.696533203125
0.0965,-5.715576171875,-1.591552734375,6.216064453125
0.097,-5.955810546875,-0.830810546875,6.015869140625
0.0975,-6.115966796875,-0.190185546875,5.735595703125
0.098,-6.276123046875,0.730712890625,5.535400390625
0.0985,-5.755615234375,2.252197265625,3.813720703125
0.099,-5.235107421875,3.453369140625,2.292236328125
0.0995,-4.794677734375,4.294189453125,1.211181640625
0.1,-4.474365234375,4.814697265625,0.490478515625
0.1005,-4.033935546875,5.415283203125,-0.470458984375
0.101,-3.273193359375,5.775634765625,-1.511474609375
0.1015,-1.631591796875,5.615478515625,-2.952880859375
0.102,-0.190185546875,5.375244140625,-4.234130859375
0.1025,0.570556640625,5.415283203125,-4.994873046875
0.103,1.291259765625,5.375244140625,-5.755615234375
0.1035,2.092041015625,5.255126953125,-6.596435546875
0.104,3.573486328125,3.693603515625,-6.716552734375
0.1045,4.614501953125,2.092041015625,-6.556396484375
0.105,5.255126953125,0.890869140625,-6.276123046875
0.1055,5.495361328125,0.130126953125,-6.115966796875
0.106,5.695556640625,-0.670654296875,-5.795654296875
0.1065,5.815673828125,-1.591552734375,-5.395263671875
0.107,5.255126953125,-2.992919921875,-3.713623046875
0.1075,4.734619140625,-4.274169921875,-2.112060546875
0.108,4.334228515625,-4.954833984375,-1.191162109375
0.1085,4.013916015625,-5.515380859375,-0.470458984375
0.109,3.693603515625,-6.115966796875,0.410400390625
0.1095,2.252197265625,-6.276123046875,1.891845703125
0.11,0.810791015625,-6.115966796875,3.173095703125
0.1105,-0.390380859375,-5.955810546875,4.214111328125
0.111,-1.071044921875,-6.035888671875,4.934814453125
0.1115,-1.791748046875,-5.875732421875,5.695556640625
0.112,-2.592529296875,-5.715576171875,6.456298828125
0.1125,-4.033935546875,-3.913818359375,6.376220703125
0.113,-4.994873046875,-2.352294921875,6.055908203125
0.1135,-5.515380859375,-1.431396484375,5.895751953125
0.114,-5.715576171875,-0.710693359375,5.735595703125
0.1145,-5.915771484375,0.050048828125,5.575439453125
0.115,-5.755615234375,1.251220703125,4.534423828125
0.1155,-5.355224609375,2.412353515625,3.213134765625
0.116,-4.834716796875,3.533447265625,1.811767578125
0.1165,-4.554443359375,4.134033203125,1.010986328125
0.117,-4.274169921875,4.774658203125,0.330322265625
0.1175,-4.033935546875,5.415283203125,-0.510498046875
0.118,-2.432373046875,5.295166015625,-1.951904296875
0.1185,-0.990966796875,5.175048828125,-3.273193359375
0.119,0.010009765625,5.215087890625,-4.154052734375
0.1195,0.570556640625,5.335205078125,-4.954833984375
0.12,1.371337890625,5.215087890625,-5.755615234375
0.1205,2.412353515625,4.534423828125,-6.356201171875
0.121,3.573486328125,3.093017578125,-6.276123046875
0.1215,4.494384765625,1.571533203125,-6.035888671875
0.122,4.934814453125,0.810791015625,-5.915771484375
0.1225,5.215087890625,0.130126953125,-5.795654296875
0.123,5.535400390625,-0.630615234375,-5.835693359375
0.1235,5.215087890625,-1.871826171875,-4.354248046875
0.124,4.734619140625,-3.072998046875,-3.072998046875
0.1245,4.454345703125,-3.993896484375,-2.031982421875
0.125,4.174072265625,-4.674560546875,-1.271240234375
0.1255,3.973876953125,-5.315185546875,-0.550537109375
0.126,3.413330078125,-5.875732421875,0.490478515625
0.1265,1.931884765625,-5.755615234375,1.811767578125
0.127,0.530517578125,-5.715576171875,3.052978515625
0.1275,-0.190185546875,-5.835693359375,3.933837890625
0.128,-0.910888671875,-5.915771484375,4.774658203125
0.1285,-1.671630859375,-6.035888671875,5.655517578125
0.129,-2.952880859375,-4.754638671875,5.895751953125
0.1295,-3.993896484375,-3.473388671875,5.815673828125
0.13,-4.754638671875,-2.232177734375,5.735595703125
0.1305,-5.155029296875,-1.471435546875,5.735595703125
0.131,-5.435302734375,-0.870849609375,5.615478515625
0.1315,-5.755615234375,0.050048828125,5.575439453125
0.132,-5.355224609375,1.291259765625,4.093994140625
0.1325,-4.874755859375,2.492431640625,2.612548828125
0.133,-4.674560546875,3.293212890625,1.771728515625
0.1335,-4.514404296875,3.973876953125,1.091064453125
0.134,-4.314208984375,4.734619140625,0.370361328125
0.1345,-3.273193359375,5.014892578125,-0.990966796875
0.135,-1.991943359375,5.014892578125,-2.192138671875
0.1355,-0.910888671875,5.014892578125,-3.273193359375
0.136,-0.270263671875,5.175048828125,-4.114013671875
0.1365,0.570556640625,5.175048828125,-4.994873046875
0.137,1.331298828125,5.255126953125,-5.915771484375
0.1375,2.692626953125,3.693603515625,-5.915771484375
0.138,3.813720703125,2.252197265625,-5.755615234375
0.1385,4.414306640625,1.411376953125,-5.755615234375
0.139,4.774658203125,0.770751953125,-5.755615234375
0.1395,5.094970703125,0.090087890625,-5.635498046875
0.14,5.094970703125,-1.031005859375,-5.034912109375
0.1405,4.814697265625,-2.112060546875,-3.873779296875
0.141,4.454345703125,-3.273193359375,-2.552490234375
0.1415,4.214111328125,-3.993896484375,-1.791748046875
0.142,4.093994140625,-4.714599609375,-1.151123046875
0.1425,3.973876953125,-5.435302734375,-0.470458984375
0.143,2.532470703125,-5.515380859375,1.010986328125
0.1435,1.331298828125,-5.515380859375,2.252197265625
0.144,0.490478515625,-5.635498046875,3.173095703125
0.1445,-0.270263671875,-5.915771484375,4.013916015625
0.145,-1.031005859375,-5.915771484375,4.894775390625
0.1455,-1.991943359375,-5.555419921875,5.615478515625
0.146,-3.153076171875,-4.154052734375,5.695556640625
0.1465,-4.154052734375,-2.712646484375,5.495361328125
0.147,-4.674560546875,-1.991943359375,5.575439453125
0.1475,-5.114990234375,-1.391357421875,5.655517578125
0.148,-5.515380859375,-0.750732421875,5.735595703125
0.1485,-5.275146484375,0.570556640625,4.534423828125
0.149,-4.994873046875,1.611572265625,3.413330078125
0.1495,-4.754638671875,2.612548828125,2.412353515625
0.15,-4.554443359375,3.373291015625,1.651611328125
0.1505,-4.474365234375,4.134033203125,0.930908203125
0.151,-4.073974609375,4.814697265625,0.050048828125
0.1515,-2.832763671875,4.854736328125,-1.311279296875
0.152,-1.471435546875,4.814697265625,-2.552490234375
0.1525,-0.830810546875,5.054931640625,-3.473388671875
0.153,-0.150146484375,5.255126953125,-4.354248046875
0.1535,0.730712890625,5.295166015625,-5.355224609375
0.154,2.052001953125,4.334228515625,-5.715576171875
0.1545,3.093017578125,3.093017578125,-5.755615234375
0.155,4.013916015625,1.891845703125,-5.715576171875
0.1555,4.494384765625,1.171142578125,-5.755615234375
0.156,4.814697265625,0.490478515625,-5.755615234375
0.1565,5.255126953125,-0.350341796875,-5.715576171875
0.157,4.934814453125,-1.631591796875,-4.354248046875
0.1575,4.534423828125,-2.832763671875,-2.952880859375
0.158,4.334228515625,-3.673583984375,-2.152099609375
0.1585,4.214111328125,-4.434326171875,-1.431396484375
0.159,3.973876953125,-5.155029296875,-0.670654296875
0.1595,3.093017578125,-5.555419921875,0.610595703125
0.16,1.851806640625,-5.595458984375,1.771728515625
0.1605,0.730712890625,-5.635498046875,2.932861328125
0.161,0.090087890625,-5.795654296875,3.813720703125
0.1615,-0.790771484375,-5.915771484375,4.654541015625
0.162,-1.591552734375,-5.915771484375,5.615478515625
0.1625,-2.952880859375,-4.394287109375,5.615478515625
0.163,-4.033935546875,-2.992919921875,5.615478515625
0.1635,-4.674560546875,-2.072021484375,5.615478515625
0.164,-5.114990234375,-1.351318359375,5.615478515625
0.1645,-5.435302734375,-0.670654296875,5.535400390625
0.165,-5.515380859375,0.450439453125,4.894775390625
0.1655,-5.195068359375,1.571533203125,3.693603515625
0.166,-4.834716796875,2.732666015625,2.332275390625
0.1665,-4.594482421875,3.493408203125,1.571533203125
0.167,-4.434326171875,4.174072265625,0.890869140625
0.1675,-4.274169921875,4.934814453125,0.130126953125
0.168,-2.872802734375,4.974853515625,-1.351318359375
0.1685,-1.551513671875,4.934814453125,-2.632568359375
0.169,-0.670654296875,5.054931640625,-3.633544921875
0.1695,0.130126953125,5.135009765625,-4.514404296875
0.17,0.970947265625,5.135009765625,-5.315185546875
0.1705,1.931884765625,4.734619140625,-6.115966796875
0.171,3.213134765625,3.253173828125,-6.075927734375
0.1715,4.214111328125,1.731689453125,-5.835693359375
0.172,4.694580078125,0.970947265625,-5.795654296875
0.1725,5.014892578125,0.290283203125,-5.755615234375
0.173,5.335205078125,-0.510498046875,-5.635498046875
0.1735,5.094970703125,-1.871826171875,-4.394287109375
0.174,4.774658203125,-2.992919921875,-3.153076171875
0.1745,4.454345703125,-3.993896484375,-1.991943359375
0.175,4.174072265625,-4.634521484375,-1.231201171875
0.1755,3.853759765625,-5.275146484375,-0.510498046875
0.176,3.453369140625,-5.875732421875,0.490478515625
0.1765,1.891845703125,-5.835693359375,1.931884765625
0.177,0.570556640625,-5.755615234375,3.173095703125
0.1775,-0.310302734375,-5.915771484375,4.013916015625
0.178,-0.990966796875,-5.915771484375,4.814697265625
0.1785,-1.791748046875,-5.715576171875,5.735595703125
0.179,-3.153076171875,-4.634521484375,6.095947265625
0.1795,-4.234130859375,-3.193115234375,6.015869140625
0.18,-4.994873046875,-1.951904296875,5.815673828125
0.1805,-5.355224609375,-1.231201171875,5.695556640625
0.181,-5.635498046875,-0.510498046875,5.575439453125
0.1815,-5.875732421875,0.370361328125,5.375244140625
0.182,-5.435302734375,1.771728515625,3.733642578125
0.1825,-4.994873046875,3.012939453125,2.292236328125
0.183,-4.674560546875,3.813720703125,1.451416015625
0.1835,-4.434326171875,4.374267578125,0.690673828125
0.184,-4.073974609375,5.014892578125,-0.190185546875
0.1845,-3.032958984375,5.335205078125,-1.471435546875
0.185,-1.631591796875,5.255126953125,-2.832763671875
0.1855,-0.510498046875,5.175048828125,-3.953857421875
0.186,0.290283203125,5.335205078125,-4.714599609375
0.1865,1.211181640625,5.335205078125,-5.515380859375
0.187,1.971923828125,5.094970703125,-6.396240234375
0.1875,3.533447265625,3.373291015625,-6.476318359375
0.188,4.534423828125,1.851806640625,-6.276123046875
