wavelength,x,y,z
0.0,-1.94189453125,5.54541015625,-2.62255859375
0.0005,-0.62060546875,5.74560546875,-4.18408203125
0.001,0.34033203125,5.90576171875,-5.22509765625
0.0015,0.98095703125,5.86572265625,-6.02587890625
0.002,2.06201171875,5.14501953125,-6.38623046875
0.0025,3.42333984375,3.82373046875,-6.62646484375
0.003,4.66455078125,2.50244140625,-6.90673828125
0.0035,5.58544921875,1.22119140625,-6.86669921875
0.004,6.02587890625,0.30029296875,-6.70654296875
0.0045,5.94580078125,-0.66064453125,-6.18603515625
0.005,5.58544921875,-1.66162109375,-5.10498046875
0.0055,5.30517578125,-3.02294921875,-3.74365234375
0.006,5.14501953125,-4.42431640625,-2.42236328125
0.0065,4.86474609375,-5.42529296875,-1.30126953125
0.007,4.50439453125,-6.06591796875,-0.50048828125
0.0075,3.58349609375,-6.26611328125,0.54052734375
0.008,2.26220703125,-6.26611328125,1.82177734375
0.0085,0.86083984375,-6.46630859375,3.42333984375
0.009,-0.46044921875,-6.58642578125,4.78466796875
0.0095,-1.22119140625,-6.70654296875,5.62548828125
0.01,-1.90185546875,-6.42626953125,6.26611328125
0.0105,-3.06298828125,-5.38525390625,6.54638671875
0.011,-4.34423828125,-3.98388671875,6.74658203125
0.0115,-5.58544921875,-2.58251953125,6.90673828125
0.012,-6.26611328125,-1.38134765625,6.78662109375
0.0125,-6.50634765625,-0.58056640625,6.54638671875
0.013,-6.30615234375,0.38037109375,5.74560546875
0.0135,-5.86572265625,1.54150390625,4.50439453125
0.014,-5.62548828125,2.86279296875,3.22314453125
0.0145,-5.46533203125,4.18408203125,1.94189453125
0.015,-5.14501953125,5.10498046875,0.94091796875
0.0155,-4.62451171875,5.54541015625,0.10009765625
0.016,-3.58349609375,5.66552734375,-0.98095703125
0.0165,-2.18212890625,5.62548828125,-2.42236328125
0.017,-0.86083984375,5.90576171875,-3.98388671875
0.0175,0.34033203125,5.94580078125,-5.22509765625
0.018,0.98095703125,6.06591796875,-6.02587890625
0.0185,1.86181640625,5.58544921875,-6.50634765625
0.019,3.14306640625,4.34423828125,-6.74658203125
0.0195,4.42431640625,2.94287109375,-6.98681640625
0.02,5.50537109375,1.58154296875,-7.06689453125
0.0205,6.10595703125,0.50048828125,-6.90673828125
0.021,6.14599609375,-0.38037109375,-6.50634765625
0.0215,5.82568359375,-1.30126953125,-5.62548828125
0.022,5.42529296875,-2.54248046875,-4.30419921875
0.0225,5.26513671875,-3.90380859375,-2.94287109375
0.023,5.06494140625,-5.14501953125,-1.74169921875
0.0235,4.74462890625,-5.90576171875,-0.78076171875
0.024,4.06396484375,-6.26611328125,0.14013671875
0.0245,2.86279296875,-6.34619140625,1.26123046875
0.025,1.42138671875,-6.42626953125,2.78271484375
0.0255,0.02001953125,-6.62646484375,4.34423828125
0.026,-0.94091796875,-6.66650390625,5.38525390625
0.0265,-1.54150390625,-6.66650390625,6.10595703125
0.027,-2.54248046875,-5.90576171875,6.46630859375
0.0275,-3.82373046875,-4.54443359375,6.70654296875
0.028,-5.10498046875,-3.18310546875,6.90673828125
0.0285,-6.06591796875,-1.90185546875,6.86669921875
0.029,-6.46630859375,-0.98095703125,6.70654296875
0.0295,-6.38623046875,0.02001953125,6.14599609375
0.03,-6.02587890625,0.98095703125,5.10498046875
0.0305,-5.74560546875,2.26220703125,3.78369140625
0.031,-5.58544921875,3.70361328125,2.42236328125
0.0315,-5.30517578125,4.78466796875,1.30126953125
0.032,-4.90478515625,5.42529296875,0.46044921875
0.0325,-4.10400390625,5.62548828125,-0.58056640625
0.033,-2.78271484375,5.62548828125,-1.78173828125
0.0335,-1.42138671875,5.82568359375,-3.38330078125
0.034,0.02001953125,5.98583984375,-4.82470703125
0.0345,0.70068359375,6.10595703125,-5.74560546875
0.035,1.46142578125,5.90576171875,-6.38623046875
0.0355,2.58251953125,4.86474609375,-6.66650390625
0.036,3.98388671875,3.50341796875,-6.90673828125
0.0365,5.18505859375,2.06201171875,-7.10693359375
0.037,5.94580078125,0.86083984375,-6.98681640625
0.0375,6.22607421875,0.02001953125,-6.74658203125
0.038,6.06591796875,-0.98095703125,-6.06591796875
0.0385,5.62548828125,-2.10205078125,-4.82470703125
0.039,5.42529296875,-3.46337890625,-3.46337890625
0.0395,5.18505859375,-4.82470703125,-2.10205078125
0.04,4.94482421875,-5.74560546875,-1.06103515625
0.0405,4.42431640625,-6.34619140625,-0.30029296875
0.041,3.34326171875,-6.38623046875,0.90087890625
0.0415,1.94189453125,-6.42626953125,2.26220703125
0.042,0.50048828125,-6.58642578125,3.94384765625
0.0425,-0.70068359375,-6.66650390625,5.10498046875
0.043,-1.42138671875,-6.70654296875,5.94580078125
0.0435,-2.26220703125,-6.26611328125,6.46630859375
0.044,-3.46337890625,-4.98486328125,6.66650390625
0.0445,-4.74462890625,-3.62353515625,6.86669921875
0.045,-5.82568359375,-2.26220703125,6.94677734375
0.0455,-6.38623046875,-1.18115234375,6.74658203125
0.046,-6.46630859375,-0.38037109375,6.38623046875
0.0465,-6.14599609375,0.62060546875,5.46533203125
0.047,-5.74560546875,1.78173828125,4.18408203125
0.0475,-5.58544921875,3.18310546875,2.86279296875
0.048,-5.38525390625,4.38427734375,1.66162109375
0.0485,-4.98486328125,5.10498046875,0.70068359375
0.049,-4.38427734375,5.46533203125,-0.18017578125
0.0495,-3.26318359375,5.46533203125,-1.26123046875
0.05,-1.94189453125,5.66552734375,-2.66259765625
0.0505,-0.58056640625,5.82568359375,-4.22412109375
0.051,0.42041015625,5.90576171875,-5.22509765625
0.0515,1.06103515625,5.94580078125,-5.94580078125
0.052,1.94189453125,5.30517578125,-6.38623046875
0.0525,3.22314453125,4.02392578125,-6.54638671875
0.053,4.50439453125,2.74267578125,-6.86669921875
0.0535,5.42529296875,1.46142578125,-6.82666015625
0.054,5.90576171875,0.54052734375,-6.70654296875
0.0545,5.90576171875,-0.34033203125,-6.26611328125
0.055,5.54541015625,-1.26123046875,-5.30517578125
0.0555,5.26513671875,-2.46240234375,-4.14404296875
0.056,5.14501953125,-3.86376953125,-2.86279296875
0.0565,4.94482421875,-4.98486328125,-1.78173828125
0.057,4.62451171875,-5.74560546875,-0.94091796875
0.0575,3.86376953125,-6.02587890625,0.02001953125
0.058,2.74267578125,-6.02587890625,1.18115234375
0.0585,1.42138671875,-6.26611328125,2.70263671875
0.059,0.18017578125,-6.42626953125,4.14404296875
0.0595,-0.74072265625,-6.54638671875,5.10498046875
0.06,-1.38134765625,-6.50634765625,5.82568359375
0.0605,-2.42236328125,-5.70556640625,6.14599609375
0.061,-3.70361328125,-4.46435546875,6.42626953125
0.0615,-4.98486328125,-3.14306640625,6.70654296875
0.062,-5.78564453125,-1.94189453125,6.66650390625
0.0625,-6.14599609375,-1.14111328125,6.54638671875
0.063,-6.06591796875,-0.30029296875,5.90576171875
0.0635,-5.70556640625,0.78076171875,4.86474609375
0.064,-5.50537109375,2.10205078125,3.70361328125
0.0645,-5.42529296875,3.42333984375,2.42236328125
0.065,-5.18505859375,4.42431640625,1.42138671875
0.0655,-4.82470703125,4.98486328125,0.62060546875
0.066,-3.90380859375,5.18505859375,-0.38037109375
0.0665,-2.66259765625,5.30517578125,-1.62158203125
0.067,-1.42138671875,5.58544921875,-3.18310546875
0.0675,-0.34033203125,5.70556640625,-4.42431640625
0.068,0.46044921875,5.90576171875,-5.26513671875
0.0685,1.22119140625,5.58544921875,-5.86572265625
0.069,2.34228515625,4.54443359375,-6.14599609375
0.0695,3.58349609375,3.34326171875,-6.42626953125
0.07,4.74462890625,2.10205078125,-6.62646484375
0.0705,5.38525390625,1.10107421875,-6.54638671875
0.071,5.62548828125,0.34033203125,-6.38623046875
0.0715,5.42529296875,-0.58056640625,-5.66552734375
0.072,5.10498046875,-1.62158203125,-4.58447265625
0.0725,5.02490234375,-2.94287109375,-3.46337890625
0.073,4.86474609375,-4.18408203125,-2.30224609375
0.0735,4.62451171875,-5.06494140625,-1.46142578125
0.074,4.22412109375,-5.50537109375,-0.66064453125
0.0745,3.26318359375,-5.62548828125,0.38037109375
0.075,2.14208984375,-5.78564453125,1.62158203125
0.0755,0.90087890625,-6.06591796875,3.14306640625
0.076,0.02001953125,-6.26611328125,4.22412109375
0.0765,-0.70068359375,-6.42626953125,5.06494140625
0.077,-1.54150390625,-5.98583984375,5.54541015625
0.0775,-2.70263671875,-4.98486328125,5.82568359375
0.078,-3.90380859375,-3.86376953125,6.22607421875
0.0785,-4.94482421875,-2.70263671875,6.30615234375
0.079,-5.46533203125,-1.82177734375,6.34619140625
0.0795,-5.62548828125,-1.06103515625,6.02587890625
0.08,-5.42529296875,-0.26025390625,5.26513671875
0.0805,-5.26513671875,0.82080078125,4.34423828125
0.081,-5.26513671875,2.14208984375,3.30322265625
0.0815,-5.18505859375,3.22314453125,2.26220703125
0.082,-4.98486328125,4.14404296875,1.50146484375
0.0825,-4.42431640625,4.54443359375,0.70068359375
0.083,-3.46337890625,4.74462890625,-0.46044921875
0.0835,-2.50244140625,5.10498046875,-1.74169921875
0.084,-1.34130859375,5.38525390625,-3.14306640625
0.0845,-0.58056640625,5.62548828125,-4.18408203125
0.085,0.22021484375,5.74560546875,-4.98486328125
0.0855,1.14111328125,5.14501953125,-5.42529296875
0.086,2.34228515625,4.14404296875,-5.78564453125
0.0865,3.58349609375,3.06298828125,-6.18603515625
0.087,4.50439453125,1.98193359375,-6.26611328125
0.0875,5.02490234375,1.22119140625,-6.34619140625
0.088,5.10498046875,0.50048828125,-5.94580078125
0.0885,4.86474609375,-0.58056640625,-5.14501953125
0.089,4.86474609375,-1.66162109375,-4.30419921875
0.0895,4.82470703125,-2.98291015625,-3.22314453125
0.09,4.78466796875,-3.98388671875,-2.30224609375
0.0905,4.54443359375,-4.70458984375,-1.54150390625
0.091,3.90380859375,-5.02490234375,-0.70068359375
0.0915,2.90283203125,-5.26513671875,0.50048828125
0.092,1.90185546875,-5.70556640625,1.94189453125
0.0925,0.90087890625,-5.94580078125,3.14306640625
0.093,0.22021484375,-6.26611328125,4.14404296875
0.0935,-0.62060546875,-6.18603515625,4.82470703125
0.094,-1.62158203125,-5.42529296875,5.18505859375
0.0945,-2.86279296875,-4.50439453125,5.66552734375
0.095,-4.02392578125,-3.38330078125,5.94580078125
0.0955,-4.82470703125,-2.42236328125,6.10595703125
0.096,-5.22509765625,-1.74169921875,6.06591796875
0.0965,-5.18505859375,-1.02099609375,5.54541015625
0.097,-5.10498046875,0.02001953125,4.78466796875
0.0975,-5.14501953125,1.18115234375,3.86376953125
0.098,-5.10498046875,2.42236328125,2.90283203125
0.0985,-5.02490234375,3.38330078125,2.06201171875
0.099,-4.74462890625,3.98388671875,1.34130859375
0.0995,-3.98388671875,4.30419921875,0.42041015625
0.1,-3.06298828125,4.62451171875,-0.82080078125
0.1005,-2.02197265625,5.06494140625,-2.22216796875
0.101,-1.18115234375,5.38525390625,-3.34326171875
0.1015,-0.50048828125,5.66552734375,-4.30419921875
0.102,0.38037109375,5.38525390625,-4.94482421875
0.1025,1.54150390625,4.54443359375,-5.30517578125
0.103,2.78271484375,3.58349609375,-5.82568359375
0.1035,3.86376953125,2.50244140625,-6.10595703125
0.104,4.54443359375,1.66162109375,-6.22607421875
0.1045,4.86474609375,0.90087890625,-6.10595703125
0.105,4.82470703125,0.14013671875,-5.46533203125
0.1055,4.70458984375,-0.98095703125,-4.70458984375
0.106,4.82470703125,-2.22216796875,-3.78369140625
0.1065,4.78466796875,-3.38330078125,-2.78271484375
0.107,4.66455078125,-4.22412109375,-1.98193359375
0.1075,4.22412109375,-4.74462890625,-1.22119140625
0.108,3.38330078125,-5.06494140625,-0.22021484375
0.1085,2.42236328125,-5.46533203125,1.18115234375
0.109,1.34130859375,-5.78564453125,2.54248046875
0.1095,0.58056640625,-6.10595703125,3.62353515625
0.11,-0.18017578125,-6.26611328125,4.50439453125
0.1105,-1.14111328125,-5.74560546875,4.98486328125
0.111,-2.30224609375,-4.82470703125,5.42529296875
0.1115,-3.58349609375,-3.82373046875,5.82568359375
0.112,-4.54443359375,-2.74267578125,6.02587890625
0.1125,-5.10498046875,-2.02197265625,6.10595703125
0.113,-5.18505859375,-1.30126953125,5.74560546875
0.1135,-5.10498046875,-0.46044921875,4.98486328125
0.114,-5.06494140625,0.78076171875,4.18408203125
0.1145,-5.14501953125,2.06201171875,3.18310546875
0.115,-5.10498046875,3.14306640625,2.30224609375
0.1155,-4.86474609375,3.86376953125,1.58154296875
0.116,-4.22412109375,4.22412109375,0.70068359375
0.1165,-3.30322265625,4.50439453125,-0.50048828125
0.117,-2.34228515625,4.98486328125,-1.86181640625
0.1175,-1.30126953125,5.30517578125,-3.14306640625
0.118,-0.66064453125,5.62548828125,-4.14404296875
0.1185,0.26025390625,5.54541015625,-4.86474609375
0.119,1.30126953125,4.78466796875,-5.30517578125
0.1195,2.54248046875,3.82373046875,-5.74560546875
0.12,3.78369140625,2.66259765625,-6.10595703125
0.1205,4.54443359375,1.66162109375,-6.26611328125
0.121,4.94482421875,0.98095703125,-6.22607421875
0.1215,4.90478515625,0.18017578125,-5.70556640625
0.122,4.78466796875,-0.90087890625,-4.82470703125
0.1225,4.82470703125,-2.10205078125,-3.86376953125
0.123,4.82470703125,-3.38330078125,-2.82275390625
0.1235,4.70458984375,-4.30419921875,-1.98193359375
0.124,4.34423828125,-4.90478515625,-1.22119140625
0.1245,3.50341796875,-5.14501953125,-0.26025390625
0.125,2.50244140625,-5.46533203125,1.10107421875
0.1255,1.38134765625,-5.82568359375,2.54248046875
0.126,0.54052734375,-6.14599609375,3.70361328125
0.1265,-0.26025390625,-6.38623046875,4.62451171875
0.127,-1.14111328125,-5.98583984375,5.18505859375
0.1275,-2.30224609375,-4.98486328125,5.54541015625
0.128,-3.62353515625,-3.94384765625,5.98583984375
0.1285,-4.66455078125,-2.78271484375,6.14599609375
0.129,-5.30517578125,-1.94189453125,6.22607421875
0.1295,-5.50537109375,-1.22119140625,5.94580078125
0.13,-5.30517578125,-0.30029296875,5.18505859375
0.1305,-5.22509765625,0.90087890625,4.26416015625
0.131,-5.22509765625,2.26220703125,3.18310546875
0.1315,-5.14501953125,3.38330078125,2.18212890625
0.132,-4.98486328125,4.14404296875,1.38134765625
0.1325,-4.38427734375,4.62451171875,0.58056640625
0.133,-3.34326171875,4.78466796875,-0.62060546875
0.1335,-2.26220703125,5.10498046875,-2.02197265625
0.134,-1.14111328125,5.42529296875,-3.38330078125
0.1345,-0.38037109375,5.70556640625,-4.46435546875
0.135,0.42041015625,5.70556640625,-5.18505859375
0.1355,1.42138671875,4.98486328125,-5.62548828125
0.136,2.74267578125,3.86376953125,-6.02587890625
0.1365,4.02392578125,2.62255859375,-6.38623046875
0.137,4.86474609375,1.50146484375,-6.42626953125
0.1375,5.26513671875,0.70068359375,-6.38623046875
0.138,5.34521484375,0.02001953125,-5.90576171875
0.1385,5.06494140625,-1.10107421875,-4.94482421875
0.139,4.98486328125,-2.34228515625,-3.86376953125
0.1395,4.94482421875,-3.66357421875,-2.70263671875
0.14,4.78466796875,-4.70458984375,-1.78173828125
0.1405,4.46435546875,-5.30517578125,-0.98095703125
0.141,3.58349609375,-5.50537109375,0.02001953125
0.1415,2.46240234375,-5.70556640625,1.26123046875
0.142,1.26123046875,-6.06591796875,2.78271484375
0.1425,0.26025390625,-6.26611328125,4.02392578125
0.143,-0.58056640625,-6.42626953125,4.98486328125
0.1435,-1.34130859375,-6.22607421875,5.58544921875
0.144,-2.50244140625,-5.18505859375,5.90576171875
0.1445,-3.82373046875,-4.02392578125,6.26611328125
0.145,-4.98486328125,-2.78271484375,6.46630859375
0.1455,-5.74560546875,-1.74169921875,6.42626953125
0.146,-5.90576171875,-0.98095703125,6.22607421875
0.1465,-5.74560546875,0.02001953125,5.50537109375
0.147,-5.46533203125,1.10107421875,4.42431640625
0.1475,-5.42529296875,2.50244140625,3.22314453125
0.148,-5.30517578125,3.74365234375,2.06201171875
0.1485,-5.06494140625,4.58447265625,1.18115234375
0.149,-4.54443359375,5.06494140625,0.38037109375
0.1495,-3.50341796875,5.14501953125,-0.74072265625
0.15,-2.26220703125,5.38525390625,-2.18212890625
0.1505,-0.98095703125,5.70556640625,-3.74365234375
0.151,0.02001953125,5.82568359375,-4.86474609375
0.1515,0.70068359375,5.90576171875,-5.66552734375
0.152,1.70166015625,5.30517578125,-6.14599609375
0.1525,3.02294921875,3.98388671875,-6.42626953125
0.153,4.34423828125,2.70263671875,-6.74658203125
0.1535,5.30517578125,1.42138671875,-6.82666015625
0.154,5.82568359375,0.54052734375,-6.70654296875
0.1545,5.82568359375,-0.38037109375,-6.26611328125
0.155,5.50537109375,-1.42138671875,-5.22509765625
0.1555,5.26513671875,-2.66259765625,-3.94384765625
0.156,5.18505859375,-4.10400390625,-2.62255859375
0.1565,4.94482421875,-5.18505859375,-1.54150390625
0.157,4.54443359375,-5.82568359375,-0.66064453125
0.1575,3.78369140625,-6.10595703125,0.30029296875
0.158,2.46240234375,-6.14599609375,1.58154296875
0.1585,1.02099609375,-6.38623046875,3.18310546875
0.159,-0.26025390625,-6.54638671875,4.58447265625
0.1595,-1.02099609375,-6.62646484375,5.50537109375
0.16,-1.74169921875,-6.42626953125,6.14599609375
0.1605,-2.82275390625,-5.46533203125,6.42626953125
0.161,-4.18408203125,-4.10400390625,6.66650390625
0.1615,-5.46533203125,-2.74267578125,6.90673828125
0.162,-6.18603515625,-1.46142578125,6.74658203125
0.1625,-6.42626953125,-0.62060546875,6.50634765625
0.163,-6.26611328125,0.30029296875,5.74560546875
0.1635,-5.82568359375,1.42138671875,4.54443359375
0.164,-5.62548828125,2.78271484375,3.22314453125
0.1645,-5.42529296875,4.14404296875,1.94189453125
0.165,-5.14501953125,5.06494140625,0.94091796875
0.1655,-4.62451171875,5.50537109375,0.14013671875
0.166,-3.62353515625,5.62548828125,-0.98095703125
0.1665,-2.22216796875,5.62548828125,-2.30224609375
0.167,-0.90087890625,5.90576171875,-3.90380859375
0.1675,0.34033203125,5.94580078125,-5.14501953125
0.168,0.98095703125,6.02587890625,-5.94580078125
0.1685,1.78173828125,5.58544921875,-6.42626953125
0.169,3.02294921875,4.34423828125,-6.66650390625
0.1695,4.30419921875,2.94287109375,-6.90673828125
0.17,5.42529296875,1.66162109375,-7.02685546875
0.1705,6.06591796875,0.54052734375,-6.82666015625
0.171,6.10595703125,-0.34033203125,-6.50634765625
0.1715,5.82568359375,-1.22119140625,-5.62548828125
0.172,5.42529296875,-2.42236328125,-4.34423828125
0.1725,5.26513671875,-3.82373046875,-3.02294921875
0.173,5.06494140625,-5.06494140625,-1.78173828125
0.1735,4.74462890625,-5.82568359375,-0.86083984375
0.174,4.10400390625,-6.22607421875,0.06005859375
0.1745,2.94287109375,-6.22607421875,1.10107421875
0.175,1.58154296875,-6.34619140625,2.58251953125
0.1755,0.18017578125,-6.50634765625,4.14404296875
0.176,-0.86083984375,-6.58642578125,5.22509765625
0.1765,-1.42138671875,-6.70654296875,5.94580078125
0.177,-2.38232421875,-6.06591796875,6.38623046875
0.1775,-3.70361328125,-4.74462890625,6.54638671875
0.178,-4.94482421875,-3.34326171875,6.82666015625
0.1785,-5.90576171875,-2.02197265625,6.86669921875
0.179,-6.38623046875,-1.10107421875,6.70654296875
0.1795,-6.38623046875,-0.26025390625,6.22607421875
0.18,-6.02587890625,0.78076171875,5.22509765625
0.1805,-5.74560546875,1.98193359375,3.94384765625
0.181,-5.62548828125,3.50341796875,2.62255859375
0.1815,-5.34521484375,4.62451171875,1.46142578125
0.182,-4.98486328125,5.30517578125,0.62060546875
0.1825,-4.18408203125,5.54541015625,-0.38037109375
0.183,-2.90283203125,5.58544921875,-1.58154296875
0.1835,-1.62158203125,5.82568359375,-3.14306640625
0.184,-0.30029296875,5.94580078125,-4.62451171875
0.1845,0.62060546875,6.02587890625,-5.62548828125
0.185,1.30126953125,5.90576171875,-6.26611328125
0.1855,2.38232421875,4.98486328125,-6.58642578125
0.186,3.82373046875,3.58349609375,-6.82666015625
0.1865,5.10498046875,2.26220703125,-7.06689453125
0.187,5.86572265625,0.98095703125,-6.98681640625
0.1875,6.14599609375,0.14013671875,-6.78662109375
0.188,6.02587890625,-0.86083984375,-6.10595703125
0.1885,5.62548828125,-1.94189453125,-4.90478515625
0.189,5.42529296875,-3.34326171875,-3.58349609375
0.1895,5.26513671875,-4.78466796875,-2.22216796875
0.19,4.94482421875,-5.74560546875,-1.14111328125
0.1905,4.46435546875,-6.26611328125,-0.30029296875
0.191,3.42333984375,-6.38623046875,0.78076171875
0.1915,1.98193359375,-6.38623046875,2.22216796875
0.192,0.54052734375,-6.62646484375,3.90380859375
0.1925,-0.70068359375,-6.70654296875,5.18505859375
0.193,-1.38134765625,-6.78662109375,5.98583984375
0.1935,-2.22216796875,-6.38623046875,6.46630859375
0.194,-3.46337890625,-5.06494140625,6.70654296875
0.1945,-4.82470703125,-3.66357421875,6.98681640625
0.195,-5.94580078125,-2.22216796875,7.06689453125
0.1955,-6.54638671875,-1.10107421875,6.86669921875
0.196,-6.58642578125,-0.30029296875,6.42626953125
0.1965,-6.26611328125,0.78076171875,5.50537109375
0.197,-5.86572265625,1.94189453125,4.14404296875
0.1975,-5.62548828125,3.38330078125,2.78271484375
0.198,-5.42529296875,4.62451171875,1.54150390625
0.1985,-5.02490234375,5.34521484375,0.62060546875
0.199,-4.34423828125,5.70556640625,-0.34033203125
