wavelength,x,y,z
0.0,-5.635498046875,1.131103515625,4.334228515625
0.0005,-5.435302734375,2.172119140625,3.333251953125
0.001,-5.074951171875,3.052978515625,2.332275390625
0.0015,-4.874755859375,3.773681640625,1.531494140625
0.002,-4.514404296875,4.494384765625,0.610595703125
0.0025,-3.713623046875,4.934814453125,-0.590576171875
0.003,-2.712646484375,5.255126953125,-1.791748046875
0.0035,-1.551513671875,5.255126953125,-2.872802734375
0.004,-0.910888671875,5.415283203125,-3.713623046875
0.0045,0.010009765625,5.415283203125,-4.514404296875
0.005,1.051025390625,5.094970703125,-5.275146484375
0.0055,2.372314453125,4.093994140625,-5.795654296875
0.006,3.373291015625,2.932861328125,-5.915771484375
0.0065,4.093994140625,1.891845703125,-5.755615234375
0.007,4.614501953125,1.131103515625,-5.755615234375
0.0075,4.934814453125,0.290283203125,-5.555419921875
0.008,5.094970703125,-0.790771484375,-4.994873046875
0.0085,5.094970703125,-2.031982421875,-4.154052734375
0.009,4.854736328125,-3.032958984375,-3.153076171875
0.0095,4.574462890625,-3.873779296875,-2.272216796875
0.01,4.374267578125,-4.554443359375,-1.471435546875
0.0105,4.053955078125,-5.275146484375,-0.630615234375
0.011,3.093017578125,-5.675537109375,0.730712890625
0.0115,2.132080078125,-5.915771484375,1.891845703125
0.012,1.091064453125,-5.915771484375,2.852783203125
0.0125,0.370361328125,-6.115966796875,3.773681640625
0.013,-0.630615234375,-5.955810546875,4.614501953125
0.0135,-1.791748046875,-5.395263671875,5.295166015625
0.014,-3.072998046875,-4.354248046875,5.735595703125
0.0145,-3.993896484375,-3.193115234375,5.735595703125
0.015,-4.634521484375,-2.312255859375,5.695556640625
0.0155,-5.074951171875,-1.551513671875,5.575439453125
0.016,-5.435302734375,-0.670654296875,5.455322265625
0.0165,-5.515380859375,0.570556640625,4.614501953125
0.017,-5.435302734375,1.731689453125,3.693603515625
0.0175,-5.155029296875,2.652587890625,2.692626953125
0.018,-4.954833984375,3.533447265625,1.891845703125
0.0185,-4.594482421875,4.214111328125,0.970947265625
0.019,-3.993896484375,4.774658203125,0.010009765625
0.0195,-3.032958984375,5.094970703125,-1.511474609375
0.02,-1.951904296875,5.295166015625,-2.512451171875
0.0205,-1.151123046875,5.375244140625,-3.393310546875
0.021,-0.390380859375,5.415283203125,-4.234130859375
0.0215,0.650634765625,5.255126953125,-5.074951171875
0.022,1.971923828125,4.334228515625,-5.675537109375
0.0225,3.173095703125,3.213134765625,-5.915771484375
0.023,3.933837890625,2.092041015625,-5.835693359375
0.0235,4.494384765625,1.211181640625,-5.835693359375
0.024,4.854736328125,0.490478515625,-5.635498046875
0.0245,5.094970703125,-0.630615234375,-5.195068359375
0.025,5.135009765625,-1.831787109375,-4.354248046875
0.0255,4.974853515625,-2.952880859375,-3.353271484375
0.026,4.654541015625,-3.753662109375,-2.392333984375
0.0265,4.494384765625,-4.514404296875,-1.591552734375
0.027,4.134033203125,-5.195068359375,-0.710693359375
0.0275,3.213134765625,-5.715576171875,0.490478515625
0.028,2.212158203125,-5.955810546875,1.851806640625
0.0285,1.211181640625,-5.995849609375,2.812744140625
0.029,0.490478515625,-6.115966796875,3.693603515625
0.0295,-0.470458984375,-6.075927734375,4.494384765625
0.03,-1.591552734375,-5.595458984375,5.215087890625
0.0305,-2.952880859375,-4.554443359375,5.775634765625
0.031,-3.993896484375,-3.393310546875,5.815673828125
0.0315,-4.554443359375,-2.232177734375,5.775634765625
0.032,-5.114990234375,-1.551513671875,5.695556640625
0.0325,-5.395263671875,-0.710693359375,5.415283203125
0.033,-5.515380859375,0.490478515625,4.734619140625
0.0335,-5.555419921875,1.731689453125,3.773681640625
0.034,-5.275146484375,2.692626953125,2.812744140625
0.0345,-4.994873046875,3.533447265625,1.891845703125
0.035,-4.674560546875,4.214111328125,1.091064453125
0.0355,-4.194091796875,4.854736328125,0.090087890625
0.036,-3.153076171875,5.255126953125,-1.311279296875
0.0365,-2.031982421875,5.415283203125,-2.552490234375
0.037,-1.111083984375,5.415283203125,-3.513427734375
0.0375,-0.390380859375,5.535400390625,-4.354248046875
0.038,0.650634765625,5.295166015625,-5.114990234375
0.0385,1.931884765625,4.534423828125,-5.755615234375
0.039,3.213134765625,3.413330078125,-6.115966796875
0.0395,4.134033203125,2.252197265625,-6.115966796875
0.04,4.654541015625,1.251220703125,-5.915771484375
0.0405,4.974853515625,0.370361328125,-5.755615234375
0.041,5.255126953125,-0.630615234375,-5.435302734375
0.0415,5.255126953125,-1.831787109375,-4.514404296875
0.042,5.135009765625,-3.032958984375,-3.393310546875
0.0425,4.814697265625,-3.913818359375,-2.352294921875
0.043,4.534423828125,-4.714599609375,-1.511474609375
0.0435,4.093994140625,-5.315185546875,-0.630615234375
0.044,3.373291015625,-5.795654296875,0.570556640625
0.0445,2.252197265625,-6.156005859375,1.971923828125
0.045,1.131103515625,-6.156005859375,3.093017578125
0.0455,0.290283203125,-6.156005859375,3.933837890625
0.046,-0.590576171875,-6.196044921875,4.734619140625
0.0465,-1.591552734375,-5.795654296875,5.495361328125
0.047,-2.992919921875,-4.674560546875,6.055908203125
0.0475,-4.354248046875,-3.473388671875,6.216064453125
0.048,-4.954833984375,-2.272216796875,6.015869140625
0.0485,-5.395263671875,-1.431396484375,5.895751953125
0.049,-5.635498046875,-0.590576171875,5.535400390625
0.0495,-5.795654296875,0.650634765625,4.854736328125
0.05,-5.755615234375,2.052001953125,3.773681640625
0.0505,-5.475341796875,3.133056640625,2.652587890625
0.051,-5.074951171875,3.853759765625,1.691650390625
0.0515,-4.754638671875,4.534423828125,0.850830078125
0.052,-4.154052734375,5.094970703125,-0.230224609375
0.0525,-3.072998046875,5.455322265625,-1.591552734375
0.053,-1.911865234375,5.735595703125,-2.912841796875
0.0535,-0.830810546875,5.615478515625,-3.913818359375
0.054,0.010009765625,5.655517578125,-4.714599609375
0.0545,0.890869140625,5.415283203125,-5.435302734375
0.055,2.172119140625,4.654541015625,-6.115966796875
0.0555,3.613525390625,3.533447265625,-6.476318359375
0.056,4.494384765625,2.132080078125,-6.436279296875
0.0565,5.094970703125,0.970947265625,-6.196044921875
0.057,5.415283203125,0.130126953125,-6.035888671875
0.0575,5.575439453125,-0.910888671875,-5.475341796875
0.058,5.575439453125,-2.232177734375,-4.514404296875
0.0585,5.455322265625,-3.553466796875,-3.353271484375
0.059,5.094970703125,-4.514404296875,-2.192138671875
0.0595,4.654541015625,-5.235107421875,-1.231201171875
0.06,4.174072265625,-5.795654296875,-0.350341796875
0.0605,3.493408203125,-6.356201171875,0.850830078125
0.061,2.052001953125,-6.596435546875,2.452392578125
0.0615,0.770751953125,-6.596435546875,3.693603515625
0.062,-0.270263671875,-6.476318359375,4.494384765625
0.0625,-0.990966796875,-6.436279296875,5.255126953125
0.063,-1.951904296875,-5.915771484375,5.855712890625
0.0635,-3.473388671875,-4.834716796875,6.416259765625
0.064,-4.834716796875,-3.393310546875,6.696533203125
0.0645,-5.595458984375,-2.112060546875,6.456298828125
0.065,-5.915771484375,-1.111083984375,6.176025390625
0.0655,-6.115966796875,-0.190185546875,5.775634765625
0.066,-6.276123046875,1.010986328125,5.175048828125
0.0665,-6.115966796875,2.532470703125,3.853759765625
0.067,-5.795654296875,3.733642578125,2.532470703125
0.0675,-5.315185546875,4.494384765625,1.411376953125
0.068,-4.834716796875,5.135009765625,0.530517578125
0.0685,-4.154052734375,5.575439453125,-0.590576171875
0.069,-3.072998046875,5.935791015625,-1.911865234375
0.0695,-1.671630859375,6.176025390625,-3.473388671875
0.07,-0.470458984375,6.015869140625,-4.554443359375
0.0705,0.450439453125,5.815673828125,-5.235107421875
0.071,1.131103515625,5.575439453125,-5.915771484375
0.0715,2.292236328125,5.014892578125,-6.476318359375
0.072,3.893798828125,3.533447265625,-6.956787109375
0.0725,4.974853515625,2.092041015625,-6.916748046875
0.073,5.575439453125,0.810791015625,-6.556396484375
0.0735,5.815673828125,-0.150146484375,-6.276123046875
0.074,5.935791015625,-1.111083984375,-5.715576171875
0.0745,5.895751953125,-2.392333984375,-4.754638671875
0.075,5.735595703125,-3.833740234375,-3.393310546875
0.0755,5.335205078125,-4.874755859375,-2.152099609375
0.076,4.774658203125,-5.555419921875,-1.111083984375
0.0765,4.294189453125,-6.115966796875,-0.270263671875
0.077,3.533447265625,-6.556396484375,0.930908203125
0.0775,2.212158203125,-6.796630859375,2.452392578125
0.078,0.810791015625,-6.876708984375,3.853759765625
0.0785,-0.430419921875,-6.636474609375,4.774658203125
0.079,-1.151123046875,-6.596435546875,5.415283203125
0.0795,-1.951904296875,-6.115966796875,6.095947265625
0.08,-3.353271484375,-5.155029296875,6.656494140625
0.0805,-4.834716796875,-3.793701171875,7.016845703125
0.081,-5.755615234375,-2.352294921875,6.776611328125
0.0815,-6.156005859375,-1.151123046875,6.376220703125
0.082,-6.356201171875,-0.270263671875,6.015869140625
0.0825,-6.436279296875,0.930908203125,5.415283203125
0.083,-6.316162109375,2.292236328125,4.214111328125
0.0835,-6.115966796875,3.653564453125,2.852783203125
0.084,-5.555419921875,4.534423828125,1.651611328125
0.0845,-5.034912109375,5.175048828125,0.690673828125
0.085,-4.434326171875,5.695556640625,-0.310302734375
0.0855,-3.553466796875,6.095947265625,-1.471435546875
0.086,-2.031982421875,6.296142578125,-3.153076171875
0.0865,-0.670654296875,6.135986328125,-4.434326171875
0.087,0.370361328125,5.935791015625,-5.155029296875
0.0875,1.010986328125,5.815673828125,-5.835693359375
0.088,2.052001953125,5.255126953125,-6.436279296875
0.0885,3.493408203125,4.013916015625,-6.916748046875
0.089,4.814697265625,2.572509765625,-7.076904296875
0.0895,5.495361328125,1.251220703125,-6.756591796875
0.09,5.855712890625,0.210205078125,-6.396240234375
0.0905,6.015869140625,-0.790771484375,-5.955810546875
0.091,6.095947265625,-1.871826171875,-5.435302734375
0.0915,5.895751953125,-3.313232421875,-3.993896484375
0.092,5.495361328125,-4.514404296875,-2.632568359375
0.0925,4.974853515625,-5.395263671875,-1.471435546875
0.093,4.534423828125,-5.995849609375,-0.590576171875
0.0935,3.853759765625,-6.436279296875,0.490478515625
0.094,2.812744140625,-6.756591796875,1.771728515625
0.0945,1.331298828125,-6.996826171875,3.373291015625
0.095,0.090087890625,-6.756591796875,4.494384765625
0.0955,-0.910888671875,-6.596435546875,5.175048828125
0.096,-1.631591796875,-6.396240234375,5.895751953125
0.0965,-2.752685546875,-5.795654296875,6.536376953125
0.097,-4.354248046875,-4.354248046875,6.976806640625
0.0975,-5.435302734375,-2.872802734375,6.936767578125
0.098,-6.035888671875,-1.591552734375,6.536376953125
0.0985,-6.356201171875,-0.630615234375,6.256103515625
0.099,-6.436279296875,0.370361328125,5.655517578125
0.0995,-6.436279296875,1.691650390625,4.814697265625
0.1,-6.276123046875,3.213134765625,3.373291015625
0.1005,-5.795654296875,4.294189453125,2.092041015625
0.101,-5.235107421875,5.014892578125,1.010986328125
0.1015,-4.754638671875,5.535400390625,0.130126953125
0.102,-3.953857421875,6.015869140625,-1.071044921875
0.1025,-2.592529296875,6.256103515625,-2.632568359375
0.103,-1.151123046875,6.336181640625,-4.114013671875
0.1035,0.130126953125,6.095947265625,-4.994873046875
0.104,0.890869140625,5.935791015625,-5.755615234375
0.1045,1.771728515625,5.495361328125,-6.356201171875
0.105,3.052978515625,4.534423828125,-6.876708984375
0.1055,4.534423828125,3.093017578125,-7.197021484375
0.106,5.455322265625,1.571533203125,-6.996826171875
0.1065,5.895751953125,0.410400390625,-6.556396484375
0.107,6.095947265625,-0.510498046875,-6.075927734375
0.1075,6.095947265625,-1.591552734375,-5.515380859375
0.108,5.935791015625,-2.952880859375,-4.354248046875
0.1085,5.735595703125,-4.354248046875,-2.952880859375
0.109,5.135009765625,-5.235107421875,-1.751708984375
0.1095,4.614501953125,-5.875732421875,-0.710693359375
0.11,4.013916015625,-6.356201171875,0.250244140625
0.1105,3.173095703125,-6.756591796875,1.331298828125
0.111,1.691650390625,-6.916748046875,3.012939453125
0.1115,0.330322265625,-6.756591796875,4.214111328125
0.112,-0.750732421875,-6.556396484375,4.974853515625
0.1125,-1.431396484375,-6.476318359375,5.655517578125
0.113,-2.392333984375,-5.955810546875,6.216064453125
0.1135,-3.793701171875,-4.714599609375,6.696533203125
0.114,-5.034912109375,-3.353271484375,6.896728515625
0.1145,-5.715576171875,-2.072021484375,6.536376953125
0.115,-6.115966796875,-1.111083984375,6.095947265625
0.1155,-6.236083984375,0.010009765625,5.775634765625
0.116,-6.316162109375,0.930908203125,5.255126953125
0.1165,-6.115966796875,2.372314453125,3.973876953125
0.117,-5.795654296875,3.533447265625,2.692626953125
0.1175,-5.275146484375,4.334228515625,1.571533203125
0.118,-4.834716796875,5.014892578125,0.690673828125
0.1185,-4.234130859375,5.455322265625,-0.350341796875
0.119,-3.273193359375,5.815673828125,-1.511474609375
0.1195,-2.031982421875,6.055908203125,-3.032958984375
0.12,-0.710693359375,5.895751953125,-4.114013671875
0.1205,0.250244140625,5.735595703125,-4.874755859375
0.121,0.930908203125,5.655517578125,-5.555419921875
0.1215,1.891845703125,5.255126953125,-6.236083984375
0.122,3.333251953125,3.973876953125,-6.676513671875
0.1225,4.494384765625,2.612548828125,-6.716552734375
0.123,5.054931640625,1.291259765625,-6.396240234375
0.1235,5.495361328125,0.490478515625,-6.276123046875
0.124,5.695556640625,-0.550537109375,-5.835693359375
0.1245,5.735595703125,-1.591552734375,-5.114990234375
0.125,5.655517578125,-2.992919921875,-3.953857421875
0.1255,5.295166015625,-4.114013671875,-2.712646484375
0.126,4.814697265625,-4.874755859375,-1.631591796875
0.1265,4.494384765625,-5.595458984375,-0.830810546875
0.127,3.933837890625,-6.115966796875,0.210205078125
0.1275,2.732666015625,-6.396240234375,1.571533203125
0.128,1.491455078125,-6.556396484375,2.932861328125
0.1285,0.370361328125,-6.436279296875,3.933837890625
0.129,-0.510498046875,-6.436279296875,4.734619140625
0.1295,-1.351318359375,-6.156005859375,5.415283203125
0.13,-2.512451171875,-5.475341796875,6.015869140625
0.1305,-3.913818359375,-4.194091796875,6.456298828125
0.131,-4.794677734375,-2.832763671875,6.376220703125
0.1315,-5.435302734375,-1.791748046875,6.095947265625
0.132,-5.755615234375,-0.950927734375,5.895751953125
0.1325,-5.955810546875,0.090087890625,5.495361328125
0.133,-5.915771484375,1.291259765625,4.534423828125
0.1335,-5.795654296875,2.532470703125,3.453369140625
0.134,-5.395263671875,3.493408203125,2.292236328125
0.1345,-4.994873046875,4.254150390625,1.331298828125
0.135,-4.554443359375,4.814697265625,0.490478515625
0.1355,-3.913818359375,5.375244140625,-0.590576171875
0.136,-2.752685546875,5.655517578125,-1.951904296875
0.1365,-1.551513671875,5.655517578125,-3.193115234375
0.137,-0.630615234375,5.495361328125,-4.033935546875
0.1375,0.210205078125,5.615478515625,-4.834716796875
0.138,1.091064453125,5.295166015625,-5.515380859375
0.1385,2.372314453125,4.414306640625,-6.035888671875
0.139,3.693603515625,3.213134765625,-6.436279296875
0.1395,4.414306640625,2.011962890625,-6.236083984375
0.14,4.894775390625,1.010986328125,-6.035888671875
0.1405,5.215087890625,0.250244140625,-5.795654296875
0.141,5.415283203125,-0.710693359375,-5.475341796875
0.1415,5.415283203125,-1.951904296875,-4.514404296875
0.142,5.175048828125,-3.153076171875,-3.393310546875
0.1425,4.814697265625,-3.993896484375,-2.352294921875
0.143,4.534423828125,-4.794677734375,-1.471435546875
0.1435,4.134033203125,-5.395263671875,-0.670654296875
0.144,3.453369140625,-5.835693359375,0.490478515625
0.1445,2.332275390625,-6.236083984375,1.851806640625
0.145,1.171142578125,-6.156005859375,2.932861328125
0.1455,0.330322265625,-6.156005859375,3.813720703125
0.146,-0.510498046875,-6.236083984375,4.614501953125
0.1465,-1.351318359375,-5.915771484375,5.335205078125
0.147,-2.872802734375,-4.874755859375,5.895751953125
0.1475,-3.913818359375,-3.713623046875,6.055908203125
0.148,-4.674560546875,-2.552490234375,5.895751953125
0.1485,-5.195068359375,-1.711669921875,5.855712890625
0.149,-5.475341796875,-0.910888671875,5.615478515625
0.1495,-5.635498046875,0.170166015625,5.094970703125
0.15,-5.635498046875,1.411376953125,4.134033203125
0.1505,-5.435302734375,2.532470703125,3.093017578125
0.151,-5.074951171875,3.333251953125,2.132080078125
0.1515,-4.834716796875,4.093994140625,1.291259765625
0.152,-4.434326171875,4.734619140625,0.410400390625
0.1525,-3.553466796875,5.094970703125,-0.870849609375
0.153,-2.432373046875,5.375244140625,-2.152099609375
0.1535,-1.391357421875,5.375244140625,-3.153076171875
0.154,-0.630615234375,5.455322265625,-3.993896484375
0.1545,0.210205078125,5.335205078125,-4.834716796875
0.155,1.371337890625,4.974853515625,-5.435302734375
0.1555,2.612548828125,3.853759765625,-5.915771484375
0.156,3.653564453125,2.732666015625,-5.955810546875
0.1565,4.294189453125,1.651611328125,-5.795654296875
0.157,4.774658203125,0.930908203125,-5.795654296875
0.1575,5.054931640625,0.050048828125,-5.595458984375
0.158,5.094970703125,-1.071044921875,-4.914794921875
0.1585,5.094970703125,-2.232177734375,-3.993896484375
0.159,4.814697265625,-3.193115234375,-2.952880859375
0.1595,4.574462890625,-3.993896484375,-2.072021484375
0.16,4.334228515625,-4.754638671875,-1.311279296875
0.1605,3.933837890625,-5.435302734375,-0.470458984375
0.161,2.972900390625,-5.795654296875,0.930908203125
0.1615,1.891845703125,-5.915771484375,2.092041015625
0.162,1.010986328125,-5.955810546875,2.972900390625
0.1625,0.250244140625,-6.276123046875,3.813720703125
0.163,-0.710693359375,-5.955810546875,4.614501953125
0.1635,-1.871826171875,-5.315185546875,5.255126953125
0.164,-3.113037109375,-4.354248046875,5.695556640625
0.1645,-3.993896484375,-3.193115234375,5.695556640625
0.165,-4.634521484375,-2.272216796875,5.655517578125
0.1655,-5.074951171875,-1.511474609375,5.575439453125
0.166,-5.435302734375,-0.710693359375,5.415283203125
0.1665,-5.475341796875,0.530517578125,4.654541015625
0.167,-5.395263671875,1.611572265625,3.693603515625
0.1675,-5.114990234375,2.532470703125,2.772705078125
0.168,-4.954833984375,3.413330078125,1.931884765625
0.1685,-4.634521484375,4.053955078125,1.091064453125
0.169,-4.033935546875,4.614501953125,0.090087890625
0.1695,-3.193115234375,5.094970703125,-1.231201171875
0.17,-2.112060546875,5.255126953125,-2.392333984375
0.1705,-1.311279296875,5.255126953125,-3.313232421875
0.171,-0.590576171875,5.455322265625,-4.154052734375
0.1715,0.530517578125,5.295166015625,-4.994873046875
0.172,1.851806640625,4.454345703125,-5.555419921875
0.1725,3.012939453125,3.333251953125,-5.795654296875
0.173,3.813720703125,2.252197265625,-5.755615234375
0.1735,4.414306640625,1.411376953125,-5.795654296875
0.174,4.774658203125,0.610595703125,-5.635498046875
0.1745,5.014892578125,-0.470458984375,-5.275146484375
0.175,5.094970703125,-1.631591796875,-4.434326171875
0.1755,4.974853515625,-2.712646484375,-3.473388671875
0.176,4.694580078125,-3.593505859375,-2.512451171875
0.1765,4.534423828125,-4.434326171875,-1.751708984375
0.177,4.134033203125,-5.114990234375,-0.830810546875
0.1775,3.333251953125,-5.595458984375,0.450439453125
0.178,2.292236328125,-5.915771484375,1.731689453125
0.1785,1.291259765625,-5.915771484375,2.812744140625
0.179,0.570556640625,-6.115966796875,3.653564453125
0.1795,-0.430419921875,-6.075927734375,4.494384765625
0.18,-1.551513671875,-5.595458984375,5.175048828125
0.1805,-2.912841796875,-4.554443359375,5.735595703125
0.181,-3.913818359375,-3.353271484375,5.815673828125
0.1815,-4.594482421875,-2.352294921875,5.735595703125
0.182,-5.074951171875,-1.551513671875,5.655517578125
0.1825,-5.395263671875,-0.710693359375,5.415283203125
0.183,-5.475341796875,0.490478515625,4.734619140625
0.1835,-5.475341796875,1.731689453125,3.733642578125
0.184,-5.235107421875,2.692626953125,2.692626953125
0.1845,-4.954833984375,3.493408203125,1.851806640625
0.185,-4.634521484375,4.134033203125,1.010986328125
0.1855,-4.154052734375,4.814697265625,0.090087890625
0.186,-3.113037109375,5.175048828125,-1.351318359375
0.1865,-1.991943359375,5.335205078125,-2.552490234375
0.187,-1.151123046875,5.375244140625,-3.433349609375
0.1875,-0.390380859375,5.455322265625,-4.314208984375
0.188,0.610595703125,5.255126953125,-4.994873046875
