wavelength,x,y,z
0.0,-10.765502929688,-3.5985107421875,-7.5623779296875
0.0005,-10.725463867188,-1.4364013671875,-9.6444091796875
0.001,-9.3641357421875,0.6055908203125,-10.244995117188
0.0015,-8.1229248046875,1.9268798828125,-10.244995117188
0.002,-6.6815185546875,4.2091064453125,-10.885620117188
0.0025,-4.1590576171875,6.7716064453125,-10.845581054688
0.003,-2.3172607421875,8.4532470703125,-10.565307617188
0.0035,-0.0750732421875,10.375122070312,-10.124877929688
0.004,1.5665283203125,10.615356445312,-8.6434326171875
0.0045,3.0079345703125,11.015747070312,-7.5623779296875
0.005,5.8106689453125,11.776489257812,-5.4403076171875
0.0055,7.5323486328125,11.496215820312,-3.3983154296875
0.006,9.1339111328125,11.296020507812,-1.5565185546875
0.0065,10.335083007812,10.415161132812,0.4454345703125
0.007,10.014770507812,8.7335205078125,1.8067626953125
0.0075,10.495239257812,7.5323486328125,3.4884033203125
0.008,10.575317382812,5.0499267578125,6.0108642578125
0.0085,10.054809570312,3.0479736328125,7.3721923828125
0.009,9.9346923828125,0.9659423828125,9.2540283203125
0.0095,8.4932861328125,-1.0360107421875,9.7344970703125
0.01,7.2921142578125,-2.3973388671875,9.7344970703125
0.0105,5.6104736328125,-4.8397216796875,10.415161132812
0.011,3.3282470703125,-7.0819091796875,10.295043945312
0.0115,1.4063720703125,-8.6033935546875,9.7745361328125
0.012,-0.5555419921875,-10.244995117188,9.3741455078125
0.0125,-2.3172607421875,-10.525268554688,7.8126220703125
0.013,-3.9989013671875,-10.965698242188,6.5313720703125
0.0135,-6.7215576171875,-11.686401367188,4.4093017578125
0.014,-8.0828857421875,-11.245971679688,2.6075439453125
0.0145,-9.6043701171875,-11.005737304688,0.8458251953125
0.015,-10.565307617188,-9.9647216796875,-1.1561279296875
0.0155,-10.244995117188,-8.2030029296875,-2.5975341796875
0.016,-10.765502929688,-6.7615966796875,-4.4793701171875
0.0165,-10.885620117188,-4.4393310546875,-6.8817138671875
0.017,-10.164916992188,-2.5574951171875,-8.0028076171875
0.0175,-10.044799804688,-0.5955810546875,-9.7645263671875
0.018,-8.3631591796875,1.5264892578125,-10.044799804688
0.0185,-6.9617919921875,3.1280517578125,-10.124877929688
0.019,-5.2000732421875,5.6505126953125,-10.765502929688
0.0195,-3.0780029296875,7.6925048828125,-10.565307617188
0.02,-1.2762451171875,8.8936767578125,-9.9246826171875
0.0205,0.6055908203125,10.455200195312,-9.4442138671875
0.021,2.5675048828125,10.615356445312,-7.6424560546875
0.0215,4.4893798828125,11.095825195312,-6.1610107421875
0.022,7.1319580078125,11.656372070312,-4.0389404296875
0.0225,8.1729736328125,11.015747070312,-2.2772216796875
0.023,9.4542236328125,10.695434570312,-0.6756591796875
0.0235,10.214965820312,9.5343017578125,1.2862548828125
0.024,9.9346923828125,7.4923095703125,2.9278564453125
0.0245,10.335083007812,5.8907470703125,4.8897705078125
0.025,10.415161132812,3.6885986328125,7.0919189453125
0.0255,9.4542236328125,1.8868408203125,7.8526611328125
0.026,9.2940673828125,0.0050048828125,9.5343017578125
0.0265,7.5323486328125,-2.1170654296875,9.7344970703125
0.027,5.9307861328125,-3.9188232421875,9.8946533203125
0.0275,4.0489501953125,-6.4813232421875,10.495239257812
0.028,1.9268798828125,-8.2030029296875,9.8946533203125
0.0285,0.2852783203125,-9.2039794921875,9.2139892578125
0.029,-1.5164794921875,-10.565307617188,8.6934814453125
0.0295,-3.5584716796875,-10.725463867188,6.6915283203125
0.03,-5.6405029296875,-11.205932617188,5.0499267578125
0.0305,-8.2430419921875,-11.766479492188,2.9678955078125
0.031,-8.9637451171875,-10.645385742188,1.1661376953125
0.0315,-10.084838867188,-10.405151367188,-0.2752685546875
0.032,-10.645385742188,-8.9237060546875,-2.2371826171875
0.0325,-10.405151367188,-6.9217529296875,-3.9989013671875
0.033,-10.765502929688,-5.1600341796875,-6.0809326171875
0.0335,-10.685424804688,-3.0379638671875,-8.0428466796875
0.034,-9.6043701171875,-1.2762451171875,-8.6434326171875
0.0345,-9.3240966796875,0.6055908203125,-10.164916992188
0.035,-7.2020263671875,2.8477783203125,-10.164916992188
0.0355,-5.6405029296875,4.7696533203125,-10.365112304688
0.036,-3.6785888671875,7.3721923828125,-10.885620117188
0.0365,-1.6365966796875,8.6534423828125,-10.084838867188
0.037,0.0050048828125,9.6143798828125,-9.3240966796875
0.0375,1.6466064453125,10.775512695312,-8.6834716796875
0.038,3.9688720703125,10.855590820312,-6.4412841796875
0.0385,6.0509033203125,11.215942382812,-4.6795654296875
0.039,8.4532470703125,11.696411132812,-2.6776123046875
0.0395,8.9337158203125,10.335083007812,-0.9158935546875
0.04,9.9346923828125,10.054809570312,0.4454345703125
0.0405,10.255004882812,8.2930908203125,2.4073486328125
0.041,10.054809570312,6.2510986328125,4.2491455078125
0.0415,10.375122070312,4.4093017578125,6.4112548828125
0.042,10.014770507812,2.2471923828125,8.1329345703125
0.0425,8.9337158203125,0.6055908203125,8.5733642578125
0.043,8.5733642578125,-1.1561279296875,9.8946533203125
0.0435,6.3712158203125,-3.5184326171875,9.8946533203125
0.044,4.6094970703125,-5.4803466796875,10.014770507812
0.0445,2.6075439453125,-8.0028076171875,10.415161132812
0.045,0.4053955078125,-9.1239013671875,9.2540283203125
0.0455,-0.7957763671875,-9.8846435546875,8.6934814453125
0.046,-2.5975341796875,-10.845581054688,7.8126220703125
0.0465,-4.9998779296875,-11.045776367188,5.5704345703125
0.047,-7.1219482421875,-11.245971679688,3.6085205078125
0.0475,-9.3641357421875,-11.526245117188,1.5665283203125
0.048,-9.6444091796875,-10.004760742188,-0.1551513671875
0.0485,-10.485229492188,-9.7645263671875,-1.2762451171875
0.049,-10.685424804688,-7.7625732421875,-3.4783935546875
0.0495,-10.485229492188,-5.6405029296875,-5.3201904296875
0.05,-10.845581054688,-3.7186279296875,-7.5223388671875
0.0505,-10.204956054688,-1.4764404296875,-9.0037841796875
0.051,-9.0438232421875,0.1251220703125,-9.3641357421875
0.0515,-8.4031982421875,1.8067626953125,-10.365112304688
0.052,-6.1610107421875,4.2891845703125,-10.445190429688
0.0525,-4.2791748046875,6.3311767578125,-10.525268554688
0.053,-2.3572998046875,8.6934814453125,-10.885620117188
0.0535,-0.0350341796875,9.7344970703125,-9.4442138671875
0.054,0.9659423828125,10.335083007812,-8.9637451171875
0.0545,3.0479736328125,11.135864257812,-7.6424560546875
0.055,5.4903564453125,11.376098632812,-5.4002685546875
0.0555,7.6124267578125,11.496215820312,-3.3582763671875
0.056,9.6544189453125,11.496215820312,-1.2762451171875
0.0565,9.7344970703125,9.7745361328125,0.3653564453125
0.057,10.375122070312,9.4542236328125,1.4464111328125
0.0575,10.615356445312,7.1719970703125,3.8887939453125
0.058,10.295043945312,4.9298095703125,5.8106689453125
0.0585,10.535278320312,2.8878173828125,8.0128173828125
0.059,9.7344970703125,0.6456298828125,9.3341064453125
0.0595,8.4532470703125,-0.8358154296875,9.5343017578125
0.06,7.7725830078125,-2.4774169921875,10.335083007812
0.0605,5.2501220703125,-5.2801513671875,10.535278320312
0.061,3.1680908203125,-7.3221435546875,10.335083007812
0.0615,1.0059814453125,-9.6444091796875,10.375122070312
0.062,-1.0360107421875,-10.325073242188,8.8936767578125
0.0625,-2.0770263671875,-10.765502929688,8.2930908203125
0.063,-4.5194091796875,-11.566284179688,6.5313720703125
0.0635,-6.8817138671875,-11.606323242188,4.2091064453125
0.064,-8.8035888671875,-11.566284179688,2.2471923828125
0.0645,-10.645385742188,-11.366088867188,0.0450439453125
0.065,-10.525268554688,-9.5643310546875,-1.4764404296875
0.0655,-10.965698242188,-8.9237060546875,-2.5975341796875
0.066,-11.205932617188,-6.4412841796875,-5.2801513671875
0.0665,-10.765502929688,-4.1590576171875,-7.0819091796875
0.067,-10.765502929688,-1.9969482421875,-9.1239013671875
0.0675,-9.7645263671875,0.1251220703125,-10.204956054688
0.068,-8.4031982421875,1.5264892578125,-10.124877929688
0.0685,-7.4022216796875,3.3282470703125,-10.805541992188
0.069,-4.9197998046875,6.0909423828125,-10.925659179688
0.0695,-2.8778076171875,7.9727783203125,-10.685424804688
0.07,-0.7557373046875,10.094848632812,-10.525268554688
0.0705,1.2061767578125,10.615356445312,-9.0037841796875
0.071,2.3673095703125,10.935668945312,-8.1629638671875
0.0715,4.9698486328125,11.776489257812,-6.2410888671875
0.072,7.0919189453125,11.656372070312,-3.9989013671875
0.0725,8.7735595703125,11.456176757812,-2.1971435546875
0.073,10.375122070312,11.015747070312,-0.0750732421875
0.0735,10.174926757812,9.2139892578125,1.4464111328125
0.074,10.535278320312,8.2930908203125,2.7677001953125
0.0745,10.855590820312,5.8507080078125,5.4503173828125
0.075,10.375122070312,3.6885986328125,7.0518798828125
0.0755,10.214965820312,1.5665283203125,8.9737548828125
0.076,9.1739501953125,-0.5155029296875,9.9346923828125
0.0765,7.7325439453125,-1.9569091796875,9.8546142578125
0.077,6.4512939453125,-4.0789794921875,10.535278320312
0.0775,3.9688720703125,-6.7615966796875,10.615356445312
0.078,1.9669189453125,-8.3231201171875,10.094848632812
0.0785,-0.0750732421875,-10.285034179688,9.8946533203125
0.079,-1.9969482421875,-10.765502929688,8.3731689453125
0.0795,-3.4783935546875,-11.085815429688,7.1719970703125
0.08,-6.2010498046875,-11.886596679688,5.1300048828125
0.0805,-8.1629638671875,-11.726440429688,3.0479736328125
0.081,-9.4442138671875,-11.326049804688,1.2462158203125
0.0815,-10.965698242188,-10.845581054688,-0.7557373046875
0.082,-10.645385742188,-8.7235107421875,-2.4373779296875
0.0825,-11.045776367188,-7.5223388671875,-4.0389404296875
0.083,-11.326049804688,-5.0399169921875,-6.7215576171875
0.0835,-10.685424804688,-3.0379638671875,-8.0028076171875
0.084,-10.445190429688,-0.9959716796875,-9.7645263671875
0.0845,-9.2840576171875,1.2061767578125,-10.645385742188
0.085,-7.4422607421875,2.8878173828125,-10.405151367188
0.0855,-6.0408935546875,5.1300048828125,-11.165893554688
0.086,-3.5184326171875,7.8126220703125,-11.205932617188
0.0865,-1.7166748046875,8.9737548828125,-10.445190429688
0.087,0.3253173828125,10.855590820312,-10.124877929688
0.0875,2.4073486328125,11.255981445312,-8.4432373046875
0.088,4.2491455078125,11.536254882812,-6.8016357421875
0.0885,6.9718017578125,12.176879882812,-4.7196044921875
0.089,8.6934814453125,11.856567382812,-2.5975341796875
0.0895,9.6143798828125,11.135864257812,-0.9959716796875
0.09,11.055786132812,10.575317382812,1.0460205078125
0.0905,10.695434570312,8.2130126953125,3.0079345703125
0.091,10.975708007812,6.6915283203125,4.7696533203125
0.0915,11.215942382812,4.2891845703125,7.4122314453125
0.092,10.214965820312,2.1671142578125,8.4132080078125
0.0925,9.9346923828125,0.3253173828125,9.8946533203125
0.093,8.6134033203125,-2.0369873046875,10.735473632812
0.0935,6.4112548828125,-3.9989013671875,10.495239257812
0.094,4.8096923828125,-6.3612060546875,11.055786132812
0.0945,2.2471923828125,-8.8836669921875,10.895629882812
0.095,0.3653564453125,-9.6444091796875,9.7344970703125
0.0955,-1.3563232421875,-11.286010742188,9.4942626953125
0.096,-3.5985107421875,-11.646362304688,7.5323486328125
0.0965,-5.6405029296875,-11.846557617188,5.6505126953125
0.097,-8.4031982421875,-12.447143554688,3.4083251953125
0.0975,-9.8045654296875,-11.766479492188,1.2862548828125
0.098,-10.445190429688,-10.765502929688,-0.2752685546875
0.0985,-11.606323242188,-10.084838867188,-2.0770263671875
0.099,-11.165893554688,-7.4822998046875,-4.1590576171875
0.0995,-11.286010742188,-5.8006591796875,-5.9207763671875
0.1,-11.526245117188,-3.4783935546875,-8.4832763671875
0.1005,-10.244995117188,-1.3963623046875,-9.1639404296875
0.101,-9.9246826171875,0.3653564453125,-10.525268554688
0.1015,-8.2430419921875,2.6876220703125,-11.045776367188
0.102,-6.1209716796875,4.7696533203125,-10.885620117188
0.1025,-4.3192138671875,7.0919189453125,-11.326049804688
0.103,-2.1170654296875,9.2139892578125,-11.085815429688
0.1035,-0.1551513671875,9.8946533203125,-9.6844482421875
0.104,1.3663330078125,11.376098632812,-9.5643310546875
0.1045,3.8087158203125,11.536254882812,-7.3221435546875
0.105,5.7706298828125,11.736450195312,-5.4403076171875
0.1055,8.4532470703125,12.296997070312,-3.2781982421875
0.106,9.5743408203125,11.376098632812,-1.2762451171875
0.1065,10.134887695312,10.495239257812,0.2452392578125
0.107,11.095825195312,9.6544189453125,2.0469970703125
0.1075,10.735473632812,7.0518798828125,4.2091064453125
0.108,10.855590820312,5.2501220703125,6.0509033203125
0.1085,11.015747070312,2.9278564453125,8.4932861328125
0.109,9.6143798828125,0.9259033203125,8.9737548828125
0.1095,9.2940673828125,-0.7557373046875,10.295043945312
0.11,7.5323486328125,-3.1580810546875,10.735473632812
0.1105,5.3302001953125,-5.3201904296875,10.615356445312
0.111,3.3682861328125,-7.7625732421875,10.975708007812
0.1115,0.9659423828125,-9.7645263671875,10.415161132812
0.112,-0.7957763671875,-10.244995117188,9.0938720703125
0.1125,-2.1571044921875,-11.526245117188,8.8936767578125
0.113,-4.8797607421875,-11.846557617188,6.4112548828125
0.1135,-6.9617919921875,-11.926635742188,4.3692626953125
0.114,-9.6444091796875,-12.407104492188,2.1671142578125
0.1145,-10.525268554688,-11.085815429688,0.0050048828125
0.115,-10.885620117188,-10.124877929688,-1.3162841796875
0.1155,-11.566284179688,-9.0438232421875,-3.0780029296875
0.116,-11.245971679688,-6.2811279296875,-5.4403076171875
0.1165,-11.245971679688,-4.3592529296875,-7.3621826171875
0.117,-11.286010742188,-1.9969482421875,-9.6444091796875
0.1175,-9.6444091796875,0.0450439453125,-9.9246826171875
0.118,-9.1639404296875,1.5665283203125,-10.885620117188
0.1185,-7.1619873046875,4.0089111328125,-11.245971679688
0.119,-4.8397216796875,6.2510986328125,-11.045776367188
0.1195,-2.8778076171875,8.6534423828125,-11.326049804688
0.12,-0.4754638671875,10.375122070312,-10.485229492188
0.1205,1.0860595703125,10.615356445312,-9.1639404296875
0.121,2.4874267578125,11.576293945312,-8.6834716796875
0.1215,5.3702392578125,11.976684570312,-6.1209716796875
0.122,7.2921142578125,11.816528320312,-3.9989013671875
0.1225,9.8145751953125,12.216918945312,-1.7967529296875
0.123,10.415161132812,10.735473632812,0.2452392578125
0.1235,10.615356445312,9.7745361328125,1.4063720703125
0.124,11.135864257812,8.4132080078125,3.2481689453125
0.1245,10.855590820312,5.6905517578125,5.6505126953125
0.125,10.815551757812,3.7286376953125,7.5323486328125
0.1255,10.615356445312,1.3262939453125,9.6143798828125
0.126,8.9737548828125,-0.5955810546875,9.7344970703125
0.1265,8.4932861328125,-1.9569091796875,10.575317382812
0.127,6.3311767578125,-4.5594482421875,10.895629882812
0.1275,3.9688720703125,-6.8016357421875,10.695434570312
0.128,1.8468017578125,-9.1239013671875,10.735473632812
0.1285,-0.5155029296875,-10.645385742188,9.7745361328125
0.129,-1.8768310546875,-10.845581054688,8.5733642578125
0.1295,-3.4783935546875,-11.686401367188,7.6925048828125
0.13,-6.4012451171875,-12.126831054688,5.1700439453125
0.1305,-8.2030029296875,-11.846557617188,3.0880126953125
0.131,-10.525268554688,-12.006713867188,0.8858642578125
0.1315,-10.925659179688,-10.405151367188,-1.1160888671875
0.132,-11.045776367188,-9.3641357421875,-2.1971435546875
0.1325,-11.526245117188,-7.7225341796875,-4.3592529296875
0.133,-11.245971679688,-4.9998779296875,-6.7215576171875
0.1335,-11.045776367188,-2.9578857421875,-8.4432373046875
0.134,-10.765502929688,-0.6356201171875,-10.405151367188
0.1345,-9.0037841796875,1.2061767578125,-10.365112304688
0.135,-8.2030029296875,2.5675048828125,-10.885620117188
0.1355,-6.0408935546875,5.4102783203125,-11.406127929688
0.136,-3.5985107421875,7.6124267578125,-11.045776367188
0.1365,-1.5965576171875,9.6143798828125,-10.965698242188
0.137,0.6856689453125,10.935668945312,-9.9246826171875
0.1375,2.0469970703125,11.015747070312,-8.6033935546875
0.138,4.0089111328125,11.816528320312,-7.2821044921875
0.1385,6.8917236328125,12.216918945312,-4.7996826171875
0.139,8.3731689453125,11.816528320312,-2.8778076171875
0.1395,10.495239257812,11.816528320312,-0.7156982421875
0.14,10.775512695312,10.094848632812,1.2462158203125
0.1405,10.735473632812,8.8936767578125,2.4073486328125
0.141,11.255981445312,7.0118408203125,4.8497314453125
0.1415,10.975708007812,4.4093017578125,7.0518798828125
0.142,10.535278320312,2.2872314453125,8.6134033203125
0.1425,10.214965820312,0.0450439453125,10.415161132812
0.143,8.3331298828125,-1.8367919921875,10.335083007812
0.1435,7.3321533203125,-3.3983154296875,10.815551757812
0.144,4.9298095703125,-6.4412841796875,11.336059570312
0.1445,2.6075439453125,-8.4031982421875,10.735473632812
0.145,0.4854736328125,-10.204956054688,10.375122070312
0.1455,-1.7166748046875,-11.526245117188,9.3341064453125
0.146,-3.3582763671875,-11.486206054688,7.6925048828125
0.1465,-5.6004638671875,-12.246948242188,6.1309814453125
0.147,-8.3631591796875,-12.567260742188,3.6085205078125
0.1475,-9.4442138671875,-11.766479492188,1.7667236328125
0.148,-11.286010742188,-11.646362304688,-0.2352294921875
0.1485,-11.526245117188,-9.7244873046875,-2.3572998046875
0.149,-11.406127929688,-8.0828857421875,-3.8387451171875
0.1495,-11.846557617188,-6.0408935546875,-6.3211669921875
0.15,-11.526245117188,-3.5584716796875,-8.3631591796875
0.1505,-10.685424804688,-1.5565185546875,-9.4842529296875
0.151,-10.325073242188,0.6856689453125,-11.245971679688
0.1515,-8.0028076171875,2.7677001953125,-10.885620117188
0.152,-6.7615966796875,4.5694580078125,-11.366088867188
0.1525,-4.3192138671875,7.5323486328125,-11.726440429688
0.153,-2.2371826171875,8.9737548828125,-11.005737304688
0.1535,-0.1951904296875,10.535278320312,-10.445190429688
0.154,1.9268798828125,11.736450195312,-9.3240966796875
0.1545,3.8487548828125,11.656372070312,-7.2821044921875
0.155,6.0909423828125,12.216918945312,-5.6004638671875
0.1555,8.6934814453125,12.497192382812,-3.1981201171875
0.156,9.3341064453125,11.376098632812,-1.4364013671875
0.1565,10.935668945312,11.215942382812,0.3253173828125
0.157,11.055786132812,9.1339111328125,2.4874267578125
0.1575,10.895629882812,7.3721923828125,4.0889892578125
0.158,11.255981445312,5.2501220703125,6.4913330078125
0.1585,10.815551757812,2.9278564453125,8.2930908203125
0.159,9.9747314453125,1.1260986328125,9.1739501953125
0.1595,9.4942626953125,-1.0360107421875,10.775512695312
0.16,7.1719970703125,-3.1981201171875,10.455200195312
0.1605,5.7305908203125,-5.2000732421875,10.855590820312
0.161,3.3282470703125,-8.0428466796875,11.215942382812
0.1615,1.2061767578125,-9.2440185546875,10.094848632812
0.162,-0.5155029296875,-10.565307617188,9.6544189453125
0.1625,-2.5574951171875,-11.526245117188,8.4932861328125
0.163,-4.6795654296875,-11.526245117188,6.3712158203125
0.1635,-7.0018310546875,-12.046752929688,4.4893798828125
0.164,-9.3240966796875,-12.246948242188,2.3272705078125
0.1645,-9.7645263671875,-10.885620117188,0.5655517578125
0.165,-11.205932617188,-10.725463867188,-1.0360107421875
0.1655,-11.165893554688,-8.4432373046875,-3.1981201171875
0.166,-11.045776367188,-6.6815185546875,-4.8797607421875
0.1665,-11.446166992188,-4.5594482421875,-7.3621826171875
0.167,-10.765502929688,-2.3172607421875,-8.7635498046875
0.1675,-9.8846435546875,-0.5955810546875,-9.6043701171875
0.168,-9.2039794921875,1.5264892578125,-10.885620117188
0.1685,-6.7615966796875,3.7686767578125,-10.605346679688
0.169,-5.2801513671875,5.7305908203125,-11.005737304688
0.1695,-3.1580810546875,8.3731689453125,-11.366088867188
0.17,-0.9959716796875,9.2940673828125,-10.044799804688
0.1705,0.5255126953125,10.575317382812,-9.6844482421875
0.171,2.6075439453125,11.336059570312,-8.2830810546875
0.1715,4.8096923828125,11.456176757812,-6.1610107421875
0.172,7.1319580078125,11.816528320312,-4.1590576171875
0.1725,9.1339111328125,11.856567382812,-2.1571044921875
0.173,9.4542236328125,10.455200195312,-0.4354248046875
0.1735,10.735473632812,10.214965820312,1.0059814453125
0.174,10.575317382812,7.8126220703125,3.2481689453125
0.1745,10.535278320312,6.0108642578125,4.9698486328125
0.175,10.935668945312,3.9688720703125,7.4122314453125
0.1755,9.9747314453125,1.6866455078125,8.6134033203125
0.176,9.2139892578125,0.0850830078125,9.3341064453125
0.1765,8.3731689453125,-1.9569091796875,10.455200195312
0.177,5.9307861328125,-4.3592529296875,10.255004882812
0.1775,4.2091064453125,-6.4412841796875,10.535278320312
0.178,2.0069580078125,-8.9237060546875,10.695434570312
