wavelength,x,y,z
0.0,3.04296875,3.9638671875,-6.5263671875
0.0005,4.2841796875,2.802734375,-6.6865234375
0.001,4.884765625,1.44140625,-6.5263671875
0.0015,5.2451171875,0.7607421875,-6.166015625
0.002,5.4453125,-0.400390625,-5.9658203125
0.0025,5.5654296875,-1.44140625,-5.1650390625
0.003,5.525390625,-2.8828125,-4.00390625
0.0035,5.2451171875,-4.00390625,-2.8828125
0.004,4.884765625,-4.8046875,-1.8017578125
0.0045,4.2841796875,-5.4052734375,-0.80078125
0.005,3.68359375,-6.0458984375,0.240234375
0.0055,2.6025390625,-6.40625,1.5615234375
0.006,1.201171875,-6.4462890625,3.2431640625
0.0065,0.1201171875,-6.40625,4.1640625
0.007,-0.80078125,-6.40625,4.96484375
0.0075,-1.681640625,-6.005859375,5.765625
0.008,-2.9228515625,-5.3251953125,6.326171875
0.0085,-4.4443359375,-4.1240234375,6.806640625
0.009,-5.4853515625,-2.72265625,6.8466796875
0.0095,-5.765625,-1.5615234375,6.40625
0.01,-6.1259765625,-0.6005859375,6.24609375
0.0105,-6.2060546875,0.48046875,5.525390625
0.011,-6.166015625,1.8818359375,4.404296875
0.0115,-6.005859375,3.203125,3.1630859375
0.012,-5.6455078125,4.1240234375,1.921875
0.0125,-5.0048828125,4.96484375,0.9208984375
0.013,-4.484375,5.365234375,0.0400390625
0.0135,-3.6435546875,5.8056640625,-1.201171875
0.014,-2.1220703125,5.92578125,-3.04296875
0.0145,-0.6806640625,5.9658203125,-4.32421875
0.015,0.3603515625,5.765625,-5.125
0.0155,1.041015625,5.7255859375,-5.685546875
0.016,2.162109375,5.0849609375,-6.4462890625
0.0165,3.4033203125,3.9638671875,-6.8466796875
0.017,4.884765625,2.642578125,-7.2470703125
0.0175,5.4052734375,1.2412109375,-6.966796875
0.018,5.8857421875,0.3603515625,-6.486328125
0.0185,5.8857421875,-0.6806640625,-6.0458984375
0.019,5.9658203125,-1.7216796875,-5.4453125
0.0195,5.8056640625,-3.1630859375,-4.00390625
0.02,5.4052734375,-4.3642578125,-2.6025390625
0.0205,5.044921875,-5.205078125,-1.6015625
0.021,4.32421875,-5.845703125,-0.6005859375
0.0215,3.68359375,-6.166015625,0.560546875
0.022,2.6826171875,-6.646484375,1.7216796875
0.0225,1.2412109375,-6.806640625,3.3232421875
0.023,-0.2001953125,-6.6064453125,4.484375
0.0235,-1.0009765625,-6.3662109375,5.3251953125
0.024,-1.681640625,-6.166015625,5.8857421875
0.0245,-2.9228515625,-5.60546875,6.646484375
0.025,-4.4443359375,-4.5244140625,6.966796875
0.0255,-5.365234375,-2.8828125,7.046875
0.026,-6.1259765625,-1.8017578125,6.6865234375
0.0265,-6.2861328125,-0.80078125,6.3662109375
0.027,-6.326171875,0.240234375,5.7255859375
0.0275,-6.3662109375,1.4013671875,4.96484375
0.028,-6.1259765625,2.8828125,3.5634765625
0.0285,-5.8056640625,3.8837890625,2.2822265625
0.029,-5.125,4.8046875,1.201171875
0.0295,-4.64453125,5.365234375,0.400390625
0.03,-3.923828125,5.765625,-0.720703125
0.0305,-2.642578125,5.9658203125,-2.2822265625
0.031,-1.28125,6.0859375,-3.763671875
0.0315,0.0400390625,5.9658203125,-4.724609375
0.032,0.8408203125,5.845703125,-5.525390625
0.0325,1.5615234375,5.4453125,-6.1259765625
0.033,2.72265625,4.724609375,-6.7265625
0.0335,4.2841796875,3.36328125,-7.126953125
0.034,5.2451171875,1.9619140625,-7.20703125
0.0345,5.7255859375,0.80078125,-6.7265625
0.035,5.8857421875,-0.2001953125,-6.4462890625
0.0355,6.0458984375,-1.201171875,-5.8056640625
0.036,5.8056640625,-2.6025390625,-4.64453125
0.0365,5.8056640625,-3.84375,-3.4033203125
0.037,5.0849609375,-5.0048828125,-2.001953125
0.0375,4.7646484375,-5.7255859375,-1.1611328125
0.038,4.1240234375,-6.1259765625,-0.2001953125
0.0385,3.36328125,-6.6064453125,1.0009765625
0.039,1.8818359375,-6.806640625,2.6826171875
0.0395,0.560546875,-6.7265625,4.00390625
0.04,-0.6806640625,-6.56640625,4.8447265625
0.0405,-1.4814453125,-6.486328125,5.7255859375
0.041,-2.5224609375,-6.0458984375,6.3662109375
0.0415,-3.763671875,-4.8447265625,6.8466796875
0.042,-5.1650390625,-3.5634765625,7.2470703125
0.0425,-5.92578125,-2.2021484375,6.9267578125
0.043,-6.2861328125,-1.12109375,6.5263671875
0.0435,-6.40625,-0.2001953125,6.0859375
0.044,-6.4462890625,0.9208984375,5.4052734375
0.0445,-6.5263671875,2.40234375,4.1240234375
0.045,-5.92578125,3.84375,2.6826171875
0.0455,-5.5654296875,4.6845703125,1.6015625
0.046,-4.96484375,5.2451171875,0.4404296875
0.0465,-4.2041015625,5.7255859375,-0.6005859375
0.047,-3.1630859375,6.0859375,-1.8818359375
0.0475,-1.76171875,6.24609375,-3.5634765625
0.048,-0.3203125,6.0458984375,-4.724609375
0.0485,0.6806640625,5.92578125,-5.4453125
0.049,1.3212890625,5.685546875,-6.1259765625
0.0495,2.6025390625,4.96484375,-6.966796875
0.05,4.1240234375,3.7236328125,-7.3671875
0.0505,5.2451171875,2.2822265625,-7.3671875
0.051,5.8056640625,0.9609375,-7.046875
0.0515,6.0458984375,0.0,-6.6064453125
0.052,6.2060546875,-1.12109375,-6.0859375
0.0525,6.0458984375,-2.2021484375,-5.0048828125
0.053,5.845703125,-3.8037109375,-3.6435546875
0.0535,5.4453125,-4.96484375,-2.4423828125
0.054,4.8447265625,-5.6455078125,-1.1611328125
0.0545,4.244140625,-6.1259765625,-0.2802734375
0.055,3.4833984375,-6.56640625,0.880859375
0.0555,2.2021484375,-6.7265625,2.40234375
0.056,0.720703125,-6.806640625,3.8037109375
0.0565,-0.5205078125,-6.6865234375,4.724609375
0.057,-1.28125,-6.3662109375,5.60546875
0.0575,-2.162109375,-6.166015625,6.0458984375
0.058,-3.283203125,-5.365234375,6.7265625
0.0585,-4.7646484375,-4.00390625,7.0869140625
0.059,-5.6455078125,-2.6025390625,7.0068359375
0.0595,-6.1259765625,-1.44140625,6.56640625
0.06,-6.24609375,-0.640625,6.0859375
0.0605,-6.2861328125,0.6005859375,5.7255859375
0.061,-6.1259765625,1.8017578125,4.6044921875
0.0615,-6.005859375,3.04296875,3.3232421875
0.062,-5.525390625,4.0439453125,2.1220703125
0.0625,-5.0048828125,4.7646484375,1.0810546875
0.063,-4.5244140625,5.2451171875,0.2001953125
0.0635,-3.84375,5.765625,-0.80078125
0.064,-2.4423828125,5.845703125,-2.482421875
0.0645,-1.1611328125,5.8857421875,-3.68359375
0.065,0.1201171875,5.60546875,-4.7646484375
0.0655,0.720703125,5.6455078125,-5.4052734375
0.066,1.6015625,5.365234375,-6.0458984375
0.0665,2.8427734375,4.484375,-6.6064453125
0.067,4.1240234375,3.283203125,-6.9267578125
0.0675,4.96484375,2.001953125,-6.806640625
0.068,5.4453125,0.80078125,-6.6064453125
0.0685,5.60546875,0.16015625,-6.1259765625
0.069,5.8857421875,-0.8408203125,-5.765625
0.0695,5.7255859375,-2.2421875,-4.6845703125
0.07,5.4853515625,-3.5634765625,-3.4833984375
0.0705,5.0849609375,-4.484375,-2.2822265625
0.071,4.6845703125,-5.205078125,-1.3212890625
0.0715,4.083984375,-5.765625,-0.2802734375
0.072,3.3232421875,-6.2861328125,0.720703125
0.0725,2.08203125,-6.56640625,2.2021484375
0.073,0.720703125,-6.3662109375,3.68359375
0.0735,-0.3203125,-6.2861328125,4.484375
0.074,-1.041015625,-6.326171875,5.1650390625
0.0745,-2.0419921875,-5.92578125,5.92578125
0.075,-3.4033203125,-4.884765625,6.4462890625
0.0755,-4.6044921875,-3.6435546875,6.6865234375
0.076,-5.4052734375,-2.3623046875,6.5263671875
0.0765,-5.7255859375,-1.361328125,6.2861328125
0.077,-5.845703125,-0.5205078125,5.8056640625
0.0775,-6.0859375,0.560546875,5.28515625
0.078,-5.9658203125,1.921875,4.1240234375
0.0785,-5.6455078125,3.04296875,2.9228515625
0.079,-5.205078125,3.8837890625,1.8818359375
0.0795,-4.8447265625,4.5244140625,1.0009765625
0.08,-4.2041015625,5.044921875,-0.2001953125
0.0805,-3.283203125,5.3251953125,-1.3212890625
0.081,-2.0419921875,5.5654296875,-2.8828125
0.0815,-0.80078125,5.525390625,-3.84375
0.082,0.080078125,5.5654296875,-4.64453125
0.0825,0.8408203125,5.4052734375,-5.3251953125
0.083,1.8818359375,4.96484375,-6.0859375
0.0835,3.203125,3.84375,-6.5263671875
0.084,4.2841796875,2.6025390625,-6.6865234375
0.0845,4.884765625,1.4013671875,-6.4462890625
0.085,5.1650390625,0.6005859375,-6.2861328125
0.0855,5.4052734375,-0.3203125,-5.765625
0.086,5.4052734375,-1.361328125,-5.044921875
0.0865,5.3251953125,-2.6025390625,-4.00390625
0.087,5.0048828125,-3.6435546875,-2.8828125
0.0875,4.6044921875,-4.484375,-1.8017578125
0.088,4.1640625,-5.125,-1.0009765625
0.0885,3.763671875,-5.765625,0.0
0.089,2.6826171875,-5.9658203125,1.28125
0.0895,1.4814453125,-6.0859375,2.5224609375
0.09,0.48046875,-6.0458984375,3.4833984375
0.0905,-0.3203125,-6.166015625,4.32421875
0.091,-1.201171875,-5.9658203125,5.044921875
0.0915,-2.2822265625,-5.4052734375,5.7255859375
0.092,-3.603515625,-4.4443359375,6.1259765625
0.0925,-4.5244140625,-3.203125,6.24609375
0.093,-5.0849609375,-2.2822265625,6.0458984375
0.0935,-5.4052734375,-1.4013671875,5.845703125
0.094,-5.7255859375,-0.6005859375,5.60546875
0.0945,-5.7255859375,0.6806640625,4.8046875
0.095,-5.60546875,1.8818359375,3.8037109375
0.0955,-5.2451171875,2.8828125,2.802734375
0.096,-5.0048828125,3.603515625,1.841796875
0.0965,-4.64453125,4.244140625,1.12109375
0.097,-4.00390625,4.8447265625,0.0400390625
0.0975,-3.0029296875,5.205078125,-1.44140625
0.098,-1.8017578125,5.2451171875,-2.642578125
0.0985,-0.9609375,5.3251953125,-3.5634765625
0.099,-0.2001953125,5.4052734375,-4.404296875
0.0995,0.80078125,5.2451171875,-5.1650390625
0.1,2.0419921875,4.5244140625,-5.765625
0.1005,3.203125,3.5234375,-6.2060546875
0.101,4.00390625,2.40234375,-6.0859375
0.1015,4.564453125,1.44140625,-6.0859375
0.102,4.884765625,0.640625,-5.8857421875
0.1025,5.125,-0.3203125,-5.5654296875
0.103,5.1650390625,-1.4814453125,-4.724609375
0.1035,5.0048828125,-2.642578125,-3.8037109375
0.104,4.724609375,-3.4833984375,-2.642578125
0.1045,4.5244140625,-4.244140625,-1.8818359375
0.105,4.1240234375,-5.0849609375,-1.12109375
0.1055,3.36328125,-5.4853515625,0.16015625
0.106,2.40234375,-5.8056640625,1.4814453125
0.1065,1.28125,-5.8857421875,2.5625
0.107,0.5205078125,-6.0458984375,3.4833984375
0.1075,-0.3203125,-6.0458984375,4.32421875
0.108,-1.3212890625,-5.7255859375,5.2451171875
0.1085,-2.642578125,-4.884765625,5.8056640625
0.109,-3.68359375,-3.8837890625,5.92578125
0.1095,-4.4443359375,-2.8427734375,5.8857421875
0.11,-4.884765625,-2.001953125,5.845703125
0.1105,-5.28515625,-1.1611328125,5.6455078125
0.111,-5.4453125,-0.240234375,5.125
0.1115,-5.4453125,1.0810546875,4.404296875
0.112,-5.3251953125,1.9619140625,3.2431640625
0.1125,-5.0048828125,3.0029296875,2.40234375
0.113,-4.7646484375,3.6435546875,1.4814453125
0.1135,-4.484375,4.404296875,0.640625
0.114,-3.5234375,4.8447265625,-0.6806640625
0.1145,-2.4423828125,5.125,-1.921875
0.115,-1.4814453125,5.205078125,-2.9228515625
0.1155,-0.7607421875,5.365234375,-3.84375
0.116,0.16015625,5.28515625,-4.6044921875
0.1165,1.28125,4.8447265625,-5.4052734375
0.117,2.5625,3.923828125,-6.005859375
0.1175,3.5234375,2.8427734375,-6.0458984375
0.118,4.2041015625,1.841796875,-5.9658203125
0.1185,4.64453125,1.0810546875,-5.92578125
0.119,5.044921875,0.240234375,-5.7255859375
0.1195,5.0849609375,-1.0009765625,-5.125
0.12,5.0849609375,-2.1220703125,-4.1240234375
0.1205,4.8046875,-3.203125,-3.0830078125
0.121,4.6044921875,-4.0439453125,-2.2021484375
0.1215,4.244140625,-4.724609375,-1.361328125
0.122,3.763671875,-5.28515625,-0.3603515625
0.1225,2.72265625,-5.7255859375,1.0810546875
0.123,1.6015625,-5.845703125,2.2421875
0.1235,0.7607421875,-5.92578125,3.1630859375
0.124,0.0400390625,-6.0859375,4.1240234375
0.1245,-1.0009765625,-5.845703125,4.884765625
0.125,-2.2822265625,-5.125,5.60546875
0.1255,-3.5234375,-4.1240234375,5.92578125
0.126,-4.32421875,-3.0029296875,5.92578125
0.1265,-4.884765625,-2.1220703125,5.8857421875
0.127,-5.205078125,-1.3212890625,5.685546875
0.1275,-5.525390625,-0.400390625,5.28515625
0.128,-5.525390625,0.880859375,4.484375
0.1285,-5.4052734375,1.9619140625,3.4833984375
0.129,-5.125,2.8427734375,2.482421875
0.1295,-4.8447265625,3.6435546875,1.6416015625
0.13,-4.4443359375,4.32421875,0.7607421875
0.1305,-3.603515625,4.8046875,-0.5205078125
0.131,-2.642578125,5.1650390625,-1.8017578125
0.1315,-1.5615234375,5.2451171875,-2.9228515625
0.132,-0.80078125,5.4052734375,-3.68359375
0.1325,0.1201171875,5.365234375,-4.64453125
0.133,1.12109375,5.0849609375,-5.4052734375
0.1335,2.482421875,4.1240234375,-6.005859375
0.134,3.5234375,3.0029296875,-6.166015625
0.1345,4.2041015625,1.921875,-6.0859375
0.135,4.724609375,1.12109375,-6.0458984375
0.1355,5.0048828125,0.2802734375,-5.8056640625
0.136,5.125,-0.80078125,-5.0849609375
0.1365,5.125,-2.08203125,-4.2041015625
0.137,4.9248046875,-3.1630859375,-3.203125
0.1375,4.6044921875,-4.00390625,-2.2822265625
0.138,4.3642578125,-4.6845703125,-1.4013671875
0.1385,3.9638671875,-5.365234375,-0.5205078125
0.139,2.9228515625,-5.765625,0.880859375
0.1395,1.76171875,-5.92578125,2.2021484375
0.14,0.80078125,-6.005859375,3.1630859375
0.1405,0.0400390625,-6.166015625,4.00390625
0.141,-0.9609375,-6.0458984375,4.9248046875
0.1415,-2.1220703125,-5.4052734375,5.60546875
0.142,-3.5234375,-4.3642578125,6.1259765625
0.1425,-4.4443359375,-3.203125,6.166015625
0.143,-5.0048828125,-2.2021484375,6.0458984375
0.1435,-5.4052734375,-1.3212890625,5.8056640625
0.144,-5.685546875,-0.4404296875,5.60546875
0.1445,-5.7255859375,0.8408203125,4.6044921875
0.145,-5.6455078125,2.08203125,3.5634765625
0.1455,-5.3251953125,3.04296875,2.5224609375
0.146,-5.0048828125,3.8837890625,1.5615234375
0.1465,-4.5244140625,4.484375,0.6806640625
0.147,-3.84375,5.044921875,-0.5205078125
0.1475,-2.6826171875,5.4052734375,-1.9619140625
0.148,-1.44140625,5.4052734375,-3.203125
0.1485,-0.6005859375,5.4453125,-4.1240234375
0.149,0.2802734375,5.4853515625,-4.8447265625
0.1495,1.3212890625,5.0849609375,-5.6455078125
0.15,2.642578125,4.2041015625,-6.24609375
0.1505,3.84375,3.0029296875,-6.5263671875
0.151,4.6044921875,1.841796875,-6.40625
0.1515,5.0849609375,0.880859375,-6.2861328125
0.152,5.3251953125,0.0,-5.8056640625
0.1525,5.525390625,-1.1611328125,-5.365234375
0.153,5.4853515625,-2.5224609375,-4.244140625
0.1535,5.205078125,-3.7236328125,-3.0830078125
0.154,4.8046875,-4.5244140625,-1.9619140625
0.1545,4.484375,-5.205078125,-1.12109375
0.155,3.84375,-5.765625,0.0
0.1555,2.8427734375,-6.1259765625,1.28125
0.156,1.521484375,-6.40625,2.72265625
0.1565,0.3603515625,-6.3662109375,3.84375
0.157,-0.5205078125,-6.3662109375,4.6845703125
0.1575,-1.3212890625,-6.166015625,5.4052734375
0.158,-2.5224609375,-5.60546875,6.166015625
0.1585,-4.00390625,-4.32421875,6.6865234375
0.159,-5.0849609375,-3.0029296875,6.6865234375
0.1595,-5.6455078125,-1.8818359375,6.40625
0.16,-5.92578125,-0.9609375,6.2060546875
0.1605,-6.0859375,0.080078125,5.60546875
0.161,-6.1259765625,1.3212890625,4.6845703125
0.1615,-5.9658203125,2.72265625,3.443359375
0.162,-5.60546875,3.84375,2.2421875
0.1625,-5.0849609375,4.5244140625,1.201171875
0.163,-4.564453125,5.0849609375,0.3203125
0.1635,-3.8837890625,5.5654296875,-0.7607421875
0.164,-2.4423828125,5.845703125,-2.40234375
0.1645,-1.12109375,5.8857421875,-3.84375
0.165,0.0400390625,5.765625,-4.7646484375
0.1655,0.7607421875,5.685546875,-5.4453125
0.166,1.7216796875,5.28515625,-6.1259765625
0.1665,3.04296875,4.32421875,-6.7666015625
0.167,4.484375,3.04296875,-7.126953125
0.1675,5.2451171875,1.7216796875,-6.9267578125
0.168,5.685546875,0.6005859375,-6.6064453125
0.1685,5.8056640625,-0.48046875,-6.24609375
0.169,5.92578125,-1.4814453125,-5.5654296875
0.1695,5.765625,-2.8828125,-4.3642578125
0.17,5.5654296875,-4.1640625,-3.04296875
0.1705,5.0849609375,-5.0849609375,-1.8017578125
0.171,4.5244140625,-5.7255859375,-0.8408203125
0.1715,3.8837890625,-6.1259765625,0.240234375
0.172,2.962890625,-6.56640625,1.4013671875
0.1725,1.44140625,-6.7666015625,3.04296875
0.173,0.1201171875,-6.646484375,4.32421875
0.1735,-0.8408203125,-6.486328125,5.0849609375
0.174,-1.6015625,-6.326171875,5.765625
0.1745,-2.72265625,-5.7255859375,6.4462890625
0.175,-4.1640625,-4.5244140625,6.966796875
0.1755,-5.4052734375,-3.203125,7.0869140625
0.176,-6.0458984375,-1.8818359375,6.7666015625
0.1765,-6.326171875,-0.9208984375,6.40625
0.177,-6.40625,0.1201171875,5.92578125
0.1775,-6.486328125,1.28125,5.125
0.178,-6.2861328125,2.802734375,3.763671875
0.1785,-5.845703125,4.00390625,2.40234375
0.179,-5.28515625,4.8046875,1.2412109375
0.1795,-4.7646484375,5.365234375,0.3203125
0.18,-4.00390625,5.765625,-0.7607421875
0.1805,-2.7626953125,6.0458984375,-2.2021484375
0.181,-1.3212890625,6.2060546875,-3.8037109375
0.1815,0.0400390625,5.9658203125,-4.884765625
0.182,0.8408203125,5.8056640625,-5.60546875
0.1825,1.6015625,5.5654296875,-6.24609375
0.183,2.7626953125,4.884765625,-6.88671875
0.1835,4.2841796875,3.4833984375,-7.2470703125
0.184,5.2451171875,2.0419921875,-7.20703125
0.1845,5.765625,0.7607421875,-6.806640625
0.185,5.9658203125,-0.240234375,-6.4462890625
0.1855,6.005859375,-1.1611328125,-5.845703125
0.186,5.92578125,-2.40234375,-4.8447265625
0.1865,5.7255859375,-3.8037109375,-3.5234375
0.187,5.2451171875,-4.8447265625,-2.2021484375
0.1875,4.724609375,-5.525390625,-1.1611328125
0.188,4.1640625,-6.0859375,-0.2802734375
0.1885,3.5234375,-6.5263671875,0.880859375
0.189,2.0419921875,-6.7265625,2.40234375
0.1895,0.640625,-6.7666015625,3.8837890625
0.19,-0.6005859375,-6.56640625,4.8046875
0.1905,-1.28125,-6.486328125,5.525390625
0.191,-2.2021484375,-6.1259765625,6.166015625
0.1915,-3.5234375,-5.1650390625,6.7666015625
0.192,-4.884765625,-3.84375,7.126953125
0.1925,-5.765625,-2.5224609375,6.966796875
0.193,-6.166015625,-1.361328125,6.56640625
0.1935,-6.3662109375,-0.5205078125,6.166015625
0.194,-6.4462890625,0.6806640625,5.60546875
0.1945,-6.326171875,2.0419921875,4.404296875
0.195,-6.0859375,3.36328125,3.123046875
0.1955,-5.525390625,4.32421875,1.8017578125
0.196,-5.044921875,5.044921875,0.8408203125
0.1965,-4.3642578125,5.4853515625,-0.240234375
0.197,-3.5634765625,5.92578125,-1.361328125
0.1975,-2.0419921875,6.166015625,-3.04296875
0.198,-0.640625,6.0458984375,-4.3642578125
0.1985,0.400390625,5.845703125,-5.1650390625
0.199,1.12109375,5.765625,-5.92578125
0.1995,2.2021484375,5.2451171875,-6.56640625
0.2,3.6435546875,4.083984375,-7.0869140625
0.2005,4.8447265625,2.6826171875,-7.3271484375
0.201,5.5654296875,1.3212890625,-7.046875
0.2015,5.92578125,0.2802734375,-6.7265625
0.202,6.0458984375,-0.720703125,-6.166015625
0.2025,6.1259765625,-1.841796875,-5.4853515625
0.203,5.8857421875,-3.283203125,-4.083984375
0.2035,5.5654296875,-4.5244140625,-2.72265625
0.204,4.96484375,-5.4052734375,-1.521484375
0.2045,4.484375,-5.9658203125,-0.6005859375
0.205,3.763671875,-6.40625,0.5205078125
0.2055,2.5625,-6.7265625,1.921875
0.206,1.12109375,-6.8466796875,3.5234375
0.2065,-0.3203125,-6.6865234375,4.6044921875
0.207,-1.0810546875,-6.5263671875,5.365234375
0.2075,-1.8818359375,-6.2861328125,6.005859375
0.208,-3.04296875,-5.6455078125,6.6865234375
0.2085,-4.5244140625,-4.244140625,7.046875
0.209,-5.525390625,-2.9228515625,7.046875
0.2095,-6.1259765625,-1.6416015625,6.646484375
0.21,-6.2861328125,-0.6806640625,6.326171875
0.2105,-6.3662109375,0.3603515625,5.7255859375
0.211,-6.2861328125,1.5615234375,4.8046875
0.2115,-6.1259765625,2.9228515625,3.4833984375
0.212,-5.6455078125,3.9638671875,2.2421875
0.2125,-5.125,4.724609375,1.12109375
0.213,-4.564453125,5.2451171875,0.2802734375
0.2135,-3.923828125,5.7255859375,-0.80078125
0.214,-2.5625,5.92578125,-2.2822265625
0.2145,-1.201171875,5.9658203125,-3.7236328125
0.215,0.0,5.765625,-4.6845703125
0.2155,0.7607421875,5.7255859375,-5.4453125
0.216,1.5615234375,5.365234375,-6.0458984375
0.2165,2.7626953125,4.6044921875,-6.646484375
0.217,4.1240234375,3.3232421875,-7.0869140625
0.2175,4.96484375,2.001953125,-6.9267578125
0.218,5.4453125,0.9208984375,-6.56640625
0.2185,5.685546875,0.0400390625,-6.24609375
0.219,5.8056640625,-1.0009765625,-5.765625
0.2195,5.7255859375,-2.2021484375,-4.7646484375
0.22,5.525390625,-3.5634765625,-3.5234375
0.2205,5.0849609375,-4.5244140625,-2.322265625
0.221,4.64453125,-5.2451171875,-1.3212890625
0.2215,4.1240234375,-5.765625,-0.4404296875
0.222,3.4833984375,-6.2861328125,0.720703125
0.2225,2.08203125,-6.5263671875,2.2421875
0.223,0.7607421875,-6.486328125,3.5234375
0.2235,-0.3203125,-6.3662109375,4.4443359375
0.224,-1.0009765625,-6.3662109375,5.1650390625
0.2245,-2.001953125,-6.005859375,5.8857421875
0.225,-3.36328125,-5.0849609375,6.486328125
0.2255,-4.64453125,-3.84375,6.7666015625
0.226,-5.365234375,-2.5625,6.56640625
0.2265,-5.8056640625,-1.4814453125,6.3662109375
0.227,-6.0458984375,-0.640625,6.005859375
0.2275,-6.166015625,0.48046875,5.4853515625
