wavelength,x,y,z
0.0,-15.5751953125,20.419921875,-5.765625
0.0005,-18.7783203125,18.8583984375,-1.0009765625
0.001,-20.8603515625,16.65625,3.283203125
0.0015,-21.7412109375,14.3740234375,6.3662109375
0.002,-21.9814453125,11.53125,9.4091796875
0.0025,-21.5810546875,7.287109375,13.373046875
0.003,-20.7802734375,3.2431640625,16.5361328125
0.0035,-19.21875,-1.1611328125,19.37890625
0.004,-17.0966796875,-5.125,21.30078125
0.0045,-14.4140625,-7.8876953125,21.4609375
0.005,-11.5712890625,-10.890625,21.7412109375
0.0055,-6.4462890625,-14.974609375,20.8203125
0.006,-1.5615234375,-18.09765625,19.21875
0.0065,2.802734375,-19.9794921875,17.0966796875
0.007,6.0859375,-21.140625,15.21484375
0.0075,9.1689453125,-21.220703125,12.4521484375
0.008,12.65234375,-20.8203125,8.6083984375
0.0085,16.17578125,-19.939453125,4.484375
0.009,19.21875,-18.1376953125,-0.3203125
0.0095,20.9404296875,-15.9755859375,-4.1640625
0.01,21.2607421875,-13.4931640625,-6.9267578125
0.0105,21.5009765625,-10.6904296875,-9.9697265625
0.011,20.900390625,-5.9658203125,-14.09375
0.0115,19.9794921875,-1.9619140625,-17.1767578125
0.012,18.1376953125,2.1220703125,-19.458984375
0.0125,16.17578125,5.685546875,-21.1005859375
0.013,13.212890625,8.5283203125,-21.1005859375
0.0135,9.6494140625,11.8115234375,-20.98046875
0.014,5.0849609375,15.455078125,-20.1396484375
0.0145,0.0,18.4580078125,-18.2177734375
0.015,-3.923828125,20.0595703125,-16.17578125
0.0155,-6.8466796875,20.66015625,-14.173828125
0.016,-9.76953125,20.9404296875,-11.611328125
0.0165,-13.8134765625,19.9794921875,-6.9267578125
0.017,-16.896484375,18.8984375,-2.9228515625
0.0175,-19.4189453125,17.056640625,1.44140625
0.018,-20.8603515625,14.9345703125,4.96484375
0.0185,-20.900390625,12.251953125,7.6875
0.019,-21.060546875,9.1689453125,10.890625
0.0195,-20.419921875,4.7646484375,14.734375
0.02,-19.21875,0.48046875,17.8173828125
0.0205,-17.1767578125,-3.36328125,19.5390625
0.021,-15.2548828125,-6.2861328125,20.66015625
0.0215,-12.4521484375,-9.2490234375,20.8203125
0.022,-7.84765625,-12.892578125,20.099609375
0.0225,-3.763671875,-15.8955078125,19.1787109375
0.023,1.0810546875,-18.41796875,17.13671875
0.0235,4.6044921875,-19.859375,15.294921875
0.024,7.1669921875,-20.01953125,12.97265625
0.0245,10.08984375,-20.259765625,10.5302734375
0.025,14.173828125,-19.3388671875,5.765625
0.0255,17.0966796875,-17.857421875,1.521484375
0.026,18.9384765625,-16.0556640625,-2.1220703125
0.0265,20.01953125,-14.09375,-5.125
0.027,20.01953125,-11.4111328125,-7.84765625
0.0275,19.8994140625,-7.7275390625,-11.37109375
0.028,19.37890625,-4.1240234375,-14.5341796875
0.0285,18.0576171875,0.16015625,-17.4169921875
0.029,16.0556640625,3.68359375,-19.0185546875
0.0295,13.8935546875,6.326171875,-19.4990234375
0.03,11.53125,9.048828125,-19.9794921875
0.0305,6.4462890625,13.0927734375,-19.05859375
0.031,2.322265625,15.85546875,-17.9375
0.0315,-1.6416015625,17.8974609375,-16.17578125
0.032,-4.8046875,19.138671875,-14.57421875
0.0325,-7.52734375,19.1787109375,-12.01171875
0.033,-10.5703125,19.05859375,-9.0888671875
0.0335,-14.2138671875,18.498046875,-5.0849609375
0.034,-17.0166015625,16.81640625,-0.6806640625
0.0345,-18.578125,15.0546875,2.6826171875
0.035,-19.3388671875,13.0927734375,5.3251953125
0.0355,-19.619140625,10.6904296875,7.9677734375
0.036,-19.21875,6.2861328125,12.01171875
0.0365,-18.6181640625,2.802734375,14.9345703125
0.037,-17.2568359375,-1.0810546875,17.4169921875
0.0375,-15.4951171875,-4.3642578125,19.0185546875
0.038,-13.0126953125,-6.9267578125,19.138671875
0.0385,-10.330078125,-9.8095703125,19.458984375
0.039,-5.60546875,-13.61328125,18.658203125
0.0395,-1.041015625,-16.3759765625,17.056640625
0.04,2.3623046875,-17.9775390625,15.53515625
0.0405,5.2451171875,-19.05859375,13.8935546875
0.041,7.9677734375,-19.1787109375,11.53125
0.0415,11.69140625,-18.578125,7.3671875
0.042,14.7744140625,-17.9775390625,3.8037109375
0.0425,17.3369140625,-16.3359375,-0.3203125
0.043,18.6982421875,-14.57421875,-3.36328125
0.0435,19.0185546875,-12.2919921875,-5.92578125
0.044,19.2587890625,-9.689453125,-8.8486328125
0.0445,18.8984375,-5.4052734375,-12.7724609375
0.045,17.9375,-1.5615234375,-15.6953125
0.0455,16.3759765625,1.921875,-17.5771484375
0.046,14.734375,4.9248046875,-18.9384765625
0.0465,12.091796875,7.5673828125,-18.978515625
0.047,8.16796875,11.130859375,-18.73828125
0.0475,4.2041015625,14.3740234375,-18.2177734375
0.048,-0.5205078125,16.896484375,-16.3359375
0.0485,-3.4833984375,18.177734375,-14.814453125
0.049,-6.166015625,18.6982421875,-12.892578125
0.0495,-8.9287109375,18.978515625,-10.5703125
0.05,-12.892578125,18.2177734375,-5.9658203125
0.0505,-15.8154296875,17.0966796875,-2.08203125
0.051,-17.8173828125,15.455078125,1.521484375
0.0515,-18.9384765625,13.693359375,4.3642578125
0.052,-18.9384765625,11.130859375,7.046875
0.0525,-19.05859375,7.84765625,10.2900390625
0.053,-18.73828125,4.083984375,13.7734375
0.0535,-17.376953125,0.0,16.6162109375
0.054,-15.6552734375,-3.283203125,18.0576171875
0.0545,-13.853515625,-5.92578125,19.0185546875
0.055,-11.2509765625,-8.6484375,19.1787109375
0.0555,-6.486328125,-12.4521484375,18.3779296875
0.056,-2.5625,-15.375,17.4169921875
0.0565,1.521484375,-17.45703125,15.7353515625
0.057,4.4443359375,-18.578125,14.09375
0.0575,7.1669921875,-18.658203125,11.7314453125
0.058,10.169921875,-18.73828125,9.0087890625
0.0585,13.853515625,-17.9775390625,4.8046875
0.059,16.6162109375,-16.416015625,0.560546875
0.0595,18.0576171875,-14.814453125,-2.5224609375
0.06,18.8583984375,-12.97265625,-5.125
0.0605,18.8984375,-10.41015625,-7.7275390625
0.061,18.5380859375,-6.40625,-11.4111328125
0.0615,18.1376953125,-2.9228515625,-14.4541015625
0.062,16.6962890625,0.9609375,-16.9765625
0.0625,14.8544921875,4.00390625,-18.2177734375
0.063,12.65234375,6.646484375,-18.6181640625
0.0635,9.8896484375,9.609375,-18.9384765625
0.064,5.0849609375,13.3330078125,-18.017578125
0.0645,0.80078125,16.015625,-16.6162109375
0.065,-2.5625,17.6572265625,-15.1748046875
0.0655,-5.365234375,18.6181640625,-13.533203125
0.066,-8.0478515625,18.6181640625,-11.0107421875
0.0665,-11.5712890625,18.2978515625,-7.3671875
0.067,-14.814453125,17.5771484375,-3.5634765625
0.0675,-17.376953125,15.85546875,0.7607421875
0.068,-18.4580078125,14.09375,3.5234375
0.0685,-18.978515625,11.931640625,6.166015625
0.069,-19.138671875,9.2490234375,8.96875
0.0695,-18.6181640625,4.96484375,12.7724609375
0.07,-17.697265625,1.2412109375,15.6552734375
0.0705,-16.2958984375,-2.3623046875,17.77734375
0.071,-14.4541015625,-5.205078125,18.8583984375
0.0715,-11.7314453125,-7.84765625,18.8984375
0.072,-8.2880859375,-11.2509765625,18.818359375
0.0725,-3.8037109375,-14.6142578125,17.9375
0.073,0.80078125,-17.0166015625,15.9755859375
0.0735,3.6435546875,-18.177734375,14.57421875
0.074,6.40625,-18.9384765625,12.65234375
0.0745,9.2490234375,-18.8583984375,9.9697265625
0.075,12.97265625,-18.2177734375,5.7255859375
0.0755,15.935546875,-17.13671875,1.921875
0.076,18.017578125,-15.4150390625,-1.9619140625
0.0765,18.7783203125,-13.453125,-4.5244140625
0.077,19.0185546875,-10.9306640625,-7.287109375
0.0775,19.0185546875,-7.8076171875,-10.41015625
0.078,18.5380859375,-3.8837890625,-13.9736328125
0.0785,17.13671875,0.2802734375,-16.6162109375
0.079,15.4951171875,3.3232421875,-18.09765625
0.0795,13.5732421875,6.1259765625,-19.0185546875
0.08,10.6103515625,8.8486328125,-18.9384765625
0.0805,6.3662109375,12.4521484375,-18.41796875
0.081,2.2021484375,15.53515625,-17.4970703125
0.0815,-2.1220703125,17.697265625,-15.5751953125
0.082,-4.7646484375,18.5380859375,-13.9736328125
0.0825,-7.5673828125,18.8984375,-11.771484375
0.083,-10.650390625,18.73828125,-8.6884765625
0.0835,-14.25390625,17.9375,-4.484375
0.084,-16.9765625,16.416015625,-0.3203125
0.0845,-18.6181640625,14.734375,3.04296875
0.085,-19.2587890625,12.732421875,5.60546875
0.0855,-19.298828125,9.8896484375,8.48828125
0.086,-18.978515625,6.1259765625,11.9716796875
0.0865,-18.4580078125,2.3623046875,15.21484375
0.087,-16.7763671875,-1.8017578125,17.6572265625
0.0875,-14.9345703125,-4.564453125,18.6982421875
0.088,-12.892578125,-7.3271484375,19.3388671875
0.0885,-9.4892578125,-10.3701171875,19.1787109375
0.089,-4.9248046875,-13.853515625,18.2177734375
0.0895,-0.6806640625,-16.5361328125,16.8564453125
0.09,3.123046875,-18.337890625,15.21484375
0.0905,5.685546875,-18.9384765625,13.373046875
0.091,8.5283203125,-19.05859375,10.8505859375
0.0915,12.091796875,-18.658203125,7.1669921875
0.092,15.294921875,-17.7373046875,3.123046875
0.0925,17.7373046875,-16.015625,-1.041015625
0.093,18.8583984375,-14.25390625,-3.84375
0.0935,19.3388671875,-12.0517578125,-6.5263671875
0.094,19.21875,-8.8486328125,-9.6494140625
0.0945,18.6982421875,-5.0048828125,-13.0126953125
0.095,17.857421875,-1.1611328125,-16.015625
0.0955,16.2158203125,2.72265625,-18.09765625
0.096,14.173828125,5.3251953125,-18.8583984375
0.0965,11.8115234375,8.087890625,-19.2587890625
0.097,7.84765625,11.5712890625,-19.0185546875
0.0975,3.4833984375,14.89453125,-18.017578125
0.098,-1.0009765625,17.216796875,-16.17578125
0.0985,-4.1240234375,18.6982421875,-14.6943359375
0.099,-6.806640625,19.138671875,-12.6923828125
0.0995,-9.8095703125,19.05859375,-9.76953125
0.1,-13.453125,18.498046875,-5.8056640625
0.1005,-16.4560546875,17.2568359375,-1.6416015625
0.101,-18.6181640625,15.375,2.40234375
0.1015,-19.3388671875,13.4130859375,5.0849609375
0.102,-19.7392578125,10.890625,7.927734375
0.1025,-19.5390625,7.20703125,11.4111328125
0.103,-18.9384765625,3.3232421875,14.654296875
0.1035,-17.4970703125,-0.640625,17.296875
0.104,-15.85546875,-4.2041015625,19.1787109375
0.1045,-13.533203125,-6.88671875,19.5791015625
0.105,-10.650390625,-9.76953125,19.69921875
0.1055,-6.326171875,-13.3330078125,19.0986328125
0.106,-1.681640625,-16.5361328125,17.8173828125
0.1065,2.5224609375,-18.4580078125,15.8154296875
0.107,5.4052734375,-19.37890625,14.1337890625
0.1075,8.2880859375,-19.779296875,11.8115234375
0.108,11.69140625,-19.37890625,8.16796875
0.1085,15.0146484375,-18.578125,4.2841796875
0.109,17.857421875,-17.0166015625,0.0
0.1095,19.6591796875,-15.0947265625,-3.8037109375
0.11,19.939453125,-12.8125,-6.3662109375
0.1105,20.1796875,-10.0498046875,-9.2890625
0.111,19.69921875,-5.845703125,-13.0927734375
0.1115,18.9384765625,-1.9619140625,-16.2158203125
0.112,17.13671875,2.0419921875,-18.4580078125
0.1125,15.3349609375,5.2451171875,-19.859375
0.113,12.7724609375,8.0478515625,-20.1796875
0.1135,8.96875,11.37109375,-19.8994140625
0.114,4.7646484375,14.734375,-19.138671875
0.1145,-0.1201171875,17.6572265625,-17.45703125
0.115,-4.00390625,19.458984375,-15.4951171875
0.1155,-6.6064453125,19.859375,-13.533203125
0.116,-9.5693359375,20.1396484375,-11.1708984375
0.1165,-13.453125,19.3388671875,-6.646484375
0.117,-16.5361328125,18.2578125,-2.6025390625
0.1175,-18.9384765625,16.4560546875,1.5615234375
0.118,-20.3798828125,14.4541015625,4.96484375
0.1185,-20.5,11.8515625,7.6474609375
0.119,-20.5,8.568359375,10.970703125
0.1195,-19.859375,4.484375,14.4541015625
0.12,-18.73828125,0.240234375,17.6171875
0.1205,-16.6962890625,-3.7236328125,19.4990234375
0.121,-14.734375,-6.4462890625,20.2998046875
0.1215,-12.171875,-9.2890625,20.7001953125
0.122,-7.447265625,-13.1328125,19.939453125
0.1225,-3.283203125,-16.015625,18.8984375
0.123,1.361328125,-18.5380859375,16.9365234375
0.1235,4.96484375,-20.01953125,15.1748046875
0.124,7.6875,-20.1396484375,12.7724609375
0.1245,10.6904296875,-20.2197265625,10.0498046875
0.125,14.654296875,-19.4189453125,5.4453125
0.1255,17.697265625,-17.9375,1.0009765625
0.126,19.5791015625,-16.015625,-2.7626953125
0.1265,20.5400390625,-13.9736328125,-5.765625
0.127,20.66015625,-11.2509765625,-8.6083984375
0.1275,20.3798828125,-7.1669921875,-12.3720703125
0.128,19.69921875,-3.5634765625,-15.455078125
0.1285,18.337890625,0.880859375,-18.337890625
0.129,16.255859375,4.6044921875,-20.099609375
0.1295,13.7734375,7.3271484375,-20.3798828125
0.13,11.130859375,10.25,-20.8203125
0.1305,5.8857421875,14.3740234375,-19.859375
0.131,1.4013671875,17.3369140625,-18.5380859375
0.1315,-2.72265625,19.2587890625,-16.576171875
0.132,-6.1259765625,20.5400390625,-14.734375
0.1325,-9.048828125,20.4599609375,-11.931640625
0.133,-12.412109375,20.1396484375,-8.4482421875
0.1335,-16.015625,19.37890625,-4.2041015625
0.134,-19.05859375,17.537109375,0.640625
0.1345,-20.66015625,15.4150390625,4.2841796875
0.135,-21.140625,13.0126953125,7.1669921875
0.1355,-21.30078125,10.2099609375,10.08984375
0.136,-20.7001953125,5.4052734375,14.333984375
0.1365,-19.7392578125,1.521484375,17.3369140625
0.137,-18.017578125,-2.6826171875,19.7392578125
0.1375,-15.9755859375,-6.24609375,21.30078125
0.138,-12.8525390625,-9.0888671875,21.140625
0.1385,-9.5693359375,-12.33203125,21.220703125
0.139,-4.484375,-16.17578125,20.1396484375
0.1395,0.6806640625,-19.0185546875,18.09765625
0.14,4.404296875,-20.5,16.1357421875
0.1405,7.52734375,-21.30078125,14.0537109375
0.141,10.6103515625,-21.140625,11.05078125
0.1415,14.57421875,-20.259765625,6.40625
0.142,17.77734375,-19.21875,2.2421875
0.1425,20.33984375,-17.13671875,-2.3623046875
0.143,21.5009765625,-14.8544921875,-5.765625
0.1435,21.5009765625,-11.9716796875,-8.6884765625
0.144,21.5009765625,-8.96875,-11.771484375
0.1445,20.740234375,-4.1640625,-15.775390625
0.145,19.2587890625,0.2802734375,-18.73828125
0.1455,17.216796875,4.083984375,-20.5
0.146,15.134765625,7.3671875,-21.78125
0.1465,11.69140625,10.3701171875,-21.4609375
0.147,7.3271484375,14.0537109375,-20.8603515625
0.1475,2.8427734375,17.3369140625,-19.8994140625
0.148,-2.4423828125,19.9794921875,-17.537109375
0.1485,-5.8056640625,21.060546875,-15.4951171875
0.149,-8.8486328125,21.3408203125,-12.97265625
0.1495,-11.8916015625,21.2607421875,-10.1298828125
0.15,-16.015625,20.099609375,-4.9248046875
0.1505,-19.05859375,18.498046875,-0.400390625
0.151,-21.0205078125,16.3759765625,3.68359375
0.1515,-21.94140625,14.1337890625,6.8466796875
0.152,-21.78125,10.810546875,9.9296875
0.1525,-21.5009765625,7.126953125,13.4130859375
0.153,-20.7802734375,2.802734375,16.9765625
0.1535,-18.9384765625,-1.9619140625,19.8994140625
0.154,-16.6162109375,-5.4853515625,21.1806640625
0.1545,-14.4140625,-8.48828125,21.9814453125
0.155,-11.0107421875,-11.53125,21.78125
0.1555,-5.685546875,-15.53515625,20.6201171875
0.156,-1.2412109375,-18.4580078125,19.2587890625
0.1565,3.5234375,-20.580078125,17.0166015625
0.157,6.7265625,-21.4609375,14.8544921875
0.1575,9.9296875,-21.380859375,11.8515625
0.158,13.1728515625,-21.140625,8.5283203125
0.1585,17.0166015625,-20.0595703125,3.68359375
0.159,19.9794921875,-17.9775390625,-1.28125
0.1595,21.380859375,-15.85546875,-4.64453125
0.16,22.0615234375,-13.453125,-7.6875
0.1605,21.78125,-10.169921875,-10.7705078125
0.161,21.1005859375,-5.6455078125,-14.6943359375
0.1615,20.2998046875,-1.6015625,-17.8173828125
0.162,18.41796875,2.9228515625,-20.5
0.1625,15.9755859375,6.2861328125,-21.5009765625
0.163,13.1328125,9.3291015625,-21.78125
0.1635,9.609375,12.732421875,-21.7412109375
0.164,4.1240234375,16.6162109375,-20.3798828125
0.1645,-0.80078125,19.37890625,-18.4580078125
0.165,-4.64453125,21.0205078125,-16.5361328125
0.1655,-7.8076171875,21.7412109375,-14.333984375
0.166,-11.05078125,21.4208984375,-10.970703125
0.1665,-14.7744140625,20.7802734375,-6.806640625
0.167,-18.2578125,19.5791015625,-2.2822265625
0.1675,-20.9404296875,17.296875,2.6826171875
0.168,-21.94140625,15.0146484375,5.8857421875
0.1685,-22.3818359375,12.2919921875,9.0087890625
0.169,-22.1416015625,8.728515625,12.33203125
0.1695,-21.30078125,3.9638671875,16.3759765625
0.17,-19.8994140625,-0.3603515625,19.298828125
0.1705,-17.9375,-4.6044921875,21.5810546875
0.171,-15.4150390625,-7.767578125,22.341796875
0.1715,-12.0517578125,-10.970703125,22.2216796875
0.172,-7.8876953125,-14.57421875,21.8212890625
0.1725,-2.6025390625,-18.2177734375,20.3798828125
0.173,2.642578125,-20.66015625,17.8974609375
0.1735,6.0458984375,-21.78125,15.935546875
0.174,9.2890625,-22.3017578125,13.4130859375
0.1745,12.732421875,-21.861328125,9.7294921875
0.175,16.6162109375,-20.8203125,5.0048828125
0.1755,19.859375,-19.2587890625,0.3203125
0.176,22.1015625,-16.9765625,-4.2841796875
0.1765,22.662109375,-14.4140625,-7.3271484375
0.177,22.7421875,-11.2109375,-10.6904296875
0.1775,22.341796875,-7.1669921875,-14.2939453125
0.178,21.380859375,-2.6025390625,-17.9775390625
0.1785,19.37890625,2.08203125,-20.66015625
0.179,17.216796875,5.92578125,-22.341796875
0.1795,14.5341796875,9.1689453125,-22.822265625
0.18,10.5703125,12.4921875,-22.4619140625
0.1805,5.765625,16.255859375,-21.541015625
0.181,0.6806640625,19.5390625,-20.01953125
0.1815,-4.3642578125,21.6611328125,-17.4169921875
0.182,-7.447265625,22.26171875,-15.134765625
0.1825,-10.810546875,22.501953125,-12.33203125
0.183,-14.4140625,21.8212890625,-8.2080078125
0.1835,-18.09765625,20.580078125,-3.4833984375
0.184,-21.0205078125,18.5380859375,1.521484375
0.1845,-22.822265625,16.1357421875,5.6455078125
0.185,-23.142578125,13.4130859375,8.6884765625
0.1855,-23.0224609375,9.8095703125,12.171875
0.186,-22.2216796875,5.365234375,15.85546875
0.1865,-21.1806640625,0.880859375,19.3388671875
0.187,-18.8583984375,-3.84375,21.701171875
0.1875,-16.416015625,-7.1669921875,22.7421875
0.188,-13.693359375,-10.330078125,23.1826171875
0.1885,-9.1689453125,-13.9736328125,22.4619140625
0.189,-4.244140625,-17.376953125,21.1005859375
0.1895,0.880859375,-20.259765625,19.21875
0.19,5.365234375,-22.1015625,16.81640625
0.1905,8.2880859375,-22.3017578125,14.333984375
0.191,11.5712890625,-22.3818359375,11.2509765625
0.1915,15.53515625,-21.5009765625,6.6865234375
0.192,18.8984375,-20.0595703125,2.001953125
0.1925,21.3408203125,-17.8173828125,-2.642578125
0.193,22.7421875,-15.455078125,-6.24609375
0.1935,22.7822265625,-12.65234375,-9.2490234375
0.194,22.4619140625,-8.6884765625,-12.892578125
0.1945,21.5810546875,-4.3642578125,-16.3759765625
0.195,20.33984375,0.16015625,-19.5791015625
0.1955,17.9775390625,4.564453125,-21.6611328125
0.196,15.375,7.52734375,-22.1416015625
0.1965,12.5322265625,10.73046875,-22.58203125
0.197,7.6474609375,14.6943359375,-21.78125
0.1975,2.8427734375,17.9375,-20.3798828125
0.198,-2.1220703125,20.2998046875,-18.177734375
0.1985,-5.9658203125,21.9013671875,-16.17578125
0.199,-8.9287109375,21.94140625,-13.533203125
0.1995,-12.2119140625,21.78125,-10.2099609375
0.2,-16.17578125,20.8603515625,-5.5654296875
0.2005,-19.5390625,19.21875,-0.6806640625
0.201,-21.78125,16.7763671875,3.7236328125
0.2015,-22.4619140625,14.5341796875,6.88671875
0.202,-22.7421875,11.5712890625,10.1298828125
0.2025,-22.3017578125,7.1669921875,14.1337890625
0.203,-21.3408203125,2.9228515625,17.4169921875
0.2035,-19.69921875,-1.6015625,20.2998046875
0.204,-17.4970703125,-5.765625,22.26171875
0.2045,-14.6142578125,-8.6884765625,22.421875
0.205,-11.4912109375,-11.8515625,22.5419921875
0.2055,-6.2861328125,-15.8955078125,21.5810546875
0.206,-1.1611328125,-19.138671875,19.8994140625
0.2065,3.4833984375,-21.060546875,17.5771484375
0.207,6.9267578125,-22.181640625,15.4951171875
0.2075,10.169921875,-22.26171875,12.5322265625
0.208,13.8935546875,-21.701171875,8.408203125
0.2085,17.45703125,-20.7802734375,4.083984375
0.209,20.4599609375,-18.8583984375,-0.9208984375
0.2095,22.3818359375,-16.416015625,-5.044921875
0.21,22.6220703125,-13.7333984375,-7.9677734375
0.2105,22.7822265625,-10.650390625,-11.2509765625
0.211,22.0615234375,-5.7255859375,-15.4951171875
0.2115,20.98046875,-1.44140625,-18.658203125
0.212,18.8984375,2.962890625,-20.98046875
0.2125,16.65625,6.6865234375,-22.58203125
0.213,13.4130859375,9.76953125,-22.4619140625
0.2135,9.529296875,13.373046875,-22.181640625
0.214,4.6044921875,16.9765625,-21.220703125
0.2145,-0.8408203125,20.0595703125,-19.138671875
0.215,-4.96484375,21.6611328125,-16.8564453125
0.2155,-8.0478515625,22.2216796875,-14.5341796875
0.216,-11.291015625,22.3017578125,-11.6513671875
0.2165,-15.455078125,21.220703125,-6.6064453125
0.217,-18.6181640625,20.1396484375,-2.2822265625
0.2175,-21.220703125,17.857421875,2.40234375
0.218,-22.7021484375,15.4951171875,6.2060546875
0.2185,-22.6220703125,12.4521484375,9.12890625
