wavelength,x,y,z
0.0,3.10302734375,-5.90576171875,0.86083984375
0.0005,1.82177734375,-6.22607421875,2.26220703125
0.001,0.62060546875,-6.26611328125,3.66357421875
0.0015,-0.34033203125,-6.46630859375,4.50439453125
0.002,-1.02099609375,-6.46630859375,5.50537109375
0.0025,-2.10205078125,-5.78564453125,6.02587890625
0.003,-3.46337890625,-4.50439453125,6.30615234375
0.0035,-4.66455078125,-3.26318359375,6.54638671875
0.004,-5.50537109375,-1.94189453125,6.38623046875
0.0045,-5.98583984375,-1.06103515625,6.30615234375
0.005,-6.10595703125,-0.18017578125,5.86572265625
0.0055,-5.86572265625,0.98095703125,4.86474609375
0.006,-5.70556640625,2.30224609375,3.62353515625
0.0065,-5.42529296875,3.58349609375,2.30224609375
0.007,-5.10498046875,4.50439453125,1.26123046875
0.0075,-4.82470703125,5.26513671875,0.42041015625
0.008,-3.94384765625,5.50537109375,-0.62060546875
0.0085,-2.62255859375,5.54541015625,-2.02197265625
0.009,-1.34130859375,5.82568359375,-3.50341796875
0.0095,0.02001953125,5.66552734375,-4.78466796875
0.01,0.66064453125,5.86572265625,-5.50537109375
0.0105,1.46142578125,5.70556640625,-6.26611328125
0.011,2.70263671875,4.62451171875,-6.58642578125
0.0115,4.06396484375,3.18310546875,-6.82666015625
0.012,5.10498046875,1.78173828125,-6.82666015625
0.0125,5.74560546875,0.58056640625,-6.54638671875
0.013,6.02587890625,-0.34033203125,-6.38623046875
0.0135,5.90576171875,-1.26123046875,-5.62548828125
0.014,5.58544921875,-2.50244140625,-4.34423828125
0.0145,5.34521484375,-3.82373046875,-3.06298828125
0.015,4.94482421875,-4.98486328125,-1.78173828125
0.0155,4.54443359375,-5.74560546875,-0.78076171875
0.016,4.14404296875,-6.26611328125,0.14013671875
0.0165,3.06298828125,-6.46630859375,1.22119140625
0.017,1.62158203125,-6.50634765625,2.66259765625
0.0175,0.18017578125,-6.70654296875,4.02392578125
0.018,-0.82080078125,-6.42626953125,5.10498046875
0.0185,-1.46142578125,-6.54638671875,5.90576171875
0.019,-2.38232421875,-6.06591796875,6.42626953125
0.0195,-3.70361328125,-4.74462890625,6.62646484375
0.02,-4.90478515625,-3.34326171875,6.78662109375
0.0205,-5.78564453125,-1.94189453125,6.66650390625
0.021,-6.26611328125,-0.94091796875,6.42626953125
0.0215,-6.42626953125,0.02001953125,6.14599609375
0.022,-6.14599609375,0.94091796875,5.18505859375
0.0225,-5.82568359375,2.22216796875,3.90380859375
0.023,-5.62548828125,3.54345703125,2.58251953125
0.0235,-5.18505859375,4.50439453125,1.38134765625
0.024,-4.86474609375,5.26513671875,0.50048828125
0.0245,-4.26416015625,5.62548828125,-0.46044921875
0.025,-3.06298828125,5.70556640625,-1.58154296875
0.0255,-1.82177734375,5.70556640625,-3.14306640625
0.026,-0.42041015625,5.86572265625,-4.42431640625
0.0265,0.58056640625,5.86572265625,-5.30517578125
0.027,1.22119140625,5.94580078125,-6.10595703125
0.0275,2.26220703125,5.14501953125,-6.54638671875
0.028,3.62353515625,3.82373046875,-6.74658203125
0.0285,4.78466796875,2.42236328125,-6.90673828125
0.029,5.50537109375,1.14111328125,-6.66650390625
0.0295,5.98583984375,0.18017578125,-6.54638671875
0.03,6.02587890625,-0.78076171875,-6.10595703125
0.0305,5.74560546875,-1.86181640625,-5.06494140625
0.031,5.46533203125,-3.14306640625,-3.78369140625
0.0315,5.18505859375,-4.42431640625,-2.42236328125
0.032,4.78466796875,-5.30517578125,-1.26123046875
0.0325,4.50439453125,-6.10595703125,-0.46044921875
0.033,3.66357421875,-6.34619140625,0.58056640625
0.0335,2.26220703125,-6.46630859375,1.94189453125
0.034,0.98095703125,-6.54638671875,3.42333984375
0.0345,-0.34033203125,-6.46630859375,4.58447265625
0.035,-1.14111328125,-6.54638671875,5.50537109375
0.0355,-1.82177734375,-6.42626953125,6.22607421875
0.036,-2.98291015625,-5.42529296875,6.54638671875
0.0365,-4.34423828125,-4.02392578125,6.74658203125
0.037,-5.42529296875,-2.62255859375,6.78662109375
0.0375,-6.06591796875,-1.38134765625,6.50634765625
0.038,-6.38623046875,-0.58056640625,6.38623046875
0.0385,-6.26611328125,0.46044921875,5.70556640625
0.039,-6.02587890625,1.66162109375,4.50439453125
0.0395,-5.74560546875,2.98291015625,3.18310546875
0.04,-5.42529296875,4.14404296875,1.86181640625
0.0405,-5.06494140625,4.98486328125,0.86083984375
0.041,-4.66455078125,5.62548828125,0.02001953125
0.0415,-3.70361328125,5.74560546875,-1.02099609375
0.042,-2.22216796875,5.82568359375,-2.58251953125
0.0425,-0.86083984375,5.98583984375,-4.06396484375
0.043,0.30029296875,5.90576171875,-5.10498046875
0.0435,1.02099609375,6.02587890625,-5.98583984375
0.044,1.94189453125,5.54541015625,-6.54638671875
0.0445,3.26318359375,4.26416015625,-6.86669921875
0.045,4.54443359375,2.86279296875,-7.06689453125
0.0455,5.50537109375,1.42138671875,-6.90673828125
0.046,6.02587890625,0.34033203125,-6.66650390625
0.0465,6.22607421875,-0.62060546875,-6.38623046875
0.047,5.98583984375,-1.62158203125,-5.42529296875
0.0475,5.66552734375,-2.94287109375,-4.10400390625
0.048,5.38525390625,-4.30419921875,-2.74267578125
0.0485,4.98486328125,-5.34521484375,-1.42138671875
0.049,4.58447265625,-6.10595703125,-0.54052734375
0.0495,3.90380859375,-6.46630859375,0.54052734375
0.05,2.70263671875,-6.54638671875,1.66162109375
0.0505,1.26123046875,-6.66650390625,3.18310546875
0.051,-0.26025390625,-6.58642578125,4.54443359375
0.0515,-1.14111328125,-6.50634765625,5.46533203125
0.052,-1.78173828125,-6.54638671875,6.22607421875
0.0525,-2.82275390625,-5.74560546875,6.62646484375
0.053,-4.14404296875,-4.30419921875,6.78662109375
0.0535,-5.30517578125,-2.94287109375,6.86669921875
0.054,-6.06591796875,-1.58154296875,6.58642578125
0.0545,-6.38623046875,-0.62060546875,6.38623046875
0.055,-6.38623046875,0.30029296875,5.90576171875
0.0555,-6.10595703125,1.30126953125,4.82470703125
0.056,-5.74560546875,2.58251953125,3.54345703125
0.0565,-5.42529296875,3.86376953125,2.22216796875
0.057,-5.06494140625,4.70458984375,1.10107421875
0.0575,-4.74462890625,5.50537109375,0.30029296875
0.058,-3.90380859375,5.62548828125,-0.70068359375
0.0585,-2.62255859375,5.70556640625,-1.98193359375
0.059,-1.34130859375,5.90576171875,-3.34326171875
0.0595,0.02001953125,5.74560546875,-4.58447265625
0.06,0.70068359375,5.82568359375,-5.46533203125
0.0605,1.42138671875,5.74560546875,-6.14599609375
0.061,2.50244140625,4.82470703125,-6.50634765625
0.0615,3.82373046875,3.46337890625,-6.70654296875
0.062,4.86474609375,2.14208984375,-6.74658203125
0.0625,5.50537109375,0.94091796875,-6.50634765625
0.063,5.90576171875,0.14013671875,-6.42626953125
0.0635,5.78564453125,-0.82080078125,-5.82568359375
0.064,5.50537109375,-1.94189453125,-4.74462890625
0.0645,5.34521484375,-3.18310546875,-3.58349609375
0.065,4.98486328125,-4.42431640625,-2.26220703125
0.0655,4.78466796875,-5.26513671875,-1.34130859375
0.066,4.42431640625,-5.94580078125,-0.50048828125
0.0665,3.50341796875,-6.10595703125,0.62060546875
0.067,2.22216796875,-6.26611328125,1.94189453125
0.0675,0.94091796875,-6.38623046875,3.34326171875
0.068,-0.26025390625,-6.38623046875,4.46435546875
0.0685,-0.98095703125,-6.54638671875,5.34521484375
0.069,-1.78173828125,-6.22607421875,5.98583984375
0.0695,-2.94287109375,-5.14501953125,6.26611328125
0.07,-4.18408203125,-3.86376953125,6.50634765625
0.0705,-5.18505859375,-2.54248046875,6.46630859375
0.071,-5.78564453125,-1.46142578125,6.30615234375
0.0715,-6.10595703125,-0.66064453125,6.14599609375
0.072,-5.90576171875,0.30029296875,5.42529296875
0.0725,-5.70556640625,1.38134765625,4.26416015625
0.073,-5.46533203125,2.70263671875,3.14306640625
0.0735,-5.14501953125,3.66357421875,1.86181640625
0.074,-4.94482421875,4.62451171875,1.06103515625
0.0745,-4.46435546875,5.10498046875,0.26025390625
0.075,-3.46337890625,5.26513671875,-0.94091796875
0.0755,-2.26220703125,5.50537109375,-2.26220703125
0.076,-1.02099609375,5.54541015625,-3.54345703125
0.0765,0.02001953125,5.62548828125,-4.54443359375
0.077,0.62060546875,5.78564453125,-5.42529296875
0.0775,1.58154296875,5.22509765625,-5.90576171875
0.078,2.82275390625,4.10400390625,-6.18603515625
0.0785,3.94384765625,2.86279296875,-6.42626953125
0.079,4.78466796875,1.62158203125,-6.30615234375
0.0795,5.30517578125,0.74072265625,-6.26611328125
0.08,5.50537109375,0.02001953125,-5.98583984375
0.0805,5.26513671875,-1.10107421875,-5.14501953125
0.081,5.10498046875,-2.26220703125,-4.14404296875
0.0815,4.82470703125,-3.54345703125,-2.98291015625
0.082,4.62451171875,-4.38427734375,-1.90185546875
0.0825,4.50439453125,-5.18505859375,-1.14111328125
0.083,3.86376953125,-5.58544921875,-0.30029296875
0.0835,2.86279296875,-5.74560546875,0.90087890625
0.084,1.74169921875,-5.98583984375,2.22216796875
0.0845,0.58056640625,-6.02587890625,3.38330078125
0.085,-0.30029296875,-6.18603515625,4.38427734375
0.0855,-0.98095703125,-6.26611328125,5.18505859375
0.086,-1.90185546875,-5.62548828125,5.58544921875
0.0865,-3.10302734375,-4.50439453125,5.90576171875
0.087,-4.18408203125,-3.34326171875,6.06591796875
0.0875,-4.94482421875,-2.22216796875,5.98583984375
0.088,-5.46533203125,-1.46142578125,6.06591796875
0.0885,-5.54541015625,-0.74072265625,5.62548828125
0.089,-5.38525390625,0.30029296875,4.82470703125
0.0895,-5.38525390625,1.30126953125,3.82373046875
0.09,-5.14501953125,2.58251953125,2.82275390625
0.0905,-4.94482421875,3.54345703125,1.86181640625
0.091,-4.78466796875,4.34423828125,1.14111328125
0.0915,-4.10400390625,4.62451171875,0.30029296875
0.092,-3.14306640625,4.90478515625,-0.98095703125
0.0925,-2.10205078125,5.18505859375,-2.22216796875
0.093,-1.10107421875,5.30517578125,-3.34326171875
0.0935,-0.38037109375,5.62548828125,-4.34423828125
0.094,0.50048828125,5.50537109375,-5.10498046875
0.0945,1.58154296875,4.74462890625,-5.50537109375
0.095,2.78271484375,3.70361328125,-5.90576171875
0.0955,3.82373046875,2.54248046875,-6.02587890625
0.096,4.54443359375,1.54150390625,-6.02587890625
0.0965,4.98486328125,0.78076171875,-6.10595703125
0.097,5.02490234375,0.02001953125,-5.58544921875
0.0975,4.82470703125,-1.14111328125,-4.66455078125
0.098,4.86474609375,-2.22216796875,-3.82373046875
0.0985,4.66455078125,-3.34326171875,-2.74267578125
0.099,4.54443359375,-4.22412109375,-1.94189453125
0.0995,4.30419921875,-4.94482421875,-1.14111328125
0.1,3.54345703125,-5.18505859375,-0.22021484375
0.1005,2.58251953125,-5.54541015625,1.10107421875
0.101,1.46142578125,-5.74560546875,2.38232421875
0.1015,0.62060546875,-5.94580078125,3.42333984375
0.102,-0.14013671875,-6.26611328125,4.42431640625
0.1025,-1.02099609375,-5.90576171875,4.98486328125
0.103,-2.14208984375,-5.02490234375,5.38525390625
0.1035,-3.30322265625,-4.02392578125,5.74560546875
0.104,-4.22412109375,-2.86279296875,5.74560546875
0.1045,-4.86474609375,-2.06201171875,5.86572265625
0.105,-5.22509765625,-1.34130859375,5.74560546875
0.1055,-5.18505859375,-0.50048828125,5.18505859375
0.106,-5.14501953125,0.62060546875,4.34423828125
0.1065,-5.06494140625,1.78173828125,3.38330078125
0.107,-4.94482421875,2.78271484375,2.42236328125
0.1075,-4.86474609375,3.70361328125,1.66162109375
0.108,-4.42431640625,4.18408203125,0.90087890625
0.1085,-3.58349609375,4.50439453125,-0.26025390625
0.109,-2.74267578125,4.94482421875,-1.46142578125
0.1095,-1.66162109375,5.10498046875,-2.62255859375
0.11,-0.90087890625,5.42529296875,-3.70361328125
0.1105,-0.14013671875,5.58544921875,-4.62451171875
0.111,0.90087890625,5.06494140625,-5.14501953125
0.1115,2.10205078125,4.14404296875,-5.58544921875
0.112,3.22314453125,3.06298828125,-5.82568359375
0.1125,4.10400390625,1.94189453125,-5.90576171875
0.113,4.70458984375,1.22119140625,-6.02587890625
0.1135,4.94482421875,0.50048828125,-5.74560546875
0.114,4.82470703125,-0.58056640625,-5.02490234375
0.1145,4.82470703125,-1.66162109375,-4.18408203125
0.115,4.74462890625,-2.82275390625,-3.18310546875
0.1155,4.58447265625,-3.82373046875,-2.26220703125
0.116,4.50439453125,-4.66455078125,-1.46142578125
0.1165,3.86376953125,-5.06494140625,-0.62060546875
0.117,2.94287109375,-5.34521484375,0.62060546875
0.1175,1.94189453125,-5.70556640625,1.94189453125
0.118,0.94091796875,-5.82568359375,3.06298828125
0.1185,0.26025390625,-6.14599609375,4.02392578125
0.119,-0.66064453125,-6.10595703125,4.82470703125
0.1195,-1.74169921875,-5.30517578125,5.22509765625
0.12,-2.94287109375,-4.30419921875,5.66552734375
0.1205,-4.02392578125,-3.18310546875,5.78564453125
0.121,-4.74462890625,-2.22216796875,5.82568359375
0.1215,-5.18505859375,-1.46142578125,5.82568359375
0.122,-5.22509765625,-0.66064453125,5.34521484375
0.1225,-5.14501953125,0.42041015625,4.50439453125
0.123,-5.18505859375,1.58154296875,3.58349609375
0.1235,-4.98486328125,2.70263671875,2.58251953125
0.124,-4.86474609375,3.62353515625,1.78173828125
0.1245,-4.58447265625,4.22412109375,0.98095703125
0.125,-3.78369140625,4.54443359375,0.02001953125
0.1255,-2.86279296875,4.86474609375,-1.30126953125
0.126,-1.78173828125,5.10498046875,-2.58251953125
0.1265,-0.94091796875,5.34521484375,-3.58349609375
0.127,-0.26025390625,5.62548828125,-4.54443359375
0.1275,0.78076171875,5.22509765625,-5.18505859375
0.128,1.94189453125,4.30419921875,-5.58544921875
0.1285,3.18310546875,3.18310546875,-5.94580078125
0.129,4.10400390625,2.02197265625,-5.94580078125
0.1295,4.78466796875,1.22119140625,-6.06591796875
0.13,5.02490234375,0.50048828125,-5.86572265625
0.1305,4.94482421875,-0.54052734375,-5.18505859375
0.131,4.86474609375,-1.62158203125,-4.30419921875
0.1315,4.82470703125,-2.82275390625,-3.22314453125
0.132,4.62451171875,-3.82373046875,-2.26220703125
0.1325,4.54443359375,-4.70458984375,-1.46142578125
0.133,3.98388671875,-5.14501953125,-0.66064453125
0.1335,3.06298828125,-5.38525390625,0.50048828125
0.134,1.98193359375,-5.74560546875,1.86181640625
0.1345,0.94091796875,-5.90576171875,3.06298828125
0.135,0.18017578125,-6.10595703125,4.02392578125
0.1355,-0.62060546875,-6.22607421875,4.86474609375
0.136,-1.62158203125,-5.58544921875,5.34521484375
0.1365,-2.90283203125,-4.54443359375,5.74560546875
0.137,-4.06396484375,-3.38330078125,5.94580078125
0.1375,-4.82470703125,-2.26220703125,5.90576171875
0.138,-5.38525390625,-1.46142578125,5.98583984375
0.1385,-5.42529296875,-0.66064453125,5.58544921875
0.139,-5.30517578125,0.38037109375,4.70458984375
0.1395,-5.26513671875,1.58154296875,3.78369140625
0.14,-5.10498046875,2.74267578125,2.62255859375
0.1405,-4.90478515625,3.70361328125,1.74169921875
0.141,-4.74462890625,4.42431640625,0.98095703125
0.1415,-3.98388671875,4.74462890625,0.06005859375
0.142,-2.90283203125,4.98486328125,-1.26123046875
0.1425,-1.86181640625,5.30517578125,-2.62255859375
0.143,-0.82080078125,5.42529296875,-3.74365234375
0.1435,-0.14013671875,5.66552734375,-4.74462890625
0.144,0.82080078125,5.46533203125,-5.42529296875
0.1445,1.98193359375,4.50439453125,-5.78564453125
0.145,3.26318359375,3.34326171875,-6.14599609375
0.1455,4.34423828125,2.10205078125,-6.26611328125
0.146,4.98486328125,1.10107421875,-6.18603515625
0.1465,5.34521484375,0.34033203125,-6.10595703125
0.147,5.26513671875,-0.62060546875,-5.42529296875
0.1475,5.10498046875,-1.78173828125,-4.34423828125
0.148,5.02490234375,-3.06298828125,-3.26318359375
0.1485,4.78466796875,-4.14404296875,-2.18212890625
0.149,4.54443359375,-5.02490234375,-1.30126953125
0.1495,4.14404296875,-5.54541015625,-0.50048828125
0.15,3.18310546875,-5.74560546875,0.66064453125
0.1505,1.94189453125,-6.02587890625,2.10205078125
0.151,0.70068359375,-6.14599609375,3.46337890625
0.1515,-0.26025390625,-6.22607421875,4.46435546875
0.152,-0.90087890625,-6.42626953125,5.30517578125
0.1525,-1.90185546875,-5.82568359375,5.78564453125
0.153,-3.22314453125,-4.62451171875,6.10595703125
0.1535,-4.42431640625,-3.38330078125,6.30615234375
0.154,-5.30517578125,-2.06201171875,6.26611328125
0.1545,-5.78564453125,-1.18115234375,6.22607421875
0.155,-5.90576171875,-0.38037109375,5.82568359375
0.1555,-5.74560546875,0.74072265625,4.90478515625
0.156,-5.54541015625,1.98193359375,3.74365234375
0.1565,-5.38525390625,3.26318359375,2.50244140625
0.157,-5.02490234375,4.22412109375,1.42138671875
0.1575,-4.82470703125,4.98486328125,0.62060546875
0.158,-4.02392578125,5.26513671875,-0.38037109375
0.1585,-2.82275390625,5.42529296875,-1.66162109375
0.159,-1.58154296875,5.74560546875,-3.14306640625
0.1595,-0.38037109375,5.70556640625,-4.34423828125
0.16,0.46044921875,5.78564453125,-5.22509765625
0.1605,1.22119140625,5.66552734375,-5.98583984375
0.161,2.38232421875,4.70458984375,-6.38623046875
0.1615,3.78369140625,3.26318359375,-6.70654296875
0.162,4.86474609375,1.98193359375,-6.70654296875
0.1625,5.50537109375,0.82080078125,-6.46630859375
0.163,5.86572265625,0.02001953125,-6.38623046875
0.1635,5.78564453125,-0.98095703125,-5.70556640625
0.164,5.46533203125,-2.22216796875,-4.50439453125
0.1645,5.30517578125,-3.54345703125,-3.26318359375
0.165,4.98486328125,-4.70458984375,-1.98193359375
0.1655,4.62451171875,-5.50537109375,-0.98095703125
0.166,4.22412109375,-6.10595703125,-0.18017578125
0.1665,3.22314453125,-6.26611328125,0.98095703125
0.167,1.86181640625,-6.38623046875,2.42236328125
0.1675,0.50048828125,-6.46630859375,3.86376953125
0.168,-0.62060546875,-6.42626953125,4.90478515625
0.1685,-1.26123046875,-6.54638671875,5.74560546875
0.169,-2.18212890625,-6.10595703125,6.26611328125
0.1695,-3.46337890625,-4.86474609375,6.50634765625
0.17,-4.78466796875,-3.46337890625,6.78662109375
0.1705,-5.70556640625,-2.06201171875,6.66650390625
0.171,-6.22607421875,-0.98095703125,6.42626953125
0.1715,-6.38623046875,-0.18017578125,6.14599609375
0.172,-6.10595703125,0.90087890625,5.26513671875
0.1725,-5.82568359375,2.18212890625,3.94384765625
0.173,-5.62548828125,3.50341796875,2.62255859375
0.1735,-5.22509765625,4.50439453125,1.42138671875
0.174,-4.86474609375,5.26513671875,0.50048828125
0.1745,-4.26416015625,5.66552734375,-0.46044921875
0.175,-3.10302734375,5.74560546875,-1.58154296875
0.1755,-1.70166015625,5.90576171875,-3.10302734375
0.176,-0.34033203125,5.90576171875,-4.50439453125
0.1765,0.62060546875,5.82568359375,-5.38525390625
0.177,1.26123046875,5.90576171875,-6.18603515625
0.1775,2.38232421875,5.14501953125,-6.66650390625
0.178,3.70361328125,3.74365234375,-6.86669921875
0.1785,4.86474609375,2.38232421875,-6.98681640625
0.179,5.62548828125,1.02099609375,-6.74658203125
0.1795,6.06591796875,0.06005859375,-6.54638671875
0.18,6.10595703125,-0.90087890625,-6.10595703125
0.1805,5.78564453125,-1.94189453125,-4.98486328125
0.181,5.50537109375,-3.26318359375,-3.66357421875
0.1815,5.18505859375,-4.58447265625,-2.30224609375
0.182,4.78466796875,-5.46533203125,-1.14111328125
0.1825,4.50439453125,-6.18603515625,-0.30029296875
0.183,3.58349609375,-6.38623046875,0.70068359375
0.1835,2.26220703125,-6.42626953125,2.02197265625
0.184,0.90087890625,-6.58642578125,3.54345703125
0.1845,-0.46044921875,-6.54638671875,4.78466796875
0.185,-1.22119140625,-6.58642578125,5.58544921875
0.1855,-1.94189453125,-6.38623046875,6.34619140625
0.186,-3.06298828125,-5.38525390625,6.58642578125
0.1865,-4.42431640625,-3.98388671875,6.78662109375
0.187,-5.50537109375,-2.54248046875,6.78662109375
0.1875,-6.14599609375,-1.30126953125,6.54638671875
0.188,-6.46630859375,-0.50048828125,6.38623046875
0.1885,-6.30615234375,0.50048828125,5.66552734375
0.189,-5.98583984375,1.66162109375,4.50439453125
0.1895,-5.74560546875,3.02294921875,3.14306640625
0.19,-5.42529296875,4.18408203125,1.86181640625
0.1905,-5.02490234375,5.02490234375,0.78076171875
0.191,-4.62451171875,5.62548828125,0.02001953125
0.1915,-3.58349609375,5.74560546875,-1.10107421875
0.192,-2.26220703125,5.82568359375,-2.50244140625
0.1925,-0.90087890625,5.94580078125,-3.98388671875
0.193,0.30029296875,5.82568359375,-5.06494140625
0.1935,0.94091796875,5.98583984375,-5.86572265625
0.194,1.86181640625,5.58544921875,-6.50634765625
0.1945,3.14306640625,4.34423828125,-6.74658203125
0.195,4.50439453125,2.90283203125,-6.98681640625
0.1955,5.42529296875,1.54150390625,-6.90673828125
0.196,5.94580078125,0.42041015625,-6.62646484375
0.1965,6.18603515625,-0.50048828125,-6.42626953125
0.197,5.90576171875,-1.46142578125,-5.46533203125
0.1975,5.62548828125,-2.74267578125,-4.22412109375
0.198,5.42529296875,-4.14404296875,-2.86279296875
0.1985,4.98486328125,-5.18505859375,-1.58154296875
0.199,4.62451171875,-5.94580078125,-0.62060546875
