wavelength,x,y,z
0.0,-2.3873291015625,-0.3052978515625,3.0980224609375
0.0005,-2.6676025390625,0.1751708984375,2.9378662109375
0.001,-2.9478759765625,0.6956787109375,2.6175537109375
0.0015,-3.0679931640625,1.4163818359375,2.0570068359375
0.002,-3.1881103515625,1.9368896484375,1.5765380859375
0.0025,-3.0679931640625,2.2572021484375,0.9759521484375
0.003,-2.8677978515625,2.4974365234375,0.4954833984375
0.0035,-2.5875244140625,2.6175537109375,-0.1851806640625
0.004,-2.4273681640625,2.8978271484375,-0.7857666015625
0.0045,-1.6265869140625,2.8577880859375,-1.6666259765625
0.005,-1.1060791015625,2.7376708984375,-2.1871337890625
0.0055,-0.6656494140625,2.5374755859375,-2.5074462890625
0.006,-0.2652587890625,2.2972412109375,-2.8677978515625
0.0065,0.4554443359375,1.9368896484375,-3.1881103515625
0.007,1.1361083984375,1.4564208984375,-3.4683837890625
0.0075,1.7767333984375,0.9359130859375,-3.7086181640625
0.008,2.1771240234375,0.4554443359375,-3.5484619140625
0.0085,2.4173583984375,0.0150146484375,-3.3883056640625
0.009,2.6575927734375,-0.5054931640625,-3.1881103515625
0.0095,2.9378662109375,-0.9459228515625,-3.0679931640625
0.01,3.0179443359375,-1.6265869140625,-2.3072509765625
0.0105,3.0579833984375,-2.0269775390625,-1.9068603515625
0.011,2.9378662109375,-2.3072509765625,-1.3463134765625
0.0115,2.8177490234375,-2.5474853515625,-0.8258056640625
0.012,2.5374755859375,-2.7076416015625,-0.2652587890625
0.0125,2.2171630859375,-2.8677978515625,0.4554443359375
0.013,1.6566162109375,-2.9478759765625,1.1761474609375
0.0135,1.0960693359375,-2.7476806640625,1.6566162109375
0.014,0.6556396484375,-2.5474853515625,2.0570068359375
0.0145,0.1751708984375,-2.4273681640625,2.4573974609375
0.015,-0.4654541015625,-2.1470947265625,2.8577880859375
0.0155,-1.3062744140625,-1.4263916015625,3.0980224609375
0.016,-1.8668212890625,-0.9859619140625,3.1781005859375
0.0165,-2.2672119140625,-0.5054931640625,3.1781005859375
0.017,-2.5074462890625,0.0150146484375,2.9779052734375
0.0175,-2.7877197265625,0.5755615234375,2.6976318359375
0.018,-3.0679931640625,1.0960693359375,2.4974365234375
0.0185,-3.1881103515625,1.7767333984375,1.7767333984375
0.019,-3.1080322265625,2.0970458984375,1.2562255859375
0.0195,-2.9478759765625,2.4173583984375,0.6956787109375
0.02,-2.8277587890625,2.6175537109375,0.2152099609375
0.0205,-2.5474853515625,2.8177490234375,-0.5054931640625
0.021,-1.9468994140625,2.8577880859375,-1.3062744140625
0.0215,-1.4263916015625,2.8577880859375,-1.9468994140625
0.022,-0.9058837890625,2.6575927734375,-2.3472900390625
0.0225,-0.4654541015625,2.4573974609375,-2.7076416015625
0.023,0.1351318359375,2.1771240234375,-3.0679931640625
0.0235,0.7757568359375,1.8568115234375,-3.4683837890625
0.024,1.6165771484375,1.1361083984375,-3.7086181640625
0.0245,1.9769287109375,0.6156005859375,-3.6285400390625
0.025,2.3372802734375,0.0950927734375,-3.5484619140625
0.0255,2.6175537109375,-0.3052978515625,-3.3482666015625
0.026,2.8577880859375,-0.8258056640625,-3.0679931640625
0.0265,3.0579833984375,-1.4263916015625,-2.5875244140625
0.027,3.1781005859375,-1.9869384765625,-2.0670166015625
0.0275,3.0579833984375,-2.2672119140625,-1.5465087890625
0.028,2.8577880859375,-2.5074462890625,-0.9859619140625
0.0285,2.6575927734375,-2.7076416015625,-0.4654541015625
0.029,2.4173583984375,-2.9478759765625,0.2552490234375
0.0295,1.7366943359375,-2.9478759765625,1.0960693359375
0.03,1.2161865234375,-2.8277587890625,1.6165771484375
0.0305,0.7757568359375,-2.6676025390625,1.9769287109375
0.031,0.2952880859375,-2.4674072265625,2.3773193359375
0.0315,-0.3453369140625,-2.1070556640625,2.6976318359375
0.032,-1.0260009765625,-1.6666259765625,3.0579833984375
0.0325,-1.7867431640625,-1.1461181640625,3.2581787109375
0.033,-2.1070556640625,-0.5855712890625,3.1781005859375
0.0335,-2.5074462890625,0.0150146484375,3.0179443359375
0.034,-2.7476806640625,0.3753662109375,2.8577880859375
0.0345,-3.0279541015625,0.9359130859375,2.5775146484375
0.035,-3.1480712890625,1.5765380859375,1.9368896484375
0.0355,-3.1480712890625,2.0570068359375,1.3763427734375
0.036,-3.0679931640625,2.3372802734375,0.8958740234375
0.0365,-2.8677978515625,2.5374755859375,0.3353271484375
0.037,-2.5875244140625,2.7376708984375,-0.3052978515625
0.0375,-2.2672119140625,2.8978271484375,-0.9859619140625
0.038,-1.6265869140625,2.8978271484375,-1.7867431640625
0.0385,-1.0260009765625,2.6976318359375,-2.2271728515625
0.039,-0.6256103515625,2.5374755859375,-2.5875244140625
0.0395,-0.1451416015625,2.2972412109375,-2.9478759765625
0.04,0.4954833984375,1.9769287109375,-3.3482666015625
0.0405,1.3363037109375,1.3363037109375,-3.5885009765625
0.041,1.9769287109375,0.7757568359375,-3.7486572265625
0.0415,2.2572021484375,0.3753662109375,-3.6285400390625
0.042,2.4974365234375,-0.1051025390625,-3.4683837890625
0.0425,2.7777099609375,-0.5855712890625,-3.2281494140625
0.043,3.0179443359375,-1.1461181640625,-2.9078369140625
0.0435,3.1380615234375,-1.7867431640625,-2.2672119140625
0.044,3.0579833984375,-2.1871337890625,-1.7066650390625
0.0445,2.8978271484375,-2.3873291015625,-1.2662353515625
0.045,2.7376708984375,-2.5875244140625,-0.7056884765625
0.0455,2.5374755859375,-2.8277587890625,-0.1451416015625
0.046,1.9769287109375,-2.8677978515625,0.6556396484375
0.0465,1.4564208984375,-2.8677978515625,1.2962646484375
0.047,0.9759521484375,-2.6676025390625,1.6966552734375
0.0475,0.5755615234375,-2.5474853515625,2.0570068359375
0.048,0.1351318359375,-2.3072509765625,2.3773193359375
0.0485,-0.5054931640625,-2.0269775390625,2.8177490234375
0.049,-1.3463134765625,-1.4263916015625,3.0980224609375
0.0495,-1.8267822265625,-0.8658447265625,3.0579833984375
0.05,-2.1470947265625,-0.4654541015625,3.0179443359375
0.0505,-2.4273681640625,0.0150146484375,2.8577880859375
0.051,-2.7076416015625,0.4954833984375,2.6976318359375
0.0515,-2.9078369140625,1.0960693359375,2.2572021484375
0.052,-3.0679931640625,1.6165771484375,1.7767333984375
0.0525,-2.9879150390625,1.9769287109375,1.2562255859375
0.053,-2.9078369140625,2.2972412109375,0.7357177734375
0.0535,-2.7476806640625,2.5374755859375,0.2152099609375
0.054,-2.5474853515625,2.8177490234375,-0.4254150390625
0.0545,-1.9468994140625,2.8577880859375,-1.2261962890625
0.055,-1.4263916015625,2.8177490234375,-1.8668212890625
0.0555,-0.9859619140625,2.6175537109375,-2.2672119140625
0.056,-0.5054931640625,2.5374755859375,-2.5875244140625
0.0565,0.0550537109375,2.1771240234375,-3.0679931640625
0.057,0.7757568359375,1.7767333984375,-3.3883056640625
0.0575,1.5364990234375,1.2962646484375,-3.7086181640625
0.058,1.9769287109375,0.6956787109375,-3.6285400390625
0.0585,2.3372802734375,0.2552490234375,-3.5484619140625
0.059,2.5775146484375,-0.3052978515625,-3.3482666015625
0.0595,2.8978271484375,-0.7857666015625,-3.1480712890625
0.06,3.0579833984375,-1.4664306640625,-2.5474853515625
0.0605,3.1380615234375,-1.9869384765625,-1.9468994140625
0.061,3.0179443359375,-2.2672119140625,-1.4664306640625
0.0615,2.8577880859375,-2.5474853515625,-0.9459228515625
0.062,2.6175537109375,-2.7076416015625,-0.3853759765625
0.0625,2.2171630859375,-2.8677978515625,0.3753662109375
0.063,1.6566162109375,-2.9478759765625,1.1361083984375
0.0635,1.0960693359375,-2.7476806640625,1.6566162109375
0.064,0.6556396484375,-2.7076416015625,1.8968505859375
0.0645,0.1751708984375,-2.3472900390625,2.2972412109375
0.065,-0.3853759765625,-2.1470947265625,2.6976318359375
0.0655,-1.2261962890625,-1.4263916015625,2.9378662109375
0.066,-1.7867431640625,-0.9859619140625,3.1380615234375
0.0665,-2.1070556640625,-0.5054931640625,2.9779052734375
0.067,-2.4273681640625,0.0150146484375,2.8978271484375
0.0675,-2.6275634765625,0.4154052734375,2.6976318359375
0.068,-2.8677978515625,0.9359130859375,2.4173583984375
0.0685,-3.0679931640625,1.5364990234375,1.9368896484375
0.069,-3.0279541015625,1.9769287109375,1.2962646484375
0.0695,-2.9078369140625,2.2171630859375,0.8558349609375
0.07,-2.7476806640625,2.4573974609375,0.3353271484375
0.0705,-2.5875244140625,2.6976318359375,-0.3052978515625
0.071,-2.0670166015625,2.7376708984375,-1.0260009765625
0.0715,-1.6265869140625,2.8177490234375,-1.6666259765625
0.072,-1.0260009765625,2.6976318359375,-2.0670166015625
0.0725,-0.7056884765625,2.4974365234375,-2.5474853515625
0.073,-0.1851806640625,2.2171630859375,-2.9078369140625
0.0735,0.4954833984375,2.0570068359375,-3.3482666015625
0.074,1.2962646484375,1.4163818359375,-3.6685791015625
0.0745,1.8968505859375,0.8157958984375,-3.7086181640625
0.075,2.2572021484375,0.3753662109375,-3.6285400390625
0.0755,2.5374755859375,-0.1051025390625,-3.5484619140625
0.076,2.8978271484375,-0.6256103515625,-3.2681884765625
0.0765,3.0579833984375,-1.2662353515625,-2.7476806640625
0.077,3.2181396484375,-1.8668212890625,-2.3072509765625
0.0775,3.1781005859375,-2.3072509765625,-1.6265869140625
0.078,3.0179443359375,-2.5875244140625,-1.1461181640625
0.0785,2.7376708984375,-2.7476806640625,-0.5455322265625
0.079,2.5374755859375,-3.0279541015625,0.1351318359375
0.0795,1.7767333984375,-3.0679931640625,1.0960693359375
0.08,1.1761474609375,-3.0679931640625,1.6966552734375
0.0805,0.7757568359375,-2.7476806640625,2.0570068359375
0.081,0.3353271484375,-2.5875244140625,2.4173583984375
0.0815,-0.4254150390625,-2.1070556640625,2.7376708984375
0.082,-1.1060791015625,-1.6265869140625,3.0579833984375
0.0825,-1.8267822265625,-1.0660400390625,3.2982177734375
0.083,-2.2672119140625,-0.5054931640625,3.1781005859375
0.0835,-2.4674072265625,0.0150146484375,2.9378662109375
0.084,-2.6676025390625,0.4554443359375,2.6976318359375
0.0845,-2.9078369140625,0.8958740234375,2.4974365234375
0.085,-3.0279541015625,1.6165771484375,1.7767333984375
0.0855,-3.0279541015625,1.9769287109375,1.3363037109375
0.086,-2.8677978515625,2.2572021484375,0.7757568359375
0.0865,-2.7476806640625,2.4173583984375,0.3353271484375
0.087,-2.4674072265625,2.5775146484375,-0.3052978515625
0.0875,-2.1871337890625,2.7376708984375,-0.8258056640625
0.088,-1.5465087890625,2.7376708984375,-1.6666259765625
0.0885,-1.1461181640625,2.5775146484375,-2.0670166015625
0.089,-0.6656494140625,2.4173583984375,-2.3873291015625
0.0895,-0.3052978515625,2.2572021484375,-2.7877197265625
0.09,0.2952880859375,2.0570068359375,-3.1480712890625
0.0905,1.0960693359375,1.4564208984375,-3.3883056640625
0.091,1.5765380859375,1.0960693359375,-3.5885009765625
0.0915,2.0169677734375,0.5355224609375,-3.5484619140625
0.092,2.3773193359375,0.1351318359375,-3.5084228515625
0.0925,2.6175537109375,-0.4254150390625,-3.2681884765625
0.093,2.9378662109375,-0.9058837890625,-3.1480712890625
0.0935,3.1380615234375,-1.5865478515625,-2.5474853515625
0.094,3.1380615234375,-1.9869384765625,-1.9468994140625
0.0945,3.0179443359375,-2.3072509765625,-1.4664306640625
0.095,2.9378662109375,-2.6275634765625,-0.9459228515625
0.0955,2.6976318359375,-2.8677978515625,-0.3052978515625
0.096,2.2171630859375,-2.9078369140625,0.5755615234375
0.0965,1.7767333984375,-3.0679931640625,1.1761474609375
0.097,1.2161865234375,-2.8677978515625,1.7767333984375
0.0975,0.6556396484375,-2.7076416015625,2.1771240234375
0.098,0.0950927734375,-2.4273681640625,2.5374755859375
0.0985,-0.5855712890625,-2.1871337890625,2.9779052734375
0.099,-1.5465087890625,-1.3863525390625,3.2181396484375
0.0995,-1.9869384765625,-0.9058837890625,3.2581787109375
0.1,-2.3873291015625,-0.3453369140625,3.1380615234375
0.1005,-2.6275634765625,0.1351318359375,3.0179443359375
0.101,-2.8677978515625,0.6956787109375,2.6175537109375
0.1015,-3.0679931640625,1.2962646484375,2.1771240234375
0.102,-3.2281494140625,1.9368896484375,1.5765380859375
0.1025,-3.1080322265625,2.2572021484375,1.0159912109375
0.103,-2.8677978515625,2.4173583984375,0.4954833984375
0.1035,-2.6676025390625,2.6175537109375,0.0150146484375
0.104,-2.4273681640625,2.8577880859375,-0.6656494140625
0.1045,-1.5865478515625,2.8577880859375,-1.6666259765625
0.105,-1.1461181640625,2.8577880859375,-2.0670166015625
0.1055,-0.7056884765625,2.5775146484375,-2.5074462890625
0.106,-0.3052978515625,2.3372802734375,-2.8277587890625
0.1065,0.3353271484375,1.9769287109375,-3.1480712890625
0.107,0.9759521484375,1.5765380859375,-3.4683837890625
0.1075,1.7767333984375,0.9759521484375,-3.7086181640625
0.108,2.0970458984375,0.4954833984375,-3.5885009765625
0.1085,2.4173583984375,0.0950927734375,-3.4683837890625
0.109,2.6175537109375,-0.3853759765625,-3.3082275390625
0.1095,2.8978271484375,-0.9058837890625,-3.0679931640625
0.11,3.0179443359375,-1.5465087890625,-2.4273681640625
0.1105,3.1380615234375,-1.9869384765625,-1.9869384765625
0.111,3.0179443359375,-2.3472900390625,-1.4263916015625
0.1115,2.8577880859375,-2.5474853515625,-0.9459228515625
0.112,2.6175537109375,-2.8277587890625,-0.3853759765625
0.1125,2.3773193359375,-3.0279541015625,0.2952880859375
0.113,1.5765380859375,-3.1480712890625,1.1361083984375
0.1135,1.1761474609375,-2.8277587890625,1.6566162109375
0.114,0.6956787109375,-2.6275634765625,2.0970458984375
0.1145,0.2952880859375,-2.5474853515625,2.4974365234375
0.115,-0.4254150390625,-2.1871337890625,2.8577880859375
0.1155,-1.2261962890625,-1.5865478515625,3.1380615234375
0.116,-1.9068603515625,-1.0260009765625,3.3382568359375
0.1165,-2.3072509765625,-0.5054931640625,3.2181396484375
0.117,-2.5875244140625,0.0150146484375,3.0980224609375
0.1175,-2.8677978515625,0.4954833984375,2.8577880859375
0.118,-3.1881103515625,1.0960693359375,2.5374755859375
0.1185,-3.2681884765625,1.8167724609375,1.8568115234375
0.119,-3.1881103515625,2.2171630859375,1.2562255859375
0.1195,-3.1080322265625,2.5374755859375,0.6956787109375
0.12,-2.9078369140625,2.6976318359375,0.2552490234375
0.1205,-2.5474853515625,2.8577880859375,-0.5855712890625
0.121,-1.9869384765625,3.0579833984375,-1.3463134765625
0.1215,-1.4263916015625,3.0579833984375,-2.1871337890625
0.122,-0.8258056640625,2.7376708984375,-2.5474853515625
0.1225,-0.3853759765625,2.5374755859375,-2.9078369140625
0.123,0.2552490234375,2.2572021484375,-3.2681884765625
0.1235,0.9359130859375,1.8167724609375,-3.5885009765625
0.124,1.8568115234375,1.0560302734375,-3.8687744140625
0.1245,2.3372802734375,0.4954833984375,-3.8287353515625
0.125,2.6175537109375,0.0550537109375,-3.7086181640625
0.1255,2.8177490234375,-0.4654541015625,-3.4283447265625
0.126,3.0179443359375,-0.9859619140625,-3.0679931640625
0.1265,3.1781005859375,-1.5865478515625,-2.5875244140625
0.127,3.2982177734375,-2.2271728515625,-1.9468994140625
0.1275,3.0980224609375,-2.4674072265625,-1.3463134765625
0.128,2.8978271484375,-2.7476806640625,-0.8258056640625
0.1285,2.6175537109375,-2.8677978515625,-0.3052978515625
0.129,2.2171630859375,-3.0679931640625,0.4154052734375
0.1295,1.6165771484375,-2.9478759765625,1.2562255859375
0.13,1.0960693359375,-2.8677978515625,1.8568115234375
0.1305,0.6156005859375,-2.6275634765625,2.1771240234375
0.131,0.1351318359375,-2.3873291015625,2.4974365234375
0.1315,-0.3853759765625,-2.1070556640625,2.7777099609375
0.132,-1.1060791015625,-1.6265869140625,3.0980224609375
0.1325,-1.8668212890625,-1.0260009765625,3.3382568359375
0.133,-2.2672119140625,-0.4654541015625,3.1380615234375
0.1335,-2.5474853515625,0.0150146484375,3.0579833984375
0.134,-2.7076416015625,0.4154052734375,2.8577880859375
0.1345,-2.9478759765625,0.9359130859375,2.5775146484375
0.135,-3.0679931640625,1.4964599609375,1.9769287109375
0.1355,-3.1881103515625,2.0570068359375,1.4564208984375
0.136,-3.0279541015625,2.2572021484375,0.9359130859375
0.1365,-2.8677978515625,2.5374755859375,0.4154052734375
0.137,-2.7076416015625,2.6175537109375,-0.2652587890625
0.1375,-2.3873291015625,2.8978271484375,-0.7857666015625
0.138,-1.7867431640625,2.9378662109375,-1.6265869140625
0.1385,-1.2261962890625,2.7376708984375,-2.1871337890625
0.139,-0.7857666015625,2.6175537109375,-2.5474853515625
0.1395,-0.3052978515625,2.4173583984375,-2.9078369140625
0.14,0.3753662109375,2.1771240234375,-3.3482666015625
0.1405,1.1361083984375,1.5765380859375,-3.5885009765625
0.141,1.8968505859375,1.0159912109375,-3.8287353515625
0.1415,2.2572021484375,0.4954833984375,-3.7486572265625
0.142,2.5775146484375,0.0150146484375,-3.6685791015625
0.1425,2.8577880859375,-0.5054931640625,-3.3883056640625
0.143,3.0980224609375,-1.0660400390625,-3.0679931640625
0.1435,3.2181396484375,-1.7867431640625,-2.4273681640625
0.144,3.2181396484375,-2.3072509765625,-1.7867431640625
0.1445,3.0579833984375,-2.5474853515625,-1.2662353515625
0.145,2.8978271484375,-2.7476806640625,-0.7457275390625
0.1455,2.6175537109375,-2.9078369140625,-0.1451416015625
0.146,2.0570068359375,-3.0279541015625,0.7757568359375
0.1465,1.4964599609375,-3.1080322265625,1.5364990234375
0.147,0.8958740234375,-2.8277587890625,1.9769287109375
0.1475,0.4954833984375,-2.6275634765625,2.2972412109375
0.148,0.0150146484375,-2.2672119140625,2.5775146484375
0.1485,-0.7056884765625,-1.9468994140625,2.9378662109375
0.149,-1.6265869140625,-1.2662353515625,3.2181396484375
0.1495,-2.1470947265625,-0.6656494140625,3.2181396484375
0.15,-2.3472900390625,-0.2652587890625,3.0579833984375
0.1505,-2.6275634765625,0.2552490234375,2.8577880859375
0.151,-2.8277587890625,0.6956787109375,2.5775146484375
0.1515,-3.0279541015625,1.2962646484375,2.1771240234375
0.152,-3.1480712890625,1.7767333984375,1.6165771484375
0.1525,-3.0279541015625,2.1771240234375,0.9759521484375
0.153,-2.8677978515625,2.3372802734375,0.5755615234375
0.1535,-2.6275634765625,2.5374755859375,0.0550537109375
0.154,-2.4674072265625,2.7376708984375,-0.5455322265625
0.1545,-1.8267822265625,2.7777099609375,-1.3062744140625
0.155,-1.3863525390625,2.7376708984375,-1.9468994140625
0.1555,-0.9058837890625,2.5374755859375,-2.2672119140625
0.156,-0.5054931640625,2.4173583984375,-2.7076416015625
0.1565,0.0950927734375,2.1370849609375,-2.9478759765625
0.157,0.6556396484375,1.8167724609375,-3.3482666015625
0.1575,1.4163818359375,1.2962646484375,-3.6285400390625
0.158,1.9368896484375,0.6956787109375,-3.5885009765625
0.1585,2.2572021484375,0.3353271484375,-3.5484619140625
0.159,2.5374755859375,-0.1851806640625,-3.3482666015625
0.1595,2.8577880859375,-0.6656494140625,-3.2281494140625
0.16,3.0179443359375,-1.3463134765625,-2.6676025390625
0.1605,3.1380615234375,-1.8668212890625,-2.2271728515625
0.161,3.0579833984375,-2.2271728515625,-1.7066650390625
0.1615,2.9779052734375,-2.5474853515625,-1.1461181640625
0.162,2.6976318359375,-2.7076416015625,-0.5855712890625
0.1625,2.5374755859375,-2.9478759765625,0.0950927734375
0.163,1.9368896484375,-3.0279541015625,0.9359130859375
0.1635,1.2962646484375,-2.9078369140625,1.5364990234375
0.164,0.8958740234375,-2.7076416015625,1.9368896484375
0.1645,0.3753662109375,-2.5474853515625,2.4173583984375
0.165,-0.3052978515625,-2.2672119140625,2.7777099609375
0.1655,-1.1060791015625,-1.6265869140625,3.0579833984375
0.166,-1.7467041015625,-1.2261962890625,3.2581787109375
0.1665,-2.2271728515625,-0.5855712890625,3.1781005859375
0.167,-2.5074462890625,-0.1451416015625,3.0980224609375
0.1675,-2.7076416015625,0.4554443359375,2.7376708984375
0.168,-3.0679931640625,0.8958740234375,2.5374755859375
0.1685,-3.1480712890625,1.6165771484375,1.7767333984375
0.169,-3.1881103515625,2.0570068359375,1.2962646484375
0.1695,-2.9478759765625,2.2972412109375,0.7757568359375
0.17,-2.8277587890625,2.5374755859375,0.2952880859375
0.1705,-2.5074462890625,2.6976318359375,-0.4654541015625
0.171,-2.0269775390625,2.8177490234375,-1.1461181640625
0.1715,-1.4664306640625,2.8577880859375,-1.8668212890625
0.172,-0.9459228515625,2.6175537109375,-2.3072509765625
0.1725,-0.5054931640625,2.4573974609375,-2.6676025390625
0.173,0.0150146484375,2.1370849609375,-2.9478759765625
0.1735,0.6156005859375,1.9368896484375,-3.3482666015625
0.174,1.4964599609375,1.1761474609375,-3.5484619140625
0.1745,1.9368896484375,0.7757568359375,-3.6685791015625
0.175,2.2572021484375,0.2952880859375,-3.5484619140625
0.1755,2.5374755859375,-0.1851806640625,-3.4683837890625
0.176,2.7376708984375,-0.6656494140625,-3.1480712890625
0.1765,2.9779052734375,-1.2261962890625,-2.7877197265625
0.177,3.1380615234375,-1.8668212890625,-2.2672119140625
0.1775,3.0579833984375,-2.2271728515625,-1.6265869140625
0.178,2.8978271484375,-2.3873291015625,-1.2261962890625
