wavelength,x,y,z
0.0,5.1700439453125,-23.097534179688,17.942504882812
0.0005,9.4542236328125,-23.698120117188,14.218872070312
0.001,13.898559570312,-23.778198242188,9.9346923828125
0.0015,16.981567382812,-23.578002929688,6.5714111328125
0.002,20.344848632812,-21.816284179688,1.4864501953125
0.0025,22.466918945312,-19.614135742188,-2.9178466796875
0.003,23.828247070312,-17.171752929688,-6.7215576171875
0.0035,24.548950195312,-13.568237304688,-11.085815429688
0.004,23.347778320312,-8.8035888671875,-14.649291992188
0.0045,23.187622070312,-5.4403076171875,-17.852416992188
0.005,20.545043945312,-0.3153076171875,-20.334838867188
0.0055,19.023559570312,4.2091064453125,-23.257690429688
0.006,15.179809570312,8.3331298828125,-23.578002929688
0.0065,11.416137695312,12.937622070312,-24.458862304688
0.007,7.1719970703125,16.020629882812,-23.417846679688
0.0075,2.2872314453125,19.343872070312,-21.936401367188
0.008,-2.3973388671875,21.265747070312,-19.253784179688
0.0085,-6.7215576171875,23.547973632812,-17.331909179688
0.009,-11.045776367188,23.788208007812,-13.328002929688
0.0095,-15.089721679688,23.347778320312,-8.8436279296875
0.01,-17.972534179688,23.107543945312,-5.6805419921875
0.0105,-20.855346679688,20.985473632812,-0.6356201171875
0.011,-22.897338867188,18.863403320312,3.6485595703125
0.0115,-23.457885742188,15.620239257812,7.4522705078125
0.012,-24.218627929688,12.056762695312,11.776489257812
0.0125,-22.897338867188,7.4522705078125,15.059692382812
0.013,-22.376831054688,3.8487548828125,18.142700195312
0.0135,-19.814331054688,-1.0760498046875,20.424926757812
0.014,-18.292846679688,-5.4002685546875,23.227661132812
0.0145,-14.248901367188,-9.3240966796875,23.187622070312
0.015,-10.244995117188,-13.608276367188,23.547973632812
0.0155,-6.4412841796875,-16.411010742188,22.627075195312
0.016,-1.1961669921875,-19.534057617188,20.585083007812
0.0165,3.1680908203125,-21.495971679688,18.222778320312
0.017,7.6124267578125,-23.297729492188,15.660278320312
0.0175,11.656372070312,-23.658081054688,12.016723632812
0.018,15.460083007812,-22.857299804688,7.4923095703125
0.0185,18.262817382812,-22.496948242188,4.2891845703125
0.019,21.025512695312,-20.214721679688,-0.7957763671875
0.0195,23.227661132812,-18.372924804688,-4.8797607421875
0.02,23.147583007812,-14.569213867188,-8.6834716796875
0.0205,23.988403320312,-11.245971679688,-12.807495117188
0.021,22.747192382812,-6.9217529296875,-15.890502929688
0.0215,21.666137695312,-2.7576904296875,-18.973510742188
0.022,19.263793945312,1.9268798828125,-21.175659179688
0.0225,17.141723632812,6.5714111328125,-23.778198242188
0.023,12.857543945312,10.575317382812,-23.537963867188
0.0235,8.6934814453125,14.659301757812,-23.537963867188
0.024,5.0899658203125,17.261840820312,-22.577026367188
0.0245,-0.4354248046875,20.344848632812,-20.374877929688
0.025,-4.6395263671875,22.346801757812,-18.212768554688
0.0255,-9.4442138671875,23.507934570312,-14.729370117188
0.026,-13.247924804688,23.868286132812,-11.245971679688
0.0265,-17.011596679688,22.987426757812,-6.4813232421875
0.027,-19.614135742188,22.066528320312,-2.9578857421875
0.0275,-22.096557617188,19.704223632812,1.9669189453125
0.028,-24.178588867188,17.301879882812,6.4512939453125
0.0285,-23.537963867188,12.817504882812,10.375122070312
0.029,-24.138549804688,9.4542236328125,14.338989257812
0.0295,-22.737182617188,5.1300048828125,17.221801757812
0.03,-21.215698242188,0.3653564453125,20.464965820312
0.0305,-18.733276367188,-4.0789794921875,22.426879882812
0.031,-15.970581054688,-9.0037841796875,24.508911132812
0.0315,-11.526245117188,-12.687377929688,23.868286132812
0.032,-7.1219482421875,-16.651245117188,23.547973632812
0.0325,-2.9178466796875,-19.053588867188,21.746215820312
0.033,2.6475830078125,-22.096557617188,19.343872070312
0.0335,7.0518798828125,-23.858276367188,16.821411132812
0.034,11.776489257812,-24.298706054688,12.577270507812
0.0345,15.219848632812,-24.378784179688,9.2540283203125
0.035,19.023559570312,-23.057495117188,4.1290283203125
0.0355,21.465942382812,-21.576049804688,0.1251220703125
0.036,23.547973632812,-19.133666992188,-4.4793701171875
0.0365,25.309692382812,-16.210815429688,-9.1639404296875
0.037,24.148559570312,-11.366088867188,-12.887573242188
0.0375,24.428833007812,-7.9627685546875,-16.571166992188
0.038,22.426879882812,-3.3182373046875,-19.173706054688
0.0385,20.625122070312,1.7266845703125,-22.376831054688
0.039,17.742309570312,6.1309814453125,-23.858276367188
0.0395,14.098754882812,11.215942382812,-25.379760742188
0.04,9.7344970703125,14.579223632812,-24.458862304688
0.0405,5.0499267578125,18.382934570312,-23.698120117188
0.041,0.6456298828125,20.384887695312,-21.415893554688
0.0415,-4.4393310546875,23.147583007812,-19.253784179688
0.042,-9.0838623046875,24.508911132812,-15.970581054688
0.0425,-13.648315429688,24.348754882812,-11.286010742188
0.043,-16.811401367188,24.428833007812,-8.1629638671875
0.0435,-20.214721679688,22.627075195312,-2.9578857421875
0.044,-22.496948242188,20.785278320312,1.3262939453125
0.0445,-23.938354492188,18.182739257812,5.4102783203125
0.045,-25.259643554688,14.699340820312,10.214965820312
0.0455,-23.978393554688,9.8145751953125,13.778442382812
0.046,-23.978393554688,6.2510986328125,17.341918945312
0.0465,-21.656127929688,1.7266845703125,19.544067382812
0.047,-19.974487304688,-3.1580810546875,22.707153320312
0.0475,-16.771362304688,-7.3221435546875,23.708129882812
0.048,-12.887573242188,-12.126831054688,24.629028320312
0.0485,-8.9637451171875,-15.249877929688,23.868286132812
0.049,-3.7987060546875,-18.773315429688,22.346801757812
0.0495,0.6856689453125,-20.815307617188,19.904418945312
0.05,5.0899658203125,-23.097534179688,18.022583007812
0.0505,9.8946533203125,-24.298706054688,14.499145507812
0.051,13.898559570312,-23.658081054688,9.7745361328125
0.0515,17.181762695312,-23.858276367188,6.7315673828125
0.052,20.104614257812,-21.776245117188,1.7667236328125
0.0525,22.627075195312,-19.894409179688,-2.7576904296875
0.053,23.547973632812,-17.171752929688,-6.4012451171875
0.0535,24.629028320312,-13.728393554688,-11.005737304688
0.054,23.427856445312,-9.2840576171875,-14.208862304688
0.0545,23.067504882812,-5.4002685546875,-17.772338867188
0.055,20.745239257812,-0.9959716796875,-19.854370117188
0.0555,19.183715820312,3.6885986328125,-22.897338867188
0.056,15.500122070312,8.0928955078125,-23.658081054688
0.0565,11.255981445312,12.537231445312,-23.978393554688
0.057,7.8927001953125,15.580200195312,-23.738159179688
0.0575,2.6075439453125,18.823364257812,-21.736206054688
0.058,-1.8768310546875,20.985473632812,-19.534057617188
0.0585,-6.0008544921875,22.907348632812,-17.411987304688
0.059,-10.845581054688,24.068481445312,-13.808471679688
0.0595,-14.529174804688,23.067504882812,-9.0838623046875
0.06,-17.852416992188,23.227661132812,-5.9207763671875
0.0605,-20.334838867188,20.985473632812,-1.1561279296875
0.061,-22.897338867188,19.223754882812,3.2481689453125
0.0615,-23.257690429688,15.820434570312,7.0518798828125
0.062,-24.218627929688,12.136840820312,11.696411132812
0.0625,-23.217651367188,8.0128173828125,14.859497070312
0.063,-22.376831054688,3.7286376953125,18.262817382812
0.0635,-20.014526367188,-0.7957763671875,20.344848632812
0.064,-18.453002929688,-5.2000732421875,23.187622070312
0.0645,-14.569213867188,-9.6444091796875,23.748168945312
0.065,-9.9647216796875,-13.848510742188,23.427856445312
0.0655,-6.7215576171875,-16.771362304688,23.187622070312
0.066,-0.9959716796875,-19.854370117188,20.625122070312
0.0665,3.5284423828125,-22.096557617188,18.543090820312
0.067,7.8927001953125,-23.377807617188,15.620239257812
0.0675,12.337036132812,-24.378784179688,12.176879882812
0.068,15.980590820312,-23.217651367188,7.3321533203125
0.0685,19.183715820312,-22.857299804688,3.7286376953125
0.069,21.666137695312,-20.374877929688,-1.3162841796875
0.0695,24.188598632812,-18.573120117188,-5.6405029296875
0.07,23.868286132812,-14.449096679688,-9.4842529296875
0.0705,24.468872070312,-10.765502929688,-13.848510742188
0.071,23.427856445312,-6.8016357421875,-16.691284179688
0.0715,21.866333007812,-1.8768310546875,-20.054565429688
0.072,19.343872070312,2.8077392578125,-22.176635742188
0.0725,16.941528320312,7.4122314453125,-24.498901367188
0.073,12.737426757812,11.696411132812,-24.619018554688
0.0735,7.9727783203125,15.740356445312,-23.938354492188
0.074,4.4893798828125,18.382934570312,-23.137573242188
0.0745,-1.3162841796875,21.345825195312,-20.454956054688
0.075,-5.8006591796875,23.588012695312,-18.252807617188
0.0755,-10.445190429688,24.148559570312,-14.168823242188
0.076,-14.409057617188,24.749145507812,-10.885620117188
0.0765,-17.972534179688,23.347778320312,-5.9608154296875
0.077,-20.775268554688,22.386840820312,-2.1170654296875
0.0775,-22.857299804688,19.664184570312,2.8077392578125
0.078,-25.019409179688,17.301879882812,7.3721923828125
0.0785,-24.178588867188,12.577270507812,11.215942382812
0.079,-24.458862304688,8.8135986328125,15.259887695312
0.0795,-23.217651367188,4.9698486328125,17.782348632812
0.08,-21.215698242188,-0.3553466796875,21.105590820312
0.0805,-18.733276367188,-4.7596435546875,23.027465820312
0.081,-15.570190429688,-9.4842529296875,24.629028320312
0.0815,-11.606323242188,-13.287963867188,24.468872070312
0.082,-6.6815185546875,-16.971557617188,23.347778320312
0.0825,-2.7977294921875,-19.253784179688,21.866333007812
0.083,2.7276611328125,-21.976440429688,19.223754882812
0.0835,7.2921142578125,-24.138549804688,16.941528320312
0.084,11.656372070312,-23.978393554688,12.337036132812
0.0845,15.299926757812,-24.378784179688,9.2139892578125
0.085,18.543090820312,-22.937377929688,4.4893798828125
0.0855,21.345825195312,-21.495971679688,0.1651611328125
0.086,23.067504882812,-18.933471679688,-4.1990966796875
0.0865,24.909301757812,-16.170776367188,-8.8035888671875
0.087,23.908325195312,-11.686401367188,-12.327026367188
0.0875,23.828247070312,-7.7625732421875,-16.170776367188
0.088,22.386840820312,-4.1590576171875,-18.252807617188
0.0885,20.304809570312,1.1260986328125,-21.495971679688
0.089,17.782348632812,5.4903564453125,-23.377807617188
0.0895,13.858520507812,10.174926757812,-24.178588867188
0.09,10.375122070312,13.738403320312,-24.218627929688
0.0905,5.4102783203125,17.221801757812,-22.817260742188
0.091,1.4464111328125,19.423950195312,-21.175659179688
0.0915,-3.3182373046875,21.786254882812,-18.933471679688
0.092,-8.1629638671875,23.868286132812,-16.210815429688
0.0925,-12.206909179688,23.227661132812,-11.526245117188
0.093,-15.810424804688,23.668090820312,-8.3631591796875
0.0935,-18.533081054688,22.106567382812,-4.1590576171875
0.094,-21.255737304688,20.464965820312,0.4053955078125
0.0945,-22.617065429688,17.982543945312,4.2891845703125
0.095,-23.898315429688,14.659301757812,8.9337158203125
0.0955,-23.337768554688,10.535278320312,12.377075195312
0.096,-22.897338867188,6.4112548828125,16.140747070312
0.0965,-21.415893554688,2.8477783203125,18.102661132812
0.097,-19.574096679688,-2.0770263671875,21.145629882812
0.0975,-16.931518554688,-6.5614013671875,22.987426757812
0.098,-12.727416992188,-10.845581054688,23.147583007812
0.0985,-9.6444091796875,-14.168823242188,23.467895507812
0.099,-4.5194091796875,-17.331909179688,21.626098632812
0.0995,-0.1151123046875,-19.774291992188,19.784301757812
0.1,4.0489501953125,-21.776245117188,17.742309570312
0.1005,9.0938720703125,-23.698120117188,14.659301757812
0.101,12.777465820312,-22.777221679688,10.094848632812
0.1015,16.501098632812,-23.137573242188,6.6915283203125
0.102,18.903442382812,-21.455932617188,2.6075439453125
0.1025,21.786254882812,-19.694213867188,-2.1170654296875
0.103,22.907348632812,-17.011596679688,-5.9207763671875
0.1035,23.708129882812,-13.328002929688,-10.445190429688
0.104,23.307739257812,-9.7645263671875,-13.608276367188
0.1045,22.386840820312,-5.2801513671875,-17.211791992188
0.105,20.625122070312,-1.3563232421875,-19.293823242188
0.1055,18.823364257812,3.2481689453125,-22.136596679688
0.106,15.580200195312,8.1729736328125,-23.778198242188
0.1065,10.855590820312,12.296997070312,-23.297729492188
0.107,7.8927001953125,15.580200195312,-23.658081054688
0.1075,2.6876220703125,18.422973632812,-21.415893554688
0.108,-1.9569091796875,21.065551757812,-19.494018554688
0.1085,-5.9608154296875,22.546997070312,-17.051635742188
0.109,-11.125854492188,24.148559570312,-13.528198242188
0.1095,-14.569213867188,23.027465820312,-9.0438232421875
0.11,-18.172729492188,23.027465820312,-5.3201904296875
0.1105,-20.294799804688,20.945434570312,-1.1160888671875
0.111,-23.017456054688,19.103637695312,3.5284423828125
0.1115,-23.537963867188,15.620239257812,7.5323486328125
0.112,-24.058471679688,11.496215820312,12.176879882812
0.1125,-23.618041992188,8.0128173828125,15.099731445312
0.113,-22.096557617188,3.1280517578125,18.543090820312
0.1135,-20.054565429688,-1.2362060546875,20.785278320312
0.114,-18.012573242188,-5.5203857421875,23.067504882812
0.1145,-14.449096679688,-10.285034179688,24.388793945312
0.115,-9.4842529296875,-14.168823242188,23.347778320312
0.1155,-6.2410888671875,-17.291870117188,23.227661132812
0.116,-0.5955810546875,-20.014526367188,20.464965820312
0.1165,4.0889892578125,-22.617065429688,18.543090820312
0.117,8.1729736328125,-23.377807617188,15.219848632812
0.1175,12.937622070312,-24.619018554688,11.776489257812
0.118,16.260864257812,-23.377807617188,7.2120361328125
0.1185,19.784301757812,-22.777221679688,3.0079345703125
0.119,21.866333007812,-20.254760742188,-1.6365966796875
0.1195,24.308715820312,-18.412963867188,-5.9608154296875
0.12,24.228637695312,-14.409057617188,-9.9246826171875
0.1205,24.268676757812,-10.204956054688,-14.248901367188
0.121,23.748168945312,-6.9217529296875,-16.971557617188
0.1215,21.586059570312,-1.4364013671875,-20.254760742188
0.122,19.423950195312,3.0079345703125,-22.456909179688
0.1225,16.541137695312,7.4923095703125,-24.058471679688
0.123,12.817504882812,12.056762695312,-25.019409179688
0.1235,7.6925048828125,15.740356445312,-23.658081054688
0.124,4.1290283203125,18.623168945312,-23.057495117188
0.1245,-1.3563232421875,21.065551757812,-20.134643554688
0.125,-5.8406982421875,23.668090820312,-18.332885742188
0.1255,-10.204956054688,23.708129882812,-14.088745117188
0.126,-14.529174804688,24.508911132812,-10.565307617188
0.1265,-17.612182617188,23.347778320312,-6.2811279296875
0.127,-20.735229492188,22.026489257812,-1.7967529296875
0.1275,-22.496948242188,19.463989257812,2.6475830078125
0.128,-24.458862304688,17.021606445312,7.0518798828125
0.1285,-24.218627929688,12.817504882812,10.975708007812
0.129,-23.818237304688,8.3331298828125,15.059692382812
0.1295,-23.217651367188,5.2501220703125,17.502075195312
0.13,-20.815307617188,-0.2752685546875,20.585083007812
0.1305,-18.893432617188,-4.5194091796875,22.907348632812
0.131,-15.249877929688,-8.8436279296875,23.708129882812
0.1315,-11.846557617188,-13.087768554688,24.548950195312
0.132,-6.8016357421875,-16.491088867188,23.027465820312
0.1325,-2.6375732421875,-19.213745117188,21.706176757812
0.133,2.4073486328125,-21.415893554688,18.943481445312
0.1335,7.0518798828125,-23.978393554688,16.981567382812
0.134,11.215942382812,-23.578002929688,12.497192382812
0.1345,15.259887695312,-24.058471679688,8.9337158203125
0.135,18.142700195312,-23.017456054688,4.9698486328125
0.1355,21.185668945312,-21.295776367188,0.1251220703125
0.136,22.947387695312,-18.893432617188,-4.1190185546875
0.1365,24.348754882812,-16.010620117188,-8.4832763671875
0.137,24.188598632812,-12.046752929688,-12.327026367188
0.1375,23.547973632812,-7.5223388671875,-16.170776367188
0.138,22.546997070312,-4.1990966796875,-18.372924804688
0.1385,20.104614257812,1.2462158203125,-21.335815429688
0.139,17.942504882812,5.8106689453125,-23.778198242188
0.1395,13.578247070312,10.214965820312,-23.858276367188
0.14,10.255004882812,14.138793945312,-24.538940429688
0.1405,5.4102783203125,17.341918945312,-23.017456054688
0.141,0.9259033203125,20.064575195312,-21.295776367188
0.1415,-3.7186279296875,22.026489257812,-18.773315429688
0.142,-8.7235107421875,24.308715820312,-16.050659179688
0.1425,-12.727416992188,23.668090820312,-11.526245117188
0.143,-16.611206054688,23.868286132812,-7.7625732421875
0.1435,-19.053588867188,22.546997070312,-3.9989013671875
0.144,-22.016479492188,20.545043945312,1.0860595703125
0.1445,-23.457885742188,17.902465820312,5.1700439453125
0.145,-24.258666992188,14.138793945312,9.6944580078125
0.1455,-24.258666992188,10.495239257812,13.338012695312
0.146,-23.217651367188,5.8106689453125,16.981567382812
0.1465,-21.776245117188,2.2071533203125,19.223754882812
0.147,-19.534057617188,-2.8778076171875,21.906372070312
0.1475,-16.971557617188,-7.6424560546875,24.188598632812
0.148,-12.246948242188,-11.806518554688,23.668090820312
0.1485,-9.0037841796875,-15.410034179688,24.148559570312
0.149,-3.9588623046875,-18.252807617188,22.026489257812
0.1495,1.0059814453125,-21.055541992188,19.984497070312
0.15,5.1300048828125,-22.737182617188,17.622192382812
0.1505,10.335083007812,-24.538940429688,14.258911132812
0.151,13.858520507812,-23.698120117188,9.9346923828125
0.1515,17.782348632812,-23.618041992188,5.8907470703125
0.152,19.984497070312,-21.936401367188,1.9268798828125
0.1525,22.827270507812,-19.854370117188,-3.0780029296875
0.153,24.068481445312,-17.051635742188,-7.2020263671875
0.1535,24.268676757812,-12.847534179688,-11.526245117188
0.154,24.268676757812,-9.5643310546875,-14.769409179688
0.1545,22.747192382812,-4.6395263671875,-18.132690429688
0.155,20.905395507812,-0.5155029296875,-20.494995117188
0.1555,18.743286132812,4.0889892578125,-22.777221679688
0.156,15.580200195312,9.2139892578125,-24.819213867188
0.1565,10.575317382812,13.097778320312,-23.778198242188
0.157,7.3321533203125,16.621215820312,-24.138549804688
0.1575,2.2872314453125,19.103637695312,-21.696166992188
0.158,-2.7176513671875,21.906372070312,-19.694213867188
0.1585,-6.7215576171875,23.187622070312,-16.971557617188
0.159,-11.886596679688,24.508911132812,-13.167846679688
0.1595,-15.169799804688,23.708129882812,-9.1239013671875
0.16,-18.933471679688,23.187622070312,-4.7996826171875
0.1605,-20.815307617188,21.145629882812,-0.8358154296875
0.161,-23.257690429688,19.063598632812,3.8087158203125
0.1615,-24.218627929688,15.660278320312,8.1329345703125
0.162,-23.978393554688,11.135864257812,12.457153320312
0.1625,-24.058471679688,8.0528564453125,15.660278320312
0.163,-22.096557617188,3.0479736328125,18.663208007812
0.1635,-20.214721679688,-1.3963623046875,21.225708007812
0.164,-17.852416992188,-5.6004638671875,22.987426757812
0.1645,-14.529174804688,-10.605346679688,24.709106445312
0.165,-9.5643310546875,-14.128784179688,23.387817382812
0.1655,-5.8406982421875,-17.612182617188,23.267700195312
0.166,-0.7957763671875,-19.814331054688,20.505004882812
0.1665,4.0089111328125,-22.617065429688,18.623168945312
0.167,8.2530517578125,-23.417846679688,15.219848632812
0.1675,12.977661132812,-24.298706054688,11.376098632812
0.168,16.140747070312,-23.698120117188,7.6524658203125
0.1685,19.704223632812,-22.617065429688,2.8878173828125
0.169,21.706176757812,-20.374877929688,-1.4364013671875
0.1695,23.748168945312,-18.332885742188,-5.6004638671875
0.17,24.428833007812,-14.609252929688,-9.9647216796875
0.1705,23.748168945312,-9.9246826171875,-13.928588867188
0.171,23.828247070312,-6.9617919921875,-16.931518554688
0.1715,21.305786132812,-1.6766357421875,-19.734252929688
0.172,19.504028320312,2.8477783203125,-22.416870117188
0.1725,16.380981445312,7.0919189453125,-23.497924804688
0.173,12.777465820312,12.016723632812,-24.859252929688
0.1735,8.0128173828125,15.380004882812,-23.578002929688
0.174,3.9688720703125,18.583129882812,-22.817260742188
0.1745,-0.9959716796875,20.625122070312,-20.014526367188
0.175,-5.5604248046875,23.387817382812,-18.292846679688
0.1755,-9.9647216796875,23.668090820312,-14.208862304688
0.176,-14.409057617188,24.028442382812,-10.164916992188
0.1765,-17.331909179688,23.507934570312,-6.8016357421875
0.177,-20.454956054688,21.786254882812,-1.9168701171875
0.1775,-22.336791992188,19.423950195312,2.4473876953125
0.178,-23.778198242188,16.821411132812,6.5714111328125
