wavelength,x,y,z
0.0,-1.3162841796875,19.023559570312,-17.972534179688
0.0005,-5.7606201171875,22.346801757812,-17.011596679688
0.001,-10.244995117188,22.747192382812,-13.007690429688
0.0015,-13.648315429688,23.547973632812,-10.445190429688
0.002,-15.890502929688,21.826293945312,-6.6014404296875
0.0025,-18.533081054688,19.944458007812,-1.9969482421875
0.003,-20.855346679688,18.262817382812,2.0469970703125
0.0035,-22.777221679688,15.339965820312,7.0518798828125
0.004,-23.457885742188,12.657348632812,10.415161132812
0.0045,-22.416870117188,7.6925048828125,14.338989257812
0.005,-20.975463867188,4.8497314453125,15.820434570312
0.0055,-18.453002929688,-0.6356201171875,18.703247070312
0.006,-17.291870117188,-5.1600341796875,22.106567382812
0.0065,-13.167846679688,-10.084838867188,22.907348632812
0.007,-11.406127929688,-13.207885742188,24.268676757812
0.0075,-5.9207763671875,-15.970581054688,21.505981445312
0.008,-1.7567138671875,-18.172729492188,19.704223632812
0.0085,3.0479736328125,-20.655151367188,17.421997070312
0.009,8.2530517578125,-23.698120117188,15.420043945312
0.0095,11.856567382812,-23.858276367188,11.976684570312
0.01,15.660278320312,-23.417846679688,7.8927001953125
0.0105,17.181762695312,-21.776245117188,4.7296142578125
0.011,20.224731445312,-19.614135742188,-0.5955810546875
0.0115,22.426879882812,-17.892456054688,-4.5594482421875
0.012,23.628051757812,-13.968627929688,-9.6844482421875
0.0125,24.268676757812,-11.766479492188,-12.607299804688
0.013,22.146606445312,-6.2811279296875,-16.090698242188
0.0135,20.424926757812,-2.8778076171875,-17.732299804688
0.014,18.222778320312,2.3673095703125,-20.655151367188
0.0145,16.180786132812,7.6524658203125,-23.978393554688
0.015,12.136840820312,11.816528320312,-24.098510742188
0.0155,9.2540283203125,15.139770507812,-24.538940429688
0.016,4.2891845703125,17.181762695312,-21.696166992188
0.0165,-0.7557373046875,19.864379882812,-19.453979492188
0.017,-4.9598388671875,22.106567382812,-17.652221679688
0.0175,-10.725463867188,24.588989257812,-14.369018554688
0.018,-13.408081054688,24.468872070312,-11.606323242188
0.0185,-17.291870117188,23.187622070312,-6.4813232421875
0.019,-18.573120117188,21.385864257812,-3.3182373046875
0.0195,-21.616088867188,19.263793945312,1.9268798828125
0.02,-23.658081054688,16.781372070312,6.4112548828125
0.0205,-24.138549804688,12.657348632812,11.135864257812
0.021,-24.538940429688,9.9747314453125,14.218872070312
0.0215,-21.936401367188,4.8096923828125,16.781372070312
0.022,-19.894409179688,0.6456298828125,18.903442382812
0.0225,-18.052612304688,-3.9989013671875,21.706176757812
0.023,-15.209838867188,-9.6844482421875,24.629028320312
0.0235,-11.606323242188,-12.967651367188,24.228637695312
0.024,-7.4822998046875,-16.451049804688,23.628051757812
0.0245,-3.0379638671875,-18.052612304688,20.785278320312
0.025,2.4874267578125,-21.135620117188,18.543090820312
0.0255,6.4913330078125,-23.137573242188,16.581176757812
0.026,12.096801757812,-24.939331054688,12.897583007812
0.0265,14.659301757812,-24.498901367188,9.9346923828125
0.027,17.902465820312,-22.697143554688,4.9298095703125
0.0275,19.544067382812,-20.655151367188,1.1661376953125
0.028,22.426879882812,-19.053588867188,-3.3582763671875
0.0285,24.148559570312,-15.850463867188,-8.3631591796875
0.029,24.148559570312,-12.126831054688,-12.126831054688
0.0295,23.948364257812,-8.6434326171875,-15.450073242188
0.03,21.105590820312,-3.8387451171875,-17.452026367188
0.0305,19.143676757812,0.9659423828125,-20.214721679688
0.031,17.261840820312,5.3702392578125,-22.777221679688
0.0315,14.018676757812,11.055786132812,-25.139526367188
0.032,10.535278320312,13.818481445312,-24.498901367188
0.0325,5.7305908203125,17.101684570312,-23.017456054688
0.033,1.4464111328125,18.623168945312,-20.294799804688
0.0335,-3.8387451171875,21.946411132812,-18.573120117188
0.034,-8.3231201171875,23.668090820312,-15.810424804688
0.0345,-12.967651367188,25.069458007812,-12.607299804688
0.035,-15.770385742188,24.108520507812,-8.9237060546875
0.0355,-18.453002929688,22.106567382812,-4.2791748046875
0.036,-20.535034179688,19.944458007812,0.1251220703125
0.0365,-23.177612304688,18.382934570312,4.3692626953125
0.037,-24.659057617188,14.579223632812,9.6944580078125
0.0375,-24.338745117188,10.855590820312,13.097778320312
0.038,-23.537963867188,7.0518798828125,16.180786132812
0.0385,-20.655151367188,2.1671142578125,18.182739257812
0.039,-19.093627929688,-2.7176513671875,21.425903320312
0.0395,-16.370971679688,-7.4022216796875,23.427856445312
0.04,-13.368041992188,-12.487182617188,25.549926757812
0.0405,-9.0438232421875,-15.530151367188,24.188598632812
0.041,-4.3592529296875,-18.292846679688,22.346801757812
0.0415,0.6456298828125,-20.134643554688,19.263793945312
0.042,5.4102783203125,-23.457885742188,18.062622070312
0.0425,10.535278320312,-24.538940429688,14.018676757812
0.043,14.338989257812,-25.379760742188,11.175903320312
0.0435,17.181762695312,-23.938354492188,6.8917236328125
0.044,19.744262695312,-21.736206054688,2.0469970703125
0.0445,22.106567382812,-19.614135742188,-2.4774169921875
0.045,24.268676757812,-17.331909179688,-6.9217529296875
0.0455,25.469848632812,-13.728393554688,-11.806518554688
0.046,24.428833007812,-9.3240966796875,-15.249877929688
0.0465,23.067504882812,-5.6405029296875,-17.652221679688
0.047,19.944458007812,-0.1551513671875,-19.974487304688
0.0475,18.703247070312,4.7296142578125,-23.578002929688
0.048,14.739379882812,9.8946533203125,-24.739135742188
0.0485,12.296997070312,13.938598632812,-26.460815429688
0.049,7.0518798828125,16.941528320312,-24.218627929688
0.0495,2.4073486328125,19.383911132812,-22.096557617188
0.05,-2.9979248046875,21.746215820312,-19.093627929688
0.0505,-7.8426513671875,24.989379882812,-17.652221679688
0.051,-12.767456054688,25.589965820312,-13.368041992188
0.0515,-16.290893554688,25.509887695312,-9.8045654296875
0.052,-18.412963867188,23.748168945312,-6.0408935546875
0.0525,-21.175659179688,21.105590820312,-0.5155029296875
0.053,-23.778198242188,19.223754882812,4.0889892578125
0.0535,-25.099487304688,15.620239257812,9.0538330078125
0.054,-26.220581054688,12.817504882812,13.057739257812
0.0545,-24.218627929688,7.2520751953125,16.661254882812
0.055,-22.617065429688,3.7686767578125,18.543090820312
0.0555,-19.494018554688,-1.9969482421875,21.145629882812
0.056,-18.212768554688,-7.0018310546875,24.829223632812
0.0565,-13.448120117188,-12.046752929688,25.149536132812
0.057,-11.045776367188,-15.570190429688,26.230590820312
0.0575,-5.7205810546875,-17.972534179688,23.307739257812
0.058,-0.5555419921875,-20.494995117188,20.825317382812
0.0585,4.5294189453125,-22.777221679688,18.222778320312
0.059,9.9346923828125,-25.660034179688,15.780395507812
0.0595,13.818481445312,-26.100463867188,12.417114257812
0.06,17.622192382812,-24.859252929688,7.3721923828125
0.0605,19.143676757812,-23.337768554688,4.3292236328125
0.061,22.146606445312,-20.535034179688,-1.5565185546875
0.0615,24.789184570312,-18.733276367188,-6.0408935546875
0.062,25.229614257812,-14.248901367188,-11.045776367188
0.0625,26.310668945312,-12.006713867188,-14.409057617188
0.063,23.547973632812,-6.2410888671875,-17.452026367188
0.0635,21.586059570312,-2.1971435546875,-19.534057617188
0.064,18.903442382812,3.1680908203125,-22.136596679688
0.0645,16.941528320312,8.6534423828125,-25.780151367188
0.065,12.577270507812,12.937622070312,-25.660034179688
0.0655,9.0538330078125,16.501098632812,-25.780151367188
0.066,4.6094970703125,18.182739257812,-22.937377929688
0.0665,-1.3162841796875,21.225708007812,-20.214721679688
0.067,-5.8006591796875,23.668090820312,-18.252807617188
0.0675,-11.646362304688,25.790161132812,-14.609252929688
0.068,-14.529174804688,26.270629882812,-12.367065429688
0.0685,-18.212768554688,24.028442382812,-6.4012451171875
0.069,-19.614135742188,22.426879882812,-3.3983154296875
0.0695,-22.617065429688,19.904418945312,2.2071533203125
0.07,-25.339721679688,17.662231445312,7.2120361328125
0.0705,-25.179565429688,12.977661132812,11.816528320312
0.071,-25.940307617188,10.255004882812,15.380004882812
0.0715,-22.937377929688,5.1700439453125,17.421997070312
0.072,-20.815307617188,0.3653564453125,20.104614257812
0.0725,-18.653198242188,-4.5194091796875,22.747192382812
0.073,-15.730346679688,-10.525268554688,25.910278320312
0.0735,-12.206909179688,-13.808471679688,25.630004882812
0.074,-7.3221435546875,-17.452026367188,24.468872070312
0.0745,-3.4783935546875,-18.613159179688,21.866333007812
0.075,2.7677001953125,-22.096557617188,19.223754882812
0.0755,7.3321533203125,-24.538940429688,17.261840820312
0.076,12.977661132812,-25.820190429688,12.897583007812
0.0765,15.660278320312,-26.100463867188,10.535278320312
0.077,18.743286132812,-23.457885742188,4.8497314453125
0.0775,20.665161132812,-21.536010742188,0.9659423828125
0.078,23.427856445312,-19.574096679688,-3.7987060546875
0.0785,25.910278320312,-16.491088867188,-9.4442138671875
0.079,25.349731445312,-12.246948242188,-13.087768554688
0.0795,25.229614257812,-8.6434326171875,-16.691284179688
0.08,22.146606445312,-3.9989013671875,-18.252807617188
0.0805,20.024536132812,1.4063720703125,-21.576049804688
0.081,17.902465820312,6.0909423828125,-24.178588867188
0.0815,14.218872070312,12.176879882812,-26.580932617188
0.082,11.015747070312,15.019653320312,-26.180541992188
0.0825,5.4503173828125,18.463012695312,-24.058471679688
0.083,1.4063720703125,19.824340820312,-21.455932617188
0.0835,-4.4793701171875,23.307739257812,-19.213745117188
0.084,-9.5242919921875,25.509887695312,-16.451049804688
0.0845,-14.288940429688,26.270629882812,-12.527221679688
0.085,-17.171752929688,25.750122070312,-9.1239013671875
0.0855,-19.694213867188,23.107543945312,-3.9989013671875
0.086,-22.136596679688,20.865356445312,0.8057861328125
0.0865,-24.659057617188,18.943481445312,5.2100830078125
0.087,-26.620971679688,15.019653320312,11.215942382812
0.0875,-25.820190429688,11.015747070312,14.419067382812
0.088,-24.819213867188,6.6915283203125,17.782348632812
0.0885,-21.736206054688,1.9669189453125,19.383911132812
0.089,-19.854370117188,-3.5584716796875,23.067504882812
0.0895,-16.971557617188,-8.6033935546875,25.149536132812
0.09,-13.408081054688,-13.968627929688,27.031372070312
0.0905,-9.4442138671875,-16.771362304688,25.910278320312
0.091,-3.8787841796875,-19.614135742188,23.267700195312
0.0915,1.1260986328125,-21.415893554688,20.184692382812
0.092,6.2911376953125,-24.859252929688,18.543090820312
0.0925,11.896606445312,-26.420776367188,14.579223632812
0.093,15.740356445312,-26.620971679688,11.015747070312
0.0935,18.623168945312,-25.339721679688,6.8516845703125
0.094,21.065551757812,-22.577026367188,1.7266845703125
0.0945,23.708129882812,-20.374877929688,-3.3182373046875
0.095,25.589965820312,-17.812377929688,-7.7625732421875
0.0955,27.151489257812,-14.008666992188,-13.207885742188
0.096,25.710083007812,-9.4442138671875,-16.411010742188
0.0965,24.028442382812,-5.2401123046875,-19.013549804688
0.097,20.785278320312,0.0450439453125,-20.935424804688
0.0975,19.263793945312,5.3302001953125,-24.859252929688
0.098,15.259887695312,10.655395507812,-26.020385742188
0.0985,12.176879882812,15.059692382812,-27.421752929688
0.099,7.3721923828125,17.902465820312,-25.419799804688
0.0995,2.0469970703125,20.424926757812,-22.697143554688
0.1,-3.2381591796875,22.587036132812,-19.694213867188
0.1005,-8.1629638671875,25.710083007812,-18.012573242188
0.101,-13.528198242188,26.831176757812,-13.808471679688
0.1015,-16.971557617188,26.190551757812,-9.7645263671875
0.102,-19.213745117188,24.629028320312,-6.1209716796875
0.1025,-21.736206054688,21.706176757812,-0.5555419921875
0.103,-24.538940429688,19.864379882812,4.2891845703125
0.1035,-25.619995117188,16.100708007812,9.0938720703125
0.104,-27.061401367188,12.977661132812,13.698364257812
0.1045,-24.979370117188,7.6524658203125,16.941528320312
0.105,-23.217651367188,3.6885986328125,19.223754882812
0.1055,-20.054565429688,-1.7166748046875,21.385864257812
0.106,-18.733276367188,-6.8817138671875,25.269653320312
0.1065,-14.168823242188,-12.046752929688,25.910278320312
0.107,-11.005737304688,-15.890502929688,26.590942382812
0.1075,-6.3612060546875,-18.092651367188,24.148559570312
0.108,-0.7957763671875,-20.695190429688,21.265747070312
0.1085,4.3292236328125,-23.137573242188,18.783325195312
0.109,9.6143798828125,-25.700073242188,16.140747070312
0.1095,14.058715820312,-26.901245117188,12.977661132812
0.11,17.622192382812,-25.139526367188,7.6925048828125
0.1105,19.303833007812,-23.778198242188,4.6094970703125
0.111,22.106567382812,-20.895385742188,-1.1561279296875
0.1115,25.229614257812,-19.373901367188,-5.8406982421875
0.112,25.469848632812,-14.809448242188,-10.725463867188
0.1125,26.751098632812,-12.246948242188,-14.689331054688
0.113,24.188598632812,-6.9217529296875,-17.452026367188
0.1135,22.066528320312,-2.4373779296875,-19.894409179688
0.114,19.383911132812,2.8077392578125,-22.296752929688
0.1145,17.341918945312,8.4532470703125,-25.980346679688
0.115,13.257934570312,13.057739257812,-26.420776367188
0.1155,9.0538330078125,16.901489257812,-26.100463867188
0.116,5.0899658203125,18.463012695312,-23.738159179688
0.1165,-1.0760498046875,21.505981445312,-20.735229492188
0.117,-5.9207763671875,24.268676757812,-18.773315429688
0.1175,-11.686401367188,26.070434570312,-14.849487304688
0.118,-15.009643554688,27.191528320312,-12.727416992188
0.1185,-18.573120117188,24.588989257812,-6.6815185546875
0.119,-20.254760742188,23.067504882812,-3.3983154296875
0.1195,-23.137573242188,20.384887695312,2.2471923828125
0.12,-26.260620117188,18.222778320312,7.6124267578125
0.1205,-25.940307617188,13.297973632812,12.216918945312
0.121,-26.741088867188,10.174926757812,16.140747070312
0.1215,-23.818237304688,5.3302001953125,18.102661132812
0.122,-21.415893554688,0.0850830078125,21.065551757812
0.1225,-19.093627929688,-4.9197998046875,23.668090820312
0.123,-16.010620117188,-11.085815429688,26.711059570312
0.1235,-12.527221679688,-14.609252929688,26.871215820312
0.124,-7.0819091796875,-18.453002929688,25.229614257812
0.1245,-3.3582763671875,-19.654174804688,22.787231445312
0.125,3.1680908203125,-23.057495117188,19.784301757812
0.1255,8.1729736328125,-25.780151367188,17.662231445312
0.126,13.898559570312,-26.741088867188,12.937622070312
0.1265,16.821411132812,-27.301635742188,10.575317382812
0.127,19.864379882812,-24.338745117188,4.6495361328125
0.1275,22.026489257812,-22.296752929688,0.3653564453125
0.128,24.548950195312,-19.974487304688,-4.5194091796875
0.1285,27.191528320312,-16.811401367188,-10.485229492188
0.129,26.390747070312,-12.367065429688,-14.128784179688
0.1295,26.230590820312,-8.3231201171875,-18.092651367188
0.13,23.067504882812,-3.8387451171875,-19.453979492188
0.1305,20.625122070312,2.0469970703125,-22.777221679688
0.131,18.182739257812,7.0518798828125,-25.299682617188
0.1315,14.138793945312,13.177856445312,-27.501831054688
0.132,11.135864257812,16.060668945312,-27.381713867188
0.1325,5.0499267578125,19.544067382812,-24.739135742188
0.133,1.0460205078125,20.825317382812,-22.096557617188
0.1335,-4.9998779296875,24.228637695312,-19.614135742188
0.134,-10.445190429688,26.671020507812,-16.691284179688
0.1345,-15.169799804688,26.991333007812,-12.367065429688
0.135,-18.252807617188,26.751098632812,-9.0438232421875
0.1355,-20.535034179688,23.748168945312,-3.8387451171875
0.136,-23.097534179688,21.425903320312,1.2061767578125
0.1365,-25.339721679688,19.183715820312,5.6505126953125
0.137,-27.421752929688,15.099731445312,11.816528320312
0.1375,-26.540893554688,11.055786132812,15.059692382812
0.138,-25.379760742188,6.4512939453125,18.623168945312
0.1385,-22.296752929688,2.0870361328125,19.864379882812
0.139,-20.174682617188,-3.6785888671875,23.507934570312
0.1395,-17.211791992188,-8.8836669921875,25.750122070312
0.14,-13.207885742188,-14.288940429688,27.191528320312
0.1405,-9.6844482421875,-17.171752929688,26.550903320312
0.141,-3.8787841796875,-19.854370117188,23.467895507812
0.1415,0.8858642578125,-21.576049804688,20.585083007812
0.142,6.0108642578125,-24.739135742188,18.743286132812
0.1425,12.016723632812,-26.781127929688,14.859497070312
0.143,15.620239257812,-26.620971679688,11.095825195312
0.1435,18.703247070312,-25.579956054688,7.0518798828125
0.144,20.705200195312,-22.737182617188,2.2071533203125
0.1445,23.628051757812,-20.735229492188,-2.8778076171875
0.145,25.349731445312,-18.092651367188,-7.3221435546875
0.1455,26.951293945312,-14.128784179688,-12.967651367188
0.146,25.830200195312,-9.9647216796875,-15.970581054688
0.1465,23.948364257812,-5.3201904296875,-18.733276367188
0.147,20.945434570312,-0.7957763671875,-20.254760742188
0.1475,19.463989257812,4.6094970703125,-24.138549804688
0.148,15.620239257812,10.134887695312,-25.900268554688
0.1485,12.176879882812,14.499145507812,-26.781127929688
0.149,8.0928955078125,17.421997070312,-25.619995117188
0.1495,2.6876220703125,19.784301757812,-22.657104492188
0.15,-2.4373779296875,21.986450195312,-19.894409179688
0.1505,-7.0418701171875,24.749145507812,-18.132690429688
0.151,-12.887573242188,26.550903320312,-14.208862304688
0.1515,-16.050659179688,25.670043945312,-10.204956054688
0.152,-18.653198242188,24.508911132812,-6.4813232421875
0.1525,-20.775268554688,21.626098632812,-1.4364013671875
0.153,-23.858276367188,19.984497070312,3.4483642578125
0.1535,-24.939331054688,16.340942382812,8.1729736328125
0.154,-26.420776367188,13.057739257812,12.977661132812
0.1545,-24.899291992188,8.4532470703125,16.140747070312
0.155,-22.897338867188,4.0489501953125,18.543090820312
0.1555,-20.134643554688,-0.7557373046875,20.545043945312
0.156,-18.773315429688,-5.8807373046875,24.308715820312
0.1565,-14.609252929688,-11.366088867188,25.670043945312
0.157,-11.085815429688,-15.129760742188,25.910278320312
0.1575,-7.0018310546875,-17.492065429688,24.188598632812
0.158,-1.4364013671875,-19.894409179688,21.105590820312
0.1585,3.6085205078125,-22.577026367188,18.903442382812
0.159,8.5733642578125,-24.819213867188,16.300903320312
0.1595,13.418090820312,-26.620971679688,13.257934570312
0.16,16.861450195312,-24.819213867188,8.0928955078125
0.1605,18.983520507812,-23.698120117188,4.8096923828125
0.161,21.385864257812,-20.855346679688,-0.5955810546875
0.1615,24.588989257812,-19.494018554688,-5.2000732421875
0.162,24.949340820312,-14.969604492188,-10.044799804688
0.1625,26.150512695312,-12.046752929688,-14.168823242188
0.163,24.068481445312,-7.3621826171875,-16.851440429688
0.1635,21.706176757812,-2.5574951171875,-19.333862304688
0.164,19.263793945312,2.2872314453125,-21.696166992188
0.1645,17.221801757812,7.7725830078125,-25.059448242188
0.165,13.498168945312,12.497192382812,-26.180541992188
0.1655,9.0538330078125,16.220825195312,-25.379760742188
0.166,5.3702392578125,17.982543945312,-23.497924804688
0.1665,-0.6356201171875,20.705200195312,-20.374877929688
0.167,-5.4403076171875,23.748168945312,-18.733276367188
0.1675,-10.765502929688,25.109497070312,-14.769409179688
0.168,-14.449096679688,26.671020507812,-12.767456054688
0.1685,-17.612182617188,24.068481445312,-7.0018310546875
0.169,-19.694213867188,22.627075195312,-3.5184326171875
0.1695,-22.176635742188,19.944458007812,1.6466064453125
0.17,-25.259643554688,18.022583007812,6.8116455078125
0.1705,-25.139526367188,13.418090820312,11.296020507812
0.171,-25.700073242188,9.9346923828125,15.380004882812
0.1715,-23.417846679688,6.0108642578125,17.101684570312
0.172,-20.815307617188,0.5655517578125,19.984497070312
0.1725,-18.853393554688,-4.1190185546875,22.587036132812
0.173,-15.650268554688,-9.8045654296875,25.109497070312
0.1735,-12.887573242188,-13.568237304688,26.150512695312
0.174,-7.2821044921875,-17.131713867188,24.068481445312
0.1745,-3.8787841796875,-18.573120117188,22.226684570312
0.175,2.0469970703125,-21.335815429688,19.183715820312
0.1755,6.9718017578125,-24.498901367188,17.582153320312
0.176,12.136840820312,-24.939331054688,12.937622070312
0.1765,15.460083007812,-26.020385742188,10.615356445312
0.177,17.862426757812,-23.377807617188,5.6505126953125
0.1775,20.344848632812,-21.536010742188,1.2862548828125
0.178,22.546997070312,-19.373901367188,-3.1580810546875
