wavelength,x,y,z
0.0,-24.839233398438,5.7105712890625,18.883422851562
0.0005,-21.796264648438,0.1451416015625,21.445922851562
0.001,-19.874389648438,-4.7396240234375,24.368774414062
0.0015,-15.590209960938,-9.7445068359375,25.089477539062
0.002,-12.627319335938,-14.148803710938,26.530883789062
0.0025,-7.8226318359375,-17.391967773438,24.969360351562
0.003,-2.7376708984375,-20.474975585938,23.047485351562
0.0035,2.3472900390625,-22.396850585938,20.004516601562
0.004,7.7525634765625,-25.199584960938,17.522094726562
0.0045,12.477172851562,-25.599975585938,13.237915039062
0.005,16.641235351562,-25.479858398438,8.9937744140625
0.0055,19.243774414062,-24.839233398438,5.9107666015625
0.006,22.366821289062,-22.236694335938,0.0650634765625
0.0065,24.568969726562,-19.634155273438,-4.8197021484375
0.007,25.650024414062,-15.950561523438,-9.6644287109375
0.0075,26.610961914062,-12.867553710938,-13.788452148438
0.008,25.209594726562,-7.8226318359375,-17.472045898438
0.0085,24.168579101562,-4.2191162109375,-20.034545898438
0.009,21.005493164062,1.1861572265625,-22.476928710938
0.0095,18.763305664062,6.7115478515625,-25.559936523438
0.01,13.958618164062,11.596313476562,-25.599975585938
0.0105,10.875610351562,15.680297851562,-26.600952148438
0.011,6.4312744140625,18.322875976562,-24.839233398438
0.0115,0.8258056640625,21.405883789062,-22.436889648438
0.012,-3.9788818359375,23.207641601562,-19.514038085938
0.0125,-9.8646240234375,25.770141601562,-16.310913085938
0.013,-13.788452148438,25.930297851562,-12.627319335938
0.0135,-18.072631835938,25.289672851562,-7.7025146484375
0.014,-20.194702148438,24.128540039062,-4.4993896484375
0.0145,-23.037475585938,21.445922851562,1.1461181640625
0.015,-25.279663085938,18.643188476562,6.2310791015625
0.0155,-25.720092773438,14.238891601562,11.115844726562
0.016,-26.560913085938,11.436157226562,14.799438476562
0.0165,-24.799194335938,6.4312744140625,18.082641601562
0.017,-23.197631835938,2.3873291015625,20.725219726562
0.0175,-20.314819335938,-2.8577880859375,22.927368164062
0.018,-17.552124023438,-8.6634521484375,25.930297851562
0.0185,-12.987670898438,-12.827514648438,25.569946289062
0.019,-9.2239990234375,-16.791381835938,25.770141601562
0.0195,-5.0198974609375,-18.953491210938,23.768188476562
0.02,0.9058837890625,-22.036499023438,21.125610351562
0.0205,5.5904541015625,-23.838256835938,18.322875976562
0.021,11.396118164062,-25.640014648438,14.399047851562
0.0215,14.679321289062,-25.760131835938,11.276000976562
0.022,18.763305664062,-24.719116210938,6.1910400390625
0.0225,20.845336914062,-23.157592773438,2.5474853515625
0.023,23.407836914062,-20.474975585938,-2.7376708984375
0.0235,25.609985351562,-17.552124023438,-7.9827880859375
0.024,25.369750976562,-13.107788085938,-12.347045898438
0.0245,26.050415039062,-10.184936523438,-15.990600585938
0.025,23.968383789062,-5.7005615234375,-18.633178710938
0.0255,22.126586914062,-0.8958740234375,-21.395874023438
0.026,19.323852539062,3.9888916015625,-23.397827148438
0.0265,15.960571289062,9.9547119140625,-26.000366210938
0.027,11.996704101562,13.478149414062,-25.519897460938
0.0275,7.7525634765625,17.401977539062,-25.239624023438
0.028,3.8287353515625,19.163696289062,-23.077514648438
0.0285,-1.9368896484375,22.206665039062,-20.555053710938
0.029,-6.9017333984375,24.088500976562,-17.512084960938
0.0295,-12.347045898438,25.249633789062,-13.348022460938
0.03,-15.510131835938,25.329711914062,-10.305053710938
0.0305,-18.953491210938,23.968383789062,-5.5404052734375
0.031,-21.075561523438,22.126586914062,-1.6165771484375
0.0315,-23.357788085938,19.564086914062,3.3482666015625
0.032,-25.479858398438,16.240844726562,8.8736572265625
0.0325,-24.959350585938,11.956665039062,12.637329101562
0.033,-25.319702148438,8.8736572265625,16.360961914062
0.0335,-23.197631835938,4.3492431640625,18.603149414062
0.034,-21.275756835938,-0.5755615234375,21.646118164062
0.0345,-18.392944335938,-5.3402099609375,23.447875976562
0.035,-14.829467773438,-11.145874023438,25.690063476562
0.0355,-11.145874023438,-14.228881835938,25.129516601562
0.036,-6.5413818359375,-17.912475585938,24.208618164062
0.0365,-2.0570068359375,-19.794311523438,21.686157226562
0.037,3.1480712890625,-22.637084960938,19.484008789062
0.0375,8.4732666015625,-24.438842773438,16.000610351562
0.038,13.117797851562,-25.039428710938,12.076782226562
0.0385,16.521118164062,-25.159545898438,8.8336181640625
0.039,19.684204101562,-23.277709960938,3.8687744140625
0.0395,21.926391601562,-21.315795898438,-0.4954833984375
0.04,23.848266601562,-18.713256835938,-5.0599365234375
0.0405,25.730102539062,-15.189819335938,-10.545288085938
0.041,24.729125976562,-11.065795898438,-14.028686523438
0.0415,24.929321289062,-7.5423583984375,-17.512084960938
0.042,22.406860351562,-2.8177490234375,-19.674194335938
0.0425,20.525024414062,2.1470947265625,-22.757202148438
0.043,16.921508789062,7.1920166015625,-24.238647460938
0.0435,13.438110351562,12.477172851562,-25.960327148438
0.044,9.5142822265625,15.600219726562,-25.199584960938
0.0445,4.7496337890625,18.883422851562,-23.678100585938
0.045,0.1451416015625,20.725219726562,-21.075561523438
0.0455,-4.8197021484375,23.407836914062,-18.913452148438
0.046,-10.385131835938,24.889282226562,-14.909545898438
0.0465,-14.429077148438,24.849243164062,-10.905639648438
0.047,-17.672241210938,24.969360351562,-7.7825927734375
0.0475,-20.515014648438,22.486938476562,-2.4974365234375
0.048,-22.797241210938,20.364868164062,1.9869384765625
0.0485,-24.198608398438,17.281860351562,6.5513916015625
0.049,-25.960327148438,13.758422851562,11.836547851562
0.0495,-24.759155273438,9.3140869140625,15.159790039062
0.05,-24.358764648438,5.7906494140625,18.322875976562
0.0505,-21.596069335938,1.0260009765625,20.364868164062
0.051,-19.794311523438,-3.9388427734375,23.487915039062
0.0515,-15.710327148438,-9.0638427734375,24.488891601562
0.052,-12.266967773438,-13.588256835938,25.609985351562
0.0525,-8.3431396484375,-16.631225585938,24.769165039062
0.053,-2.9779052734375,-19.714233398438,22.486938476562
0.0535,1.7467041015625,-21.596069335938,19.844360351562
0.054,6.7115478515625,-23.998413085938,17.321899414062
0.0545,11.836547851562,-25.199584960938,13.518188476562
0.055,15.680297851562,-24.518920898438,8.9937744140625
0.0555,18.523071289062,-24.398803710938,6.1109619140625
0.056,21.125610351562,-21.716186523438,0.7457275390625
0.0565,23.608032226562,-19.554077148438,-3.9788818359375
0.057,24.328735351562,-15.910522460938,-8.4632568359375
0.0575,25.609985351562,-12.707397460938,-12.947631835938
0.058,24.368774414062,-8.3031005859375,-16.070678710938
0.0585,23.287719726562,-4.2991943359375,-19.073608398438
0.059,20.565063476562,0.3052978515625,-20.955444335938
0.0595,18.442993164062,5.4703369140625,-23.958374023438
0.06,14.238891601562,10.395141601562,-24.719116210938
0.0605,10.555297851562,14.439086914062,-25.039428710938
0.061,7.2320556640625,16.961547851562,-24.278686523438
0.0615,1.5865478515625,19.764282226562,-21.475952148438
0.062,-2.8177490234375,21.766235351562,-19.233764648438
0.0625,-7.9427490234375,23.567993164062,-15.990600585938
0.063,-12.347045898438,24.849243164062,-12.947631835938
0.0635,-16.030639648438,23.688110351562,-8.1829833984375
0.064,-18.513061523438,23.127563476562,-5.0999755859375
0.0645,-20.675170898438,20.484985351562,-0.3353271484375
0.065,-23.317749023438,18.402954101562,4.4693603515625
0.0655,-23.557983398438,14.359008789062,8.8736572265625
0.066,-24.639038085938,11.356079101562,13.037719726562
0.0665,-23.557983398438,7.6724853515625,15.640258789062
0.067,-21.916381835938,3.1480712890625,18.563110351562
0.0675,-19.674194335938,-1.0960693359375,20.484985351562
0.068,-17.191772460938,-6.2611083984375,23.207641601562
0.0685,-13.748413085938,-10.585327148438,24.048461914062
0.069,-9.4642333984375,-14.429077148438,23.648071289062
0.0695,-6.4212646484375,-16.631225585938,22.807250976562
0.07,-0.8958740234375,-19.273803710938,20.004516601562
0.0705,3.5484619140625,-21.716186523438,18.162719726562
0.071,8.5933837890625,-22.797241210938,14.278930664062
0.0715,12.317016601562,-24.198608398438,11.956665039062
0.072,15.840454101562,-23.077514648438,7.3922119140625
0.0725,18.483032226562,-22.036499023438,3.6685791015625
0.073,20.565063476562,-19.714233398438,-0.7757568359375
0.0735,23.207641601562,-17.472045898438,-5.6204833984375
0.074,23.207641601562,-13.508178710938,-9.6644287109375
0.0745,23.928344726562,-10.224975585938,-13.788452148438
0.075,22.967407226562,-7.1019287109375,-15.950561523438
0.0755,20.965454101562,-2.1370849609375,-18.953491210938
0.076,18.843383789062,2.2271728515625,-21.115600585938
0.0765,15.520141601562,7.5924072265625,-23.197631835938
0.077,12.797485351562,11.356079101562,-24.278686523438
0.0775,8.1529541015625,15.079711914062,-23.317749023438
0.078,4.9898681640625,17.121704101562,-22.156616210938
0.0785,-0.2952880859375,19.684204101562,-19.594116210938
0.079,-5.2200927734375,22.366821289062,-17.472045898438
0.0795,-9.9847412109375,22.887329101562,-13.267944335938
0.08,-13.668334960938,23.848266601562,-10.705444335938
0.0805,-16.511108398438,22.687133789062,-6.7015380859375
0.081,-19.193725585938,21.125610351562,-2.4974365234375
0.0815,-21.155639648438,18.803344726562,1.9468994140625
0.082,-23.517944335938,16.000610351562,7.1920166015625
0.0825,-23.437866210938,12.397094726562,10.755493164062
0.083,-23.638061523438,8.5533447265625,14.879516601562
0.0835,-22.436889648438,5.4703369140625,16.681274414062
0.084,-20.314819335938,0.3853759765625,19.724243164062
0.0845,-17.952514648438,-4.3392333984375,22.086547851562
0.085,-14.228881835938,-9.5042724609375,23.447875976562
0.0855,-11.666381835938,-12.867553710938,24.328735351562
0.086,-6.7415771484375,-16.270874023438,22.727172851562
0.0865,-2.7376708984375,-18.392944335938,20.885375976562
0.087,2.0269775390625,-20.675170898438,18.603149414062
0.0875,7.5123291015625,-23.317749023438,15.880493164062
0.088,11.476196289062,-23.237670898438,11.836547851562
0.0885,15.400024414062,-23.838256835938,8.6334228515625
0.089,17.682250976562,-22.276733398438,4.7095947265625
0.0895,20.484985351562,-20.434936523438,0.1051025390625
0.09,22.166625976562,-17.952514648438,-4.2191162109375
0.0905,23.968383789062,-14.509155273438,-9.3841552734375
0.091,23.768188476562,-11.306030273438,-12.507202148438
0.0915,23.247680664062,-7.1820068359375,-16.110717773438
0.092,21.566040039062,-3.8187255859375,-17.872436523438
0.0925,19.524047851562,1.1461181640625,-20.715209960938
0.093,16.601196289062,6.3511962890625,-22.997436523438
0.0935,12.677368164062,10.875610351562,-23.638061523438
0.094,9.9547119140625,14.118774414062,-24.158569335938
0.0945,5.3902587890625,16.761352539062,-22.236694335938
0.095,1.0260009765625,19.003540039062,-20.194702148438
0.0955,-3.3382568359375,21.045532226562,-17.992553710938
0.096,-8.9837646484375,23.287719726562,-14.749389648438
0.0965,-12.226928710938,22.887329101562,-11.145874023438
0.097,-15.990600585938,23.207641601562,-7.7025146484375
0.0975,-17.872436523438,21.325805664062,-3.9788818359375
0.098,-20.434936523438,19.484008789062,0.5855712890625
0.0985,-21.956420898438,16.721313476562,4.8697509765625
0.099,-23.117553710938,13.117797851562,9.6744384765625
0.0995,-23.277709960938,10.194946289062,12.797485351562
0.1,-22.196655273438,6.1510009765625,15.760375976562
0.1005,-20.474975585938,2.6676025390625,17.642211914062
0.101,-18.673217773438,-1.8568115234375,20.244750976562
0.1015,-15.710327148438,-7.1820068359375,22.647094726562
0.102,-12.066772460938,-10.825561523438,22.607055664062
0.1025,-9.1038818359375,-14.228881835938,23.087524414062
0.103,-4.6595458984375,-16.350952148438,20.805297851562
0.1035,-0.2552490234375,-18.913452148438,19.043579101562
0.104,3.9888916015625,-20.755249023438,16.681274414062
0.1045,9.2740478515625,-22.717163085938,13.478149414062
0.105,12.317016601562,-22.356811523438,10.114868164062
0.1055,15.720336914062,-22.276733398438,6.7115478515625
0.106,17.602172851562,-20.474975585938,3.1080322265625
0.1065,20.164672851562,-18.713256835938,-1.3363037109375
0.107,21.686157226562,-15.830444335938,-5.8206787109375
0.1075,22.366821289062,-12.467163085938,-9.9046630859375
0.108,22.767211914062,-9.6243896484375,-13.147827148438
0.1085,21.205688476562,-5.5804443359375,-15.750366210938
0.109,19.724243164062,-1.7767333984375,-17.992553710938
0.1095,17.642211914062,2.6676025390625,-20.354858398438
0.11,14.599243164062,7.9927978515625,-22.677124023438
0.1105,11.035766601562,11.276000976562,-22.396850585938
0.111,7.9127197265625,14.599243164062,-22.557006835938
0.1115,3.6285400390625,16.521118164062,-20.234741210938
0.112,-0.7757568359375,19.203735351562,-18.673217773438
0.1125,-5.3802490234375,20.805297851562,-15.750366210938
0.113,-10.024780273438,22.446899414062,-12.867553710938
0.1135,-13.267944335938,22.206665039062,-9.4241943359375
0.114,-16.270874023438,21.485961914062,-5.7406005859375
0.1145,-18.112670898438,19.684204101562,-2.0570068359375
0.115,-20.555053710938,17.802368164062,2.3472900390625
0.1155,-21.996459960938,14.599243164062,7.0718994140625
0.116,-22.156616210938,11.155883789062,10.755493164062
0.1165,-22.476928710938,8.4732666015625,13.798461914062
0.117,-20.515014648438,4.1090087890625,16.240844726562
0.1175,-19.113647460938,0.0250244140625,18.883422851562
0.118,-16.511108398438,-4.5794677734375,20.805297851562
0.1185,-13.708374023438,-9.4642333984375,22.927368164062
0.119,-9.7845458984375,-12.627319335938,22.166625976562
0.1195,-6.2611083984375,-15.670288085938,21.646118164062
0.12,-1.7767333984375,-17.632202148438,19.203735351562
0.1205,2.7076416015625,-20.434936523438,17.682250976562
0.121,7.4722900390625,-21.596069335938,14.118774414062
0.1215,11.516235351562,-22.597045898438,11.195922851562
0.122,14.599243164062,-22.436889648438,7.9527587890625
0.1225,17.482055664062,-20.875366210938,3.5484619140625
0.123,19.484008789062,-18.953491210938,-0.4554443359375
0.1235,21.445922851562,-16.711303710938,-4.6195068359375
0.124,22.647094726562,-13.548217773438,-9.1038818359375
0.1245,22.286743164062,-9.6243896484375,-12.667358398438
0.125,22.166625976562,-7.0218505859375,-15.269897460938
0.1255,19.844360351562,-2.4173583984375,-17.512084960938
0.126,18.362915039062,1.9468994140625,-20.354858398438
0.1265,14.879516601562,6.5914306640625,-21.556030273438
0.127,12.397094726562,10.835571289062,-23.237670898438
0.1275,8.4332275390625,13.878540039062,-22.396850585938
0.128,4.5093994140625,16.521118164062,-21.155639648438
0.1285,0.1451416015625,18.322875976562,-18.713256835938
0.129,-4.4993896484375,21.005493164062,-16.871459960938
0.1295,-9.1038818359375,21.966430664062,-13.307983398438
0.13,-12.867553710938,22.286743164062,-9.8245849609375
0.1305,-15.390014648438,22.126586914062,-7.2220458984375
0.131,-17.952514648438,20.124633789062,-2.6976318359375
0.1315,-20.034545898438,18.242797851562,1.4263916015625
0.132,-21.395874023438,15.319946289062,5.7105712890625
0.1325,-22.677124023438,12.637329101562,9.6744384765625
0.133,-21.916381835938,8.5533447265625,13.117797851562
0.1335,-21.475952148438,5.6304931640625,15.640258789062
0.134,-19.153686523438,1.2662353515625,17.642211914062
0.1345,-17.632202148438,-3.2581787109375,20.685180664062
0.135,-14.028686523438,-7.7425537109375,21.526000976562
0.1355,-11.346069335938,-11.546264648438,22.607055664062
0.136,-7.8626708984375,-14.268920898438,21.806274414062
0.1365,-3.1380615234375,-16.951538085938,19.844360351562
0.137,0.8658447265625,-18.793334960938,17.842407226562
0.1375,5.6304931640625,-21.035522460938,15.400024414062
0.138,9.5543212890625,-22.036499023438,12.557250976562
0.1385,13.438110351562,-21.756225585938,8.4732666015625
0.139,15.720336914062,-21.515991210938,5.9508056640625
0.1395,18.122680664062,-19.393920898438,1.4664306640625
0.14,20.565063476562,-17.632202148438,-2.8577880859375
0.1405,21.285766601562,-14.228881835938,-7.0618896484375
0.141,22.567016601562,-11.866577148438,-10.745483398438
0.1415,21.606079101562,-7.9827880859375,-13.668334960938
0.142,20.645141601562,-4.4193115234375,-16.350952148438
0.1425,18.603149414062,-0.3753662109375,-18.312866210938
0.143,16.521118164062,4.6295166015625,-21.195678710938
0.1435,13.117797851562,8.7135009765625,-21.916381835938
0.144,9.7945556640625,12.517211914062,-22.356811523438
0.1445,6.9117431640625,14.599243164062,-21.636108398438
0.145,1.9068603515625,17.321899414062,-19.353881835938
0.1455,-2.1370849609375,19.443969726562,-17.552124023438
0.146,-7.1419677734375,21.165649414062,-14.389038085938
0.1465,-10.585327148438,22.286743164062,-12.146850585938
0.147,-14.308959960938,21.646118164062,-7.8226318359375
0.1475,-16.591186523438,20.845336914062,-4.7796630859375
0.148,-18.713256835938,18.763305664062,-0.5755615234375
0.1485,-21.275756835938,16.721313476562,4.1490478515625
0.149,-21.515991210938,12.997680664062,8.1929931640625
0.1495,-22.557006835938,10.355102539062,11.916625976562
0.15,-21.556030273438,6.9517822265625,14.359008789062
0.1505,-20.074584960938,2.7076416015625,17.161743164062
0.151,-18.112670898438,-1.3363037109375,19.203735351562
0.1515,-15.390014648438,-6.5814208984375,21.766235351562
0.152,-12.507202148438,-10.104858398438,22.286743164062
0.1525,-8.3831787109375,-13.988647460938,22.086547851562
0.153,-5.1400146484375,-15.870483398438,20.805297851562
0.1535,-0.1751708984375,-18.553100585938,18.563110351562
0.154,4.3092041015625,-20.795288085938,16.481079101562
0.1545,9.0338134765625,-21.796264648438,12.837524414062
0.155,12.357055664062,-22.717163085938,10.475219726562
0.1555,15.640258789062,-21.716186523438,6.2711181640625
0.156,18.042602539062,-20.394897460938,2.5474853515625
0.1565,20.004516601562,-18.272827148438,-1.6165771484375
0.157,22.286743164062,-15.670288085938,-6.5814208984375
0.1575,22.166625976562,-12.106811523438,-10.024780273438
0.158,22.767211914062,-8.9437255859375,-13.948608398438
0.1585,21.325805664062,-5.4603271484375,-15.950561523438
0.159,19.564086914062,-0.8958740234375,-18.833374023438
0.1595,17.241821289062,3.5484619140625,-20.835327148438
0.16,13.958618164062,8.8336181640625,-22.757202148438
0.1605,11.235961914062,11.836547851562,-23.197631835938
0.161,6.7916259765625,15.400024414062,-22.316772460938
0.1615,3.1080322265625,17.281860351562,-20.474975585938
0.162,-1.5765380859375,19.684204101562,-18.392944335938
0.1625,-6.5413818359375,21.966430664062,-15.710327148438
0.163,-10.745483398438,22.366821289062,-12.026733398438
0.1635,-14.228881835938,22.927368164062,-9.2239990234375
0.164,-16.831420898438,21.445922851562,-5.0999755859375
0.1645,-19.193725585938,19.884399414062,-1.1361083984375
0.165,-20.995483398438,17.522094726562,3.0679931640625
0.1655,-22.917358398438,14.359008789062,8.2330322265625
0.166,-22.597045898438,11.035766601562,11.356079101562
0.1665,-22.717163085938,7.4722900390625,14.999633789062
0.167,-20.955444335938,3.9088134765625,16.801391601562
0.1675,-19.193725585938,-0.7757568359375,19.724243164062
0.168,-16.511108398438,-5.5804443359375,21.606079101562
0.1685,-12.987670898438,-10.224975585938,22.927368164062
0.169,-10.184936523438,-13.307983398438,23.207641601562
0.1695,-5.5003662109375,-16.350952148438,21.606079101562
0.17,-1.2962646484375,-18.392944335938,19.524047851562
0.1705,3.0679931640625,-20.635131835938,17.562133789062
0.171,8.3531494140625,-22.717163085938,14.399047851562
0.1715,11.836547851562,-22.557006835938,10.835571289062
0.172,15.520141601562,-23.037475585938,7.7125244140625
0.1725,17.962524414062,-21.075561523438,3.2681884765625
0.173,20.444946289062,-19.313842773438,-0.9759521484375
0.1735,21.806274414062,-16.751342773438,-4.9798583984375
0.174,23.367797851562,-13.428100585938,-9.9046630859375
0.1745,22.927368164062,-10.104858398438,-12.947631835938
0.175,22.486938476562,-6.3411865234375,-16.270874023438
0.1755,20.404907226562,-2.3773193359375,-18.112670898438
0.176,18.683227539062,2.2672119140625,-20.875366210938
0.1765,15.279907226562,7.2320556640625,-22.677124023438
0.177,11.876586914062,11.356079101562,-23.357788085938
0.1775,8.8336181640625,14.599243164062,-23.517944335938
0.178,3.9888916015625,17.321899414062,-21.435913085938
