wavelength,x,y,z
0.0,1.451416015625,5.135009765625,-5.755615234375
0.0005,2.612548828125,4.774658203125,-6.796630859375
0.001,4.053955078125,3.133056640625,-6.996826171875
0.0015,4.814697265625,1.771728515625,-6.836669921875
0.002,5.375244140625,0.770751953125,-6.396240234375
0.0025,5.495361328125,-0.310302734375,-5.955810546875
0.003,5.695556640625,-1.271240234375,-5.475341796875
0.0035,5.935791015625,-2.392333984375,-4.954833984375
0.004,5.575439453125,-3.713623046875,-3.393310546875
0.0045,4.774658203125,-4.834716796875,-1.711669921875
0.005,4.134033203125,-5.235107421875,-0.710693359375
0.0055,3.733642578125,-5.795654296875,0.170166015625
0.006,3.052978515625,-6.476318359375,1.251220703125
0.0065,1.571533203125,-6.636474609375,2.892822265625
0.007,0.250244140625,-6.676513671875,4.093994140625
0.0075,-0.870849609375,-6.115966796875,4.854736328125
0.008,-1.671630859375,-5.915771484375,5.535400390625
0.0085,-2.592529296875,-5.555419921875,6.216064453125
0.009,-3.793701171875,-5.155029296875,7.136962890625
0.0095,-5.155029296875,-3.393310546875,7.136962890625
0.01,-5.755615234375,-1.911865234375,6.656494140625
0.0105,-5.995849609375,-0.870849609375,6.135986328125
0.011,-6.075927734375,0.050048828125,5.615478515625
0.0115,-6.115966796875,1.131103515625,5.094970703125
0.012,-6.236083984375,2.412353515625,4.013916015625
0.0125,-5.755615234375,3.653564453125,2.732666015625
0.013,-4.834716796875,4.414306640625,1.171142578125
0.0135,-4.394287109375,4.934814453125,0.210205078125
0.014,-3.713623046875,5.415283203125,-0.710693359375
0.0145,-3.193115234375,6.015869140625,-1.791748046875
0.015,-1.551513671875,6.015869140625,-3.353271484375
0.0155,0.010009765625,5.695556640625,-4.674560546875
0.016,0.770751953125,5.495361328125,-5.275146484375
0.0165,1.691650390625,5.175048828125,-5.915771484375
0.017,2.652587890625,4.774658203125,-6.676513671875
0.0175,3.973876953125,3.893798828125,-7.317138671875
0.018,4.934814453125,2.452392578125,-7.317138671875
0.0185,5.495361328125,0.890869140625,-6.556396484375
0.019,5.695556640625,-0.230224609375,-6.196044921875
0.0195,5.895751953125,-1.031005859375,-5.795654296875
0.02,5.935791015625,-1.871826171875,-5.275146484375
0.0205,5.735595703125,-3.433349609375,-3.713623046875
0.021,5.094970703125,-4.474365234375,-2.192138671875
0.0215,4.494384765625,-5.195068359375,-1.191162109375
0.022,3.853759765625,-5.755615234375,-0.190185546875
0.0225,3.213134765625,-6.236083984375,0.970947265625
0.023,2.372314453125,-6.556396484375,2.252197265625
0.0235,0.890869140625,-6.596435546875,3.613525390625
0.024,-0.510498046875,-6.156005859375,4.534423828125
0.0245,-1.311279296875,-6.115966796875,5.215087890625
0.025,-2.112060546875,-5.755615234375,5.935791015625
0.0255,-3.072998046875,-5.475341796875,6.696533203125
0.026,-4.594482421875,-3.913818359375,7.056884765625
0.0265,-5.435302734375,-2.632568359375,6.856689453125
0.027,-5.835693359375,-1.391357421875,6.256103515625
0.0275,-5.915771484375,-0.510498046875,5.775634765625
0.028,-6.276123046875,0.610595703125,5.575439453125
0.0285,-6.276123046875,1.571533203125,4.854736328125
0.029,-5.915771484375,2.852783203125,3.333251953125
0.0295,-5.275146484375,4.134033203125,1.891845703125
0.03,-4.594482421875,4.614501953125,0.730712890625
0.0305,-4.114013671875,5.175048828125,-0.310302734375
0.031,-3.593505859375,5.895751953125,-1.151123046875
0.0315,-2.112060546875,6.055908203125,-2.872802734375
0.032,-0.790771484375,5.935791015625,-4.154052734375
0.0325,0.330322265625,5.495361328125,-4.914794921875
0.033,1.291259765625,5.415283203125,-5.675537109375
0.0335,2.212158203125,4.934814453125,-6.556396484375
0.034,3.173095703125,4.654541015625,-7.237060546875
0.0345,4.614501953125,2.932861328125,-7.237060546875
0.035,5.415283203125,1.331298828125,-6.876708984375
0.0355,5.735595703125,0.250244140625,-6.436279296875
0.036,5.735595703125,-0.590576171875,-5.915771484375
0.0365,6.055908203125,-1.751708984375,-5.515380859375
0.037,5.895751953125,-2.992919921875,-4.154052734375
0.0375,5.495361328125,-4.354248046875,-3.072998046875
0.038,4.734619140625,-5.195068359375,-1.351318359375
0.0385,4.093994140625,-5.755615234375,-0.350341796875
0.039,3.533447265625,-6.115966796875,0.730712890625
0.0395,2.932861328125,-6.876708984375,1.771728515625
0.04,1.091064453125,-6.756591796875,3.533447265625
0.0405,-0.230224609375,-6.516357421875,4.614501953125
0.041,-1.231201171875,-6.356201171875,5.255126953125
0.0415,-2.192138671875,-6.035888671875,6.095947265625
0.042,-3.193115234375,-5.435302734375,6.776611328125
0.0425,-4.514404296875,-4.434326171875,7.337158203125
0.043,-5.475341796875,-3.072998046875,7.297119140625
0.0435,-6.196044921875,-1.471435546875,6.656494140625
0.044,-6.156005859375,-0.310302734375,6.095947265625
0.0445,-6.396240234375,0.450439453125,5.615478515625
0.045,-6.396240234375,1.491455078125,5.094970703125
0.0455,-6.075927734375,3.093017578125,3.533447265625
0.046,-5.515380859375,4.134033203125,2.011962890625
0.0465,-4.714599609375,4.774658203125,0.770751953125
0.047,-4.114013671875,5.335205078125,-0.190185546875
0.0475,-3.473388671875,5.735595703125,-1.231201171875
0.048,-2.432373046875,6.216064453125,-2.632568359375
0.0485,-1.151123046875,5.935791015625,-3.993896484375
0.049,0.370361328125,5.495361328125,-4.914794921875
0.0495,1.211181640625,5.415283203125,-5.475341796875
0.05,1.971923828125,5.094970703125,-6.196044921875
0.0505,2.972900390625,4.734619140625,-7.076904296875
0.051,4.414306640625,3.173095703125,-7.156982421875
0.0515,5.094970703125,1.971923828125,-6.876708984375
0.052,5.695556640625,0.690673828125,-6.436279296875
0.0525,5.575439453125,-0.430419921875,-5.955810546875
0.053,5.735595703125,-1.351318359375,-5.595458984375
0.0535,5.935791015625,-2.152099609375,-4.914794921875
0.054,5.455322265625,-3.553466796875,-3.553466796875
0.0545,4.814697265625,-4.634521484375,-1.911865234375
0.055,4.174072265625,-5.114990234375,-0.750732421875
0.0555,3.693603515625,-5.675537109375,0.170166015625
0.056,3.373291015625,-6.396240234375,0.890869140625
0.0565,1.811767578125,-6.476318359375,2.532470703125
0.057,0.730712890625,-6.356201171875,3.653564453125
0.0575,-0.710693359375,-6.236083984375,4.414306640625
0.058,-1.311279296875,-5.915771484375,5.135009765625
0.0585,-2.192138671875,-5.715576171875,5.935791015625
0.059,-3.153076171875,-5.435302734375,6.776611328125
0.0595,-4.434326171875,-3.793701171875,6.896728515625
0.06,-5.195068359375,-2.432373046875,6.416259765625
0.0605,-5.715576171875,-1.311279296875,6.176025390625
0.061,-5.955810546875,-0.590576171875,5.855712890625
0.0615,-6.115966796875,0.410400390625,5.375244140625
0.062,-6.075927734375,1.651611328125,4.494384765625
0.0625,-5.715576171875,2.772705078125,3.333251953125
0.063,-4.994873046875,3.853759765625,1.891845703125
0.0635,-4.474365234375,4.454345703125,0.770751953125
0.064,-3.993896484375,4.894775390625,-0.310302734375
0.0645,-3.673583984375,5.735595703125,-1.031005859375
0.065,-2.232177734375,5.615478515625,-2.632568359375
0.0655,-0.790771484375,5.495361328125,-3.873779296875
0.066,0.250244140625,5.335205078125,-4.594482421875
0.0665,0.970947265625,5.255126953125,-5.315185546875
0.067,1.971923828125,4.974853515625,-6.156005859375
0.0675,3.253173828125,4.294189453125,-6.796630859375
0.068,4.093994140625,2.892822265625,-6.756591796875
0.0685,4.974853515625,1.371337890625,-6.476318359375
0.069,5.215087890625,0.570556640625,-5.835693359375
0.0695,5.415283203125,-0.470458984375,-5.715576171875
0.07,5.695556640625,-1.271240234375,-5.475341796875
0.0705,5.375244140625,-2.632568359375,-4.073974609375
0.071,4.974853515625,-3.713623046875,-2.872802734375
0.0715,4.334228515625,-4.474365234375,-1.631591796875
0.072,3.893798828125,-5.155029296875,-0.710693359375
0.0725,3.493408203125,-5.595458984375,0.330322265625
0.073,2.812744140625,-6.156005859375,1.331298828125
0.0735,1.451416015625,-6.236083984375,2.692626953125
0.074,0.130126953125,-5.835693359375,3.693603515625
0.0745,-0.710693359375,-5.795654296875,4.454345703125
0.075,-1.471435546875,-5.715576171875,5.255126953125
0.0755,-2.392333984375,-5.555419921875,6.216064453125
0.076,-3.593505859375,-4.194091796875,6.416259765625
0.0765,-4.634521484375,-3.153076171875,6.416259765625
0.077,-4.994873046875,-1.911865234375,5.895751953125
0.0775,-5.355224609375,-1.111083984375,5.735595703125
0.078,-5.635498046875,-0.310302734375,5.415283203125
0.0785,-5.835693359375,0.650634765625,5.135009765625
0.079,-5.595458984375,1.811767578125,3.893798828125
0.0795,-4.994873046875,2.892822265625,2.532470703125
0.08,-4.514404296875,3.493408203125,1.371337890625
0.0805,-4.073974609375,4.294189453125,0.570556640625
0.081,-3.873779296875,4.854736328125,-0.470458984375
0.0815,-2.832763671875,5.215087890625,-1.631591796875
0.082,-1.751708984375,5.335205078125,-2.712646484375
0.0825,-0.630615234375,5.094970703125,-3.673583984375
0.083,0.250244140625,5.054931640625,-4.354248046875
0.0835,0.970947265625,4.974853515625,-5.155029296875
0.084,1.971923828125,4.934814453125,-6.316162109375
0.0845,3.213134765625,3.733642578125,-6.276123046875
0.085,4.013916015625,2.252197265625,-6.115966796875
0.0855,4.534423828125,1.291259765625,-5.915771484375
0.086,4.854736328125,0.530517578125,-5.715576171875
0.0865,5.215087890625,-0.390380859375,-5.555419921875
0.087,5.255126953125,-1.431396484375,-4.794677734375
0.0875,5.054931640625,-2.472412109375,-3.873779296875
0.088,4.494384765625,-3.393310546875,-2.432373046875
0.0885,3.973876953125,-4.314208984375,-1.471435546875
0.089,3.813720703125,-4.914794921875,-0.630615234375
0.0895,3.573486328125,-5.715576171875,0.130126953125
0.09,2.332275390625,-5.755615234375,1.531494140625
0.0905,1.131103515625,-5.715576171875,2.652587890625
0.091,0.290283203125,-5.675537109375,3.533447265625
0.0915,-0.590576171875,-5.635498046875,4.414306640625
0.092,-1.391357421875,-5.675537109375,5.094970703125
0.0925,-2.472412109375,-4.994873046875,5.895751953125
0.093,-3.553466796875,-4.033935546875,6.055908203125
0.0935,-4.354248046875,-2.712646484375,5.775634765625
0.094,-4.834716796875,-1.791748046875,5.615478515625
0.0945,-5.195068359375,-1.031005859375,5.495361328125
0.095,-5.635498046875,-0.310302734375,5.535400390625
0.0955,-5.435302734375,0.970947265625,4.334228515625
0.096,-5.074951171875,1.931884765625,3.173095703125
0.0965,-4.634521484375,2.852783203125,2.252197265625
0.097,-4.354248046875,3.573486328125,1.371337890625
0.0975,-4.114013671875,4.214111328125,0.370361328125
0.098,-3.553466796875,4.934814453125,-0.670654296875
0.0985,-2.552490234375,5.094970703125,-1.791748046875
0.099,-1.271240234375,4.934814453125,-2.872802734375
0.0995,-0.470458984375,5.094970703125,-3.673583984375
0.1,0.450439453125,5.054931640625,-4.674560546875
0.1005,1.251220703125,5.175048828125,-5.475341796875
0.101,2.492431640625,3.973876953125,-5.915771484375
0.1015,3.373291015625,2.972900390625,-6.035888671875
0.102,4.013916015625,1.891845703125,-5.755615234375
0.1025,4.494384765625,0.970947265625,-5.635498046875
0.103,4.814697265625,0.290283203125,-5.515380859375
0.1035,5.175048828125,-0.710693359375,-5.395263671875
0.104,5.014892578125,-1.711669921875,-4.194091796875
0.1045,4.494384765625,-3.032958984375,-2.992919921875
0.105,4.134033203125,-3.713623046875,-2.072021484375
0.1055,3.893798828125,-4.474365234375,-1.231201171875
0.106,3.773681640625,-5.195068359375,-0.350341796875
0.1065,2.812744140625,-5.595458984375,0.970947265625
0.107,1.811767578125,-5.715576171875,2.052001953125
0.1075,0.730712890625,-5.635498046875,2.892822265625
0.108,0.090087890625,-5.635498046875,3.773681640625
0.1085,-0.910888671875,-5.555419921875,4.694580078125
0.109,-1.871826171875,-5.635498046875,5.735595703125
0.1095,-3.193115234375,-4.354248046875,5.935791015625
0.11,-4.033935546875,-3.072998046875,5.735595703125
0.1105,-4.594482421875,-2.112060546875,5.615478515625
0.111,-4.994873046875,-1.311279296875,5.615478515625
0.1115,-5.395263671875,-0.630615234375,5.375244140625
0.112,-5.475341796875,0.570556640625,4.574462890625
0.1125,-5.315185546875,1.571533203125,3.773681640625
0.113,-4.834716796875,2.572509765625,2.492431640625
0.1135,-4.474365234375,3.333251953125,1.451416015625
0.114,-4.154052734375,4.053955078125,0.690673828125
0.1145,-3.913818359375,4.814697265625,-0.270263671875
0.115,-2.712646484375,5.014892578125,-1.591552734375
0.1155,-1.631591796875,4.974853515625,-2.592529296875
0.116,-0.830810546875,4.854736328125,-3.553466796875
0.1165,0.090087890625,4.934814453125,-4.434326171875
0.117,1.091064453125,4.934814453125,-5.315185546875
0.1175,2.212158203125,4.334228515625,-5.955810546875
0.118,3.173095703125,3.333251953125,-6.196044921875
0.1185,3.973876953125,1.931884765625,-5.835693359375
0.119,4.414306640625,1.131103515625,-5.555419921875
0.1195,4.774658203125,0.330322265625,-5.475341796875
0.12,5.175048828125,-0.630615234375,-5.555419921875
0.1205,4.974853515625,-1.871826171875,-4.434326171875
0.121,4.734619140625,-2.872802734375,-3.273193359375
0.1215,4.214111328125,-3.673583984375,-2.192138671875
0.122,3.933837890625,-4.314208984375,-1.271240234375
0.1225,3.613525390625,-4.994873046875,-0.390380859375
0.123,3.133056640625,-5.635498046875,0.690673828125
0.1235,2.011962890625,-5.715576171875,1.971923828125
0.124,0.730712890625,-5.595458984375,3.052978515625
0.1245,0.050048828125,-5.635498046875,3.813720703125
0.125,-0.830810546875,-5.715576171875,4.574462890625
0.1255,-1.791748046875,-5.635498046875,5.575439453125
0.126,-3.113037109375,-4.514404296875,5.935791015625
0.1265,-3.993896484375,-3.393310546875,6.015869140625
0.127,-4.594482421875,-2.272216796875,5.775634765625
0.1275,-4.994873046875,-1.351318359375,5.695556640625
0.128,-5.395263671875,-0.670654296875,5.415283203125
0.1285,-5.715576171875,0.250244140625,5.094970703125
0.129,-5.435302734375,1.491455078125,3.973876953125
0.1295,-4.954833984375,2.532470703125,2.532470703125
0.13,-4.514404296875,3.333251953125,1.611572265625
0.1305,-4.234130859375,3.973876953125,0.770751953125
0.131,-3.913818359375,4.774658203125,-0.190185546875
0.1315,-2.832763671875,5.175048828125,-1.431396484375
0.132,-1.791748046875,5.335205078125,-2.672607421875
0.1325,-0.710693359375,5.094970703125,-3.633544921875
0.133,0.130126953125,5.094970703125,-4.354248046875
0.1335,1.010986328125,4.974853515625,-5.275146484375
0.134,1.971923828125,4.854736328125,-6.236083984375
0.1345,3.333251953125,3.453369140625,-6.396240234375
0.135,4.174072265625,2.052001953125,-6.236083984375
0.1355,4.614501953125,1.091064453125,-5.875732421875
0.136,4.974853515625,0.330322265625,-5.595458984375
0.1365,5.255126953125,-0.670654296875,-5.395263671875
0.137,5.295166015625,-1.951904296875,-4.514404296875
0.1375,5.094970703125,-3.072998046875,-3.513427734375
0.138,4.494384765625,-3.953857421875,-2.072021484375
0.1385,4.053955078125,-4.634521484375,-1.151123046875
0.139,3.693603515625,-5.235107421875,-0.270263671875
0.1395,3.293212890625,-5.915771484375,0.690673828125
0.14,1.891845703125,-6.035888671875,2.292236328125
0.1405,0.650634765625,-5.955810546875,3.453369140625
0.141,-0.310302734375,-5.835693359375,4.134033203125
0.1415,-1.111083984375,-5.755615234375,4.854736328125
0.142,-2.112060546875,-5.475341796875,5.775634765625
0.1425,-3.353271484375,-4.714599609375,6.416259765625
0.143,-4.394287109375,-3.553466796875,6.456298828125
0.1435,-5.074951171875,-2.112060546875,5.975830078125
0.144,-5.395263671875,-1.151123046875,5.855712890625
0.1445,-5.635498046875,-0.350341796875,5.575439453125
0.145,-5.915771484375,0.570556640625,5.255126953125
0.1455,-5.715576171875,1.971923828125,3.813720703125
0.146,-5.275146484375,3.133056640625,2.572509765625
0.1465,-4.714599609375,3.853759765625,1.411376953125
0.147,-4.234130859375,4.494384765625,0.490478515625
0.1475,-3.793701171875,5.094970703125,-0.590576171875
0.148,-2.952880859375,5.615478515625,-1.711669921875
0.1485,-1.671630859375,5.655517578125,-3.113037109375
0.149,-0.350341796875,5.335205078125,-4.154052734375
0.1495,0.490478515625,5.255126953125,-4.834716796875
0.15,1.331298828125,5.094970703125,-5.635498046875
0.1505,2.412353515625,4.814697265625,-6.556396484375
0.151,3.853759765625,3.373291015625,-6.796630859375
0.1515,4.654541015625,2.172119140625,-6.676513671875
0.152,5.135009765625,0.930908203125,-6.276123046875
0.1525,5.375244140625,0.010009765625,-5.915771484375
0.153,5.575439453125,-1.071044921875,-5.475341796875
0.1535,5.735595703125,-2.152099609375,-4.954833984375
0.154,5.415283203125,-3.473388671875,-3.473388671875
0.1545,4.774658203125,-4.514404296875,-1.951904296875
0.155,4.174072265625,-5.114990234375,-0.910888671875
0.1555,3.693603515625,-5.635498046875,0.010009765625
0.156,3.173095703125,-6.276123046875,1.010986328125
0.1565,1.771728515625,-6.516357421875,2.692626953125
0.157,0.530517578125,-6.436279296875,3.893798828125
0.1575,-0.710693359375,-6.115966796875,4.694580078125
0.158,-1.431396484375,-5.955810546875,5.335205078125
0.1585,-2.512451171875,-5.515380859375,6.176025390625
0.159,-3.553466796875,-5.155029296875,7.016845703125
0.1595,-4.914794921875,-3.513427734375,7.056884765625
0.16,-5.635498046875,-1.951904296875,6.536376953125
0.1605,-5.915771484375,-0.990966796875,6.135986328125
0.161,-6.075927734375,0.010009765625,5.695556640625
0.1615,-6.276123046875,0.970947265625,5.215087890625
0.162,-6.156005859375,2.412353515625,3.973876953125
0.1625,-5.755615234375,3.573486328125,2.692626953125
0.163,-4.954833984375,4.454345703125,1.251220703125
0.1635,-4.354248046875,4.934814453125,0.210205078125
0.164,-3.753662109375,5.415283203125,-0.870849609375
0.1645,-3.153076171875,6.055908203125,-1.911865234375
0.165,-1.471435546875,6.055908203125,-3.553466796875
0.1655,0.010009765625,5.735595703125,-4.674560546875
0.166,0.890869140625,5.455322265625,-5.315185546875
0.1665,1.611572265625,5.215087890625,-5.955810546875
0.167,2.812744140625,4.734619140625,-6.756591796875
0.1675,4.013916015625,3.773681640625,-7.317138671875
0.168,4.974853515625,2.372314453125,-7.237060546875
0.1685,5.575439453125,0.770751953125,-6.596435546875
0.169,5.735595703125,-0.310302734375,-6.156005859375
0.1695,5.815673828125,-1.231201171875,-5.715576171875
0.17,6.055908203125,-2.072021484375,-5.275146484375
0.1705,5.655517578125,-3.633544921875,-3.553466796875
0.171,5.094970703125,-4.754638671875,-2.152099609375
0.1715,4.374267578125,-5.355224609375,-0.910888671875
0.172,3.813720703125,-5.875732421875,0.090087890625
0.1725,3.173095703125,-6.396240234375,1.131103515625
0.173,2.252197265625,-6.836669921875,2.412353515625
0.1735,0.770751953125,-6.716552734375,3.813720703125
0.174,-0.750732421875,-6.276123046875,4.814697265625
0.1745,-1.471435546875,-6.115966796875,5.455322265625
0.175,-2.312255859375,-5.795654296875,6.176025390625
0.1755,-3.393310546875,-5.395263671875,7.056884765625
0.176,-4.834716796875,-3.833740234375,7.177001953125
0.1765,-5.635498046875,-2.552490234375,6.936767578125
0.177,-5.995849609375,-1.271240234375,6.376220703125
0.1775,-6.156005859375,-0.350341796875,5.895751953125
0.178,-6.316162109375,0.730712890625,5.455322265625
0.1785,-6.436279296875,1.811767578125,4.814697265625
0.179,-5.955810546875,3.173095703125,3.253173828125
0.1795,-5.195068359375,4.254150390625,1.651611328125
0.18,-4.514404296875,4.814697265625,0.610595703125
0.1805,-3.993896484375,5.295166015625,-0.430419921875
0.181,-3.473388671875,5.895751953125,-1.431396484375
0.1815,-1.991943359375,6.095947265625,-3.072998046875
0.182,-0.710693359375,5.975830078125,-4.234130859375
0.1825,0.570556640625,5.575439453125,-5.034912109375
0.183,1.291259765625,5.335205078125,-5.635498046875
0.1835,2.252197265625,5.054931640625,-6.356201171875
0.184,3.253173828125,4.614501953125,-7.277099609375
0.1845,4.614501953125,2.892822265625,-7.317138671875
0.185,5.415283203125,1.331298828125,-6.796630859375
0.1855,5.695556640625,0.290283203125,-6.396240234375
0.186,5.775634765625,-0.630615234375,-5.955810546875
0.1865,6.015869140625,-1.591552734375,-5.515380859375
0.187,5.855712890625,-2.992919921875,-4.314208984375
0.1875,5.455322265625,-4.114013671875,-3.032958984375
0.188,4.734619140625,-5.034912109375,-1.551513671875
