wavelength,x,y,z
0.0,3.052978515625,-5.315185546875,0.370361328125
0.0005,1.971923828125,-5.755615234375,1.771728515625
0.001,0.970947265625,-6.075927734375,3.052978515625
0.0015,0.210205078125,-6.356201171875,4.134033203125
0.002,-0.630615234375,-6.396240234375,4.934814453125
0.0025,-1.631591796875,-5.715576171875,5.415283203125
0.003,-2.872802734375,-4.674560546875,5.815673828125
0.0035,-4.073974609375,-3.513427734375,6.095947265625
0.004,-4.954833984375,-2.432373046875,6.135986328125
0.0045,-5.395263671875,-1.631591796875,6.135986328125
0.005,-5.435302734375,-0.910888671875,5.735595703125
0.0055,-5.235107421875,0.130126953125,4.894775390625
0.006,-5.155029296875,1.331298828125,3.893798828125
0.0065,-5.114990234375,2.572509765625,2.732666015625
0.007,-4.954833984375,3.653564453125,1.771728515625
0.0075,-4.674560546875,4.334228515625,1.010986328125
0.008,-3.913818359375,4.614501953125,0.130126953125
0.0085,-2.872802734375,4.854736328125,-1.191162109375
0.009,-1.871826171875,5.255126953125,-2.592529296875
0.0095,-0.910888671875,5.495361328125,-3.793701171875
0.01,-0.190185546875,5.815673828125,-4.794677734375
0.0105,0.770751953125,5.575439453125,-5.435302734375
0.011,1.931884765625,4.614501953125,-5.875732421875
0.0115,3.213134765625,3.533447265625,-6.276123046875
0.012,4.294189453125,2.292236328125,-6.396240234375
0.0125,4.974853515625,1.291259765625,-6.396240234375
0.013,5.295166015625,0.610595703125,-6.276123046875
0.0135,5.175048828125,-0.350341796875,-5.635498046875
0.014,5.014892578125,-1.431396484375,-4.634521484375
0.0145,4.974853515625,-2.752685546875,-3.553466796875
0.015,4.774658203125,-3.993896484375,-2.312255859375
0.0155,4.614501953125,-4.914794921875,-1.431396484375
0.016,4.134033203125,-5.435302734375,-0.630615234375
0.0165,3.173095703125,-5.675537109375,0.530517578125
0.017,1.931884765625,-5.995849609375,1.931884765625
0.0175,0.730712890625,-6.276123046875,3.373291015625
0.018,-0.190185546875,-6.436279296875,4.494384765625
0.0185,-0.910888671875,-6.556396484375,5.335205078125
0.019,-1.911865234375,-5.915771484375,5.895751953125
0.0195,-3.193115234375,-4.794677734375,6.256103515625
0.02,-4.514404296875,-3.553466796875,6.536376953125
0.0205,-5.395263671875,-2.272216796875,6.536376953125
0.021,-5.835693359375,-1.391357421875,6.456298828125
0.0215,-5.915771484375,-0.630615234375,6.055908203125
0.022,-5.715576171875,0.490478515625,5.094970703125
0.0225,-5.515380859375,1.771728515625,3.893798828125
0.023,-5.395263671875,3.173095703125,2.612548828125
0.0235,-5.114990234375,4.254150390625,1.451416015625
0.024,-4.794677734375,4.974853515625,0.610595703125
0.0245,-3.993896484375,5.215087890625,-0.390380859375
0.025,-2.752685546875,5.375244140625,-1.631591796875
0.0255,-1.551513671875,5.695556640625,-3.233154296875
0.026,-0.350341796875,5.855712890625,-4.514404296875
0.0265,0.490478515625,6.015869140625,-5.475341796875
0.027,1.291259765625,5.775634765625,-6.156005859375
0.0275,2.532470703125,4.774658203125,-6.596435546875
0.028,3.893798828125,3.413330078125,-6.876708984375
0.0285,5.054931640625,2.052001953125,-6.996826171875
0.029,5.735595703125,0.850830078125,-6.796630859375
0.0295,5.935791015625,0.050048828125,-6.596435546875
0.03,5.775634765625,-0.910888671875,-5.875732421875
0.0305,5.415283203125,-2.072021484375,-4.634521484375
0.031,5.215087890625,-3.473388671875,-3.313232421875
0.0315,4.934814453125,-4.754638671875,-1.951904296875
0.032,4.614501953125,-5.635498046875,-0.950927734375
0.0325,4.093994140625,-6.196044921875,0.010009765625
0.033,3.052978515625,-6.276123046875,1.010986328125
0.0335,1.611572265625,-6.396240234375,2.452392578125
0.034,0.290283203125,-6.556396484375,4.053955078125
0.0345,-0.790771484375,-6.556396484375,5.094970703125
0.035,-1.431396484375,-6.676513671875,5.935791015625
0.0355,-2.352294921875,-6.115966796875,6.456298828125
0.036,-3.673583984375,-4.834716796875,6.696533203125
0.0365,-4.874755859375,-3.553466796875,6.896728515625
0.037,-5.835693359375,-2.152099609375,6.856689453125
0.0375,-6.316162109375,-1.111083984375,6.656494140625
0.038,-6.356201171875,-0.350341796875,6.256103515625
0.0385,-6.075927734375,0.650634765625,5.375244140625
0.039,-5.715576171875,1.851806640625,4.093994140625
0.0395,-5.475341796875,3.253173828125,2.732666015625
0.04,-5.155029296875,4.414306640625,1.451416015625
0.0405,-4.834716796875,5.135009765625,0.530517578125
0.041,-4.154052734375,5.455322265625,-0.390380859375
0.0415,-3.072998046875,5.575439453125,-1.551513671875
0.042,-1.671630859375,5.775634765625,-2.952880859375
0.0425,-0.390380859375,5.895751953125,-4.434326171875
0.043,0.530517578125,6.055908203125,-5.435302734375
0.0435,1.211181640625,6.015869140625,-6.196044921875
0.044,2.212158203125,5.255126953125,-6.596435546875
0.0445,3.533447265625,3.893798828125,-6.876708984375
0.045,4.734619140625,2.612548828125,-7.076904296875
0.0455,5.615478515625,1.291259765625,-6.916748046875
0.046,6.015869140625,0.370361328125,-6.756591796875
0.0465,5.935791015625,-0.510498046875,-6.276123046875
0.047,5.615478515625,-1.511474609375,-5.275146484375
0.0475,5.375244140625,-2.792724609375,-3.993896484375
0.048,5.094970703125,-4.194091796875,-2.592529296875
0.0485,4.814697265625,-5.315185546875,-1.431396484375
0.049,4.454345703125,-6.035888671875,-0.590576171875
0.0495,3.573486328125,-6.276123046875,0.450439453125
0.05,2.372314453125,-6.316162109375,1.731689453125
0.0505,0.970947265625,-6.516357421875,3.333251953125
0.051,-0.310302734375,-6.596435546875,4.614501953125
0.0515,-1.071044921875,-6.756591796875,5.575439453125
0.052,-1.791748046875,-6.516357421875,6.256103515625
0.0525,-2.952880859375,-5.515380859375,6.536376953125
0.053,-4.274169921875,-4.194091796875,6.776611328125
0.0535,-5.435302734375,-2.832763671875,6.896728515625
0.054,-6.115966796875,-1.591552734375,6.736572265625
0.0545,-6.396240234375,-0.790771484375,6.536376953125
0.055,-6.196044921875,0.130126953125,5.855712890625
0.0555,-5.835693359375,1.251220703125,4.734619140625
0.056,-5.635498046875,2.612548828125,3.373291015625
0.0565,-5.355224609375,3.973876953125,1.971923828125
0.057,-5.034912109375,4.894775390625,0.890869140625
0.0575,-4.594482421875,5.415283203125,0.050048828125
0.058,-3.593505859375,5.615478515625,-0.990966796875
0.0585,-2.232177734375,5.735595703125,-2.432373046875
0.059,-0.910888671875,5.975830078125,-3.993896484375
0.0595,0.250244140625,6.015869140625,-5.155029296875
0.06,0.930908203125,6.176025390625,-6.075927734375
0.0605,1.851806640625,5.615478515625,-6.556396484375
0.061,3.173095703125,4.414306640625,-6.876708984375
0.0615,4.494384765625,3.052978515625,-7.076904296875
0.062,5.455322265625,1.651611328125,-7.076904296875
0.0625,6.015869140625,0.570556640625,-6.916748046875
0.063,6.135986328125,-0.350341796875,-6.556396484375
0.0635,5.815673828125,-1.271240234375,-5.675537109375
0.064,5.495361328125,-2.552490234375,-4.354248046875
0.0645,5.295166015625,-4.033935546875,-2.952880859375
0.065,4.934814453125,-5.235107421875,-1.591552734375
0.0655,4.534423828125,-6.115966796875,-0.630615234375
0.066,3.853759765625,-6.356201171875,0.330322265625
0.0665,2.692626953125,-6.396240234375,1.491455078125
0.067,1.291259765625,-6.556396484375,3.052978515625
0.0675,-0.190185546875,-6.676513671875,4.534423828125
0.068,-1.031005859375,-6.716552734375,5.495361328125
0.0685,-1.711669921875,-6.676513671875,6.256103515625
0.069,-2.752685546875,-5.875732421875,6.656494140625
0.0695,-4.114013671875,-4.514404296875,6.856689453125
0.07,-5.275146484375,-3.113037109375,6.976806640625
0.0705,-6.075927734375,-1.791748046875,6.816650390625
0.071,-6.436279296875,-0.870849609375,6.616455078125
0.0715,-6.356201171875,0.010009765625,6.055908203125
0.072,-5.955810546875,0.970947265625,5.054931640625
0.0725,-5.635498046875,2.252197265625,3.693603515625
0.073,-5.435302734375,3.573486328125,2.332275390625
0.0735,-5.114990234375,4.614501953125,1.131103515625
0.074,-4.714599609375,5.295166015625,0.290283203125
0.0745,-3.873779296875,5.495361328125,-0.670654296875
0.075,-2.632568359375,5.575439453125,-1.911865234375
0.0755,-1.351318359375,5.815673828125,-3.353271484375
0.076,-0.150146484375,5.855712890625,-4.674560546875
0.0765,0.690673828125,6.015869140625,-5.635498046875
0.077,1.371337890625,5.855712890625,-6.276123046875
0.0775,2.492431640625,4.934814453125,-6.556396484375
0.078,3.773681640625,3.613525390625,-6.796630859375
0.0785,4.894775390625,2.252197265625,-6.916748046875
0.079,5.615478515625,1.091064453125,-6.756591796875
0.0795,5.895751953125,0.290283203125,-6.676513671875
0.08,5.735595703125,-0.630615234375,-6.035888671875
0.0805,5.415283203125,-1.631591796875,-4.954833984375
0.081,5.215087890625,-2.952880859375,-3.753662109375
0.0815,4.934814453125,-4.314208984375,-2.432373046875
0.082,4.654541015625,-5.195068359375,-1.311279296875
0.0825,4.334228515625,-5.795654296875,-0.550537109375
0.083,3.373291015625,-6.035888671875,0.490478515625
0.0835,2.172119140625,-6.115966796875,1.811767578125
0.084,0.890869140625,-6.396240234375,3.333251953125
0.0845,-0.310302734375,-6.476318359375,4.534423828125
0.085,-0.990966796875,-6.716552734375,5.455322265625
0.0855,-1.791748046875,-6.316162109375,6.015869140625
0.086,-2.952880859375,-5.275146484375,6.336181640625
0.0865,-4.234130859375,-4.033935546875,6.616455078125
0.087,-5.275146484375,-2.712646484375,6.696533203125
0.0875,-5.875732421875,-1.631591796875,6.536376953125
0.088,-6.115966796875,-0.910888671875,6.336181640625
0.0885,-5.835693359375,0.010009765625,5.615478515625
0.089,-5.635498046875,1.091064453125,4.534423828125
0.0895,-5.475341796875,2.452392578125,3.213134765625
0.09,-5.155029296875,3.693603515625,1.971923828125
0.0905,-4.954833984375,4.614501953125,1.091064453125
0.091,-4.394287109375,5.014892578125,0.290283203125
0.0915,-3.393310546875,5.175048828125,-0.870849609375
0.092,-2.272216796875,5.415283203125,-2.232177734375
0.0925,-0.990966796875,5.615478515625,-3.673583984375
0.093,0.010009765625,5.815673828125,-4.714599609375
0.0935,0.610595703125,5.935791015625,-5.555419921875
0.094,1.571533203125,5.335205078125,-6.035888671875
0.0945,2.812744140625,4.174072265625,-6.356201171875
0.095,4.013916015625,2.972900390625,-6.596435546875
0.0955,4.894775390625,1.771728515625,-6.556396484375
0.096,5.415283203125,0.890869140625,-6.516357421875
0.0965,5.455322265625,0.130126953125,-6.156005859375
0.097,5.255126953125,-0.910888671875,-5.395263671875
0.0975,5.014892578125,-1.991943359375,-4.354248046875
0.098,4.934814453125,-3.313232421875,-3.072998046875
0.0985,4.654541015625,-4.394287109375,-1.951904296875
0.099,4.454345703125,-5.155029296875,-1.151123046875
0.0995,3.813720703125,-5.475341796875,-0.310302734375
0.1,2.812744140625,-5.715576171875,0.850830078125
0.1005,1.611572265625,-5.955810546875,2.252197265625
0.101,0.530517578125,-6.115966796875,3.533447265625
0.1015,-0.310302734375,-6.396240234375,4.534423828125
0.102,-0.990966796875,-6.396240234375,5.255126953125
0.1025,-1.951904296875,-5.715576171875,5.695556640625
0.103,-3.153076171875,-4.674560546875,6.015869140625
0.1035,-4.314208984375,-3.473388671875,6.256103515625
0.104,-5.114990234375,-2.392333984375,6.256103515625
0.1045,-5.515380859375,-1.631591796875,6.216064453125
0.105,-5.475341796875,-0.990966796875,5.775634765625
0.1055,-5.315185546875,0.010009765625,4.974853515625
0.106,-5.195068359375,1.211181640625,4.013916015625
0.1065,-5.114990234375,2.492431640625,2.852783203125
0.107,-4.914794921875,3.533447265625,1.931884765625
0.1075,-4.714599609375,4.214111328125,1.171142578125
0.108,-4.033935546875,4.534423828125,0.290283203125
0.1085,-3.113037109375,4.814697265625,-0.870849609375
0.109,-2.072021484375,5.215087890625,-2.272216796875
0.1095,-1.111083984375,5.455322265625,-3.473388671875
0.11,-0.430419921875,5.735595703125,-4.514404296875
0.1105,0.450439453125,5.615478515625,-5.155029296875
0.111,1.531494140625,4.854736328125,-5.635498046875
0.1115,2.732666015625,3.893798828125,-6.035888671875
0.112,3.853759765625,2.692626953125,-6.236083984375
0.1125,4.614501953125,1.691650390625,-6.316162109375
0.113,4.974853515625,1.010986328125,-6.316162109375
0.1135,4.934814453125,0.250244140625,-5.795654296875
0.114,4.854736328125,-0.710693359375,-5.034912109375
0.1145,4.854736328125,-1.951904296875,-4.033935546875
0.115,4.694580078125,-3.193115234375,-2.912841796875
0.1155,4.614501953125,-4.194091796875,-2.031982421875
0.116,4.294189453125,-4.794677734375,-1.311279296875
0.1165,3.533447265625,-5.114990234375,-0.350341796875
0.117,2.572509765625,-5.475341796875,0.970947265625
0.1175,1.491455078125,-5.795654296875,2.372314453125
0.118,0.650634765625,-6.115966796875,3.493408203125
0.1185,0.010009765625,-6.396240234375,4.414306640625
0.119,-0.990966796875,-6.075927734375,4.974853515625
0.1195,-2.072021484375,-5.195068359375,5.415283203125
0.12,-3.313232421875,-4.194091796875,5.855712890625
0.1205,-4.274169921875,-3.113037109375,5.975830078125
0.121,-4.954833984375,-2.272216796875,6.095947265625
0.1215,-5.195068359375,-1.631591796875,5.895751953125
0.122,-5.114990234375,-0.790771484375,5.335205078125
0.1225,-5.074951171875,0.290283203125,4.534423828125
0.123,-5.074951171875,1.531494140625,3.533447265625
0.1235,-4.914794921875,2.692626953125,2.532470703125
0.124,-4.834716796875,3.573486328125,1.771728515625
0.1245,-4.394287109375,4.053955078125,0.970947265625
0.125,-3.593505859375,4.374267578125,0.010009765625
0.1255,-2.712646484375,4.854736328125,-1.351318359375
0.126,-1.711669921875,5.175048828125,-2.632568359375
0.1265,-0.990966796875,5.535400390625,-3.753662109375
0.127,-0.270263671875,5.695556640625,-4.594482421875
0.1275,0.770751953125,5.175048828125,-5.114990234375
0.128,1.931884765625,4.334228515625,-5.595458984375
0.1285,3.173095703125,3.213134765625,-5.955810546875
0.129,4.093994140625,2.132080078125,-6.115966796875
0.1295,4.614501953125,1.411376953125,-6.276123046875
0.13,4.814697265625,0.770751953125,-5.915771484375
0.1305,4.774658203125,-0.270263671875,-5.235107421875
0.131,4.774658203125,-1.311279296875,-4.474365234375
0.1315,4.734619140625,-2.592529296875,-3.353271484375
0.132,4.614501953125,-3.713623046875,-2.432373046875
0.1325,4.494384765625,-4.474365234375,-1.671630859375
0.133,3.853759765625,-4.874755859375,-0.790771484375
0.1335,2.972900390625,-5.235107421875,0.450439453125
0.134,1.931884765625,-5.675537109375,1.771728515625
0.1345,1.010986328125,-5.955810546875,3.012939453125
0.135,0.330322265625,-6.356201171875,4.013916015625
0.1355,-0.590576171875,-6.236083984375,4.774658203125
0.136,-1.631591796875,-5.475341796875,5.215087890625
0.1365,-2.872802734375,-4.594482421875,5.695556640625
0.137,-3.993896484375,-3.433349609375,5.895751953125
0.1375,-4.794677734375,-2.512451171875,6.015869140625
0.138,-5.155029296875,-1.751708984375,6.015869140625
0.1385,-5.155029296875,-1.031005859375,5.495361328125
0.139,-5.114990234375,0.010009765625,4.774658203125
0.1395,-5.114990234375,1.251220703125,3.813720703125
0.14,-4.994873046875,2.492431640625,2.732666015625
0.1405,-4.914794921875,3.493408203125,1.891845703125
0.141,-4.554443359375,4.013916015625,1.131103515625
0.1415,-3.793701171875,4.414306640625,0.170166015625
0.142,-2.912841796875,4.814697265625,-1.151123046875
0.1425,-1.871826171875,5.135009765625,-2.512451171875
0.143,-1.031005859375,5.455322265625,-3.593505859375
0.1435,-0.350341796875,5.735595703125,-4.554443359375
0.144,0.650634765625,5.375244140625,-5.155029296875
0.1445,1.851806640625,4.454345703125,-5.595458984375
0.145,3.093017578125,3.333251953125,-6.035888671875
0.1455,4.053955078125,2.212158203125,-6.156005859375
0.146,4.734619140625,1.411376953125,-6.276123046875
0.1465,4.934814453125,0.730712890625,-6.075927734375
0.147,4.814697265625,-0.190185546875,-5.395263671875
0.1475,4.774658203125,-1.271240234375,-4.554443359375
0.148,4.774658203125,-2.552490234375,-3.473388671875
0.1485,4.614501953125,-3.713623046875,-2.432373046875
0.149,4.494384765625,-4.554443359375,-1.631591796875
0.1495,3.973876953125,-4.994873046875,-0.830810546875
0.15,3.052978515625,-5.275146484375,0.370361328125
0.1505,2.011962890625,-5.675537109375,1.691650390625
0.151,0.970947265625,-5.955810546875,3.012939453125
0.1515,0.250244140625,-6.276123046875,4.093994140625
0.152,-0.630615234375,-6.356201171875,4.854736328125
0.1525,-1.591552734375,-5.755615234375,5.335205078125
0.153,-2.832763671875,-4.754638671875,5.735595703125
0.1535,-4.033935546875,-3.553466796875,6.055908203125
0.154,-4.834716796875,-2.472412109375,6.095947265625
0.1545,-5.315185546875,-1.711669921875,6.135986328125
0.155,-5.355224609375,-0.990966796875,5.735595703125
0.1555,-5.195068359375,0.050048828125,4.894775390625
0.156,-5.155029296875,1.251220703125,3.933837890625
0.1565,-5.074951171875,2.532470703125,2.812744140625
0.157,-4.954833984375,3.573486328125,1.851806640625
0.1575,-4.674560546875,4.254150390625,1.091064453125
0.158,-3.993896484375,4.574462890625,0.170166015625
0.1585,-2.952880859375,4.814697265625,-1.111083984375
0.159,-1.911865234375,5.255126953125,-2.552490234375
0.1595,-0.950927734375,5.495361328125,-3.713623046875
0.16,-0.230224609375,5.775634765625,-4.754638671875
0.1605,0.690673828125,5.495361328125,-5.435302734375
0.161,1.891845703125,4.614501953125,-5.795654296875
0.1615,3.173095703125,3.493408203125,-6.276123046875
0.162,4.294189453125,2.292236328125,-6.396240234375
0.1625,4.974853515625,1.291259765625,-6.396240234375
0.163,5.255126953125,0.610595703125,-6.276123046875
0.1635,5.135009765625,-0.310302734375,-5.635498046875
0.164,4.974853515625,-1.431396484375,-4.634521484375
0.1645,4.934814453125,-2.752685546875,-3.513427734375
0.165,4.734619140625,-3.993896484375,-2.272216796875
0.1655,4.574462890625,-4.874755859375,-1.431396484375
0.166,4.093994140625,-5.395263671875,-0.630615234375
0.1665,3.133056640625,-5.595458984375,0.490478515625
0.167,1.971923828125,-5.915771484375,1.931884765625
0.1675,0.770751953125,-6.156005859375,3.333251953125
0.168,-0.150146484375,-6.396240234375,4.414306640625
0.1685,-0.830810546875,-6.516357421875,5.255126953125
0.169,-1.791748046875,-5.915771484375,5.735595703125
0.1695,-3.153076171875,-4.794677734375,6.095947265625
0.17,-4.394287109375,-3.553466796875,6.416259765625
0.1705,-5.275146484375,-2.272216796875,6.416259765625
0.171,-5.755615234375,-1.431396484375,6.416259765625
0.1715,-5.795654296875,-0.670654296875,5.935791015625
0.172,-5.555419921875,0.370361328125,5.094970703125
0.1725,-5.435302734375,1.611572265625,3.893798828125
0.173,-5.275146484375,3.012939453125,2.652587890625
0.1735,-5.034912109375,4.093994140625,1.531494140625
0.174,-4.794677734375,4.814697265625,0.690673828125
0.1745,-3.993896484375,5.094970703125,-0.270263671875
0.175,-2.832763671875,5.255126953125,-1.511474609375
0.1755,-1.671630859375,5.615478515625,-2.992919921875
0.176,-0.510498046875,5.775634765625,-4.314208984375
0.1765,0.330322265625,5.935791015625,-5.275146484375
0.177,1.091064453125,5.735595703125,-6.035888671875
0.1775,2.252197265625,4.774658203125,-6.396240234375
0.178,3.653564453125,3.533447265625,-6.716552734375
0.1785,4.814697265625,2.172119140625,-6.876708984375
0.179,5.535400390625,0.970947265625,-6.716552734375
0.1795,5.815673828125,0.250244140625,-6.556396484375
0.18,5.655517578125,-0.710693359375,-5.915771484375
0.1805,5.335205078125,-1.871826171875,-4.674560546875
0.181,5.175048828125,-3.233154296875,-3.433349609375
0.1815,4.934814453125,-4.554443359375,-2.072021484375
0.182,4.614501953125,-5.475341796875,-1.071044921875
0.1825,4.134033203125,-6.035888671875,-0.270263671875
0.183,3.173095703125,-6.115966796875,0.890869140625
0.1835,1.771728515625,-6.276123046875,2.332275390625
0.184,0.450439453125,-6.476318359375,3.853759765625
0.1845,-0.630615234375,-6.596435546875,4.974853515625
0.185,-1.271240234375,-6.756591796875,5.815673828125
0.1855,-2.272216796875,-6.196044921875,6.336181640625
0.186,-3.553466796875,-4.874755859375,6.616455078125
0.1865,-4.794677734375,-3.553466796875,6.856689453125
0.187,-5.755615234375,-2.192138671875,6.816650390625
0.1875,-6.276123046875,-1.151123046875,6.616455078125
0.188,-6.356201171875,-0.350341796875,6.256103515625
