wavelength,x,y,z
0.0,18.73828125,-17.537109375,-0.6005859375
0.0005,19.9794921875,-15.455078125,-3.8837890625
0.001,20.740234375,-12.732421875,-7.287109375
0.0015,20.740234375,-9.44921875,-10.6103515625
0.002,20.33984375,-5.365234375,-14.09375
0.0025,19.4990234375,-1.8017578125,-16.8564453125
0.003,17.3369140625,2.4423828125,-18.9384765625
0.0035,14.8544921875,5.685546875,-19.7392578125
0.004,11.9716796875,9.1689453125,-20.5
0.0045,8.4482421875,12.65234375,-20.580078125
0.005,3.84375,15.9755859375,-19.5390625
0.0055,-0.720703125,18.2177734375,-17.4970703125
0.006,-4.32421875,19.69921875,-15.615234375
0.0065,-7.5673828125,20.2998046875,-13.1728515625
0.007,-10.890625,20.4599609375,-10.1298828125
0.0075,-14.173828125,20.099609375,-6.6064453125
0.008,-16.9765625,18.8984375,-2.72265625
0.0085,-19.05859375,16.4560546875,1.76171875
0.009,-19.859375,14.1337890625,4.7646484375
0.0095,-20.5,11.2509765625,8.2080078125
0.01,-20.5,7.927734375,11.5712890625
0.0105,-19.779296875,3.8837890625,14.9345703125
0.011,-18.3779296875,0.1201171875,17.3369140625
0.0115,-16.416015625,-3.68359375,19.0986328125
0.012,-13.8935546875,-6.8466796875,19.859375
0.0125,-10.810546875,-10.1298828125,20.1796875
0.013,-7.0068359375,-13.61328125,20.0595703125
0.0135,-2.5625,-16.576171875,18.818359375
0.014,1.9619140625,-18.4580078125,16.3759765625
0.0145,4.96484375,-19.4189453125,14.6142578125
0.015,8.2880859375,-20.099609375,12.171875
0.0155,11.4912109375,-20.0595703125,9.0888671875
0.016,14.654296875,-19.298828125,5.28515625
0.0165,17.13671875,-17.9375,1.4013671875
0.017,18.9384765625,-15.7353515625,-2.6025390625
0.0175,19.458984375,-13.3330078125,-5.525390625
0.018,19.8994140625,-10.3701171875,-8.7685546875
0.0185,19.779296875,-6.806640625,-12.2119140625
0.019,19.1787109375,-3.203125,-15.1748046875
0.0195,17.2568359375,0.7607421875,-17.2568359375
0.02,15.4150390625,4.00390625,-18.6181640625
0.0205,12.8525390625,7.2470703125,-19.4189453125
0.021,9.5693359375,10.490234375,-19.5390625
0.0215,5.60546875,13.853515625,-19.0986328125
0.022,1.361328125,16.6162109375,-17.8173828125
0.0225,-2.8427734375,18.2978515625,-15.6552734375
0.023,-5.60546875,18.9384765625,-13.693359375
0.0235,-8.80859375,19.6591796875,-11.2109375
0.024,-12.171875,19.4990234375,-8.0078125
0.0245,-14.974609375,18.5380859375,-4.3642578125
0.025,-17.1767578125,16.6962890625,-0.3603515625
0.0255,-18.658203125,14.734375,3.0830078125
0.026,-19.1787109375,12.171875,6.1259765625
0.0265,-19.4990234375,9.12890625,9.4091796875
0.027,-19.1787109375,5.4453125,12.7724609375
0.0275,-18.41796875,1.921875,15.5751953125
0.028,-16.416015625,-1.9619140625,17.4169921875
0.0285,-14.4140625,-4.9248046875,18.41796875
0.029,-11.8916015625,-8.16796875,19.298828125
0.0295,-8.2880859375,-11.5712890625,19.21875
0.03,-4.3642578125,-14.494140625,18.41796875
0.0305,-0.16015625,-16.7763671875,16.6962890625
0.031,3.5234375,-18.337890625,14.9345703125
0.0315,6.40625,-18.7783203125,12.6923828125
0.032,9.44921875,-19.298828125,10.25
0.0325,12.8525390625,-19.05859375,6.6865234375
0.033,15.53515625,-17.9775390625,3.04296875
0.0335,17.537109375,-15.935546875,-1.0009765625
0.034,18.578125,-13.9736328125,-4.00390625
0.0345,19.138671875,-11.291015625,-7.126953125
0.035,19.2587890625,-8.0078125,-10.5703125
0.0355,18.7783203125,-4.5244140625,-13.533203125
0.036,17.6572265625,-0.8408203125,-16.095703125
0.0365,15.7353515625,2.8427734375,-17.857421875
0.037,13.373046875,5.765625,-18.4580078125
0.0375,10.8505859375,8.96875,-19.21875
0.038,6.6865234375,12.732421875,-18.978515625
0.0385,2.7626953125,15.4150390625,-17.9775390625
0.039,-1.44140625,17.296875,-15.9755859375
0.0395,-4.64453125,18.658203125,-14.2939453125
0.04,-7.6875,19.05859375,-11.8515625
0.0405,-10.8505859375,19.2587890625,-9.048828125
0.041,-14.013671875,18.73828125,-5.4853515625
0.0415,-16.5361328125,17.296875,-1.521484375
0.042,-18.2578125,15.21484375,2.2421875
0.0425,-18.9384765625,12.8525390625,5.205078125
0.043,-19.5390625,10.169921875,8.4482421875
0.0435,-19.37890625,6.24609375,12.171875
0.044,-18.73828125,2.9228515625,14.89453125
0.0445,-17.0966796875,-0.9208984375,17.0166015625
0.045,-15.2548828125,-4.404296875,18.73828125
0.0455,-12.5322265625,-7.4072265625,19.05859375
0.046,-9.6494140625,-10.5302734375,19.4990234375
0.0465,-5.4453125,-14.0537109375,19.0185546875
0.047,-1.12109375,-16.65625,17.45703125
0.0475,2.7626953125,-18.1376953125,15.4150390625
0.048,5.7255859375,-19.05859375,13.4931640625
0.0485,8.96875,-19.5390625,10.9306640625
0.049,12.33203125,-19.3388671875,7.4873046875
0.0495,15.0546875,-18.578125,4.1240234375
0.05,17.4169921875,-16.6962890625,0.0
0.0505,18.8984375,-14.6943359375,-3.5634765625
0.051,19.21875,-11.9716796875,-6.4462890625
0.0515,19.69921875,-9.2490234375,-9.76953125
0.052,19.2587890625,-5.125,-13.4130859375
0.0525,18.41796875,-1.6015625,-16.015625
0.053,16.3359375,2.0419921875,-17.6572265625
0.0535,14.4140625,5.365234375,-19.05859375
0.054,11.4912109375,8.5283203125,-19.37890625
0.0545,7.767578125,12.01171875,-19.4189453125
0.055,4.083984375,15.0146484375,-18.7783203125
0.0555,-0.6806640625,17.45703125,-16.81640625
0.056,-4.1640625,18.818359375,-14.89453125
0.0565,-7.126953125,19.3388671875,-12.4921875
0.057,-10.2099609375,19.859375,-10.25
0.0575,-13.8935546875,19.2587890625,-6.0458984375
0.058,-16.3359375,18.0576171875,-2.5625
0.0585,-18.2578125,15.9755859375,1.44140625
0.059,-19.4189453125,13.8935546875,4.8046875
0.0595,-19.69921875,10.810546875,7.927734375
0.06,-19.939453125,7.52734375,11.4912109375
0.0605,-19.4189453125,3.84375,14.6142578125
0.061,-18.017578125,-0.2001953125,17.2568359375
0.0615,-15.8154296875,-3.7236328125,18.578125
0.062,-13.61328125,-6.806640625,19.4990234375
0.0625,-10.7705078125,-9.9697265625,20.01953125
0.063,-6.1259765625,-13.853515625,19.4189453125
0.0635,-2.4423828125,-16.2958984375,18.3779296875
0.064,2.08203125,-18.2578125,16.255859375
0.0645,5.28515625,-19.5390625,14.333984375
0.065,8.408203125,-19.6591796875,11.53125
0.0655,11.4912109375,-19.939453125,9.0087890625
0.066,14.89453125,-19.1787109375,4.8447265625
0.0665,17.3369140625,-17.45703125,0.80078125
0.067,18.818359375,-15.4150390625,-2.72265625
0.0675,19.69921875,-13.052734375,-5.92578125
0.068,19.859375,-10.1298828125,-9.0087890625
0.0685,19.69921875,-6.1259765625,-12.8525390625
0.069,19.05859375,-2.8828125,-15.375
0.0695,17.296875,1.201171875,-17.6572265625
0.07,15.0947265625,4.6044921875,-18.9384765625
0.0705,12.2919921875,7.6875,-19.2587890625
0.071,9.609375,10.8505859375,-19.8994140625
0.0715,4.8046875,14.6142578125,-19.0986328125
0.072,0.720703125,16.9765625,-17.537109375
0.0725,-3.0830078125,18.41796875,-15.53515625
0.073,-6.2861328125,19.4990234375,-13.4931640625
0.0735,-9.4892578125,19.619140625,-10.6103515625
0.074,-12.6923828125,19.5390625,-7.52734375
0.0745,-15.53515625,18.73828125,-3.9638671875
0.075,-17.8974609375,16.65625,0.48046875
0.0755,-19.0986328125,14.57421875,3.68359375
0.076,-19.5791015625,11.8115234375,6.88671875
0.0765,-20.0595703125,9.0888671875,9.9697265625
0.077,-19.5390625,4.724609375,13.8935546875
0.0775,-18.498046875,1.28125,16.2958984375
0.078,-16.6162109375,-2.482421875,18.09765625
0.0785,-14.57421875,-5.845703125,19.4990234375
0.079,-11.2509765625,-9.048828125,19.5390625
0.0795,-8.087890625,-12.33203125,19.859375
0.08,-3.8037109375,-15.6552734375,18.9384765625
0.0805,1.0009765625,-17.8974609375,16.6962890625
0.081,4.0439453125,-19.0185546875,14.974609375
0.0815,7.4072265625,-19.7392578125,12.6123046875
0.082,10.490234375,-19.9794921875,9.8896484375
0.0825,14.09375,-19.3388671875,5.765625
0.083,16.6162109375,-18.2578125,2.322265625
0.0835,18.6181640625,-16.1357421875,-1.8818359375
0.084,19.619140625,-13.853515625,-5.044921875
0.0845,19.859375,-10.810546875,-8.328125
0.085,20.1796875,-7.767578125,-11.611328125
0.0855,19.5791015625,-3.7236328125,-15.0546875
0.086,17.9375,0.2802734375,-17.45703125
0.0865,15.8955078125,3.68359375,-18.7783203125
0.087,13.6533203125,7.046875,-19.9794921875
0.0875,10.2099609375,10.3701171875,-20.01953125
0.088,5.92578125,14.0537109375,-19.69921875
0.0885,2.08203125,16.7763671875,-18.73828125
0.089,-2.72265625,18.8583984375,-16.3359375
0.0895,-5.765625,19.69921875,-14.2939453125
0.09,-9.12890625,20.1796875,-11.5712890625
0.0905,-12.2119140625,20.419921875,-8.888671875
0.091,-15.6953125,19.37890625,-4.5244140625
0.0915,-18.1376953125,17.6572265625,-0.400390625
0.092,-19.69921875,15.4951171875,3.283203125
0.0925,-20.5,12.97265625,6.646484375
0.093,-20.6201171875,9.5693359375,10.1298828125
0.0935,-20.5,5.8056640625,13.693359375
0.094,-19.779296875,2.162109375,16.65625
0.0945,-17.697265625,-2.2421875,18.9384765625
0.095,-15.375,-5.5654296875,19.9794921875
0.0955,-12.732421875,-8.9287109375,20.7802734375
0.096,-9.2490234375,-12.3720703125,20.900390625
0.0965,-4.3642578125,-16.015625,19.8994140625
0.097,0.0,-18.4580078125,18.2177734375
0.0975,4.1240234375,-20.01953125,15.9755859375
0.098,7.3271484375,-20.66015625,13.61328125
0.0985,10.9306640625,-20.8203125,10.3701171875
0.099,14.09375,-20.7001953125,7.20703125
0.0995,17.216796875,-19.5390625,3.0029296875
0.1,19.5791015625,-17.1767578125,-1.7216796875
0.1005,20.6201171875,-14.9345703125,-4.96484375
0.101,21.2607421875,-12.0517578125,-8.408203125
0.1015,21.1806640625,-8.48828125,-11.931640625
0.102,20.5400390625,-4.244140625,-15.455078125
0.1025,19.37890625,-0.6005859375,-17.9775390625
0.103,17.13671875,3.68359375,-20.01953125
0.1035,14.4541015625,7.046875,-20.7001953125
0.104,11.2109375,10.5302734375,-21.140625
0.1045,7.4072265625,14.0537109375,-21.140625
0.105,2.642578125,17.3369140625,-19.8994140625
0.1055,-2.2421875,19.4990234375,-17.45703125
0.106,-5.7255859375,20.7802734375,-15.4150390625
0.1065,-9.0888671875,21.30078125,-12.8125
0.107,-12.572265625,21.2607421875,-9.4091796875
0.1075,-15.8955078125,20.6201171875,-5.525390625
0.108,-18.658203125,19.1787109375,-1.4013671875
0.1085,-20.740234375,16.5361328125,3.3232421875
0.109,-21.3408203125,13.93359375,6.4462890625
0.1095,-21.8212890625,10.73046875,10.1298828125
0.11,-21.6611328125,6.88671875,13.7734375
0.1105,-20.7802734375,2.6826171875,17.0966796875
0.111,-18.9384765625,-1.4814453125,19.3388671875
0.1115,-16.65625,-5.4052734375,21.060546875
0.112,-13.7734375,-8.728515625,21.62109375
0.1125,-10.1298828125,-12.2919921875,21.701171875
0.113,-5.8857421875,-15.8955078125,21.1806640625
0.1135,-1.1611328125,-18.73828125,19.6591796875
0.114,3.763671875,-20.5,16.896484375
0.1145,6.88671875,-21.3408203125,14.734375
0.115,10.490234375,-21.8212890625,11.8115234375
0.1155,13.9736328125,-21.5009765625,8.1279296875
0.116,17.1767578125,-20.5,4.00390625
0.1165,19.779296875,-18.578125,-0.48046875
0.117,21.5009765625,-16.095703125,-4.64453125
0.1175,21.78125,-13.1328125,-7.84765625
0.118,22.1015625,-9.7294921875,-11.53125
0.1185,21.6611328125,-5.60546875,-15.1748046875
0.119,20.66015625,-1.6015625,-18.2177734375
0.1195,18.2177734375,2.8427734375,-20.1396484375
0.12,15.85546875,6.40625,-21.4208984375
0.1205,12.65234375,9.849609375,-21.861328125
0.121,8.6083984375,13.533203125,-21.7412109375
0.1215,4.1640625,16.896484375,-20.8203125
0.122,-0.720703125,19.619140625,-18.9384765625
0.1225,-5.1650390625,21.1806640625,-16.3359375
0.123,-8.2880859375,21.541015625,-13.7734375
0.1235,-11.931640625,22.021484375,-10.7705078125
0.124,-15.455078125,21.4609375,-6.7666015625
0.1245,-18.337890625,20.099609375,-2.642578125
0.125,-20.6201171875,17.7373046875,2.001953125
0.1255,-21.9814453125,15.2548828125,5.8056640625
0.126,-22.1416015625,11.9716796875,9.2490234375
0.1265,-22.3818359375,8.2880859375,13.052734375
0.127,-21.541015625,3.9638671875,16.49609375
0.1275,-20.259765625,-0.16015625,19.37890625
0.128,-17.5771484375,-4.564453125,21.1005859375
0.1285,-15.0146484375,-7.84765625,21.861328125
0.129,-11.7314453125,-11.53125,22.421875
0.1295,-7.126953125,-15.375,21.861328125
0.13,-2.7626953125,-18.177734375,20.6201171875
0.1305,2.2421875,-20.5,18.2177734375
0.131,6.24609375,-21.861328125,15.85546875
0.1315,9.5693359375,-21.94140625,12.7724609375
0.132,13.052734375,-22.3017578125,9.8095703125
0.1325,16.7763671875,-21.4208984375,5.28515625
0.133,19.5791015625,-19.7392578125,0.9609375
0.1335,21.4609375,-17.1767578125,-3.5234375
0.134,22.421875,-14.6142578125,-7.0068359375
0.1345,22.6220703125,-11.1708984375,-10.6103515625
0.135,22.4619140625,-6.88671875,-14.6943359375
0.1355,21.5009765625,-3.0029296875,-17.697265625
0.136,19.69921875,1.4814453125,-20.2197265625
0.1365,16.9765625,5.60546875,-21.78125
0.137,13.8134765625,8.9287109375,-22.0615234375
0.1375,10.650390625,12.5322265625,-22.6220703125
0.138,5.3251953125,16.6962890625,-21.701171875
0.1385,0.880859375,19.3388671875,-20.099609375
0.139,-3.84375,21.1005859375,-17.4970703125
0.1395,-7.52734375,22.26171875,-15.21484375
0.14,-11.05078125,22.26171875,-11.8115234375
0.1405,-14.494140625,22.1416015625,-8.408203125
0.141,-17.8173828125,21.1005859375,-4.1640625
0.1415,-20.5,18.8984375,0.720703125
0.142,-21.9814453125,16.2958984375,4.7646484375
0.1425,-22.501953125,13.29296875,8.2080078125
0.143,-22.7822265625,9.9296875,11.8115234375
0.1435,-22.181640625,5.125,15.9755859375
0.144,-21.0205078125,1.3212890625,18.6181640625
0.1445,-18.7783203125,-3.0830078125,20.740234375
0.145,-16.2958984375,-7.0068359375,22.26171875
0.1455,-12.6923828125,-10.3701171875,22.1416015625
0.146,-9.3291015625,-13.8134765625,22.501953125
0.1465,-4.244140625,-17.5771484375,21.380859375
0.147,0.880859375,-20.1396484375,19.1787109375
0.1475,4.9248046875,-21.4208984375,16.65625
0.148,8.3681640625,-22.181640625,14.173828125
0.1485,11.9716796875,-22.3017578125,10.8505859375
0.149,15.615234375,-21.6611328125,6.6865234375
0.1495,18.41796875,-20.5,2.8427734375
0.15,20.8603515625,-18.09765625,-2.08203125
0.1505,22.0615234375,-15.53515625,-5.765625
0.151,22.2216796875,-12.2119140625,-9.2490234375
0.1515,22.5419921875,-8.96875,-12.7724609375
0.152,21.701171875,-4.2041015625,-16.65625
0.1525,20.1796875,-0.16015625,-19.2587890625
0.153,17.7373046875,3.8837890625,-20.8203125
0.1535,15.2548828125,7.6474609375,-22.1416015625
0.154,11.451171875,11.1708984375,-22.1416015625
0.1545,7.20703125,15.0546875,-21.861328125
0.155,2.9228515625,18.1376953125,-20.8203125
0.1555,-2.482421875,20.6201171875,-18.2978515625
0.156,-6.1259765625,21.7412109375,-15.9755859375
0.1565,-9.6494140625,22.1416015625,-13.0927734375
0.157,-12.97265625,22.421875,-10.2099609375
0.1575,-16.9765625,21.30078125,-5.2451171875
0.158,-19.4990234375,19.779296875,-1.201171875
0.1585,-21.4208984375,17.296875,3.203125
0.159,-22.4619140625,14.57421875,6.88671875
0.1595,-22.4619140625,10.810546875,10.5703125
0.16,-22.501953125,7.0869140625,14.333984375
0.1605,-21.62109375,2.8427734375,17.6572265625
0.161,-19.6591796875,-1.841796875,20.33984375
0.1615,-16.9765625,-5.6455078125,21.5810546875
0.162,-14.4140625,-9.12890625,22.5419921875
0.1625,-10.6904296875,-12.6923828125,22.662109375
0.163,-5.4453125,-16.81640625,21.78125
0.1635,-1.201171875,-19.37890625,20.33984375
0.164,3.84375,-21.4208984375,17.6572265625
0.1645,7.4072265625,-22.3017578125,15.1748046875
0.165,11.1708984375,-22.421875,11.69140625
0.1655,14.4140625,-22.501953125,8.6884765625
0.166,18.177734375,-21.220703125,3.84375
0.1665,20.7802734375,-18.978515625,-1.041015625
0.167,22.1015625,-16.5361328125,-4.8046875
0.1675,22.90234375,-13.61328125,-8.48828125
0.168,22.7822265625,-9.8896484375,-12.0517578125
0.1685,22.3818359375,-5.4453125,-16.015625
0.169,21.2607421875,-1.6416015625,-18.8583984375
0.1695,18.978515625,3.1630859375,-21.1806640625
0.17,16.0556640625,6.966796875,-22.1416015625
0.1705,12.65234375,10.6103515625,-22.6220703125
0.171,9.208984375,14.1337890625,-22.822265625
0.1715,3.603515625,18.1376953125,-21.5009765625
0.172,-1.28125,20.5400390625,-19.3388671875
0.1725,-5.4453125,22.0615234375,-16.9765625
0.173,-9.0888671875,22.822265625,-14.25390625
0.1735,-12.9326171875,22.662109375,-10.41015625
0.174,-16.2158203125,22.3017578125,-6.88671875
0.1745,-19.3388671875,20.8603515625,-2.5224609375
0.175,-21.78125,18.0576171875,2.802734375
0.1755,-22.6220703125,15.4150390625,6.24609375
0.176,-23.22265625,12.091796875,10.08984375
0.1765,-23.0625,8.328125,13.61328125
0.177,-22.1416015625,3.4833984375,17.5771484375
0.1775,-20.580078125,-0.640625,20.099609375
0.178,-18.1376953125,-4.884765625,22.021484375
0.1785,-15.2548828125,-8.6083984375,22.8623046875
0.179,-11.291015625,-12.33203125,22.7822265625
0.1795,-7.4873046875,-15.8154296875,22.7021484375
0.18,-2.2822265625,-19.21875,21.140625
0.1805,3.04296875,-21.30078125,18.2578125
0.181,6.5263671875,-22.3017578125,15.9755859375
0.1815,10.2099609375,-22.8623046875,13.0927734375
0.182,13.7734375,-22.58203125,9.4091796875
0.1825,17.296875,-21.6611328125,5.0048828125
0.183,19.9794921875,-20.01953125,0.8408203125
0.1835,22.0615234375,-17.296875,-4.00390625
0.184,22.5419921875,-14.4541015625,-7.287109375
0.1845,22.7822265625,-10.890625,-11.05078125
0.185,22.58203125,-7.1669921875,-14.6142578125
0.1855,21.62109375,-2.6826171875,-18.017578125
0.186,19.458984375,1.841796875,-20.2998046875
0.1865,17.0166015625,5.4853515625,-21.6611328125
0.187,14.09375,9.0888671875,-22.4619140625
0.1875,10.0498046875,12.7724609375,-22.2216796875
0.188,5.60546875,16.416015625,-21.6611328125
0.1885,1.0009765625,19.298828125,-20.2197265625
0.189,-4.1240234375,21.2607421875,-17.3369140625
0.1895,-7.2470703125,21.8212890625,-15.0146484375
0.19,-10.890625,22.341796875,-11.9716796875
0.1905,-14.3740234375,22.0615234375,-8.48828125
0.191,-17.6572265625,20.7802734375,-4.00390625
0.1915,-20.0595703125,18.6982421875,0.48046875
0.192,-21.6611328125,16.17578125,4.484375
0.1925,-22.1416015625,13.1728515625,7.927734375
0.193,-22.2216796875,9.529296875,11.611328125
0.1935,-21.78125,5.5654296875,15.21484375
0.194,-20.8203125,1.521484375,18.2978515625
0.1945,-18.3779296875,-3.0830078125,20.419921875
0.195,-15.8955078125,-6.486328125,21.380859375
0.1955,-12.97265625,-10.009765625,22.1416015625
0.196,-8.96875,-13.61328125,21.94140625
0.1965,-4.244140625,-17.0166015625,20.8203125
0.197,0.400390625,-19.4990234375,18.978515625
0.1975,4.8046875,-21.1806640625,16.5361328125
0.198,7.9677734375,-21.5009765625,13.8935546875
0.1985,11.611328125,-21.8212890625,10.6904296875
0.199,15.0146484375,-21.5009765625,7.046875
0.1995,18.0576171875,-20.099609375,2.7626953125
0.2,20.2998046875,-17.697265625,-1.9619140625
0.2005,21.4609375,-15.3349609375,-5.4453125
0.201,21.94140625,-12.2119140625,-8.96875
0.2015,21.9013671875,-8.408203125,-12.65234375
0.202,21.1005859375,-4.32421875,-15.9755859375
0.2025,19.859375,-0.3203125,-18.658203125
0.203,17.45703125,4.00390625,-20.580078125
0.2035,14.654296875,7.287109375,-21.1806640625
0.204,11.53125,10.8505859375,-21.78125
0.2045,7.20703125,14.6943359375,-21.5009765625
0.205,2.642578125,17.77734375,-20.2197265625
0.2055,-2.2021484375,19.859375,-17.77734375
0.206,-5.845703125,21.220703125,-15.6953125
0.2065,-9.1689453125,21.5009765625,-12.892578125
0.207,-12.65234375,21.541015625,-9.609375
0.2075,-16.0556640625,20.8203125,-5.6455078125
0.208,-18.73828125,19.21875,-1.361328125
0.2085,-20.7001953125,16.576171875,3.1630859375
0.209,-21.3408203125,13.93359375,6.40625
0.2095,-21.8212890625,10.73046875,10.08984375
0.21,-21.5810546875,6.6865234375,13.853515625
0.2105,-20.7001953125,2.7626953125,16.896484375
0.211,-18.8583984375,-1.4013671875,19.1787109375
0.2115,-16.6162109375,-5.3251953125,20.900390625
0.212,-13.5732421875,-8.5283203125,21.2607421875
0.2125,-10.2900390625,-11.8916015625,21.5009765625
0.213,-5.8857421875,-15.5751953125,20.98046875
0.2135,-1.2412109375,-18.3779296875,19.37890625
0.214,3.3232421875,-20.01953125,16.736328125
0.2145,6.4462890625,-20.8603515625,14.654296875
0.215,9.9697265625,-21.30078125,11.7314453125
0.2155,13.373046875,-21.0205078125,8.2080078125
0.216,16.3359375,-20.0595703125,4.404296875
0.2165,18.8583984375,-18.2177734375,0.0
0.217,20.5400390625,-15.8154296875,-4.0439453125
0.2175,20.8203125,-12.892578125,-7.126953125
0.218,21.2607421875,-9.8095703125,-10.5703125
0.2185,20.7802734375,-5.685546875,-14.25390625
0.219,19.859375,-1.9619140625,-17.056640625
