wavelength,x,y,z
0.0,-16.811401367188,-4.0389404296875,19.904418945312
0.0005,-14.689331054688,-7.2420654296875,21.025512695312
0.001,-11.286010742188,-10.405151367188,20.905395507812
0.0015,-6.5213623046875,-14.409057617188,20.184692382812
0.002,-2.0770263671875,-17.452026367188,19.143676757812
0.0025,2.5675048828125,-19.694213867188,16.981567382812
0.003,5.6905517578125,-20.535034179688,15.019653320312
0.0035,8.8135986328125,-20.975463867188,12.457153320312
0.004,12.016723632812,-21.015502929688,9.5343017578125
0.0045,16.020629882812,-19.894409179688,4.6094970703125
0.005,18.863403320312,-18.092651367188,0.1251220703125
0.0055,20.384887695312,-16.170776367188,-3.3582763671875
0.006,20.945434570312,-14.048706054688,-6.3612060546875
0.0065,21.025512695312,-10.765502929688,-9.4442138671875
0.007,20.705200195312,-6.7215576171875,-13.167846679688
0.0075,19.984497070312,-2.7176513671875,-16.411010742188
0.008,18.182739257812,1.6065673828125,-18.933471679688
0.0085,15.860473632812,4.7696533203125,-19.894409179688
0.009,13.458129882812,7.8927001953125,-20.615112304688
0.0095,10.014770507812,11.215942382812,-20.695190429688
0.01,4.8497314453125,15.219848632812,-19.574096679688
0.0105,0.4454345703125,17.942504882812,-18.172729492188
0.011,-3.5184326171875,19.744262695312,-16.290893554688
0.0115,-6.4813232421875,20.505004882812,-14.288940429688
0.012,-9.7645263671875,20.625122070312,-11.406127929688
0.0125,-13.127807617188,20.344848632812,-7.8826904296875
0.013,-16.691284179688,19.263793945312,-3.3983154296875
0.0135,-19.253784179688,17.141723632812,1.2462158203125
0.014,-20.374877929688,15.219848632812,4.1690673828125
0.0145,-20.975463867188,12.777465820312,7.2120361328125
0.015,-20.895385742188,9.6544189453125,10.295043945312
0.0155,-20.294799804688,5.0899658203125,14.218872070312
0.016,-19.293823242188,1.2862548828125,17.141723632812
0.0165,-17.492065429688,-2.7176513671875,19.263793945312
0.017,-15.249877929688,-5.7606201171875,20.144653320312
0.0175,-12.367065429688,-9.0037841796875,20.464965820312
0.018,-8.6834716796875,-12.447143554688,20.464965820312
0.0185,-3.6385498046875,-16.090698242188,19.223754882812
0.019,1.0860595703125,-18.493041992188,17.301879882812
0.0195,4.3292236328125,-19.894409179688,15.580200195312
0.02,7.1719970703125,-20.695190429688,13.538208007812
0.0205,10.575317382812,-20.575073242188,10.455200195312
0.021,14.258911132812,-19.894409179688,6.2911376953125
0.0215,17.421997070312,-18.733276367188,2.0870361328125
0.022,19.664184570312,-16.651245117188,-2.2772216796875
0.0225,20.344848632812,-14.489135742188,-4.9998779296875
0.023,20.705200195312,-11.806518554688,-8.0428466796875
0.0235,20.625122070312,-8.3631591796875,-11.406127929688
0.024,19.864379882812,-4.0389404296875,-15.049682617188
0.0245,18.382934570312,0.0450439453125,-17.612182617188
0.025,16.621215820312,3.4884033203125,-19.293823242188
0.0255,14.338989257812,6.4512939453125,-20.214721679688
0.026,11.015747070312,9.7344970703125,-20.134643554688
0.0265,6.7716064453125,13.498168945312,-19.774291992188
0.027,2.0870361328125,16.781372070312,-18.573120117188
0.0275,-2.3572998046875,18.903442382812,-16.491088867188
0.028,-5.1600341796875,19.784301757812,-14.769409179688
0.0285,-8.2430419921875,20.384887695312,-12.527221679688
0.029,-11.526245117188,20.184692382812,-9.2840576171875
0.0295,-15.169799804688,19.303833007812,-4.8797607421875
0.03,-17.972534179688,17.702270507812,-0.6356201171875
0.0305,-19.854370117188,15.740356445312,3.2081298828125
0.031,-20.294799804688,13.498168945312,5.8907470703125
0.0315,-20.535034179688,10.535278320312,9.0137939453125
0.032,-20.254760742188,6.6915283203125,12.617309570312
0.0325,-19.534057617188,2.6876220703125,15.980590820312
0.033,-17.732299804688,-1.4364013671875,18.222778320312
0.0335,-15.850463867188,-4.5194091796875,19.504028320312
0.034,-13.488159179688,-7.5223388671875,20.184692382812
0.0345,-9.9647216796875,-10.805541992188,20.024536132812
0.035,-5.4403076171875,-14.369018554688,19.223754882812
0.0355,-0.9158935546875,-17.331909179688,17.902465820312
0.036,3.2481689453125,-19.213745117188,15.860473632812
0.0365,5.8907470703125,-19.734252929688,14.018676757812
0.037,9.0538330078125,-20.214721679688,11.536254882812
0.0375,12.537231445312,-19.854370117188,7.8526611328125
0.038,15.860473632812,-18.813354492188,3.6485595703125
0.0385,18.302856445312,-16.971557617188,-0.5955810546875
0.039,19.704223632812,-15.089721679688,-3.8387451171875
0.0395,20.064575195312,-12.887573242188,-6.7215576171875
0.04,20.184692382812,-9.6043701171875,-9.7645263671875
0.0405,19.624145507812,-5.5203857421875,-13.287963867188
0.041,18.743286132812,-1.6766357421875,-16.330932617188
0.0415,16.821411132812,2.2071533203125,-18.292846679688
0.042,14.739379882812,5.0499267578125,-19.093627929688
0.0425,12.296997070312,8.1329345703125,-19.774291992188
0.043,8.2930908203125,11.816528320312,-19.494018554688
0.0435,3.8887939453125,15.019653320312,-18.533081054688
0.044,-0.4754638671875,17.421997070312,-16.851440429688
0.0445,-3.9188232421875,19.023559570312,-15.209838867188
0.045,-6.5614013671875,19.463989257812,-13.167846679688
0.0455,-9.6444091796875,19.704223632812,-10.565307617188
0.046,-13.328002929688,19.183715820312,-6.5213623046875
0.0465,-16.370971679688,17.942504882812,-2.3973388671875
0.047,-18.453002929688,15.980590820312,1.5665283203125
0.0475,-19.253784179688,14.098754882812,4.4093017578125
0.048,-19.894409179688,11.656372070312,7.2921142578125
0.0485,-19.814331054688,8.1329345703125,10.815551757812
0.049,-19.173706054688,4.2491455078125,13.978637695312
0.0495,-18.012573242188,0.4454345703125,16.701293945312
0.05,-16.290893554688,-3.1981201171875,18.543090820312
0.0505,-14.048706054688,-5.8406982421875,19.063598632812
0.051,-11.486206054688,-8.8436279296875,19.544067382812
0.0515,-7.0819091796875,-12.647338867188,19.103637695312
0.052,-2.6776123046875,-15.690307617188,17.942504882812
0.0525,1.4063720703125,-17.692260742188,16.140747070312
0.053,4.3292236328125,-18.933471679688,14.659301757812
0.0535,7.2120361328125,-19.373901367188,12.417114257812
0.054,10.415161132812,-19.373901367188,9.3341064453125
0.0545,13.938598632812,-18.693237304688,5.4503173828125
0.055,16.741333007812,-17.291870117188,1.2862548828125
0.0555,18.543090820312,-15.450073242188,-2.3572998046875
0.056,19.063598632812,-13.488159179688,-4.8797607421875
0.0565,19.504028320312,-10.925659179688,-7.7625732421875
0.057,19.223754882812,-6.9617919921875,-11.526245117188
0.0575,18.583129882812,-3.2781982421875,-14.569213867188
0.058,17.101684570312,0.4454345703125,-16.731323242188
0.0585,15.460083007812,3.6885986328125,-18.332885742188
0.059,13.017700195312,6.4112548828125,-18.773315429688
0.0595,9.9747314453125,9.5743408203125,-18.973510742188
0.06,5.7706298828125,13.137817382812,-18.493041992188
0.0605,1.3262939453125,16.140747070312,-17.171752929688
0.061,-2.4774169921875,17.742309570312,-15.410034179688
0.0615,-4.9998779296875,18.623168945312,-13.808471679688
0.062,-8.0028076171875,19.183715820312,-11.606323242188
0.0625,-11.486206054688,18.823364257812,-7.9227294921875
0.063,-14.609252929688,18.062622070312,-4.1990966796875
0.0635,-17.131713867188,16.501098632812,-0.1951904296875
0.064,-18.733276367188,14.659301757812,3.1280517578125
0.0645,-19.093627929688,12.457153320312,5.7706298828125
0.065,-19.494018554688,9.7344970703125,8.8536376953125
0.0655,-19.093627929688,5.6505126953125,12.577270507812
0.066,-18.292846679688,1.8868408203125,15.620239257812
0.0665,-16.611206054688,-1.6766357421875,17.421997070312
0.067,-14.889526367188,-4.5994873046875,18.623168945312
0.0675,-12.367065429688,-7.5623779296875,19.143676757812
0.068,-8.4432373046875,-11.085815429688,18.903442382812
0.0685,-4.4793701171875,-14.248901367188,18.182739257812
0.069,0.0450439453125,-16.971557617188,16.501098632812
0.0695,3.5284423828125,-18.412963867188,14.899536132812
0.07,6.0909423828125,-18.853393554688,12.977661132812
0.0705,8.9737548828125,-19.373901367188,10.815551757812
0.071,12.937622070312,-18.733276367188,6.4112548828125
0.0715,15.820434570312,-17.652221679688,2.5274658203125
0.072,17.862426757812,-15.970581054688,-1.0360107421875
0.0725,19.063598632812,-14.248901367188,-4.1190185546875
0.073,19.223754882812,-11.686401367188,-6.8016357421875
0.0735,19.343872070312,-8.3231201171875,-10.244995117188
0.074,18.863403320312,-4.6395263671875,-13.448120117188
0.0745,17.742309570312,-0.7156982421875,-16.290893554688
0.075,15.860473632812,2.7276611328125,-17.852416992188
0.0755,13.778442382812,5.4102783203125,-18.453002929688
0.076,11.456176757812,8.3331298828125,-19.133666992188
0.0765,6.6514892578125,12.296997070312,-18.453002929688
0.077,2.8077392578125,15.059692382812,-17.572143554688
0.0775,-1.1561279296875,17.141723632812,-15.890502929688
0.078,-4.3592529296875,18.543090820312,-14.328979492188
0.0785,-7.0018310546875,18.703247070312,-12.126831054688
0.079,-9.9246826171875,18.983520507812,-9.6043701171875
0.0795,-13.688354492188,18.382934570312,-5.4002685546875
0.08,-16.531127929688,16.741333007812,-1.3162841796875
0.0805,-18.092651367188,15.139770507812,2.0469970703125
0.081,-18.933471679688,13.297973632812,4.7696533203125
0.0815,-19.253784179688,10.855590820312,7.5323486328125
0.082,-19.093627929688,6.7716064453125,11.376098632812
0.0825,-18.533081054688,3.4083251953125,14.218872070312
0.083,-17.211791992188,-0.3553466796875,16.781372070312
0.0835,-15.450073242188,-3.6385498046875,18.222778320312
0.084,-13.087768554688,-6.2811279296875,18.543090820312
0.0845,-10.525268554688,-9.2440185546875,19.023559570312
0.085,-5.7205810546875,-13.127807617188,18.262817382812
0.0855,-1.4364013671875,-15.890502929688,16.941528320312
0.086,2.0469970703125,-17.492065429688,15.380004882812
0.0865,4.9698486328125,-18.733276367188,13.818481445312
0.087,7.8526611328125,-18.933471679688,11.416137695312
0.0875,11.255981445312,-18.773315429688,7.9727783203125
0.088,14.579223632812,-18.172729492188,4.3292236328125
0.0885,17.101684570312,-16.611206054688,0.0450439453125
0.089,18.503051757812,-14.809448242188,-2.9578857421875
0.0895,18.943481445312,-12.567260742188,-5.6004638671875
0.09,19.383911132812,-10.124877929688,-8.4832763671875
0.0905,18.943481445312,-5.6805419921875,-12.527221679688
0.091,17.982543945312,-2.1971435546875,-15.289916992188
0.0915,16.621215820312,1.3262939453125,-17.171752929688
0.092,14.859497070312,4.5294189453125,-18.573120117188
0.0925,12.016723632812,7.3721923828125,-18.773315429688
0.093,8.6134033203125,10.855590820312,-18.893432617188
0.0935,4.3292236328125,14.338989257812,-18.292846679688
0.094,-0.3153076171875,16.941528320312,-16.531127929688
0.0945,-3.3983154296875,18.262817382812,-14.929565429688
0.095,-6.2811279296875,19.143676757812,-13.127807617188
0.0955,-9.1639404296875,19.463989257812,-10.845581054688
0.096,-13.207885742188,18.703247070312,-6.2811279296875
0.0965,-16.090698242188,17.782348632812,-2.5174560546875
0.097,-18.252807617188,16.060668945312,1.4063720703125
0.0975,-19.494018554688,14.138793945312,4.4493408203125
0.098,-19.694213867188,11.496215820312,7.2921142578125
0.0985,-19.894409179688,8.4532470703125,10.535278320312
0.099,-19.373901367188,4.2091064453125,14.258911132812
0.0995,-18.092651367188,0.1651611328125,17.061645507812
0.1,-16.170776367188,-3.1580810546875,18.463012695312
0.1005,-14.288940429688,-6.1209716796875,19.624145507812
0.101,-11.326049804688,-9.1239013671875,19.704223632812
0.1015,-6.6815185546875,-13.047729492188,19.103637695312
0.102,-2.5975341796875,-16.090698242188,18.222778320312
0.1025,1.9268798828125,-18.332885742188,16.300903320312
0.103,4.9698486328125,-19.373901367188,14.539184570312
0.1035,7.9327392578125,-19.814331054688,12.176879882812
0.104,11.015747070312,-20.054565429688,9.4942626953125
0.1045,14.899536132812,-19.093627929688,4.8096923828125
0.105,17.742309570312,-17.532104492188,0.5655517578125
0.1055,19.263793945312,-15.690307617188,-2.8377685546875
0.106,20.104614257812,-13.648315429688,-5.7205810546875
0.1065,20.104614257812,-10.605346679688,-8.6834716796875
0.107,19.864379882812,-6.7615966796875,-12.327026367188
0.1075,19.223754882812,-3.0379638671875,-15.410034179688
0.108,17.622192382812,1.2061767578125,-17.972534179688
0.1085,15.420043945312,4.3292236328125,-19.013549804688
0.109,13.057739257812,7.2921142578125,-19.654174804688
0.1095,10.054809570312,10.415161132812,-19.894409179688
0.11,4.9298095703125,14.379028320312,-18.853393554688
0.1105,0.7657470703125,17.221801757812,-17.371948242188
0.111,-3.1180419921875,18.823364257812,-15.730346679688
0.1115,-6.0809326171875,19.784301757812,-13.808471679688
0.112,-9.1639404296875,19.824340820312,-11.045776367188
0.1125,-12.327026367188,19.584106445312,-7.9627685546875
0.113,-15.850463867188,18.663208007812,-3.6785888671875
0.1135,-18.453002929688,16.701293945312,0.9259033203125
0.114,-19.534057617188,14.779418945312,3.8487548828125
0.1145,-20.214721679688,12.537231445312,6.6915283203125
0.115,-20.214721679688,9.6143798828125,9.6143798828125
0.1155,-19.654174804688,5.1700439453125,13.538208007812
0.116,-18.653198242188,1.5264892578125,16.340942382812
0.1165,-17.091674804688,-2.3172607421875,18.503051757812
0.117,-14.929565429688,-5.3602294921875,19.463989257812
0.1175,-12.086791992188,-8.3631591796875,19.704223632812
0.118,-8.7635498046875,-11.686401367188,19.824340820312
0.1185,-3.8787841796875,-15.410034179688,18.703247070312
0.119,0.8057861328125,-17.852416992188,16.821411132812
0.1195,3.9688720703125,-19.173706054688,15.219848632812
0.12,6.8917236328125,-20.014526367188,13.378051757812
0.1205,10.054809570312,-20.054565429688,10.375122070312
0.121,13.738403320312,-19.453979492188,6.3311767578125
0.1215,16.741333007812,-18.372924804688,2.3272705078125
0.122,19.063598632812,-16.370971679688,-1.9569091796875
0.1225,19.864379882812,-14.288940429688,-4.6795654296875
0.123,20.224731445312,-11.686401367188,-7.7225341796875
0.1235,20.224731445312,-8.5233154296875,-10.885620117188
0.124,19.504028320312,-4.0789794921875,-14.449096679688
0.1245,18.182739257812,-0.1551513671875,-17.291870117188
0.125,16.380981445312,3.3282470703125,-18.933471679688
0.1255,14.178833007812,6.4112548828125,-19.814331054688
0.126,10.935668945312,9.5743408203125,-19.894409179688
0.1265,6.8516845703125,13.257934570312,-19.614135742188
0.127,2.3673095703125,16.581176757812,-18.613159179688
0.1275,-2.2772216796875,18.783325195312,-16.451049804688
0.128,-5.1600341796875,19.624145507812,-14.729370117188
0.1285,-8.2030029296875,20.344848632812,-12.527221679688
0.129,-11.526245117188,20.224731445312,-9.4041748046875
0.1295,-15.329956054688,19.343872070312,-4.8397216796875
0.13,-18.132690429688,17.822387695312,-0.5955810546875
0.1305,-20.094604492188,15.820434570312,3.3682861328125
0.131,-20.695190429688,13.578247070312,6.1710205078125
0.1315,-20.935424804688,10.455200195312,9.5343017578125
0.132,-20.655151367188,6.6915283203125,13.057739257812
0.1325,-19.934448242188,2.5274658203125,16.501098632812
0.133,-18.052612304688,-1.7967529296875,18.903442382812
0.1335,-16.010620117188,-4.9998779296875,20.184692382812
0.134,-13.608276367188,-8.1229248046875,20.945434570312
0.1345,-9.8846435546875,-11.566284179688,20.785278320312
0.135,-5.1600341796875,-15.249877929688,19.864379882812
0.1355,-0.6356201171875,-18.292846679688,18.503051757812
0.136,3.9288330078125,-20.214721679688,16.340942382812
0.1365,6.6915283203125,-20.775268554688,14.258911132812
0.137,10.094848632812,-21.175659179688,11.536254882812
0.1375,13.658325195312,-20.775268554688,7.6925048828125
0.138,17.181762695312,-19.574096679688,3.1680908203125
0.1385,19.784301757812,-17.572143554688,-1.3563232421875
0.139,21.225708007812,-15.450073242188,-4.8797607421875
0.1395,21.505981445312,-12.847534179688,-7.8026123046875
0.14,21.505981445312,-9.3641357421875,-11.286010742188
0.1405,20.785278320312,-5.0799560546875,-14.889526367188
0.141,19.824340820312,-0.9559326171875,-18.092651367188
0.1415,17.662231445312,3.3282470703125,-20.174682617188
0.142,15.219848632812,6.4112548828125,-20.815307617188
0.1425,12.457153320312,9.6143798828125,-21.455932617188
0.143,8.0128173828125,13.498168945312,-20.935424804688
0.1435,3.2882080078125,16.741333007812,-19.974487304688
0.144,-1.4364013671875,19.343872070312,-17.892456054688
0.1445,-5.2801513671875,20.985473632812,-15.890502929688
0.145,-8.1229248046875,21.145629882812,-13.448120117188
0.1455,-11.526245117188,21.345825195312,-10.525268554688
0.146,-15.329956054688,20.585083007812,-6.1209716796875
0.1465,-18.533081054688,19.143676757812,-1.5565185546875
0.147,-20.695190429688,16.901489257812,2.8477783203125
0.1475,-21.656127929688,14.659301757812,6.0108642578125
0.148,-21.936401367188,11.816528320312,9.0938720703125
0.1485,-21.736206054688,7.8126220703125,12.857543945312
0.149,-20.775268554688,3.6485595703125,16.180786132812
0.1495,-19.373901367188,-0.6356201171875,19.023559570312
0.15,-17.251831054688,-4.5994873046875,20.865356445312
0.1505,-14.569213867188,-7.4822998046875,21.185668945312
0.151,-11.606323242188,-10.725463867188,21.586059570312
0.1515,-6.7215576171875,-14.729370117188,20.825317382812
0.152,-1.9168701171875,-17.892456054688,19.383911132812
0.1525,2.6075439453125,-19.934448242188,17.221801757812
0.153,6.0509033203125,-21.175659179688,15.299926757812
0.1535,9.0538330078125,-21.375854492188,12.657348632812
0.154,12.497192382812,-21.295776367188,9.1339111328125
0.1545,16.180786132812,-20.334838867188,4.8897705078125
0.155,19.223754882812,-18.573120117188,0.2852783203125
0.1555,21.025512695312,-16.370971679688,-3.7987060546875
0.156,21.465942382812,-13.968627929688,-6.6014404296875
0.1565,21.746215820312,-11.005737304688,-9.8846435546875
0.157,21.265747070312,-6.6815185546875,-13.768432617188
0.1575,20.344848632812,-2.6375732421875,-16.851440429688
0.158,18.543090820312,1.5264892578125,-19.213745117188
0.1585,16.461059570312,5.2100830078125,-20.815307617188
0.159,13.458129882812,8.2130126953125,-20.895385742188
0.1595,10.214965820312,11.536254882812,-21.095581054688
0.16,5.3702392578125,15.380004882812,-20.254760742188
0.1605,0.4454345703125,18.463012695312,-18.613159179688
0.161,-3.7186279296875,20.104614257812,-16.491088867188
0.1615,-6.7215576171875,20.985473632812,-14.529174804688
0.162,-9.8846435546875,21.345825195312,-11.846557617188
0.1625,-13.648315429688,20.745239257812,-7.8026123046875
0.163,-16.971557617188,19.704223632812,-3.6385498046875
0.1635,-19.734252929688,17.782348632812,1.0860595703125
0.164,-21.295776367188,15.540161132812,4.7696533203125
0.1645,-21.495971679688,12.857543945312,7.6124267578125
0.165,-21.776245117188,9.8946533203125,10.935668945312
0.1655,-21.095581054688,5.1700439453125,14.979614257812
0.166,-20.014526367188,1.0460205078125,18.022583007812
0.1665,-17.932495117188,-2.9578857421875,19.904418945312
0.167,-15.850463867188,-6.2811279296875,21.265747070312
0.1675,-12.767456054688,-9.4442138671875,21.425903320312
0.168,-8.6033935546875,-13.207885742188,21.105590820312
0.1685,-4.0389404296875,-16.611206054688,20.144653320312
0.169,1.0860595703125,-19.494018554688,18.182739257812
0.1695,4.9298095703125,-20.895385742188,16.060668945312
0.17,7.8126220703125,-21.335815429688,13.778442382812
0.1705,11.175903320312,-21.736206054688,11.055786132812
0.171,15.380004882812,-20.775268554688,6.1309814453125
0.1715,18.382934570312,-19.413940429688,1.8868408203125
0.172,20.625122070312,-17.371948242188,-2.4373779296875
0.1725,21.826293945312,-15.129760742188,-5.7606201171875
0.173,21.786254882812,-12.086791992188,-8.8035888671875
0.1735,21.826293945312,-8.5233154296875,-12.407104492188
0.174,21.025512695312,-4.1590576171875,-16.010620117188
0.1745,19.624145507812,0.4053955078125,-19.013549804688
0.175,17.261840820312,4.1290283203125,-20.535034179688
0.1755,14.859497070312,7.2520751953125,-21.335815429688
0.176,11.816528320312,10.535278320312,-21.736206054688
0.1765,6.5313720703125,14.779418945312,-20.815307617188
0.177,2.2471923828125,17.742309570312,-19.614135742188
0.1775,-2.5174560546875,20.144653320312,-17.612182617188
0.178,-6.0809326171875,21.385864257812,-15.530151367188
