wavelength,x,y,z
0.0,-9.198974609375,5.575439453125,3.373291015625
0.0005,-9.479248046875,4.053955078125,5.215087890625
0.001,-8.918701171875,2.252197265625,6.376220703125
0.0015,-8.518310546875,0.770751953125,7.697509765625
0.002,-7.557373046875,-0.990966796875,8.258056640625
0.0025,-6.396240234375,-2.792724609375,8.898681640625
0.003,-4.554443359375,-5.034912109375,9.299072265625
0.0035,-2.712646484375,-6.516357421875,8.978759765625
0.004,-1.031005859375,-7.757568359375,8.618408203125
0.0045,0.370361328125,-8.678466796875,8.137939453125
0.005,1.971923828125,-9.239013671875,7.177001953125
0.0055,3.773681640625,-9.759521484375,5.935791015625
0.006,5.495361328125,-10.039794921875,4.534423828125
0.0065,6.536376953125,-9.319091796875,2.852783203125
0.007,7.697509765625,-8.998779296875,1.411376953125
0.0075,8.177978515625,-8.037841796875,-0.110107421875
0.008,8.698486328125,-6.956787109375,-1.711669921875
0.0085,9.218994140625,-5.635498046875,-3.593505859375
0.009,9.098876953125,-4.114013671875,-4.994873046875
0.0095,8.738525390625,-2.552490234375,-6.276123046875
0.01,8.177978515625,-0.990966796875,-7.197021484375
0.0105,7.377197265625,0.570556640625,-7.877685546875
0.011,6.216064453125,2.372314453125,-8.478271484375
0.0115,4.574462890625,4.374267578125,-8.918701171875
0.012,2.852783203125,5.615478515625,-8.438232421875
0.0125,1.451416015625,6.896728515625,-8.318115234375
0.013,0.130126953125,7.697509765625,-7.837646484375
0.0135,-1.431396484375,8.338134765625,-7.036865234375
0.014,-3.153076171875,8.938720703125,-5.915771484375
0.0145,-4.554443359375,8.978759765625,-4.634521484375
0.015,-5.675537109375,8.538330078125,-3.153076171875
0.0155,-6.756591796875,8.258056640625,-1.751708984375
0.016,-7.397216796875,7.417236328125,-0.350341796875
0.0165,-8.077880859375,6.376220703125,1.291259765625
0.017,-8.518310546875,5.215087890625,3.012939453125
0.0175,-8.478271484375,3.733642578125,4.214111328125
0.018,-8.318115234375,2.452392578125,5.615478515625
0.0185,-7.757568359375,0.970947265625,6.576416015625
0.019,-7.116943359375,-0.630615234375,7.417236328125
0.0195,-5.875732421875,-2.432373046875,8.017822265625
0.02,-4.434326171875,-4.154052734375,8.298095703125
0.0205,-2.872802734375,-5.395263671875,8.017822265625
0.021,-1.591552734375,-6.756591796875,8.137939453125
0.0215,-0.310302734375,-7.517333984375,7.657470703125
0.022,1.291259765625,-8.318115234375,6.936767578125
0.0225,2.932861328125,-8.918701171875,5.895751953125
0.023,4.134033203125,-8.838623046875,4.614501953125
0.0235,5.375244140625,-8.678466796875,3.333251953125
0.024,6.336181640625,-8.318115234375,2.052001953125
0.0245,7.096923828125,-7.637451171875,0.650634765625
0.025,7.777587890625,-6.876708984375,-0.990966796875
0.0255,8.338134765625,-5.795654296875,-2.712646484375
0.026,8.298095703125,-4.514404296875,-3.793701171875
0.0265,8.258056640625,-3.032958984375,-5.235107421875
0.027,7.737548828125,-1.631591796875,-6.115966796875
0.0275,7.136962890625,0.050048828125,-7.116943359375
0.028,5.935791015625,1.891845703125,-7.837646484375
0.0285,4.614501953125,3.453369140625,-7.997802734375
0.029,3.213134765625,4.814697265625,-7.997802734375
0.0295,1.931884765625,6.095947265625,-8.037841796875
0.03,0.610595703125,6.976806640625,-7.597412109375
0.0305,-0.990966796875,7.817626953125,-6.916748046875
0.031,-2.632568359375,8.378173828125,-5.915771484375
0.0315,-3.833740234375,8.258056640625,-4.634521484375
0.032,-5.275146484375,8.258056640625,-3.273193359375
0.0325,-6.035888671875,7.817626953125,-1.951904296875
0.033,-7.076904296875,7.056884765625,-0.310302734375
0.0335,-7.757568359375,6.135986328125,1.331298828125
0.034,-8.197998046875,5.094970703125,2.892822265625
0.0345,-8.157958984375,3.693603515625,4.214111328125
0.035,-8.077880859375,2.212158203125,5.655517578125
0.0355,-7.557373046875,0.730712890625,6.576416015625
0.036,-6.676513671875,-1.111083984375,7.497314453125
0.0365,-5.275146484375,-3.072998046875,8.057861328125
0.037,-3.753662109375,-4.514404296875,7.977783203125
0.0375,-2.392333984375,-5.955810546875,8.137939453125
0.038,-1.071044921875,-7.036865234375,7.897705078125
0.0385,0.530517578125,-7.877685546875,7.297119140625
0.039,2.212158203125,-8.678466796875,6.416259765625
0.0395,3.813720703125,-8.998779296875,5.175048828125
0.04,5.014892578125,-8.758544921875,3.773681640625
0.0405,6.376220703125,-8.758544921875,2.252197265625
0.041,7.056884765625,-7.997802734375,0.970947265625
0.0415,7.857666015625,-7.156982421875,-0.710693359375
0.042,8.458251953125,-5.995849609375,-2.512451171875
0.0425,8.578369140625,-4.594482421875,-3.953857421875
0.043,8.418212890625,-3.072998046875,-5.315185546875
0.0435,8.017822265625,-1.591552734375,-6.436279296875
0.044,7.337158203125,0.090087890625,-7.357177734375
0.0445,6.135986328125,2.052001953125,-8.157958984375
0.045,4.614501953125,3.933837890625,-8.518310546875
0.0455,2.972900390625,5.335205078125,-8.278076171875
0.046,1.571533203125,6.736572265625,-8.318115234375
0.0465,0.130126953125,7.577392578125,-7.757568359375
0.047,-1.631591796875,8.378173828125,-6.916748046875
0.0475,-3.513427734375,9.018798828125,-5.715576171875
0.048,-4.914794921875,8.938720703125,-4.234130859375
0.0485,-6.316162109375,8.498291015625,-2.632568359375
0.049,-7.237060546875,8.097900390625,-1.191162109375
0.0495,-7.877685546875,7.096923828125,0.490478515625
0.05,-8.598388671875,6.055908203125,2.252197265625
0.0505,-9.078857421875,4.654541015625,4.174072265625
0.051,-8.678466796875,2.932861328125,5.495361328125
0.0515,-8.518310546875,1.411376953125,6.896728515625
0.052,-7.637451171875,-0.350341796875,7.697509765625
0.0525,-6.516357421875,-2.232177734375,8.458251953125
0.053,-4.914794921875,-4.354248046875,8.978759765625
0.0535,-3.113037109375,-6.075927734375,8.938720703125
0.054,-1.391357421875,-7.357177734375,8.498291015625
0.0545,0.090087890625,-8.478271484375,8.258056640625
0.055,1.891845703125,-9.118896484375,7.177001953125
0.0555,3.653564453125,-9.719482421875,6.015869140625
0.056,5.495361328125,-10.119873046875,4.614501953125
0.0565,6.656494140625,-9.479248046875,3.012939453125
0.057,7.817626953125,-9.118896484375,1.331298828125
0.0575,8.458251953125,-8.197998046875,-0.310302734375
0.058,8.978759765625,-6.876708984375,-2.112060546875
0.0585,9.459228515625,-5.515380859375,-3.913818359375
0.059,9.579345703125,-3.873779296875,-5.715576171875
0.0595,8.898681640625,-2.112060546875,-6.796630859375
0.06,8.458251953125,-0.510498046875,-7.957763671875
0.0605,7.217041015625,1.411376953125,-8.558349609375
0.061,5.855712890625,3.373291015625,-9.158935546875
0.0615,4.093994140625,5.415283203125,-9.479248046875
0.062,2.212158203125,6.856689453125,-9.038818359375
0.0625,0.610595703125,7.977783203125,-8.598388671875
0.063,-0.990966796875,8.898681640625,-7.957763671875
0.0635,-2.952880859375,9.419189453125,-6.596435546875
0.064,-4.674560546875,9.819580078125,-5.355224609375
0.0645,-6.356201171875,9.899658203125,-3.713623046875
0.065,-7.317138671875,9.018798828125,-2.031982421875
0.0655,-8.358154296875,8.538330078125,-0.510498046875
0.066,-8.838623046875,7.217041015625,1.371337890625
0.0665,-9.319091796875,5.895751953125,3.173095703125
0.067,-9.639404296875,4.454345703125,4.974853515625
0.0675,-9.359130859375,2.692626953125,6.416259765625
0.068,-8.678466796875,0.970947265625,7.537353515625
0.0685,-7.997802734375,-0.790771484375,8.498291015625
0.069,-6.476318359375,-2.792724609375,8.978759765625
0.0695,-4.994873046875,-4.714599609375,9.419189453125
0.07,-3.113037109375,-6.596435546875,9.419189453125
0.0705,-1.271240234375,-7.717529296875,8.778564453125
0.071,0.290283203125,-8.838623046875,8.418212890625
0.0715,1.971923828125,-9.519287109375,7.417236328125
0.072,3.853759765625,-9.959716796875,6.095947265625
0.0725,5.455322265625,-10.239990234375,4.774658203125
0.073,6.856689453125,-9.999755859375,3.173095703125
0.0735,7.697509765625,-9.239013671875,1.531494140625
0.074,8.578369140625,-8.518310546875,0.010009765625
0.0745,8.938720703125,-7.076904296875,-1.791748046875
0.075,9.339111328125,-5.915771484375,-3.393310546875
0.0755,9.619384765625,-4.434326171875,-5.155029296875
0.076,9.098876953125,-2.632568359375,-6.396240234375
0.0765,8.578369140625,-1.071044921875,-7.477294921875
0.077,7.657470703125,0.610595703125,-8.197998046875
0.0775,6.336181640625,2.492431640625,-8.758544921875
0.078,4.854736328125,4.334228515625,-9.118896484375
0.0785,3.133056640625,5.975830078125,-9.038818359375
0.079,1.411376953125,7.056884765625,-8.478271484375
0.0795,0.050048828125,8.177978515625,-8.238037109375
0.08,-1.671630859375,8.698486328125,-7.116943359375
0.0805,-3.313232421875,9.218994140625,-6.075927734375
0.081,-4.954833984375,9.459228515625,-4.794677734375
0.0815,-6.115966796875,8.978759765625,-3.193115234375
0.082,-7.156982421875,8.538330078125,-1.671630859375
0.0825,-7.917724609375,7.737548828125,-0.150146484375
0.083,-8.358154296875,6.536376953125,1.571533203125
0.0835,-8.838623046875,5.415283203125,3.173095703125
0.084,-9.038818359375,3.973876953125,4.814697265625
0.0845,-8.478271484375,2.252197265625,5.935791015625
0.085,-8.197998046875,0.810791015625,7.177001953125
0.0855,-7.197021484375,-0.910888671875,7.857666015625
0.086,-6.075927734375,-2.712646484375,8.498291015625
0.0865,-4.514404296875,-4.514404296875,8.778564453125
0.087,-2.832763671875,-5.955810546875,8.538330078125
0.0875,-1.351318359375,-7.116943359375,8.258056640625
0.088,0.130126953125,-8.157958984375,7.897705078125
0.0885,1.731689453125,-8.678466796875,6.896728515625
0.089,3.253173828125,-9.279052734375,5.935791015625
0.0895,4.814697265625,-9.479248046875,4.654541015625
0.09,5.895751953125,-8.958740234375,3.093017578125
0.0905,7.056884765625,-8.678466796875,1.731689453125
0.091,7.657470703125,-7.837646484375,0.290283203125
0.0915,8.258056640625,-6.876708984375,-1.351318359375
0.092,8.738525390625,-5.755615234375,-2.912841796875
0.0925,8.818603515625,-4.274169921875,-4.514404296875
0.093,8.378173828125,-2.792724609375,-5.595458984375
0.0935,8.057861328125,-1.271240234375,-6.796630859375
0.094,7.096923828125,0.410400390625,-7.477294921875
0.0945,6.135986328125,2.212158203125,-8.278076171875
0.095,4.614501953125,3.933837890625,-8.478271484375
0.0955,3.012939453125,5.295166015625,-8.318115234375
0.096,1.651611328125,6.576416015625,-8.238037109375
0.0965,0.250244140625,7.497314453125,-7.757568359375
0.097,-1.431396484375,8.177978515625,-6.916748046875
0.0975,-3.032958984375,8.698486328125,-5.915771484375
0.098,-4.514404296875,8.818603515625,-4.554443359375
0.0985,-5.635498046875,8.458251953125,-3.072998046875
0.099,-6.836669921875,8.177978515625,-1.631591796875
0.0995,-7.437255859375,7.177001953125,0.010009765625
0.1,-8.197998046875,6.296142578125,1.611572265625
0.1005,-8.678466796875,5.094970703125,3.293212890625
0.101,-8.558349609375,3.533447265625,4.774658203125
0.1015,-8.318115234375,2.052001953125,6.055908203125
0.102,-7.757568359375,0.450439453125,7.096923828125
0.1025,-6.716552734375,-1.391357421875,7.817626953125
0.103,-5.435302734375,-3.233154296875,8.418212890625
0.1035,-3.793701171875,-5.034912109375,8.578369140625
0.104,-2.232177734375,-6.356201171875,8.298095703125
0.1045,-0.830810546875,-7.597412109375,8.218017578125
0.105,0.810791015625,-8.358154296875,7.377197265625
0.1055,2.532470703125,-9.118896484375,6.456298828125
0.106,4.134033203125,-9.479248046875,5.255126953125
0.1065,5.535400390625,-9.239013671875,3.733642578125
0.107,6.656494140625,-8.878662109375,2.252197265625
0.1075,7.657470703125,-8.318115234375,0.730712890625
0.108,8.218017578125,-7.116943359375,-1.071044921875
0.1085,8.858642578125,-6.115966796875,-2.712646484375
0.109,9.098876953125,-4.674560546875,-4.434326171875
0.1095,8.698486328125,-2.952880859375,-5.755615234375
0.11,8.418212890625,-1.431396484375,-6.996826171875
0.1105,7.497314453125,0.370361328125,-7.797607421875
0.111,6.216064453125,2.372314453125,-8.518310546875
0.1115,4.734619140625,4.214111328125,-8.918701171875
0.112,2.972900390625,5.815673828125,-8.798583984375
0.1125,1.411376953125,7.056884765625,-8.398193359375
0.113,-0.150146484375,8.097900390625,-8.077880859375
0.1135,-2.072021484375,8.778564453125,-6.876708984375
0.114,-3.833740234375,9.339111328125,-5.715576171875
0.1145,-5.395263671875,9.459228515625,-4.354248046875
0.115,-6.556396484375,8.938720703125,-2.632568359375
0.1155,-7.677490234375,8.458251953125,-1.111083984375
0.116,-8.398193359375,7.417236328125,0.690673828125
0.1165,-8.958740234375,6.055908203125,2.652587890625
0.117,-9.279052734375,4.774658203125,4.294189453125
0.1175,-9.279052734375,3.133056640625,5.935791015625
0.118,-8.598388671875,1.291259765625,7.056884765625
0.1185,-8.077880859375,-0.350341796875,8.177978515625
0.119,-6.596435546875,-2.512451171875,8.818603515625
0.1195,-5.074951171875,-4.554443359375,9.339111328125
0.12,-3.193115234375,-6.276123046875,9.259033203125
0.1205,-1.431396484375,-7.637451171875,8.858642578125
0.121,0.210205078125,-8.678466796875,8.338134765625
0.1215,1.851806640625,-9.519287109375,7.577392578125
0.122,3.893798828125,-10.039794921875,6.055908203125
0.1225,5.495361328125,-10.159912109375,4.654541015625
0.123,6.896728515625,-9.959716796875,3.093017578125
0.1235,7.817626953125,-9.158935546875,1.411376953125
0.124,8.698486328125,-8.518310546875,-0.150146484375
0.1245,9.098876953125,-7.076904296875,-2.031982421875
0.125,9.579345703125,-5.675537109375,-3.873779296875
0.1255,9.619384765625,-4.234130859375,-5.315185546875
0.126,9.259033203125,-2.472412109375,-6.756591796875
0.1265,8.458251953125,-0.790771484375,-7.677490234375
0.127,7.697509765625,0.930908203125,-8.518310546875
0.1275,6.055908203125,3.133056640625,-9.078857421875
0.128,4.494384765625,4.934814453125,-9.359130859375
0.1285,2.692626953125,6.456298828125,-9.118896484375
0.129,1.051025390625,7.537353515625,-8.638427734375
0.1295,-0.510498046875,8.498291015625,-8.157958984375
0.13,-2.232177734375,9.138916015625,-7.076904296875
0.1305,-4.114013671875,9.619384765625,-5.715576171875
0.131,-5.475341796875,9.619384765625,-4.354248046875
0.1315,-6.756591796875,9.218994140625,-2.752685546875
0.132,-7.597412109375,8.458251953125,-1.231201171875
0.1325,-8.398193359375,7.737548828125,0.370361328125
0.133,-8.798583984375,6.216064453125,2.292236328125
0.1335,-9.158935546875,4.974853515625,3.893798828125
0.134,-9.158935546875,3.573486328125,5.335205078125
0.1345,-8.678466796875,1.851806640625,6.536376953125
0.135,-8.157958984375,0.330322265625,7.617431640625
0.1355,-7.197021484375,-1.431396484375,8.298095703125
0.136,-5.635498046875,-3.473388671875,8.858642578125
0.1365,-4.073974609375,-5.114990234375,8.938720703125
0.137,-2.392333984375,-6.636474609375,8.698486328125
0.1375,-0.910888671875,-7.637451171875,8.258056640625
0.138,0.610595703125,-8.598388671875,7.857666015625
0.1385,2.332275390625,-9.118896484375,6.696533203125
0.139,3.933837890625,-9.559326171875,5.615478515625
0.1395,5.215087890625,-9.559326171875,4.334228515625
0.14,6.416259765625,-9.118896484375,2.772705078125
0.1405,7.297119140625,-8.598388671875,1.411376953125
0.141,8.017822265625,-7.797607421875,-0.150146484375
0.1415,8.458251953125,-6.556396484375,-1.871826171875
0.142,8.898681640625,-5.555419921875,-3.273193359375
0.1425,8.898681640625,-4.114013671875,-4.794677734375
0.143,8.338134765625,-2.512451171875,-5.835693359375
0.1435,8.017822265625,-1.031005859375,-7.036865234375
0.144,7.016845703125,0.730712890625,-7.677490234375
0.1445,5.855712890625,2.572509765625,-8.358154296875
0.145,4.494384765625,4.053955078125,-8.478271484375
0.1455,2.852783203125,5.495361328125,-8.318115234375
0.146,1.531494140625,6.616455078125,-8.117919921875
0.1465,0.130126953125,7.657470703125,-7.717529296875
0.147,-1.631591796875,8.258056640625,-6.716552734375
0.1475,-3.153076171875,8.738525390625,-5.795654296875
0.148,-4.474365234375,8.778564453125,-4.514404296875
0.1485,-5.635498046875,8.378173828125,-3.072998046875
0.149,-6.676513671875,8.057861328125,-1.671630859375
0.1495,-7.357177734375,7.096923828125,0.010009765625
0.15,-8.037841796875,6.216064453125,1.571533203125
0.1505,-8.438232421875,5.175048828125,3.012939453125
0.151,-8.478271484375,3.693603515625,4.534423828125
0.1515,-8.157958984375,2.212158203125,5.735595703125
0.152,-7.757568359375,0.650634765625,6.896728515625
0.1525,-6.596435546875,-1.231201171875,7.537353515625
0.153,-5.515380859375,-3.032958984375,8.177978515625
0.1535,-3.993896484375,-4.554443359375,8.218017578125
0.154,-2.512451171875,-5.835693359375,8.177978515625
0.1545,-1.231201171875,-7.036865234375,8.017822265625
0.155,0.330322265625,-7.877685546875,7.417236328125
0.1555,2.011962890625,-8.638427734375,6.536376953125
0.156,3.413330078125,-8.958740234375,5.535400390625
0.1565,4.814697265625,-8.958740234375,4.134033203125
0.157,5.855712890625,-8.598388671875,2.772705078125
0.1575,6.976806640625,-8.238037109375,1.331298828125
0.158,7.537353515625,-7.197021484375,-0.310302734375
0.1585,8.298095703125,-6.396240234375,-1.911865234375
0.159,8.578369140625,-5.195068359375,-3.353271484375
0.1595,8.418212890625,-3.633544921875,-4.794677734375
0.16,8.137939453125,-2.232177734375,-5.915771484375
0.1605,7.617431640625,-0.590576171875,-7.036865234375
0.161,6.456298828125,1.291259765625,-7.717529296875
0.1615,5.295166015625,2.972900390625,-8.238037109375
0.162,3.693603515625,4.534423828125,-8.238037109375
0.1625,2.332275390625,5.775634765625,-8.157958984375
0.163,0.970947265625,7.016845703125,-7.957763671875
0.1635,-0.710693359375,7.737548828125,-7.116943359375
0.164,-2.392333984375,8.458251953125,-6.276123046875
0.1645,-3.713623046875,8.658447265625,-5.114990234375
0.165,-5.114990234375,8.498291015625,-3.633544921875
0.1655,-6.156005859375,8.177978515625,-2.272216796875
0.166,-7.156982421875,7.537353515625,-0.710693359375
0.1665,-7.757568359375,6.416259765625,1.091064453125
0.167,-8.398193359375,5.495361328125,2.652587890625
0.1675,-8.518310546875,4.134033203125,4.134033203125
0.168,-8.238037109375,2.532470703125,5.455322265625
0.1685,-7.957763671875,1.051025390625,6.696533203125
0.169,-7.036865234375,-0.830810546875,7.497314453125
0.1695,-5.755615234375,-2.792724609375,8.258056640625
0.17,-4.274169921875,-4.354248046875,8.378173828125
0.1705,-2.672607421875,-5.875732421875,8.298095703125
0.171,-1.311279296875,-6.996826171875,8.057861328125
0.1715,0.210205078125,-8.037841796875,7.697509765625
0.172,2.052001953125,-8.718505859375,6.616455078125
0.1725,3.653564453125,-9.239013671875,5.575439453125
0.173,4.974853515625,-9.158935546875,4.174072265625
0.1735,6.176025390625,-8.838623046875,2.732666015625
0.174,7.096923828125,-8.358154296875,1.331298828125
0.1745,7.817626953125,-7.437255859375,-0.350341796875
0.175,8.498291015625,-6.276123046875,-2.192138671875
0.1755,8.818603515625,-5.195068359375,-3.593505859375
0.176,8.818603515625,-3.673583984375,-5.155029296875
0.1765,8.298095703125,-2.072021484375,-6.236083984375
0.177,7.817626953125,-0.510498046875,-7.317138671875
0.1775,6.536376953125,1.451416015625,-7.997802734375
0.178,5.255126953125,3.453369140625,-8.678466796875
0.1785,3.613525390625,4.974853515625,-8.518310546875
0.179,2.052001953125,6.376220703125,-8.398193359375
0.1795,0.690673828125,7.377197265625,-8.037841796875
0.18,-0.990966796875,8.218017578125,-7.397216796875
0.1805,-2.912841796875,8.938720703125,-6.156005859375
0.181,-4.434326171875,9.098876953125,-4.914794921875
0.1815,-5.755615234375,8.938720703125,-3.433349609375
0.182,-6.756591796875,8.378173828125,-1.951904296875
0.1825,-7.677490234375,7.817626953125,-0.430419921875
0.183,-8.238037109375,6.496337890625,1.491455078125
0.1835,-8.838623046875,5.295166015625,3.333251953125
0.184,-8.838623046875,3.973876953125,4.654541015625
0.1845,-8.678466796875,2.252197265625,6.135986328125
0.185,-8.077880859375,0.690673828125,7.096923828125
0.1855,-7.357177734375,-1.031005859375,8.017822265625
0.186,-5.755615234375,-3.233154296875,8.658447265625
0.1865,-4.154052734375,-4.994873046875,8.898681640625
0.187,-2.392333984375,-6.436279296875,8.618408203125
0.1875,-0.950927734375,-7.637451171875,8.338134765625
0.188,0.610595703125,-8.478271484375,7.817626953125
