wavelength,x,y,z
0.0,-9.719482421875,-12.442138671875,20.990478515625
0.0005,-5.635498046875,-14.804443359375,19.268798828125
0.001,-1.591552734375,-17.046630859375,17.106689453125
0.0015,2.692626953125,-19.288818359375,15.745361328125
0.002,7.337158203125,-20.850341796875,12.702392578125
0.0025,10.380126953125,-21.611083984375,10.420166015625
0.003,13.783447265625,-21.010498046875,6.496337890625
0.0035,15.945556640625,-19.288818359375,3.052978515625
0.004,18.427978515625,-17.447021484375,-1.631591796875
0.0045,20.189697265625,-15.685302734375,-5.114990234375
0.005,21.791259765625,-13.282958984375,-8.998779296875
0.0055,21.591064453125,-9.959716796875,-12.121826171875
0.006,20.630126953125,-6.596435546875,-14.404052734375
0.0065,18.508056640625,-2.472412109375,-16.325927734375
0.007,17.226806640625,2.132080078125,-18.928466796875
0.0075,14.384033203125,6.055908203125,-20.489990234375
0.008,12.302001953125,9.459228515625,-21.691162109375
0.0085,8.057861328125,12.742431640625,-20.690185546875
0.009,4.093994140625,14.864501953125,-18.768310546875
0.0095,-0.710693359375,17.146728515625,-16.406005859375
0.01,-4.634521484375,19.509033203125,-14.884521484375
0.0105,-8.718505859375,20.870361328125,-12.241943359375
0.011,-12.001708984375,20.750244140625,-8.918701171875
0.0115,-14.724365234375,20.109619140625,-5.635498046875
0.012,-16.966552734375,18.147705078125,-1.471435546875
0.0125,-19.649169921875,16.345947265625,3.052978515625
0.013,-20.890380859375,13.783447265625,6.776611328125
0.0135,-22.451904296875,11.981689453125,10.059814453125
0.014,-21.651123046875,7.857666015625,13.302978515625
0.0145,-20.489990234375,4.654541015625,15.304931640625
0.015,-18.127685546875,0.170166015625,17.306884765625
0.0155,-16.686279296875,-4.194091796875,19.989501953125
0.016,-13.803466796875,-8.358154296875,21.150634765625
0.0165,-10.960693359375,-11.681396484375,21.591064453125
0.017,-7.076904296875,-14.243896484375,20.189697265625
0.0175,-2.832763671875,-16.446044921875,18.067626953125
0.018,1.931884765625,-18.848388671875,15.985595703125
0.0185,6.135986328125,-20.650146484375,13.623291015625
0.019,9.659423828125,-22.131591796875,11.661376953125
0.0195,13.343017578125,-21.170654296875,7.056884765625
0.02,15.344970703125,-20.449951171875,4.454345703125
0.0205,17.787353515625,-18.167724609375,-0.310302734375
0.021,20.510009765625,-16.566162109375,-4.554443359375
0.0215,21.150634765625,-13.443115234375,-8.318115234375
0.022,22.311767578125,-11.441162109375,-11.361083984375
0.0225,20.990478515625,-7.437255859375,-13.963623046875
0.023,19.629150390625,-3.833740234375,-16.165771484375
0.0235,17.507080078125,0.850830078125,-18.447998046875
0.024,15.625244140625,5.215087890625,-20.850341796875
0.0245,13.383056640625,8.658447265625,-22.051513671875
0.025,9.178955078125,12.462158203125,-21.490966796875
0.0255,5.735595703125,14.384033203125,-19.889404296875
0.026,0.770751953125,16.826416015625,-17.447021484375
0.0265,-3.833740234375,19.509033203125,-15.725341796875
0.027,-8.197998046875,20.469970703125,-12.322021484375
0.0275,-11.160888671875,21.951416015625,-10.920654296875
0.028,-14.604248046875,20.469970703125,-6.075927734375
0.0285,-16.566162109375,19.428955078125,-3.153076171875
0.029,-19.088623046875,17.026611328125,1.811767578125
0.0295,-21.651123046875,15.224853515625,6.135986328125
0.03,-22.091552734375,12.302001953125,9.339111328125
0.0305,-22.652099609375,9.419189453125,13.222900390625
0.031,-21.130615234375,5.975830078125,14.664306640625
0.0315,-19.208740234375,1.451416015625,17.146728515625
0.032,-17.326904296875,-3.072998046875,19.509033203125
0.0325,-14.364013671875,-7.837646484375,21.190673828125
0.033,-12.722412109375,-10.640380859375,22.351806640625
0.0335,-7.677490234375,-14.323974609375,20.870361328125
0.034,-4.754638671875,-15.405029296875,19.629150390625
0.0345,0.650634765625,-18.327880859375,16.706298828125
0.035,5.135009765625,-21.170654296875,15.144775390625
0.0355,9.138916015625,-21.691162109375,11.661376953125
0.036,12.502197265625,-22.451904296875,9.218994140625
0.0365,14.864501953125,-20.730224609375,5.495361328125
0.037,17.507080078125,-19.368896484375,1.291259765625
0.0375,19.789306640625,-17.166748046875,-3.233154296875
0.038,21.911376953125,-14.684326171875,-7.837646484375
0.0385,22.431884765625,-12.522216796875,-10.400146484375
0.039,22.071533203125,-8.318115234375,-14.243896484375
0.0395,20.670166015625,-5.635498046875,-15.445068359375
0.04,18.387939453125,-0.590576171875,-17.807373046875
0.0405,16.666259765625,3.973876953125,-20.770263671875
0.041,13.343017578125,8.578369140625,-21.811279296875
0.0415,11.461181640625,11.381103515625,-22.692138671875
0.042,6.256103515625,14.424072265625,-20.489990234375
0.0425,2.652587890625,16.345947265625,-18.768310546875
0.043,-2.312255859375,18.748291015625,-16.365966796875
0.0435,-7.277099609375,21.430908203125,-14.163818359375
0.044,-10.400146484375,21.711181640625,-11.401123046875
0.0445,-14.323974609375,21.631103515625,-7.477294921875
0.045,-16.085693359375,20.189697265625,-4.354248046875
0.0455,-19.008544921875,18.067626953125,0.690673828125
0.046,-21.170654296875,16.145751953125,4.734619140625
0.0465,-22.772216796875,12.902587890625,9.499267578125
0.047,-23.292724609375,11.020751953125,11.821533203125
0.0475,-22.051513671875,6.376220703125,15.104736328125
0.048,-20.489990234375,3.373291015625,16.546142578125
0.0485,-18.287841796875,-1.791748046875,19.188720703125
0.049,-16.085693359375,-6.716552734375,21.831298828125
0.0495,-12.962646484375,-10.400146484375,22.391845703125
0.05,-9.839599609375,-13.803466796875,22.471923828125
0.0505,-5.275146484375,-15.885498046875,20.069580078125
0.051,-0.790771484375,-18.247802734375,17.947509765625
0.0515,3.653564453125,-20.449951171875,15.865478515625
0.052,9.018798828125,-22.692138671875,12.822509765625
0.0525,11.661376953125,-22.892333984375,10.420166015625
0.053,15.625244140625,-22.091552734375,5.815673828125
0.0535,17.186767578125,-20.489990234375,2.692626953125
0.054,20.069580078125,-18.247802734375,-2.512451171875
0.0545,22.111572265625,-16.165771484375,-6.556396484375
0.055,23.192626953125,-12.962646484375,-10.760498046875
0.0555,23.432861328125,-10.239990234375,-13.723388671875
0.056,21.631103515625,-5.835693359375,-16.165771484375
0.0565,19.709228515625,-1.911865234375,-18.167724609375
0.057,17.707275390625,2.812744140625,-20.570068359375
0.0575,14.984619140625,8.057861328125,-23.012451171875
0.058,12.021728515625,11.140869140625,-23.012451171875
0.0585,7.817626953125,14.784423828125,-22.411865234375
0.059,3.613525390625,16.506103515625,-19.889404296875
0.0595,-1.791748046875,19.268798828125,-17.447021484375
0.06,-5.835693359375,21.150634765625,-15.324951171875
0.0605,-10.840576171875,22.912353515625,-12.161865234375
0.061,-13.603271484375,22.511962890625,-8.998779296875
0.0615,-16.926513671875,21.430908203125,-4.714599609375
0.062,-18.888427734375,19.228759765625,-0.630615234375
0.0625,-21.490966796875,17.106689453125,4.134033203125
0.063,-23.212646484375,14.384033203125,8.458251953125
0.0635,-23.933349609375,11.541259765625,11.821533203125
0.064,-23.653076171875,7.937744140625,15.144775390625
0.0645,-21.531005859375,3.813720703125,17.106689453125
0.065,-19.248779296875,-0.910888671875,19.348876953125
0.0655,-17.126708984375,-5.195068359375,21.470947265625
0.066,-14.123779296875,-10.320068359375,23.512939453125
0.0665,-10.880615234375,-13.162841796875,22.992431640625
0.067,-6.516357421875,-16.526123046875,21.711181640625
0.0675,-2.272216796875,-17.967529296875,19.068603515625
0.068,2.932861328125,-20.810302734375,16.906494140625
0.0685,7.217041015625,-22.331787109375,14.183837890625
0.069,11.541259765625,-23.813232421875,11.421142578125
0.0695,14.944580078125,-22.732177734375,7.457275390625
0.07,17.346923828125,-21.571044921875,3.533447265625
0.0705,19.549072265625,-19.088623046875,-1.151123046875
0.071,21.951416015625,-17.206787109375,-5.395263671875
0.0715,23.352783203125,-14.123779296875,-9.839599609375
0.072,23.552978515625,-11.240966796875,-12.842529296875
0.0725,22.752197265625,-7.477294921875,-15.725341796875
0.073,20.630126953125,-3.353271484375,-17.647216796875
0.0735,18.548095703125,1.571533203125,-20.209716796875
0.074,16.145751953125,5.815673828125,-21.891357421875
0.0745,13.583251953125,10.219970703125,-23.693115234375
0.075,9.299072265625,13.503173828125,-22.572021484375
0.0755,5.094970703125,16.065673828125,-21.010498046875
0.076,0.370361328125,17.947509765625,-18.087646484375
0.0765,-4.314208984375,20.750244140625,-16.365966796875
0.077,-8.958740234375,21.831298828125,-12.922607421875
0.0775,-12.362060546875,22.912353515625,-10.600341796875
0.078,-15.725341796875,21.751220703125,-6.236083984375
0.0785,-17.887451171875,20.149658203125,-2.552490234375
0.079,-20.369873046875,17.627197265625,2.532470703125
0.0795,-22.411865234375,15.585205078125,6.456298828125
0.08,-23.853271484375,12.902587890625,10.500244140625
0.0805,-23.452880859375,9.259033203125,13.703369140625
0.081,-22.411865234375,5.895751953125,15.985595703125
0.0815,-19.929443359375,1.291259765625,18.027587890625
0.082,-18.247802734375,-3.473388671875,20.830322265625
0.0825,-15.044677734375,-8.077880859375,22.071533203125
0.083,-12.882568359375,-11.801513671875,23.633056640625
0.0835,-8.077880859375,-15.164794921875,22.031494140625
0.084,-4.154052734375,-17.286865234375,20.309814453125
0.0845,1.131103515625,-19.368896484375,17.306884765625
0.085,5.535400390625,-22.091552734375,15.665283203125
0.0855,9.939697265625,-23.092529296875,12.302001953125
0.086,13.423095703125,-23.212646484375,8.978759765625
0.0865,16.185791015625,-22.171630859375,5.335205078125
0.087,18.668212890625,-20.049560546875,0.850830078125
0.0875,21.190673828125,-17.807373046875,-4.073974609375
0.088,22.752197265625,-15.044677734375,-8.318115234375
0.0885,24.153564453125,-13.002685546875,-11.681396484375
0.089,23.032470703125,-8.238037109375,-15.204833984375
0.0895,21.831298828125,-5.114990234375,-17.046630859375
0.09,18.988525390625,0.130126953125,-19.248779296875
0.0905,17.386962890625,4.774658203125,-22.131591796875
0.091,13.743408203125,9.299072265625,-22.972412109375
0.0915,11.341064453125,12.742431640625,-23.853271484375
0.092,6.456298828125,15.505126953125,-21.771240234375
0.0925,1.971923828125,17.907470703125,-19.689208984375
0.093,-3.193115234375,20.149658203125,-16.846435546875
0.0935,-8.037841796875,22.431884765625,-14.364013671875
0.094,-11.561279296875,23.432861328125,-11.921630859375
0.0945,-15.645263671875,22.471923828125,-7.036865234375
0.095,-17.447021484375,21.390869140625,-4.234130859375
0.0955,-20.209716796875,18.708251953125,1.251220703125
0.096,-22.812255859375,16.626220703125,5.895751953125
0.0965,-23.653076171875,12.862548828125,10.260009765625
0.097,-24.854248046875,11.220947265625,13.182861328125
0.0975,-22.972412109375,6.296142578125,16.145751953125
0.098,-21.611083984375,2.852783203125,18.067626953125
0.0985,-18.728271484375,-2.432373046875,20.309814453125
0.099,-16.526123046875,-7.477294921875,23.032470703125
0.0995,-13.443115234375,-11.160888671875,23.552978515625
0.1,-9.519287109375,-15.044677734375,23.753173828125
0.1005,-5.635498046875,-16.766357421875,21.270751953125
0.101,-0.350341796875,-19.408935546875,18.668212890625
0.1015,4.494384765625,-21.731201171875,16.305908203125
0.102,9.739501953125,-23.332763671875,12.702392578125
0.1025,12.662353515625,-24.413818359375,10.980712890625
0.103,16.506103515625,-22.772216796875,5.575439453125
0.1035,18.067626953125,-21.531005859375,2.772705078125
0.104,20.790283203125,-18.728271484375,-2.752685546875
0.1045,23.432861328125,-16.606201171875,-7.517333984375
0.105,23.713134765625,-12.962646484375,-11.281005859375
0.1055,24.553955078125,-10.400146484375,-14.604248046875
0.106,22.351806640625,-6.115966796875,-16.606201171875
0.1065,20.550048828125,-1.791748046875,-18.968505859375
0.107,17.947509765625,3.173095703125,-21.130615234375
0.1075,15.104736328125,8.498291015625,-23.452880859375
0.108,12.662353515625,11.461181640625,-23.973388671875
0.1085,7.617431640625,15.505126953125,-22.852294921875
0.109,4.214111328125,16.706298828125,-20.730224609375
0.1095,-1.631591796875,19.589111328125,-17.847412109375
0.11,-6.316162109375,21.991455078125,-15.685302734375
0.1105,-11.040771484375,22.872314453125,-11.881591796875
0.111,-14.043701171875,23.633056640625,-9.759521484375
0.1115,-17.126708984375,21.631103515625,-4.794677734375
0.112,-19.128662109375,19.949462890625,-1.151123046875
0.1125,-21.531005859375,17.386962890625,3.853759765625
0.113,-24.013427734375,14.744384765625,8.938720703125
0.1135,-24.133544921875,11.741455078125,11.941650390625
0.114,-24.293701171875,8.057861328125,15.745361328125
0.1145,-22.131591796875,4.494384765625,16.946533203125
0.115,-19.889404296875,-0.590576171875,19.669189453125
0.1155,-17.166748046875,-5.195068359375,21.791259765625
0.116,-14.043701171875,-10.520263671875,23.512939453125
0.1165,-11.721435546875,-13.162841796875,23.833251953125
0.117,-6.436279296875,-16.646240234375,21.911376953125
0.1175,-3.072998046875,-17.887451171875,19.789306640625
0.118,2.532470703125,-20.650146484375,17.146728515625
0.1185,7.537353515625,-23.052490234375,14.664306640625
0.119,11.220947265625,-23.412841796875,11.421142578125
0.1195,15.064697265625,-23.693115234375,7.857666015625
0.12,17.186767578125,-21.771240234375,3.893798828125
0.1205,19.709228515625,-19.729248046875,-0.710693359375
0.121,21.831298828125,-17.447021484375,-5.034912109375
0.1215,23.873291015625,-14.243896484375,-10.199951171875
0.122,23.913330078125,-11.641357421875,-12.722412109375
0.1225,23.152587890625,-7.397216796875,-16.165771484375
0.123,21.110595703125,-4.073974609375,-17.366943359375
0.1235,18.948486328125,1.291259765625,-20.369873046875
0.124,16.506103515625,6.015869140625,-22.451904296875
0.1245,13.343017578125,10.500244140625,-23.693115234375
0.125,10.219970703125,13.703369140625,-23.693115234375
0.1255,5.135009765625,16.345947265625,-21.250732421875
0.126,0.890869140625,18.227783203125,-18.848388671875
0.1265,-4.073974609375,20.790283203125,-16.686279296875
0.127,-9.439208984375,22.912353515625,-13.483154296875
0.1275,-12.562255859375,23.072509765625,-10.640380859375
0.128,-16.285888671875,22.672119140625,-6.556396484375
0.1285,-18.087646484375,20.590087890625,-2.832763671875
0.129,-20.930419921875,18.267822265625,2.412353515625
0.1295,-22.692138671875,15.985595703125,6.416259765625
0.13,-24.413818359375,12.862548828125,11.180908203125
0.1305,-24.213623046875,9.779541015625,14.023681640625
0.131,-22.852294921875,5.615478515625,16.706298828125
0.1315,-20.489990234375,1.571533203125,18.227783203125
0.132,-18.568115234375,-3.433349609375,21.070556640625
0.1325,-15.445068359375,-8.478271484375,22.912353515625
0.133,-12.482177734375,-12.241943359375,23.552978515625
0.1335,-8.678466796875,-15.525146484375,23.032470703125
0.134,-4.194091796875,-17.447021484375,20.510009765625
0.1345,0.930908203125,-19.729248046875,17.827392578125
0.135,5.255126953125,-21.931396484375,15.785400390625
0.1355,10.380126953125,-23.893310546875,12.542236328125
0.136,13.503173828125,-23.452880859375,9.138916015625
0.1365,16.666259765625,-22.732177734375,5.295166015625
0.137,18.508056640625,-20.289794921875,1.171142578125
0.1375,21.310791015625,-18.167724609375,-3.753662109375
0.138,22.672119140625,-15.405029296875,-7.877685546875
0.1385,24.113525390625,-12.802490234375,-11.801513671875
0.139,23.552978515625,-8.958740234375,-15.004638671875
0.1395,21.911376953125,-5.155029296875,-17.046630859375
0.14,19.228759765625,-0.510498046875,-18.928466796875
0.1405,17.467041015625,4.053955078125,-21.531005859375
0.141,14.263916015625,9.058837890625,-23.252685546875
0.1415,11.301025390625,12.261962890625,-23.372802734375
0.142,7.096923828125,15.304931640625,-22.171630859375
0.1425,2.572509765625,17.186767578125,-19.529052734375
0.143,-2.512451171875,19.789306640625,-17.206787109375
0.1435,-6.916748046875,21.430908203125,-14.524169921875
0.144,-11.200927734375,23.272705078125,-12.201904296875
0.1445,-14.724365234375,22.191650390625,-7.717529296875
0.145,-17.086669921875,21.350830078125,-4.514404296875
0.1455,-19.288818359375,18.708251953125,0.410400390625
0.146,-21.971435546875,16.866455078125,4.854736328125
0.1465,-23.012451171875,13.423095703125,9.178955078125
0.147,-24.053466796875,11.140869140625,12.462158203125
0.1475,-23.052490234375,7.297119140625,15.264892578125
0.148,-21.170654296875,3.373291015625,17.226806640625
0.1485,-18.568115234375,-1.111083984375,19.228759765625
0.149,-16.526123046875,-6.035888671875,21.631103515625
0.1495,-14.083740234375,-10.320068359375,23.272705078125
0.15,-9.799560546875,-13.803466796875,22.552001953125
0.1505,-6.276123046875,-16.005615234375,21.150634765625
0.151,-1.431396484375,-17.967529296875,18.307861328125
0.1515,3.253173828125,-20.770263671875,16.506103515625
0.152,8.017822265625,-21.771240234375,12.662353515625
0.1525,11.621337890625,-23.653076171875,11.100830078125
0.153,15.064697265625,-22.291748046875,6.416259765625
0.1535,17.106689453125,-21.090576171875,3.293212890625
0.154,19.388916015625,-18.447998046875,-1.631591796875
0.1545,21.911376953125,-16.606201171875,-5.875732421875
0.155,22.872314453125,-13.523193359375,-9.799560546875
0.1555,23.192626953125,-10.360107421875,-13.322998046875
0.156,22.071533203125,-7.156982421875,-15.324951171875
0.1565,19.869384765625,-2.632568359375,-17.527099609375
0.157,17.987548828125,1.931884765625,-19.969482421875
0.1575,15.064697265625,6.576416015625,-21.651123046875
0.158,13.302978515625,10.179931640625,-23.332763671875
0.1585,8.218017578125,13.823486328125,-21.851318359375
0.159,4.854736328125,15.665283203125,-20.329833984375
0.1595,-0.390380859375,17.787353515625,-17.366943359375
0.16,-4.834716796875,20.750244140625,-15.885498046875
0.1605,-9.198974609375,21.390869140625,-12.281982421875
0.161,-12.642333984375,22.431884765625,-9.959716796875
0.1615,-15.445068359375,21.190673828125,-5.915771484375
0.162,-17.807373046875,19.468994140625,-1.991943359375
0.1625,-20.129638671875,17.066650390625,2.772705078125
0.163,-22.211669921875,14.664306640625,7.217041015625
0.1635,-23.372802734375,12.542236328125,10.380126953125
0.164,-22.972412109375,8.258056640625,14.223876953125
0.1645,-21.811279296875,5.575439453125,15.705322265625
0.165,-19.168701171875,0.570556640625,17.987548828125
0.1655,-17.647216796875,-4.033935546875,20.790283203125
0.166,-13.923583984375,-8.838623046875,21.791259765625
0.1665,-12.241943359375,-12.041748046875,23.192626953125
0.167,-7.237060546875,-15.084716796875,21.190673828125
0.1675,-3.673583984375,-17.006591796875,19.509033203125
0.168,1.531494140625,-19.208740234375,16.666259765625
0.1685,6.216064453125,-21.931396484375,14.744384765625
0.169,9.939697265625,-22.491943359375,11.821533203125
0.1695,13.943603515625,-22.451904296875,7.817626953125
0.17,15.745361328125,-21.410888671875,4.974853515625
0.1705,18.387939453125,-19.208740234375,0.170166015625
0.171,20.790283203125,-17.126708984375,-4.274169921875
0.1715,22.151611328125,-13.803466796875,-8.838623046875
0.172,23.352783203125,-12.281982421875,-11.561279296875
0.1725,22.071533203125,-7.517333984375,-14.924560546875
0.173,20.950439453125,-4.834716796875,-16.406005859375
0.1735,18.267822265625,0.370361328125,-18.808349609375
0.174,16.626220703125,5.054931640625,-21.651123046875
0.1745,13.262939453125,9.018798828125,-22.171630859375
0.175,10.340087890625,12.662353515625,-22.812255859375
0.1755,6.055908203125,14.744384765625,-20.650146484375
0.176,1.571533203125,17.106689453125,-18.488037109375
0.1765,-3.153076171875,19.228759765625,-16.125732421875
0.177,-8.197998046875,21.350830078125,-13.162841796875
0.1775,-11.040771484375,22.151611328125,-11.240966796875
0.178,-15.044677734375,21.190673828125,-6.316162109375
0.1785,-16.446044921875,20.189697265625,-3.993896484375
0.179,-19.128662109375,17.627197265625,1.291259765625
0.1795,-21.531005859375,15.705322265625,5.535400390625
0.18,-22.371826171875,12.302001953125,9.619384765625
0.1805,-23.372802734375,10.380126953125,12.542236328125
