wavelength,x,y,z
0.0,-23.733154296875,8.458251953125,14.984619140625
0.0005,-21.931396484375,4.254150390625,17.346923828125
0.001,-19.328857421875,-0.270263671875,19.268798828125
0.0015,-18.167724609375,-4.834716796875,22.592041015625
0.002,-14.604248046875,-9.599365234375,23.913330078125
0.0025,-10.480224609375,-13.803466796875,23.953369140625
0.003,-7.277099609375,-16.005615234375,22.992431640625
0.0035,-1.751708984375,-18.287841796875,19.869384765625
0.004,2.572509765625,-20.770263671875,18.147705078125
0.0045,7.177001953125,-22.732177734375,15.505126953125
0.005,11.821533203125,-24.333740234375,12.622314453125
0.0055,15.385009765625,-23.012451171875,7.817626953125
0.006,17.587158203125,-21.931396484375,4.534423828125
0.0065,19.749267578125,-19.368896484375,-0.310302734375
0.007,22.912353515625,-18.327880859375,-4.514404296875
0.0075,23.312744140625,-14.644287109375,-8.718505859375
0.008,24.353759765625,-11.240966796875,-13.202880859375
0.0085,23.072509765625,-7.757568359375,-15.485107421875
0.009,20.670166015625,-2.952880859375,-17.887451171875
0.0095,18.708251953125,1.211181640625,-20.129638671875
0.01,16.786376953125,6.135986328125,-23.052490234375
0.0105,13.663330078125,10.540283203125,-24.333740234375
0.011,8.898681640625,14.464111328125,-23.532958984375
0.0115,5.735595703125,16.305908203125,-22.131591796875
0.012,0.290283203125,18.668212890625,-19.128662109375
0.0125,-3.993896484375,21.631103515625,-18.007568359375
0.013,-8.838623046875,22.712158203125,-14.323974609375
0.0135,-12.882568359375,24.073486328125,-11.681396484375
0.014,-15.725341796875,22.431884765625,-7.237060546875
0.0145,-18.087646484375,20.790283203125,-3.233154296875
0.015,-20.289794921875,18.748291015625,1.091064453125
0.0155,-23.212646484375,17.226806640625,5.615478515625
0.016,-23.532958984375,13.423095703125,9.659423828125
0.0165,-23.693115234375,9.539306640625,14.023681640625
0.017,-22.371826171875,6.496337890625,15.545166015625
0.0175,-19.769287109375,1.251220703125,18.187744140625
0.018,-18.327880859375,-2.872802734375,20.950439453125
0.0185,-15.405029296875,-7.917724609375,22.992431640625
0.019,-12.642333984375,-11.841552734375,24.193603515625
0.0195,-7.717529296875,-15.084716796875,22.471923828125
0.02,-4.033935546875,-16.926513671875,20.710205078125
0.0205,0.970947265625,-19.208740234375,18.147705078125
0.021,5.575439453125,-22.451904296875,16.866455078125
0.0215,10.059814453125,-22.772216796875,12.782470703125
0.022,14.103759765625,-23.572998046875,9.579345703125
0.0225,16.185791015625,-21.891357421875,5.895751953125
0.023,18.828369140625,-19.889404296875,1.251220703125
0.0235,21.110595703125,-18.287841796875,-2.712646484375
0.024,23.312744140625,-15.845458984375,-7.397216796875
0.0245,23.713134765625,-12.562255859375,-11.240966796875
0.025,23.072509765625,-8.197998046875,-15.044677734375
0.0255,21.390869140625,-5.195068359375,-16.406005859375
0.026,18.988525390625,0.010009765625,-19.048583984375
0.0265,17.587158203125,4.494384765625,-22.091552734375
0.027,13.903564453125,9.138916015625,-23.132568359375
0.0275,11.140869140625,12.942626953125,-24.173583984375
0.028,6.456298828125,15.505126953125,-22.051513671875
0.0285,2.172119140625,17.667236328125,-19.809326171875
0.029,-2.112060546875,19.829345703125,-17.967529296875
0.0295,-7.237060546875,22.792236328125,-15.965576171875
0.03,-11.120849609375,22.912353515625,-12.322021484375
0.0305,-15.084716796875,22.872314453125,-8.318115234375
0.031,-16.766357421875,21.110595703125,-5.114990234375
0.0315,-19.408935546875,19.188720703125,-0.310302734375
0.032,-21.811279296875,17.667236328125,3.733642578125
0.0325,-23.132568359375,14.303955078125,8.458251953125
0.033,-23.773193359375,11.381103515625,12.021728515625
0.0335,-22.291748046875,6.856689453125,15.104736328125
0.034,-20.449951171875,3.413330078125,16.786376953125
0.0345,-18.568115234375,-1.151123046875,19.428955078125
0.035,-16.846435546875,-6.196044921875,22.712158203125
0.0355,-12.922607421875,-10.360107421875,23.032470703125
0.036,-9.759521484375,-14.083740234375,23.512939453125
0.0365,-5.435302734375,-15.925537109375,21.030517578125
0.037,-0.510498046875,-18.528076171875,18.828369140625
0.0375,3.373291015625,-20.730224609375,17.306884765625
0.038,8.898681640625,-23.052490234375,14.183837890625
0.0385,12.302001953125,-23.092529296875,10.860595703125
0.039,15.905517578125,-22.371826171875,6.616455078125
0.0395,17.467041015625,-20.489990234375,3.133056640625
0.04,20.309814453125,-18.768310546875,-1.431396484375
0.0405,22.632080078125,-16.966552734375,-5.715576171875
0.041,23.312744140625,-13.242919921875,-10.159912109375
0.0415,23.793212890625,-10.199951171875,-13.723388671875
0.042,21.591064453125,-5.715576171875,-16.005615234375
0.0425,19.549072265625,-1.591552734375,-18.127685546875
0.043,18.187744140625,2.492431640625,-20.890380859375
0.0435,15.585205078125,7.977783203125,-23.693115234375
0.044,11.661376953125,11.701416015625,-23.452880859375
0.0445,7.897705078125,15.184814453125,-23.172607421875
0.045,3.573486328125,16.706298828125,-20.449951171875
0.0455,-1.431396484375,19.589111328125,-18.447998046875
0.046,-5.355224609375,21.751220703125,-16.806396484375
0.0465,-10.560302734375,23.472900390625,-13.363037109375
0.047,-13.923583984375,23.192626953125,-9.879638671875
0.0475,-16.766357421875,21.751220703125,-5.515380859375
0.048,-18.568115234375,19.629150390625,-1.551513671875
0.0485,-21.330810546875,18.267822265625,2.572509765625
0.049,-23.332763671875,15.665283203125,7.177001953125
0.0495,-23.452880859375,11.821533203125,11.260986328125
0.05,-23.532958984375,8.578369140625,14.664306640625
0.0505,-20.850341796875,4.093994140625,16.506103515625
0.051,-18.928466796875,-0.510498046875,19.148681640625
0.0515,-17.366943359375,-4.474365234375,21.591064453125
0.052,-14.444091796875,-9.759521484375,23.913330078125
0.0525,-10.440185546875,-13.162841796875,23.312744140625
0.053,-6.356201171875,-16.125732421875,22.151611328125
0.0535,-1.871826171875,-17.647216796875,19.228759765625
0.054,2.732666015625,-20.530029296875,17.787353515625
0.0545,7.177001953125,-22.371826171875,15.184814453125
0.055,11.781494140625,-23.492919921875,11.821533203125
0.0555,15.024658203125,-23.052490234375,8.177978515625
0.056,17.507080078125,-21.090576171875,3.693603515625
0.0565,19.589111328125,-19.048583984375,-0.550537109375
0.057,22.031494140625,-17.807373046875,-4.234130859375
0.0575,23.633056640625,-14.684326171875,-9.038818359375
0.058,23.312744140625,-10.560302734375,-12.802490234375
0.0585,22.832275390625,-7.317138671875,-15.685302734375
0.059,19.909423828125,-2.712646484375,-17.326904296875
0.0595,18.548095703125,1.691650390625,-20.369873046875
0.06,16.265869140625,5.975830078125,-22.291748046875
0.0605,13.182861328125,10.820556640625,-24.093505859375
0.061,9.098876953125,14.063720703125,-23.252685546875
0.0615,4.654541015625,16.626220703125,-21.410888671875
0.062,0.210205078125,18.307861328125,-18.728271484375
0.0625,-3.953857421875,21.270751953125,-17.687255859375
0.063,-8.838623046875,22.752197265625,-14.364013671875
0.0635,-12.842529296875,23.152587890625,-10.760498046875
0.064,-15.605224609375,22.511962890625,-7.517333984375
0.0645,-17.887451171875,20.069580078125,-2.712646484375
0.065,-20.409912109375,18.508056640625,1.411376953125
0.0655,-22.251708984375,16.666259765625,5.175048828125
0.066,-23.853271484375,13.583251953125,9.899658203125
0.0665,-23.052490234375,9.259033203125,13.503173828125
0.067,-22.051513671875,5.895751953125,15.905517578125
0.0675,-19.208740234375,1.211181640625,17.787353515625
0.068,-18.327880859375,-3.153076171875,21.150634765625
0.0685,-15.244873046875,-7.677490234375,22.632080078125
0.069,-12.041748046875,-12.081787109375,23.793212890625
0.0695,-8.238037109375,-14.804443359375,22.752197265625
0.07,-3.193115234375,-17.326904296875,20.189697265625
0.0705,1.251220703125,-19.288818359375,17.947509765625
0.071,5.535400390625,-22.131591796875,16.586181640625
0.0715,10.260009765625,-23.452880859375,13.222900390625
0.072,14.263916015625,-23.012451171875,8.858642578125
0.0725,16.506103515625,-22.291748046875,5.895751953125
0.073,18.948486328125,-19.729248046875,0.810791015625
0.0735,21.911376953125,-18.447998046875,-3.473388671875
0.074,22.992431640625,-15.525146484375,-7.477294921875
0.0745,24.473876953125,-12.642333984375,-11.921630859375
0.075,23.152587890625,-8.157958984375,-15.084716796875
0.0755,21.470947265625,-4.154052734375,-17.487060546875
0.076,18.828369140625,0.570556640625,-19.489013671875
0.0765,17.667236328125,5.295166015625,-23.052490234375
0.077,14.063720703125,9.739501953125,-23.893310546875
0.0775,10.260009765625,13.983642578125,-24.373779296875
0.078,6.576416015625,16.145751953125,-22.892333984375
0.0785,0.970947265625,18.868408203125,-19.929443359375
0.079,-3.433349609375,21.150634765625,-18.047607421875
0.0795,-8.318115234375,23.432861328125,-15.525146484375
0.08,-12.442138671875,24.634033203125,-12.682373046875
0.0805,-16.285888671875,23.192626953125,-7.517333984375
0.081,-18.247802734375,21.871337890625,-4.194091796875
0.0815,-20.810302734375,19.268798828125,1.010986328125
0.082,-23.973388671875,17.947509765625,5.615478515625
0.0825,-24.173583984375,13.943603515625,9.819580078125
0.083,-25.294677734375,10.940673828125,14.063720703125
0.0835,-23.332763671875,6.456298828125,16.546142578125
0.084,-21.130615234375,1.651611328125,19.188720703125
0.0845,-18.648193359375,-2.912841796875,21.310791015625
0.085,-16.686279296875,-8.197998046875,24.593994140625
0.0855,-12.962646484375,-12.201904296875,24.914306640625
0.086,-8.398193359375,-16.325927734375,24.393798828125
0.0865,-4.634521484375,-17.887451171875,22.271728515625
0.087,1.371337890625,-20.730224609375,19.228759765625
0.0875,5.775634765625,-23.132568359375,17.467041015625
0.088,11.020751953125,-24.493896484375,13.543212890625
0.0885,14.664306640625,-25.374755859375,10.860595703125
0.089,18.067626953125,-23.412841796875,5.415283203125
0.0895,20.189697265625,-21.490966796875,1.411376953125
0.09,22.471923828125,-19.088623046875,-3.313232421875
0.0905,25.434814453125,-17.126708984375,-8.318115234375
0.091,24.994384765625,-12.722412109375,-12.281982421875
0.0915,25.474853515625,-9.198974609375,-16.406005859375
0.092,22.912353515625,-5.034912109375,-18.127685546875
0.0925,20.469970703125,0.450439453125,-20.970458984375
0.093,18.307861328125,4.814697265625,-23.212646484375
0.0935,15.264892578125,10.340087890625,-25.655029296875
0.094,11.701416015625,13.943603515625,-25.775146484375
0.0945,6.536376953125,17.627197265625,-24.293701171875
0.095,2.532470703125,19.068603515625,-21.771240234375
0.0955,-3.153076171875,21.831298828125,-19.048583984375
0.096,-7.837646484375,24.473876953125,-17.086669921875
0.0965,-12.722412109375,24.914306640625,-12.682373046875
0.097,-16.325927734375,25.314697265625,-9.559326171875
0.0975,-18.928466796875,22.792236328125,-4.514404296875
0.098,-21.330810546875,20.670166015625,0.130126953125
0.0985,-23.452880859375,18.708251953125,4.334228515625
0.099,-25.895263671875,15.865478515625,9.619384765625
0.0995,-25.334716796875,11.661376953125,13.302978515625
0.1,-25.014404296875,7.577392578125,17.146728515625
0.1005,-22.251708984375,3.533447265625,18.468017578125
0.101,-19.929443359375,-1.951904296875,21.591064453125
0.1015,-17.807373046875,-6.476318359375,23.993408203125
0.102,-14.163818359375,-11.721435546875,25.594970703125
0.1025,-10.720458984375,-15.124755859375,25.554931640625
0.103,-5.355224609375,-18.127685546875,23.192626953125
0.1035,-0.830810546875,-19.849365234375,20.469970703125
0.104,4.093994140625,-22.491943359375,18.387939453125
0.1045,9.619384765625,-25.134521484375,15.625244140625
0.105,13.703369140625,-25.014404296875,11.381103515625
0.1055,17.306884765625,-25.014404296875,7.777587890625
0.106,19.468994140625,-22.291748046875,2.972900390625
0.1065,22.271728515625,-20.169677734375,-1.951904296875
0.107,24.153564453125,-18.247802734375,-5.915771484375
0.1075,26.075439453125,-14.764404296875,-11.281005859375
0.108,25.434814453125,-10.720458984375,-14.764404296875
0.1085,24.353759765625,-6.356201171875,-18.127685546875
0.109,21.390869140625,-1.951904296875,-19.529052734375
0.1095,19.509033203125,3.133056640625,-22.772216796875
0.11,16.786376953125,8.137939453125,-25.014404296875
0.1105,12.822509765625,12.982666015625,-25.895263671875
0.111,9.259033203125,16.305908203125,-25.614990234375
0.1115,3.693603515625,18.868408203125,-22.732177734375
0.112,-1.271240234375,21.030517578125,-19.969482421875
0.1125,-5.595458984375,23.472900390625,-18.287841796875
0.113,-11.321044921875,25.675048828125,-14.804443359375
0.1135,-15.124755859375,24.994384765625,-10.480224609375
0.114,-18.447998046875,24.553955078125,-6.716552734375
0.1145,-20.530029296875,21.551025390625,-1.591552734375
0.115,-23.572998046875,19.709228515625,3.333251953125
0.1155,-24.894287109375,17.146728515625,7.377197265625
0.116,-26.415771484375,13.463134765625,12.582275390625
0.1165,-25.534912109375,9.218994140625,15.985595703125
0.117,-23.733154296875,4.534423828125,18.948486328125
0.1175,-20.690185546875,-0.310302734375,20.630126953125
0.118,-19.168701171875,-5.114990234375,23.993408203125
0.1185,-15.725341796875,-10.280029296875,25.715087890625
0.119,-11.321044921875,-14.604248046875,25.835205078125
0.1195,-7.797607421875,-17.607177734375,25.114501953125
0.12,-1.831787109375,-20.049560546875,21.671142578125
0.1205,3.253173828125,-22.491943359375,19.148681640625
0.121,7.697509765625,-24.654052734375,16.906494140625
0.1215,13.102783203125,-26.455810546875,13.423095703125
0.122,16.946533203125,-25.094482421875,8.338134765625
0.1225,19.669189453125,-24.133544921875,4.614501953125
0.123,21.831298828125,-20.970458984375,-0.790771484375
0.1235,25.034423828125,-19.408935546875,-5.595458984375
0.124,25.675048828125,-15.845458984375,-9.879638671875
0.1245,26.836181640625,-12.201904296875,-14.724365234375
0.125,25.514892578125,-7.957763671875,-17.687255859375
0.1255,23.032470703125,-2.752685546875,-20.449951171875
0.126,20.069580078125,2.172119140625,-22.331787109375
0.1265,18.267822265625,7.177001953125,-25.534912109375
0.127,14.464111328125,12.181884765625,-26.776123046875
0.1275,9.579345703125,16.466064453125,-26.135498046875
0.128,5.935791015625,18.748291015625,-24.854248046875
0.1285,-0.470458984375,21.270751953125,-21.130615234375
0.129,-5.235107421875,23.953369140625,-19.168701171875
0.1295,-10.159912109375,25.354736328125,-15.725341796875
0.13,-14.804443359375,26.956298828125,-12.722412109375
0.1305,-18.327880859375,24.994384765625,-7.237060546875
0.131,-20.850341796875,23.392822265625,-3.113037109375
0.1315,-23.052490234375,20.269775390625,2.252197265625
0.132,-26.255615234375,18.708251953125,7.096923828125
0.1325,-26.255615234375,14.343994140625,11.541259765625
0.133,-26.856201171875,10.380126953125,16.145751953125
0.1335,-25.134521484375,6.456298828125,18.307861328125
0.134,-22.171630859375,0.770751953125,21.150634765625
0.1345,-19.649169921875,-3.993896484375,23.352783203125
0.135,-17.046630859375,-9.279052734375,25.995361328125
0.1355,-13.563232421875,-13.803466796875,27.036376953125
0.136,-8.077880859375,-17.767333984375,25.514892578125
0.1365,-4.314208984375,-19.609130859375,23.633056640625
0.137,1.971923828125,-22.131591796875,19.989501953125
0.1375,6.776611328125,-25.174560546875,18.307861328125
0.138,11.981689453125,-25.655029296875,13.743408203125
0.1385,16.145751953125,-26.776123046875,10.820556640625
0.139,19.108642578125,-24.614013671875,5.735595703125
0.1395,21.751220703125,-22.531982421875,0.970947265625
0.14,23.833251953125,-19.809326171875,-3.953857421875
0.1405,26.796142578125,-17.647216796875,-9.038818359375
0.141,26.555908203125,-13.403076171875,-13.122802734375
0.1415,26.435791015625,-8.958740234375,-17.567138671875
0.142,24.393798828125,-5.435302734375,-19.128662109375
0.1425,21.310791015625,0.690673828125,-22.131591796875
0.143,19.228759765625,5.455322265625,-24.734130859375
0.1435,15.505126953125,10.900634765625,-26.455810546875
0.144,12.382080078125,14.904541015625,-27.416748046875
0.1445,6.656494140625,18.427978515625,-25.214599609375
0.145,2.412353515625,20.309814453125,-22.932373046875
0.1455,-3.433349609375,22.792236328125,-19.769287109375
0.146,-8.678466796875,26.035400390625,-17.807373046875
0.1465,-13.363037109375,25.915283203125,-13.082763671875
0.147,-17.447021484375,26.435791015625,-9.559326171875
0.1475,-19.689208984375,24.073486328125,-4.994873046875
0.148,-22.652099609375,21.751220703125,0.450439453125
0.1485,-24.774169921875,19.308837890625,5.014892578125
0.149,-27.016357421875,16.145751953125,10.420166015625
0.1495,-26.856201171875,12.221923828125,14.263916015625
0.15,-25.935302734375,7.297119140625,18.347900390625
0.1505,-23.532958984375,3.573486328125,19.669189453125
0.151,-20.770263671875,-2.392333984375,22.792236328125
0.1515,-18.568115234375,-7.477294921875,25.755126953125
0.152,-14.123779296875,-12.722412109375,26.555908203125
0.1525,-11.000732421875,-16.486083984375,27.156494140625
0.153,-5.275146484375,-19.288818359375,24.233642578125
0.1535,-0.230224609375,-21.531005859375,21.470947265625
0.154,4.814697265625,-23.733154296875,18.908447265625
0.1545,10.700439453125,-26.776123046875,16.145751953125
0.155,14.784423828125,-26.255615234375,11.581298828125
0.1555,18.908447265625,-26.095458984375,7.337158203125
0.156,20.750244140625,-23.412841796875,2.852783203125
0.1565,23.833251953125,-21.010498046875,-2.752685546875
0.157,25.795166015625,-18.608154296875,-7.156982421875
0.1575,27.276611328125,-14.764404296875,-12.602294921875
0.158,27.036376953125,-10.920654296875,-16.245849609375
0.1585,25.274658203125,-5.755615234375,-19.609130859375
0.159,22.471923828125,-1.511474609375,-21.130615234375
0.1595,20.109619140625,3.893798828125,-24.093505859375
0.16,17.306884765625,9.579345703125,-26.896240234375
0.1605,12.662353515625,14.143798828125,-26.936279296875
0.161,9.098876953125,17.827392578125,-26.976318359375
0.1615,3.373291015625,20.069580078125,-23.653076171875
0.162,-2.112060546875,22.672119140625,-20.850341796875
0.1625,-6.516357421875,24.754150390625,-18.568115234375
0.163,-12.682373046875,27.156494140625,-14.924560546875
0.1635,-16.325927734375,26.235595703125,-10.520263671875
0.164,-19.969482421875,25.474853515625,-6.115966796875
0.1645,-21.731201171875,22.471923828125,-1.351318359375
0.165,-24.854248046875,20.349853515625,3.973876953125
0.1655,-26.415771484375,17.386962890625,8.618408203125
0.166,-27.336669921875,13.182861328125,13.783447265625
0.1665,-26.896240234375,9.419189453125,17.146728515625
0.167,-24.453857421875,4.134033203125,19.989501953125
0.1675,-21.571044921875,-0.630615234375,21.911376953125
0.168,-19.569091796875,-5.515380859375,24.794189453125
0.1685,-16.165771484375,-11.401123046875,27.196533203125
0.169,-11.361083984375,-15.565185546875,26.555908203125
0.1695,-7.637451171875,-18.728271484375,26.035400390625
0.17,-1.831787109375,-20.730224609375,22.311767578125
0.1705,3.573486328125,-23.572998046875,19.869384765625
0.171,8.137939453125,-25.294677734375,17.146728515625
0.1715,13.983642578125,-27.256591796875,13.423095703125
0.172,17.507080078125,-26.015380859375,8.698486328125
0.1725,20.630126953125,-24.694091796875,4.294189453125
0.173,22.511962890625,-21.651123046875,-0.710693359375
0.1735,25.635009765625,-19.929443359375,-5.635498046875
0.174,26.756103515625,-16.285888671875,-10.520263671875
0.1745,27.236572265625,-12.001708984375,-15.324951171875
0.175,26.515869140625,-8.318115234375,-18.287841796875
0.1755,23.512939453125,-2.712646484375,-21.090576171875
0.176,20.870361328125,2.172119140625,-23.092529296875
0.1765,18.508056640625,7.056884765625,-25.655029296875
0.177,14.864501953125,12.742431640625,-27.817138671875
0.1775,9.659423828125,16.666259765625,-26.535888671875
0.178,5.815673828125,19.428955078125,-25.414794921875
0.1785,-0.230224609375,21.591064453125,-21.611083984375
0.179,-5.235107421875,24.593994140625,-19.729248046875
0.1795,-10.119873046875,25.715087890625,-16.005615234375
0.18,-15.244873046875,27.316650390625,-12.602294921875
0.1805,-18.528076171875,25.675048828125,-7.757568359375
