wavelength,x,y,z
0.0,-3.072998046875,2.852783203125,-0.190185546875
0.0005,-2.432373046875,3.012939453125,-1.031005859375
0.001,-1.871826171875,3.333251953125,-1.871826171875
0.0015,-1.231201171875,3.253173828125,-2.592529296875
0.002,-0.710693359375,3.293212890625,-2.952880859375
0.0025,-0.230224609375,3.173095703125,-3.313232421875
0.003,0.490478515625,2.732666015625,-3.553466796875
0.0035,1.411376953125,2.011962890625,-3.793701171875
0.004,2.011962890625,1.531494140625,-3.913818359375
0.0045,2.412353515625,0.970947265625,-3.833740234375
0.005,2.812744140625,0.610595703125,-3.793701171875
0.0055,2.892822265625,0.050048828125,-3.353271484375
0.006,3.052978515625,-0.670654296875,-2.752685546875
0.0065,3.213134765625,-1.431396484375,-2.272216796875
0.007,3.213134765625,-2.072021484375,-1.631591796875
0.0075,3.133056640625,-2.432373046875,-1.191162109375
0.008,3.012939453125,-2.872802734375,-0.670654296875
0.0085,2.612548828125,-3.072998046875,-0.150146484375
0.009,1.931884765625,-3.193115234375,0.730712890625
0.0095,1.411376953125,-3.393310546875,1.491455078125
0.01,0.850830078125,-3.313232421875,1.971923828125
0.0105,0.450439453125,-3.393310546875,2.412353515625
0.011,-0.110107421875,-3.113037109375,2.692626953125
0.0115,-0.790771484375,-2.632568359375,2.932861328125
0.012,-1.591552734375,-2.152099609375,3.173095703125
0.0125,-2.152099609375,-1.631591796875,3.253173828125
0.013,-2.552490234375,-1.191162109375,3.213134765625
0.0135,-2.912841796875,-0.710693359375,3.173095703125
0.014,-3.072998046875,-0.230224609375,2.812744140625
0.0145,-3.193115234375,0.570556640625,2.172119140625
0.015,-3.433349609375,1.251220703125,1.731689453125
0.0155,-3.393310546875,1.891845703125,1.131103515625
0.016,-3.393310546875,2.332275390625,0.650634765625
0.0165,-3.193115234375,2.652587890625,0.050048828125
0.017,-2.752685546875,2.852783203125,-0.630615234375
0.0175,-2.112060546875,3.173095703125,-1.471435546875
0.018,-1.551513671875,3.253173828125,-2.152099609375
0.0185,-0.990966796875,3.253173828125,-2.712646484375
0.019,-0.590576171875,3.333251953125,-3.193115234375
0.0195,0.130126953125,2.892822265625,-3.393310546875
0.02,0.970947265625,2.292236328125,-3.633544921875
0.0205,1.731689453125,1.811767578125,-3.873779296875
0.021,2.252197265625,1.291259765625,-3.873779296875
0.0215,2.572509765625,0.850830078125,-3.793701171875
0.022,2.852783203125,0.290283203125,-3.593505859375
0.0225,3.012939453125,-0.310302734375,-3.153076171875
0.023,3.133056640625,-1.151123046875,-2.432373046875
0.0235,3.253173828125,-1.791748046875,-1.951904296875
0.024,3.173095703125,-2.312255859375,-1.351318359375
0.0245,3.173095703125,-2.792724609375,-0.950927734375
0.025,2.732666015625,-2.952880859375,-0.310302734375
0.0255,2.212158203125,-3.113037109375,0.490478515625
0.026,1.571533203125,-3.353271484375,1.291259765625
0.0265,1.010986328125,-3.353271484375,1.851806640625
0.027,0.610595703125,-3.313232421875,2.252197265625
0.0275,0.130126953125,-3.233154296875,2.612548828125
0.028,-0.590576171875,-2.832763671875,2.852783203125
0.0285,-1.311279296875,-2.232177734375,3.052978515625
0.029,-1.951904296875,-1.791748046875,3.173095703125
0.0295,-2.392333984375,-1.271240234375,3.173095703125
0.03,-2.712646484375,-0.950927734375,3.173095703125
0.0305,-2.912841796875,-0.390380859375,2.812744140625
0.031,-3.072998046875,0.290283203125,2.372314453125
0.0315,-3.273193359375,0.970947265625,1.851806640625
0.032,-3.273193359375,1.531494140625,1.291259765625
0.0325,-3.233154296875,1.971923828125,0.810791015625
0.033,-3.233154296875,2.492431640625,0.330322265625
0.0335,-2.872802734375,2.652587890625,-0.270263671875
0.034,-2.272216796875,2.852783203125,-0.990966796875
0.0345,-1.831787109375,3.133056640625,-1.751708984375
0.035,-1.271240234375,3.133056640625,-2.312255859375
0.0355,-0.830810546875,3.173095703125,-2.752685546875
0.036,-0.310302734375,3.052978515625,-3.153076171875
0.0365,0.370361328125,2.652587890625,-3.433349609375
0.037,1.211181640625,2.052001953125,-3.673583984375
0.0375,1.771728515625,1.651611328125,-3.793701171875
0.038,2.252197265625,1.131103515625,-3.753662109375
0.0385,2.612548828125,0.690673828125,-3.753662109375
0.039,2.812744140625,0.130126953125,-3.313232421875
0.0395,3.012939453125,-0.590576171875,-2.832763671875
0.04,3.213134765625,-1.351318359375,-2.312255859375
0.0405,3.213134765625,-1.951904296875,-1.711669921875
0.041,3.173095703125,-2.432373046875,-1.271240234375
0.0415,3.052978515625,-2.792724609375,-0.710693359375
0.042,2.532470703125,-2.992919921875,0.010009765625
0.0425,1.931884765625,-3.193115234375,0.810791015625
0.043,1.371337890625,-3.353271484375,1.451416015625
0.0435,0.890869140625,-3.353271484375,2.011962890625
0.044,0.490478515625,-3.353271484375,2.412353515625
0.0445,-0.190185546875,-3.032958984375,2.652587890625
0.045,-0.990966796875,-2.512451171875,2.932861328125
0.0455,-1.751708984375,-1.951904296875,3.173095703125
0.046,-2.152099609375,-1.551513671875,3.173095703125
0.0465,-2.552490234375,-1.071044921875,3.093017578125
0.047,-2.832763671875,-0.630615234375,2.932861328125
0.0475,-2.912841796875,0.010009765625,2.492431640625
0.048,-3.072998046875,0.690673828125,1.931884765625
0.0485,-3.233154296875,1.291259765625,1.491455078125
0.049,-3.193115234375,1.771728515625,0.930908203125
0.0495,-3.193115234375,2.212158203125,0.570556640625
0.05,-2.872802734375,2.492431640625,0.010009765625
0.0505,-2.472412109375,2.692626953125,-0.670654296875
0.051,-1.951904296875,2.932861328125,-1.431396484375
0.0515,-1.431396484375,3.012939453125,-1.951904296875
0.052,-0.990966796875,3.052978515625,-2.472412109375
0.0525,-0.590576171875,3.052978515625,-2.872802734375
0.053,0.050048828125,2.692626953125,-3.153076171875
0.0535,0.770751953125,2.292236328125,-3.433349609375
0.054,1.411376953125,1.851806640625,-3.633544921875
0.0545,1.891845703125,1.371337890625,-3.633544921875
0.055,2.292236328125,1.010986328125,-3.673583984375
0.0555,2.572509765625,0.490478515625,-3.433349609375
0.056,2.892822265625,0.010009765625,-3.072998046875
0.0565,2.972900390625,-0.910888671875,-2.592529296875
0.057,3.093017578125,-1.471435546875,-2.152099609375
0.0575,3.133056640625,-2.031982421875,-1.551513671875
0.058,3.093017578125,-2.512451171875,-1.111083984375
0.0585,2.692626953125,-2.752685546875,-0.510498046875
0.059,2.292236328125,-3.032958984375,0.250244140625
0.0595,1.771728515625,-3.273193359375,1.010986328125
0.06,1.251220703125,-3.273193359375,1.571533203125
0.0605,0.770751953125,-3.353271484375,2.052001953125
0.061,0.290283203125,-3.233154296875,2.492431640625
0.0615,-0.470458984375,-2.832763671875,2.772705078125
0.062,-1.231201171875,-2.312255859375,3.052978515625
0.0625,-1.831787109375,-1.871826171875,3.173095703125
0.063,-2.312255859375,-1.351318359375,3.173095703125
0.0635,-2.672607421875,-0.990966796875,3.093017578125
0.064,-2.912841796875,-0.390380859375,2.812744140625
0.0645,-3.072998046875,0.290283203125,2.252197265625
0.065,-3.273193359375,1.131103515625,1.771728515625
0.0655,-3.233154296875,1.571533203125,1.251220703125
0.066,-3.233154296875,2.052001953125,0.770751953125
0.0665,-3.153076171875,2.452392578125,0.250244140625
0.067,-2.592529296875,2.612548828125,-0.470458984375
0.0675,-2.112060546875,2.892822265625,-1.231201171875
0.068,-1.551513671875,3.052978515625,-1.911865234375
0.0685,-1.111083984375,3.052978515625,-2.392333984375
0.069,-0.670654296875,3.052978515625,-2.792724609375
0.0695,-0.150146484375,2.812744140625,-3.072998046875
0.07,0.610595703125,2.332275390625,-3.353271484375
0.0705,1.331298828125,1.851806640625,-3.553466796875
0.071,1.771728515625,1.451416015625,-3.593505859375
0.0715,2.212158203125,0.970947265625,-3.593505859375
0.072,2.532470703125,0.490478515625,-3.553466796875
0.0725,2.652587890625,0.010009765625,-3.072998046875
0.073,2.732666015625,-0.750732421875,-2.592529296875
0.0735,3.052978515625,-1.311279296875,-2.192138671875
0.074,3.052978515625,-1.831787109375,-1.671630859375
0.0745,3.052978515625,-2.272216796875,-1.231201171875
0.075,2.812744140625,-2.632568359375,-0.670654296875
0.0755,2.412353515625,-2.872802734375,0.010009765625
0.076,1.931884765625,-3.113037109375,0.730712890625
0.0765,1.411376953125,-3.193115234375,1.291259765625
0.077,0.970947265625,-3.273193359375,1.891845703125
0.0775,0.490478515625,-3.273193359375,2.292236328125
0.078,-0.110107421875,-2.952880859375,2.572509765625
0.0785,-0.830810546875,-2.592529296875,2.892822265625
0.079,-1.591552734375,-2.072021484375,3.133056640625
0.0795,-2.031982421875,-1.631591796875,3.133056640625
0.08,-2.432373046875,-1.271240234375,3.133056640625
0.0805,-2.792724609375,-0.710693359375,2.932861328125
0.081,-3.032958984375,-0.150146484375,2.412353515625
0.0815,-3.193115234375,0.730712890625,2.011962890625
0.082,-3.353271484375,1.331298828125,1.531494140625
0.0825,-3.313232421875,1.931884765625,0.970947265625
0.083,-3.233154296875,2.332275390625,0.490478515625
0.0835,-2.872802734375,2.572509765625,-0.150146484375
0.084,-2.392333984375,2.852783203125,-0.950927734375
0.0845,-1.791748046875,3.133056640625,-1.751708984375
0.085,-1.311279296875,3.133056640625,-2.272216796875
0.0855,-0.830810546875,3.173095703125,-2.752685546875
0.086,-0.310302734375,3.052978515625,-3.072998046875
0.0865,0.490478515625,2.492431640625,-3.353271484375
0.087,1.251220703125,2.052001953125,-3.673583984375
0.0875,1.851806640625,1.491455078125,-3.713623046875
0.088,2.292236328125,1.051025390625,-3.713623046875
0.0885,2.572509765625,0.570556640625,-3.593505859375
0.089,2.692626953125,0.010009765625,-3.233154296875
0.0895,2.892822265625,-0.670654296875,-2.672607421875
0.09,3.052978515625,-1.431396484375,-2.112060546875
0.0905,3.052978515625,-1.911865234375,-1.671630859375
0.091,3.052978515625,-2.432373046875,-1.151123046875
0.0915,2.892822265625,-2.712646484375,-0.710693359375
0.092,2.372314453125,-2.872802734375,0.010009765625
0.0925,1.931884765625,-3.153076171875,0.770751953125
0.093,1.291259765625,-3.233154296875,1.451416015625
0.0935,0.890869140625,-3.233154296875,1.891845703125
0.094,0.450439453125,-3.273193359375,2.292236328125
0.0945,-0.070068359375,-3.032958984375,2.612548828125
0.095,-0.910888671875,-2.472412109375,2.852783203125
0.0955,-1.551513671875,-2.031982421875,3.052978515625
0.096,-2.031982421875,-1.631591796875,3.093017578125
0.0965,-2.512451171875,-1.191162109375,3.133056640625
0.097,-2.752685546875,-0.790771484375,2.892822265625
0.0975,-2.912841796875,-0.150146484375,2.532470703125
0.098,-3.153076171875,0.530517578125,2.172119140625
0.0985,-3.273193359375,1.251220703125,1.571533203125
0.099,-3.233154296875,1.731689453125,1.131103515625
0.0995,-3.273193359375,2.252197265625,0.610595703125
0.1,-3.072998046875,2.532470703125,0.090087890625
0.1005,-2.512451171875,2.732666015625,-0.670654296875
0.101,-2.031982421875,3.052978515625,-1.431396484375
0.1015,-1.471435546875,3.133056640625,-2.072021484375
0.102,-1.031005859375,3.213134765625,-2.592529296875
0.1025,-0.550537109375,3.093017578125,-2.952880859375
0.103,0.090087890625,2.812744140625,-3.273193359375
0.1035,0.930908203125,2.292236328125,-3.593505859375
0.104,1.611572265625,1.731689453125,-3.793701171875
0.1045,2.052001953125,1.251220703125,-3.753662109375
0.105,2.532470703125,0.810791015625,-3.793701171875
0.1055,2.692626953125,0.330322265625,-3.473388671875
0.106,2.852783203125,-0.390380859375,-2.912841796875
0.1065,3.133056640625,-1.151123046875,-2.472412109375
0.107,3.173095703125,-1.791748046875,-1.871826171875
0.1075,3.173095703125,-2.272216796875,-1.351318359375
0.108,3.052978515625,-2.672607421875,-0.870849609375
0.1085,2.692626953125,-2.872802734375,-0.310302734375
0.109,2.052001953125,-3.153076171875,0.610595703125
0.1095,1.491455078125,-3.353271484375,1.331298828125
0.11,0.970947265625,-3.313232421875,1.891845703125
0.1105,0.570556640625,-3.393310546875,2.372314453125
0.111,0.010009765625,-3.113037109375,2.612548828125
0.1115,-0.790771484375,-2.592529296875,2.852783203125
0.112,-1.551513671875,-2.192138671875,3.173095703125
0.1125,-2.112060546875,-1.631591796875,3.173095703125
0.113,-2.512451171875,-1.231201171875,3.093017578125
0.1135,-2.832763671875,-0.670654296875,3.012939453125
0.114,-2.952880859375,-0.190185546875,2.692626953125
0.1145,-3.072998046875,0.610595703125,2.052001953125
0.115,-3.273193359375,1.251220703125,1.571533203125
0.1155,-3.233154296875,1.771728515625,1.091064453125
0.116,-3.273193359375,2.252197265625,0.610595703125
0.1165,-3.032958984375,2.532470703125,0.090087890625
0.117,-2.592529296875,2.692626953125,-0.550537109375
0.1175,-2.072021484375,3.012939453125,-1.351318359375
0.118,-1.471435546875,3.093017578125,-2.031982421875
0.1185,-1.031005859375,3.093017578125,-2.472412109375
0.119,-0.590576171875,3.173095703125,-2.952880859375
0.1195,0.010009765625,2.852783203125,-3.193115234375
0.12,0.770751953125,2.252197265625,-3.433349609375
0.1205,1.411376953125,1.851806640625,-3.713623046875
0.121,1.931884765625,1.331298828125,-3.753662109375
0.1215,2.332275390625,0.970947265625,-3.713623046875
0.122,2.612548828125,0.490478515625,-3.513427734375
0.1225,2.812744140625,-0.110107421875,-3.153076171875
0.123,3.052978515625,-0.830810546875,-2.632568359375
0.1235,3.173095703125,-1.511474609375,-2.112060546875
0.124,3.173095703125,-1.991943359375,-1.591552734375
0.1245,3.173095703125,-2.592529296875,-1.111083984375
0.125,2.852783203125,-2.832763671875,-0.550537109375
0.1255,2.332275390625,-3.032958984375,0.210205078125
0.126,1.851806640625,-3.353271484375,1.010986328125
0.1265,1.211181640625,-3.353271484375,1.691650390625
0.127,0.770751953125,-3.393310546875,2.172119140625
0.1275,0.250244140625,-3.313232421875,2.572509765625
0.128,-0.470458984375,-2.952880859375,2.852783203125
0.1285,-1.311279296875,-2.352294921875,3.133056640625
0.129,-1.951904296875,-1.911865234375,3.253173828125
0.1295,-2.432373046875,-1.311279296875,3.253173828125
0.13,-2.872802734375,-0.990966796875,3.253173828125
0.1305,-3.032958984375,-0.350341796875,2.852783203125
0.131,-3.193115234375,0.410400390625,2.292236328125
0.1315,-3.353271484375,1.171142578125,1.771728515625
0.132,-3.393310546875,1.811767578125,1.131103515625
0.1325,-3.313232421875,2.252197265625,0.690673828125
0.133,-3.193115234375,2.652587890625,0.170166015625
0.1335,-2.712646484375,2.852783203125,-0.510498046875
0.134,-2.072021484375,3.012939453125,-1.391357421875
0.1345,-1.551513671875,3.213134765625,-2.112060546875
0.135,-0.990966796875,3.173095703125,-2.632568359375
0.1355,-0.590576171875,3.173095703125,-3.072998046875
0.136,0.010009765625,2.812744140625,-3.313232421875
0.1365,0.770751953125,2.332275390625,-3.553466796875
0.137,1.571533203125,1.731689453125,-3.793701171875
0.1375,2.092041015625,1.331298828125,-3.793701171875
0.138,2.452392578125,0.890869140625,-3.673583984375
0.1385,2.812744140625,0.450439453125,-3.593505859375
0.139,2.852783203125,-0.150146484375,-3.153076171875
0.1395,2.972900390625,-0.910888671875,-2.552490234375
0.14,3.173095703125,-1.551513671875,-2.072021484375
0.1405,3.173095703125,-2.112060546875,-1.511474609375
0.141,3.133056640625,-2.512451171875,-1.111083984375
0.1415,2.852783203125,-2.872802734375,-0.550537109375
0.142,2.412353515625,-3.072998046875,0.090087890625
0.1425,1.811767578125,-3.273193359375,0.970947265625
0.143,1.291259765625,-3.353271484375,1.571533203125
0.1435,0.770751953125,-3.353271484375,2.052001953125
0.144,0.370361328125,-3.473388671875,2.532470703125
0.1445,-0.310302734375,-3.072998046875,2.772705078125
0.145,-1.111083984375,-2.552490234375,3.012939453125
0.1455,-1.791748046875,-1.991943359375,3.293212890625
0.146,-2.312255859375,-1.471435546875,3.293212890625
0.1465,-2.712646484375,-1.071044921875,3.253173828125
0.147,-3.032958984375,-0.550537109375,3.052978515625
0.1475,-3.193115234375,0.090087890625,2.612548828125
0.148,-3.353271484375,0.890869140625,1.971923828125
0.1485,-3.473388671875,1.571533203125,1.491455078125
0.149,-3.433349609375,2.132080078125,0.890869140625
0.1495,-3.393310546875,2.572509765625,0.450439453125
0.15,-2.952880859375,2.812744140625,-0.270263671875
0.1505,-2.432373046875,3.052978515625,-1.031005859375
0.151,-1.791748046875,3.333251953125,-1.951904296875
0.1515,-1.191162109375,3.293212890625,-2.512451171875
0.152,-0.670654296875,3.213134765625,-2.912841796875
0.1525,-0.270263671875,3.133056640625,-3.353271484375
0.153,0.570556640625,2.532470703125,-3.593505859375
0.1535,1.411376953125,1.931884765625,-3.793701171875
0.154,2.052001953125,1.451416015625,-3.913818359375
0.1545,2.492431640625,0.930908203125,-3.833740234375
0.155,2.812744140625,0.570556640625,-3.753662109375
0.1555,2.892822265625,0.010009765625,-3.273193359375
0.156,3.093017578125,-0.790771484375,-2.712646484375
0.1565,3.213134765625,-1.631591796875,-2.072021484375
0.157,3.213134765625,-2.072021484375,-1.591552734375
0.1575,3.133056640625,-2.592529296875,-1.031005859375
0.158,3.052978515625,-2.912841796875,-0.630615234375
0.1585,2.492431640625,-3.032958984375,0.090087890625
0.159,1.891845703125,-3.233154296875,0.890869140625
0.1595,1.291259765625,-3.393310546875,1.611572265625
0.16,0.770751953125,-3.393310546875,2.092041015625
0.1605,0.330322265625,-3.353271484375,2.492431640625
0.161,-0.190185546875,-3.193115234375,2.772705078125
0.1615,-0.990966796875,-2.552490234375,3.052978515625
0.162,-1.751708984375,-1.991943359375,3.213134765625
0.1625,-2.272216796875,-1.551513671875,3.253173828125
0.163,-2.712646484375,-1.031005859375,3.213134765625
0.1635,-2.952880859375,-0.670654296875,3.133056640625
0.164,-3.113037109375,0.010009765625,2.652587890625
0.1645,-3.273193359375,0.650634765625,2.172119140625
0.165,-3.433349609375,1.411376953125,1.571533203125
0.1655,-3.393310546875,1.931884765625,1.010986328125
0.166,-3.353271484375,2.412353515625,0.530517578125
0.1665,-3.193115234375,2.812744140625,0.010009765625
0.167,-2.632568359375,2.972900390625,-0.790771484375
0.1675,-2.031982421875,3.253173828125,-1.631591796875
0.168,-1.431396484375,3.293212890625,-2.312255859375
0.1685,-0.910888671875,3.333251953125,-2.872802734375
0.169,-0.470458984375,3.253173828125,-3.273193359375
0.1695,0.250244140625,2.892822265625,-3.553466796875
0.17,1.131103515625,2.292236328125,-3.793701171875
0.1705,1.931884765625,1.651611328125,-3.993896484375
0.171,2.372314453125,1.211181640625,-3.913818359375
0.1715,2.812744140625,0.690673828125,-3.873779296875
0.172,3.012939453125,0.250244140625,-3.633544921875
0.1725,3.133056640625,-0.590576171875,-2.992919921875
0.173,3.333251953125,-1.351318359375,-2.392333984375
0.1735,3.373291015625,-2.072021484375,-1.791748046875
0.174,3.293212890625,-2.552490234375,-1.231201171875
0.1745,3.173095703125,-2.912841796875,-0.710693359375
0.175,2.732666015625,-3.113037109375,-0.150146484375
0.1755,2.052001953125,-3.313232421875,0.770751953125
0.176,1.371337890625,-3.553466796875,1.611572265625
0.1765,0.810791015625,-3.473388671875,2.092041015625
0.177,0.370361328125,-3.473388671875,2.532470703125
0.1775,-0.150146484375,-3.193115234375,2.812744140625
0.178,-0.830810546875,-2.672607421875,2.972900390625
0.1785,-1.631591796875,-2.112060546875,3.253173828125
0.179,-2.312255859375,-1.511474609375,3.333251953125
0.1795,-2.592529296875,-1.111083984375,3.213134765625
0.18,-2.952880859375,-0.630615234375,3.093017578125
0.1805,-3.113037109375,-0.190185546875,2.812744140625
0.181,-3.193115234375,0.610595703125,2.172119140625
0.1815,-3.353271484375,1.291259765625,1.611572265625
0.182,-3.393310546875,1.851806640625,1.131103515625
0.1825,-3.353271484375,2.332275390625,0.610595703125
0.183,-3.193115234375,2.652587890625,0.130126953125
0.1835,-2.712646484375,2.852783203125,-0.510498046875
0.184,-2.232177734375,3.052978515625,-1.311279296875
0.1845,-1.591552734375,3.173095703125,-2.112060546875
0.185,-1.111083984375,3.173095703125,-2.592529296875
0.1855,-0.590576171875,3.253173828125,-3.072998046875
0.186,-0.070068359375,3.052978515625,-3.353271484375
0.1865,0.690673828125,2.492431640625,-3.593505859375
0.187,1.491455078125,2.011962890625,-3.873779296875
0.1875,2.092041015625,1.451416015625,-3.913818359375
0.188,2.532470703125,0.970947265625,-3.873779296875
