wavelength,x,y,z
0.0,-15.059692382812,-9.5743408203125,23.578002929688
0.0005,-10.335083007812,-12.897583007812,22.096557617188
0.001,-7.0518798828125,-16.380981445312,22.096557617188
0.0015,-2.2071533203125,-18.903442382812,19.814331054688
0.002,2.2772216796875,-21.826293945312,18.493041992188
0.0025,6.5213623046875,-22.987426757812,15.530151367188
0.003,11.366088867188,-23.427856445312,11.205932617188
0.0035,14.328979492188,-22.827270507812,7.7225341796875
0.004,18.052612304688,-22.186645507812,3.4783935546875
0.0045,20.414916992188,-19.223754882812,-0.6055908203125
0.005,22.777221679688,-18.863403320312,-4.5294189453125
0.0055,23.457885742188,-15.179809570312,-8.8536376953125
0.006,22.737182617188,-10.735473632812,-12.537231445312
0.0065,22.777221679688,-7.9727783203125,-15.299926757812
0.007,21.055541992188,-3.2481689453125,-18.142700195312
0.0075,19.894409179688,0.9559326171875,-21.025512695312
0.008,17.612182617188,4.9598388671875,-22.587036132812
0.0085,13.408081054688,9.9647216796875,-23.267700195312
0.009,9.0037841796875,13.087768554688,-21.946411132812
0.0095,5.0799560546875,16.571166992188,-21.505981445312
0.01,0.4354248046875,18.933471679688,-19.183715820312
0.0105,-2.5675048828125,23.057495117188,-17.902465820312
0.011,-8.2130126953125,22.336791992188,-12.817504882812
0.0115,-12.417114257812,22.376831054688,-10.054809570312
0.012,-15.420043945312,22.096557617188,-6.8917236328125
0.0125,-18.863403320312,20.815307617188,-2.2872314453125
0.013,-21.345825195312,20.494995117188,1.8768310546875
0.0135,-23.147583007812,17.291870117188,5.6004638671875
0.014,-23.588012695312,13.247924804688,9.9246826171875
0.0145,-22.667114257812,10.244995117188,13.207885742188
0.015,-22.787231445312,6.0408935546875,16.170776367188
0.0155,-20.665161132812,1.2362060546875,18.853393554688
0.016,-19.624145507812,-3.0479736328125,21.816284179688
0.0165,-16.180786132812,-7.2520751953125,22.416870117188
0.017,-12.056762695312,-11.816528320312,22.737182617188
0.0175,-8.2130126953125,-14.779418945312,21.736206054688
0.018,-3.8087158203125,-18.022583007812,20.615112304688
0.0185,0.7957763671875,-20.304809570312,18.453002929688
0.019,4.8797607421875,-22.787231445312,16.931518554688
0.0195,9.4442138671875,-22.867309570312,12.487182617188
0.02,13.167846679688,-22.506958007812,8.5633544921875
0.0205,16.290893554688,-22.587036132812,5.6004638671875
0.021,19.333862304688,-20.825317382812,0.8758544921875
0.0215,23.057495117188,-17.942504882812,-3.2481689453125
0.022,22.697143554688,-16.421020507812,-6.8516845703125
0.0225,22.977416992188,-12.497192382812,-11.015747070312
0.023,22.016479492188,-8.5333251953125,-13.978637695312
0.0235,23.057495117188,-5.2501220703125,-16.981567382812
0.024,19.814331054688,-0.6055908203125,-19.463989257812
0.0245,18.693237304688,3.5985107421875,-22.386840820312
0.025,14.529174804688,7.7625732421875,-22.266723632812
0.0255,10.405151367188,11.806518554688,-22.186645507812
0.026,6.9617919921875,14.769409179688,-21.546020507812
0.0265,1.9569091796875,19.213745117188,-19.744262695312
0.027,-2.2071533203125,20.174682617188,-16.661254882812
0.0275,-6.4512939453125,22.056518554688,-15.580200195312
0.028,-10.615356445312,22.056518554688,-10.255004882812
0.0285,-14.058715820312,21.415893554688,-7.5723876953125
0.029,-17.021606445312,21.335815429688,-4.6094970703125
0.0295,-19.944458007812,19.494018554688,0.1951904296875
0.03,-22.466918945312,17.892456054688,4.2391357421875
0.0305,-22.466918945312,14.328979492188,7.8026123046875
0.031,-22.947387695312,10.725463867188,11.766479492188
0.0315,-22.066528320312,7.1219482421875,14.409057617188
0.032,-21.265747070312,3.1981201171875,17.411987304688
0.0325,-19.544067382812,-1.1661376953125,19.894409179688
0.033,-17.782348632812,-5.6505126953125,22.456909179688
0.0335,-13.418090820312,-9.6544189453125,21.896362304688
0.034,-9.3741455078125,-13.338012695312,21.576049804688
0.0345,-6.1710205078125,-15.980590820312,20.975463867188
0.035,-1.1260986328125,-19.023559570312,18.933471679688
0.0355,2.9578857421875,-21.305786132812,17.331909179688
0.036,7.5623779296875,-22.306762695312,13.768432617188
0.0365,11.326049804688,-22.506958007812,10.365112304688
0.037,14.729370117188,-21.826293945312,7.6824951171875
0.0375,17.532104492188,-21.305786132812,3.1580810546875
0.038,20.214721679688,-19.544067382812,-1.4063720703125
0.0385,22.617065429688,-17.662231445312,-5.6505126953125
0.039,21.896362304688,-13.418090820312,-9.0938720703125
0.0395,22.336791992188,-10.214965820312,-12.697387695312
0.04,21.576049804688,-6.8116455078125,-15.219848632812
0.0405,20.334838867188,-2.5274658203125,-18.222778320312
0.041,18.773315429688,1.6766357421875,-20.585083007812
0.0415,15.970581054688,6.3612060546875,-22.386840820312
0.042,11.846557617188,10.004760742188,-20.505004882812
0.0425,7.8426513671875,13.608276367188,-21.305786132812
0.043,4.3192138671875,16.090698242188,-20.224731445312
0.0435,-0.6456298828125,19.053588867188,-18.342895507812
0.044,-4.8096923828125,21.455932617188,-16.621215820312
0.0445,-9.1339111328125,21.335815429688,-12.256958007812
0.045,-12.497192382812,21.696166992188,-9.3341064453125
0.0455,-15.780395507812,20.975463867188,-5.4503173828125
0.046,-18.583129882812,19.974487304688,-1.7266845703125
0.0465,-21.025512695312,18.172729492188,2.5174560546875
0.047,-22.947387695312,15.730346679688,6.8817138671875
0.0475,-22.066528320312,11.486206054688,10.164916992188
0.048,-22.306762695312,8.2830810546875,13.528198242188
0.0485,-21.425903320312,4.8397216796875,15.970581054688
0.049,-20.104614257812,0.3953857421875,19.013549804688
0.0495,-18.382934570312,-4.0089111328125,21.415893554688
0.05,-14.499145507812,-8.6134033203125,22.056518554688
0.0505,-10.895629882812,-11.816528320312,21.696166992188
0.051,-6.8516845703125,-15.259887695312,20.975463867188
0.0515,-3.0479736328125,-17.582153320312,19.453979492188
0.052,1.5565185546875,-20.264770507812,17.732299804688
0.0525,6.2410888671875,-22.587036132812,16.651245117188
0.053,10.204956054688,-21.826293945312,10.765502929688
0.0535,13.408081054688,-22.226684570312,8.0028076171875
0.054,16.491088867188,-21.265747070312,4.1190185546875
0.0545,19.333862304688,-20.144653320312,0.1951904296875
0.055,21.415893554688,-18.222778320312,-2.5675048828125
0.0555,22.577026367188,-14.859497070312,-8.3331298828125
0.056,23.057495117188,-11.015747070312,-11.296020507812
0.0565,23.057495117188,-7.7325439453125,-14.579223632812
0.057,20.575073242188,-4.2891845703125,-16.701293945312
0.0575,19.333862304688,0.1951904296875,-19.744262695312
0.058,17.211791992188,4.7996826171875,-21.986450195312
0.0585,12.767456054688,9.1239013671875,-21.826293945312
0.059,9.6043701171875,12.166870117188,-21.666137695312
0.0595,5.2801513671875,15.450073242188,-19.223754882812
0.06,1.1561279296875,17.972534179688,-18.943481445312
0.0605,-2.9278564453125,20.294799804688,-17.301879882812
0.061,-8.0128173828125,22.056518554688,-14.058715820312
0.0615,-11.376098632812,21.095581054688,-9.8946533203125
0.062,-14.779418945312,21.495971679688,-6.9718017578125
0.0625,-17.542114257812,20.174682617188,-2.9278564453125
0.063,-20.424926757812,18.933471679688,1.2362060546875
0.0635,-22.146606445312,16.771362304688,5.0799560546875
0.064,-22.627075195312,12.767456054688,9.4442138671875
0.0645,-22.226684570312,9.4442138671875,12.286987304688
0.065,-21.826293945312,5.8006591796875,15.490112304688
0.0655,-20.424926757812,1.9168701171875,17.772338867188
0.066,-19.183715820312,-2.2071533203125,20.535034179688
0.0665,-16.060668945312,-7.2120361328125,22.296752929688
0.067,-11.576293945312,-10.895629882812,21.455932617188
0.0675,-8.6534423828125,-14.058715820312,21.536010742188
0.068,-4.1290283203125,-16.901489257812,19.854370117188
0.0685,0.2752685546875,-19.664184570312,18.372924804688
0.069,4.0789794921875,-21.505981445312,16.451049804688
0.0695,9.2840576171875,-22.707153320312,12.487182617188
0.07,12.367065429688,-21.826293945312,8.6434326171875
0.0705,15.930541992188,-22.026489257812,5.4002685546875
0.071,18.412963867188,-20.384887695312,1.3162841796875
0.0715,21.135620117188,-19.023559570312,-2.7677001953125
0.072,22.256713867188,-16.220825195312,-6.6915283203125
0.0725,22.256713867188,-12.096801757812,-10.735473632812
0.073,22.016479492188,-9.1339111328125,-13.458129882812
0.0735,21.095581054688,-5.0899658203125,-16.541137695312
0.074,19.694213867188,-1.0460205078125,-18.983520507812
0.0745,18.252807617188,3.0379638671875,-21.345825195312
0.075,14.529174804688,8.0828857421875,-22.587036132812
0.0755,10.084838867188,11.406127929688,-21.345825195312
0.076,6.9617919921875,14.729370117188,-21.505981445312
0.0765,2.0770263671875,17.291870117188,-17.942504882812
0.077,-2.0870361328125,20.094604492188,-16.661254882812
0.0775,-6.1309814453125,21.375854492188,-15.299926757812
0.078,-10.775512695312,21.936401367188,-11.296020507812
0.0785,-13.738403320312,21.255737304688,-7.7325439453125
0.079,-17.181762695312,20.935424804688,-4.0089111328125
0.0795,-19.624145507812,20.494995117188,0.1951904296875
0.08,-21.986450195312,17.652221679688,3.9989013671875
0.0805,-22.707153320312,14.248901367188,8.0428466796875
0.081,-22.306762695312,10.124877929688,11.726440429688
0.0815,-22.346801757812,7.3221435546875,14.449096679688
0.082,-20.705200195312,2.7977294921875,17.331909179688
0.0825,-19.584106445312,-1.2061767578125,19.974487304688
0.083,-17.341918945312,-5.3302001953125,21.696166992188
0.0835,-13.338012695312,-10.134887695312,22.416870117188
0.084,-9.1339111328125,-13.097778320312,21.095581054688
0.0845,-5.6505126953125,-16.380981445312,20.855346679688
0.085,-0.9659423828125,-18.783325195312,18.533081054688
0.0855,3.1580810546875,-21.505981445312,17.331909179688
0.086,7.4822998046875,-22.106567382812,13.688354492188
0.0865,11.646362304688,-22.386840820312,9.8846435546875
0.087,14.649291992188,-21.986450195312,6.6414794921875
0.0875,17.812377929688,-20.945434570312,2.5174560546875
0.088,20.214721679688,-19.303833007812,-1.5665283203125
0.0885,22.096557617188,-17.421997070312,-5.3302001953125
0.089,22.416870117188,-13.618286132812,-9.3741455078125
0.0895,21.696166992188,-9.6944580078125,-12.657348632812
0.09,21.816284179688,-6.7716064453125,-15.460083007812
0.0905,19.854370117188,-2.1270751953125,-18.022583007812
0.091,18.893432617188,1.8367919921875,-20.825317382812
0.0915,15.650268554688,6.0809326171875,-21.746215820312
0.092,11.766479492188,10.445190429688,-22.146606445312
0.0925,7.9627685546875,13.408081054688,-21.145629882812
0.093,3.7987060546875,16.571166992188,-20.144653320312
0.0935,-0.7257080078125,18.893432617188,-18.062622070312
0.094,-4.7696533203125,21.415893554688,-16.621215820312
0.0945,-9.0538330078125,21.455932617188,-12.497192382812
0.095,-12.777465820312,21.415893554688,-8.8135986328125
0.0955,-15.780395507812,21.295776367188,-5.7706298828125
0.096,-18.743286132812,19.774291992188,-1.3663330078125
0.0965,-21.145629882812,18.132690429688,2.7176513671875
0.097,-22.346801757812,15.450073242188,6.5213623046875
0.0975,-22.707153320312,11.766479492188,10.365112304688
0.098,-21.866333007812,8.0028076171875,13.408081054688
0.0985,-21.666137695312,4.7596435546875,16.330932617188
0.099,-19.744262695312,0.2352294921875,18.893432617188
0.0995,-18.583129882812,-4.0489501953125,23.057495117188
0.1,-14.379028320312,-8.3331298828125,21.736206054688
0.1005,-10.615356445312,-12.256958007812,23.057495117188
0.101,-7.1319580078125,-15.099731445312,21.095581054688
0.1015,-2.5274658203125,-18.102661132812,19.494018554688
0.102,1.7967529296875,-20.344848632812,17.572143554688
0.1025,6.2811279296875,-22.386840820312,15.169799804688
0.103,10.325073242188,-22.386840820312,11.165893554688
0.1035,13.808471679688,-21.986450195312,7.4022216796875
0.104,16.691284179688,-21.666137695312,4.2791748046875
0.1045,19.494018554688,-20.024536132812,-0.2052001953125
0.105,21.936401367188,-18.302856445312,-4.3692626953125
0.1055,22.096557617188,-14.619262695312,-8.2130126953125
0.106,22.496948242188,-11.215942382812,-11.816528320312
0.1065,21.616088867188,-7.5323486328125,-14.619262695312
0.107,20.855346679688,-3.8087158203125,-17.381958007812
0.1075,19.053588867188,0.6356201171875,-19.864379882812
0.108,17.291870117188,6.4012451171875,-22.466918945312
0.1085,12.767456054688,9.2440185546875,-21.906372070312
0.109,10.244995117188,12.927612304688,-21.746215820312
0.1095,5.4002685546875,15.610229492188,-20.825317382812
0.11,0.5555419921875,18.573120117188,-18.943481445312
0.1105,-3.6085205078125,20.775268554688,-17.101684570312
0.111,-8.3331298828125,21.816284179688,-13.538208007812
0.1115,-11.816528320312,21.896362304688,-8.9737548828125
0.112,-15.219848632812,21.295776367188,-5.1300048828125
0.1125,-17.902465820312,20.454956054688,-2.8878173828125
0.113,-20.585083007812,18.733276367188,1.5164794921875
0.1135,-22.907348632812,16.731323242188,5.8406982421875
0.114,-22.386840820312,12.447143554688,9.5643310546875
0.1145,-22.787231445312,9.4041748046875,12.927612304688
0.115,-21.826293945312,5.7606201171875,15.570190429688
0.1155,-20.665161132812,1.5565185546875,18.453002929688
0.116,-18.903442382812,-2.7276611328125,20.775268554688
0.1165,-15.900512695312,-7.6124267578125,22.536987304688
0.117,-11.736450195312,-11.215942382812,21.896362304688
0.1175,-7.9327392578125,-14.739379882812,21.495971679688
0.118,-4.2491455078125,-17.061645507812,20.134643554688
0.1185,0.5955810546875,-20.024536132812,18.372924804688
0.119,4.9598388671875,-22.266723632812,16.330932617188
0.1195,9.6444091796875,-22.426879882812,11.846557617188
0.12,12.847534179688,-22.787231445312,8.9237060546875
0.1205,16.250854492188,-21.946411132812,4.9598388671875
0.121,18.773315429688,-20.785278320312,2.5574951171875
0.1215,21.175659179688,-18.943481445312,-2.9278564453125
0.122,24.338745117188,-16.180786132812,-7.4522705078125
0.1225,22.136596679688,-11.816528320312,-10.895629882812
0.123,22.416870117188,-8.8135986328125,-12.817504882812
0.1235,21.255737304688,-5.1700439453125,-16.501098632812
0.124,19.974487304688,-0.6856689453125,-19.544067382812
0.1245,18.092651367188,3.5985107421875,-20.505004882812
0.125,15.369995117188,8.6033935546875,-22.667114257812
0.1255,10.405151367188,11.806518554688,-22.106567382812
0.126,7.6824951171875,15.289916992188,-21.465942382812
0.1265,2.2772216796875,17.572143554688,-19.584106445312
0.127,-2.2872314453125,20.334838867188,-17.982543945312
0.1275,-7.0919189453125,22.336791992188,-15.259887695312
0.128,-11.255981445312,21.736206054688,-10.655395507812
0.1285,-14.298950195312,22.056518554688,-8.0128173828125
0.129,-17.462036132812,20.975463867188,-2.5675048828125
0.1295,-20.264770507812,19.654174804688,0.3553466796875
0.13,-22.226684570312,17.652221679688,4.2391357421875
0.1305,-23.547973632812,15.369995117188,9.0037841796875
0.131,-22.707153320312,10.124877929688,12.126831054688
0.1315,-22.747192382812,6.9617919921875,15.249877929688
0.132,-21.105590820312,2.9178466796875,17.532104492188
0.1325,-19.904418945312,-1.5665283203125,20.615112304688
0.133,-17.301879882812,-6.1710205078125,22.456909179688
0.1335,-12.777465820312,-10.855590820312,22.536987304688
0.134,-9.5343017578125,-13.738403320312,22.136596679688
0.1345,-5.2100830078125,-16.981567382812,21.015502929688
0.135,-0.8458251953125,-19.303833007812,19.053588867188
0.1355,3.3182373046875,-21.706176757812,17.331909179688
0.136,8.6434326171875,-23.267700195312,13.688354492188
0.1365,12.206909179688,-22.466918945312,9.4442138671875
0.137,15.490112304688,-22.827270507812,6.5614013671875
0.1375,18.252807617188,-21.145629882812,2.2371826171875
0.138,21.095581054688,-19.784301757812,-1.9669189453125
0.1385,22.536987304688,-17.381958007812,-5.7706298828125
0.139,23.137573242188,-13.338012695312,-10.415161132812
0.1395,22.496948242188,-9.7745361328125,-13.177856445312
0.14,22.256713867188,-6.2911376953125,-16.380981445312
0.1405,20.334838867188,-2.1270751953125,-18.543090820312
0.141,19.173706054688,2.1571044921875,-21.345825195312
0.1415,15.850463867188,7.0418701171875,-22.827270507812
0.142,11.125854492188,11.205932617188,-22.226684570312
0.1425,8.1629638671875,14.248901367188,-22.266723632812
0.143,3.3182373046875,17.171752929688,-20.264770507812
0.1435,-1.0860595703125,19.734252929688,-18.583129882812
0.144,-5.0899658203125,21.656127929688,-16.541137695312
0.1445,-10.214965820312,22.657104492188,-12.537231445312
0.145,-13.418090820312,23.057495117188,-8.5733642578125
0.1455,-16.861450195312,22.016479492188,-5.4503173828125
0.146,-19.423950195312,19.974487304688,-1.0059814453125
0.1465,-22.106567382812,18.533081054688,3.1981201171875
0.147,-21.786254882812,15.570190429688,7.1619873046875
0.1475,-23.267700195312,11.326049804688,12.807495117188
0.148,-22.947387695312,8.2830810546875,14.128784179688
0.1485,-21.986450195312,4.1190185546875,17.291870117188
0.149,-20.224731445312,-0.1651611328125,19.614135742188
0.1495,-18.663208007812,-4.4493408203125,22.216674804688
0.15,-14.659301757812,-9.3741455078125,23.017456054688
0.1505,-10.094848632812,-13.097778320312,22.016479492188
0.151,-7.0919189453125,-16.180786132812,22.056518554688
0.1515,-1.9669189453125,-18.823364257812,19.614135742188
0.152,2.3973388671875,-21.505981445312,18.052612304688
0.1525,6.6815185546875,-22.787231445312,15.049682617188
0.153,11.486206054688,-23.427856445312,11.085815429688
0.1535,14.449096679688,-22.587036132812,7.3621826171875
0.154,19.213745117188,-22.306762695312,3.6785888671875
0.1545,20.294799804688,-20.224731445312,-0.7657470703125
0.155,22.777221679688,-18.583129882812,-4.8497314453125
0.1555,22.977416992188,-14.779418945312,-8.8536376953125
0.156,22.897338867188,-10.575317382812,-11.536254882812
0.1565,22.657104492188,-7.7325439453125,-14.098754882812
0.157,21.095581054688,-3.2081298828125,-18.262817382812
0.1575,19.453979492188,1.1160888671875,-20.705200195312
0.158,17.171752929688,5.4803466796875,-22.667114257812
0.1585,13.087768554688,10.164916992188,-23.107543945312
0.159,8.6033935546875,13.568237304688,-21.986450195312
0.1595,5.1600341796875,16.611206054688,-21.586059570312
0.16,0.1151123046875,19.093627929688,-19.103637695312
0.1605,-4.0889892578125,23.057495117188,-17.662231445312
0.161,-8.6134033203125,22.136596679688,-13.578247070312
0.1615,-12.737426757812,22.577026367188,-10.014770507812
0.162,-15.740356445312,22.056518554688,-6.5313720703125
0.1625,-18.943481445312,21.015502929688,-2.4073486328125
0.163,-21.305786132812,18.973510742188,2.0369873046875
0.1635,-23.427856445312,16.931518554688,6.1209716796875
0.164,-23.387817382812,12.847534179688,10.084838867188
0.1645,-23.027465820312,8.8836669921875,13.688354492188
0.165,-22.827270507812,6.0008544921875,16.330932617188
0.1655,-20.865356445312,1.1160888671875,19.093627929688
0.166,-19.383911132812,-3.2081298828125,23.057495117188
0.1665,-15.820434570312,-7.8526611328125,22.657104492188
0.167,-12.056762695312,-12.056762695312,22.977416992188
0.1675,-7.8126220703125,-15.259887695312,21.896362304688
0.168,-3.8887939453125,-18.142700195312,20.815307617188
0.1685,0.9959716796875,-20.545043945312,18.493041992188
0.169,5.4002685546875,-23.227661132812,16.771362304688
0.1695,10.004760742188,-22.907348632812,12.006713867188
0.17,13.728393554688,-23.107543945312,8.5633544921875
0.1705,16.771362304688,-22.747192382812,5.2401123046875
0.171,19.694213867188,-21.145629882812,0.8358154296875
0.1715,21.936401367188,-19.103637695312,-3.5684814453125
0.172,23.337768554688,-16.180786132812,-7.7325439453125
0.1725,23.177612304688,-12.216918945312,-10.255004882812
0.173,22.577026367188,-8.3331298828125,-14.779418945312
0.1735,22.136596679688,-5.2501220703125,-17.341918945312
0.174,20.094604492188,-0.3253173828125,-20.024536132812
0.1745,18.573120117188,4.1190185546875,-22.787231445312
0.175,13.968627929688,8.8035888671875,-22.707153320312
0.1755,10.405151367188,12.607299804688,-22.827270507812
0.176,6.3612060546875,15.690307617188,-21.866333007812
0.1765,1.8367919921875,18.533081054688,-20.184692382812
0.177,-2.7276611328125,20.735229492188,-17.982543945312
0.1775,-7.5323486328125,22.977416992188,-15.420043945312
0.178,-10.255004882812,22.416870117188,-10.935668945312
