wavelength,x,y,z
0.0,-18.017578125,0.0400390625,17.296875
0.0005,-16.416015625,-3.203125,18.818359375
0.001,-14.09375,-5.8056640625,19.0986328125
0.0015,-11.53125,-8.7685546875,19.5390625
0.002,-6.486328125,-12.8525390625,18.7783203125
0.0025,-2.2421875,-15.8955078125,17.697265625
0.003,1.361328125,-17.8173828125,16.3359375
0.0035,4.32421875,-19.05859375,14.8544921875
0.004,7.20703125,-18.8583984375,11.8916015625
0.0045,10.650390625,-18.73828125,8.568359375
0.005,14.3740234375,-18.2177734375,4.484375
0.0055,17.3369140625,-16.81640625,0.2001953125
0.006,18.9384765625,-15.21484375,-2.9228515625
0.0065,19.4990234375,-12.97265625,-5.765625
0.007,19.779296875,-10.25,-8.6884765625
0.0075,19.458984375,-5.845703125,-12.8525390625
0.008,18.9384765625,-2.2822265625,-15.9755859375
0.0085,17.7373046875,1.28125,-18.2978515625
0.009,15.9755859375,4.4443359375,-19.69921875
0.0095,12.8525390625,7.3271484375,-19.5791015625
0.01,9.76953125,10.6103515625,-19.8193359375
0.0105,4.9248046875,14.5341796875,-19.0986328125
0.011,0.2802734375,17.4169921875,-17.4970703125
0.0115,-2.962890625,18.8583984375,-16.17578125
0.012,-5.92578125,19.5791015625,-14.013671875
0.0125,-8.96875,19.4189453125,-11.0107421875
0.013,-12.97265625,18.818359375,-6.5263671875
0.0135,-16.3759765625,18.017578125,-2.5224609375
0.014,-18.9384765625,16.3759765625,1.6416015625
0.0145,-20.099609375,14.57421875,4.6044921875
0.015,-20.259765625,11.7314453125,7.607421875
0.0155,-20.5,8.728515625,10.810546875
0.016,-19.9794921875,4.244140625,14.7744140625
0.0165,-18.9384765625,0.2001953125,17.857421875
0.017,-17.3369140625,-3.123046875,19.5791015625
0.0175,-15.4951171875,-6.0859375,20.7001953125
0.018,-11.9716796875,-9.12890625,20.33984375
0.0185,-7.767578125,-12.8525390625,19.939453125
0.019,-3.203125,-16.3359375,19.0986328125
0.0195,1.4814453125,-18.8583984375,17.13671875
0.02,4.4443359375,-19.779296875,15.455078125
0.0205,7.3671875,-20.01953125,12.9326171875
0.021,10.5302734375,-19.8994140625,9.8896484375
0.0215,14.654296875,-18.978515625,4.96484375
0.022,17.77734375,-17.697265625,0.720703125
0.0225,19.7392578125,-16.015625,-2.8828125
0.023,20.4599609375,-13.93359375,-5.7255859375
0.0235,20.33984375,-10.650390625,-8.8486328125
0.024,20.2197265625,-7.20703125,-12.2919921875
0.0245,19.779296875,-3.1630859375,-15.8955078125
0.025,18.3779296875,1.041015625,-18.6181640625
0.0255,16.49609375,4.0439453125,-19.779296875
0.026,14.1337890625,7.0068359375,-20.4599609375
0.0265,10.8505859375,10.0498046875,-20.259765625
0.027,5.845703125,14.013671875,-19.37890625
0.0275,1.5615234375,17.056640625,-18.3779296875
0.028,-2.4423828125,19.05859375,-16.65625
0.0285,-5.28515625,19.7392578125,-14.6943359375
0.029,-8.328125,19.5791015625,-11.69140625
0.0295,-11.69140625,19.37890625,-8.328125
0.03,-15.5751953125,18.5380859375,-3.8037109375
0.0305,-18.4580078125,16.896484375,0.720703125
0.031,-19.859375,15.1748046875,3.68359375
0.0315,-20.5,12.8525390625,6.646484375
0.032,-20.33984375,9.7294921875,9.6494140625
0.0325,-20.01953125,5.5654296875,13.4931640625
0.033,-19.458984375,1.76171875,16.7763671875
0.0335,-18.09765625,-2.08203125,19.298828125
0.034,-16.0556640625,-4.96484375,20.1796875
0.0345,-13.212890625,-8.0078125,20.419921875
0.035,-9.8095703125,-11.3310546875,20.419921875
0.0355,-4.564453125,-15.2548828125,19.3388671875
0.036,0.0400390625,-18.0576171875,17.77734375
0.0365,3.3232421875,-19.619140625,16.2958984375
0.037,6.24609375,-20.2197265625,14.1337890625
0.0375,9.4892578125,-19.8994140625,10.8505859375
0.038,13.29296875,-19.458984375,6.7666015625
0.0385,16.896484375,-18.5380859375,2.40234375
0.039,19.4990234375,-16.6962890625,-1.9619140625
0.0395,20.3798828125,-14.814453125,-4.6845703125
0.04,20.8203125,-12.1318359375,-7.8876953125
0.0405,20.740234375,-8.6484375,-11.291015625
0.041,20.1796875,-4.32421875,-15.134765625
0.0415,19.1787109375,-0.2802734375,-18.09765625
0.042,17.6572265625,3.3232421875,-20.2197265625
0.0425,15.294921875,6.24609375,-20.8203125
0.043,11.8916015625,9.44921875,-20.7001953125
0.0435,7.8076171875,13.1728515625,-20.4599609375
0.044,2.8828125,16.81640625,-19.37890625
0.0445,-1.8017578125,19.1787109375,-17.3369140625
0.045,-4.6845703125,20.1796875,-15.6953125
0.0455,-7.767578125,20.5,-13.1728515625
0.046,-11.2509765625,20.01953125,-9.44921875
0.0465,-15.0947265625,19.2587890625,-5.0048828125
0.047,-18.4580078125,18.0576171875,-0.5205078125
0.0475,-20.7001953125,16.1357421875,3.603515625
0.048,-21.140625,13.853515625,6.326171875
0.0485,-21.4208984375,10.650390625,9.7294921875
0.049,-21.140625,6.88671875,13.373046875
0.0495,-20.580078125,2.6025390625,17.0166015625
0.05,-19.0185546875,-1.6015625,19.69921875
0.0505,-17.296875,-4.8447265625,21.1806640625
0.051,-14.6142578125,-7.8876953125,21.6611328125
0.0515,-10.650390625,-11.37109375,21.2607421875
0.052,-6.0458984375,-15.0146484375,20.4599609375
0.0525,-1.0810546875,-18.498046875,19.21875
0.053,3.3232421875,-20.5,17.0966796875
0.0535,6.0859375,-20.900390625,14.974609375
0.054,9.44921875,-21.060546875,12.091796875
0.0545,13.212890625,-20.4599609375,7.84765625
0.055,16.896484375,-19.37890625,3.3232421875
0.0555,19.8193359375,-17.77734375,-1.2412109375
0.056,21.541015625,-15.85546875,-4.8447265625
0.0565,21.701171875,-13.1328125,-7.767578125
0.057,21.701171875,-9.5693359375,-11.291015625
0.0575,21.140625,-5.4052734375,-14.974609375
0.058,20.419921875,-1.12109375,-18.498046875
0.0585,18.498046875,3.04296875,-20.7001953125
0.059,16.3359375,5.92578125,-21.5009765625
0.0595,13.4130859375,9.12890625,-21.861328125
0.06,8.9287109375,12.9326171875,-21.220703125
0.0605,4.1640625,16.3759765625,-20.2197265625
0.061,-0.640625,19.298828125,-18.578125
0.0615,-4.564453125,20.98046875,-16.6162109375
0.062,-7.287109375,20.98046875,-14.09375
0.0625,-10.5703125,20.9404296875,-10.890625
0.063,-14.6142578125,20.1796875,-6.3662109375
0.0635,-18.1376953125,18.8984375,-1.7216796875
0.064,-20.5,17.0166015625,2.5224609375
0.0645,-21.6611328125,14.974609375,5.685546875
0.065,-21.861328125,12.091796875,8.888671875
0.0655,-21.701171875,8.1279296875,12.6123046875
0.066,-21.060546875,4.083984375,16.015625
0.0665,-20.0595703125,-0.2802734375,19.2587890625
0.067,-18.1376953125,-4.1240234375,21.30078125
0.0675,-15.615234375,-6.8466796875,21.5810546875
0.068,-12.5322265625,-10.08984375,21.8212890625
0.0685,-7.607421875,-14.1337890625,21.1005859375
0.069,-2.72265625,-17.45703125,19.8193359375
0.0695,1.7216796875,-19.8193359375,17.9375
0.07,5.1650390625,-21.140625,16.0556640625
0.0705,8.1279296875,-21.060546875,13.29296875
0.071,11.6513671875,-20.740234375,9.6494140625
0.0715,15.4951171875,-20.01953125,5.2451171875
0.072,18.8984375,-18.6181640625,0.5205078125
0.0725,20.9404296875,-16.65625,-3.5234375
0.073,21.541015625,-14.2939453125,-6.24609375
0.0735,21.78125,-11.2509765625,-9.6494140625
0.074,21.4208984375,-6.806640625,-13.7734375
0.0745,20.740234375,-2.8427734375,-17.056640625
0.075,19.3388671875,1.28125,-19.8193359375
0.0755,17.4970703125,4.884765625,-21.6611328125
0.076,14.3740234375,7.8076171875,-21.5009765625
0.0765,11.0908203125,11.130859375,-21.62109375
0.077,6.0859375,15.1748046875,-20.8203125
0.0775,1.0810546875,18.5380859375,-19.3388671875
0.078,-3.0029296875,20.2998046875,-17.3369140625
0.0785,-6.1259765625,21.140625,-15.375
0.079,-9.369140625,21.060546875,-12.251953125
0.0795,-13.29296875,20.3798828125,-7.84765625
0.08,-16.8564453125,19.5791015625,-3.603515625
0.0805,-19.9794921875,17.9375,1.12109375
0.081,-21.7412109375,15.9755859375,4.884765625
0.0815,-21.861328125,13.0927734375,7.6875
0.082,-22.1416015625,9.9697265625,11.130859375
0.0825,-21.5810546875,5.2451171875,15.3349609375
0.083,-20.66015625,1.0810546875,18.6982421875
0.0835,-18.9384765625,-2.8427734375,20.7802734375
0.084,-16.9765625,-6.1259765625,22.2216796875
0.0845,-13.5732421875,-9.2890625,22.021484375
0.085,-9.3291015625,-13.0126953125,21.62109375
0.0855,-4.6044921875,-16.65625,20.7001953125
0.086,0.640625,-19.779296875,18.8583984375
0.0865,4.4443359375,-21.1806640625,16.81640625
0.087,7.3671875,-21.4609375,14.3740234375
0.0875,10.650390625,-21.5009765625,11.3310546875
0.088,15.0146484375,-20.5,6.2060546875
0.0885,18.3779296875,-19.3388671875,1.8017578125
0.089,20.7802734375,-17.537109375,-2.3623046875
0.0895,22.1015625,-15.4150390625,-5.765625
0.09,22.021484375,-12.091796875,-8.9287109375
0.0905,22.021484375,-8.6083984375,-12.5322265625
0.091,21.380859375,-4.1640625,-16.3759765625
0.0915,20.1796875,0.3603515625,-19.6591796875
0.092,18.1376953125,3.9638671875,-21.30078125
0.0925,15.8154296875,7.046875,-22.0615234375
0.093,12.4921875,10.2099609375,-22.0615234375
0.0935,7.287109375,14.3740234375,-21.140625
0.094,2.8828125,17.6171875,-20.099609375
0.0945,-1.8818359375,20.1396484375,-18.2177734375
0.095,-5.4052734375,21.3408203125,-16.17578125
0.0955,-8.328125,21.1005859375,-13.212890625
0.096,-11.69140625,21.060546875,-10.009765625
0.0965,-16.015625,20.01953125,-4.884765625
0.097,-19.3388671875,18.5380859375,0.0
0.0975,-21.1806640625,16.6162109375,3.5634765625
0.098,-22.1015625,14.3740234375,6.6865234375
0.0985,-21.9814453125,11.0107421875,9.9296875
0.099,-21.7412109375,6.7666015625,13.93359375
0.0995,-21.060546875,2.7626953125,17.296875
0.1,-19.69921875,-1.5615234375,20.259765625
0.1005,-17.537109375,-5.0048828125,21.62109375
0.101,-14.6943359375,-8.0078125,21.78125
0.1015,-11.53125,-11.2509765625,21.94140625
0.102,-5.845703125,-15.53515625,20.7802734375
0.1025,-1.12109375,-18.578125,19.3388671875
0.103,2.8427734375,-20.4599609375,17.537109375
0.1035,6.166015625,-21.4609375,15.4150390625
0.104,9.369140625,-21.0205078125,12.091796875
0.1045,13.052734375,-20.7001953125,8.248046875
0.105,16.9365234375,-19.859375,3.6435546875
0.1055,20.01953125,-18.017578125,-1.201171875
0.106,21.380859375,-16.0556640625,-4.4443359375
0.1065,21.8212890625,-13.453125,-7.52734375
0.107,21.8212890625,-10.25,-10.650390625
0.1075,21.2607421875,-5.4453125,-15.0146484375
0.108,20.419921875,-1.4814453125,-18.1376953125
0.1085,18.9384765625,2.4423828125,-20.5400390625
0.109,16.7763671875,5.765625,-21.78125
0.1095,13.29296875,8.8486328125,-21.4609375
0.11,9.7294921875,12.33203125,-21.5009765625
0.1105,4.5244140625,16.3359375,-20.5
0.111,-0.6005859375,19.2587890625,-18.578125
0.1115,-3.8837890625,20.5400390625,-16.81640625
0.112,-7.046875,21.220703125,-14.5341796875
0.1125,-10.2900390625,20.8603515625,-11.1708984375
0.113,-14.494140625,20.0595703125,-6.40625
0.1135,-17.9775390625,19.05859375,-2.08203125
0.114,-20.580078125,17.2568359375,2.40234375
0.1145,-21.62109375,15.1748046875,5.4052734375
0.115,-21.7412109375,12.1318359375,8.6484375
0.1155,-21.8212890625,8.80859375,12.01171875
0.116,-21.220703125,4.1240234375,16.1357421875
0.1165,-19.8994140625,-0.2802734375,19.21875
0.117,-18.2177734375,-3.68359375,20.98046875
0.1175,-16.0556640625,-6.806640625,22.021484375
0.118,-12.251953125,-10.0498046875,21.541015625
0.1185,-7.767578125,-13.8935546875,21.060546875
0.119,-3.04296875,-17.45703125,20.01953125
0.1195,1.921875,-20.01953125,17.9375
0.12,4.96484375,-20.8603515625,16.015625
0.1205,8.1279296875,-21.140625,13.3330078125
0.121,11.53125,-20.98046875,9.9296875
0.1215,15.7353515625,-19.8994140625,4.884765625
0.122,19.0185546875,-18.5380859375,0.3603515625
0.1225,20.98046875,-16.65625,-3.4833984375
0.123,21.6611328125,-14.3740234375,-6.40625
0.1235,21.5009765625,-10.890625,-9.76953125
0.124,21.380859375,-7.126953125,-13.4130859375
0.1245,20.7802734375,-2.8828125,-17.0966796875
0.125,19.21875,1.521484375,-19.939453125
0.1255,17.216796875,4.6044921875,-21.060546875
0.126,14.654296875,7.8076171875,-21.7412109375
0.1265,11.0107421875,11.0908203125,-21.5009765625
0.127,5.7255859375,15.1748046875,-20.4599609375
0.1275,1.2412109375,18.2978515625,-19.298828125
0.128,-3.0830078125,20.33984375,-17.3369140625
0.1285,-6.0859375,20.9404296875,-15.1748046875
0.129,-9.369140625,20.7802734375,-11.9716796875
0.1295,-12.892578125,20.4599609375,-8.328125
0.13,-16.9365234375,19.4189453125,-3.4033203125
0.1305,-19.8994140625,17.6171875,1.28125
0.131,-21.30078125,15.775390625,4.484375
0.1315,-21.861328125,13.212890625,7.6474609375
0.132,-21.6611328125,9.7294921875,10.890625
0.1325,-21.140625,5.365234375,14.7744140625
0.133,-20.419921875,1.3212890625,18.2177734375
0.1335,-18.8583984375,-2.8427734375,20.7001953125
0.134,-16.5361328125,-5.765625,21.4208984375
0.1345,-13.453125,-8.96875,21.62109375
0.135,-9.689453125,-12.4521484375,21.4609375
0.1355,-4.2841796875,-16.416015625,20.1796875
0.136,0.5205078125,-19.21875,18.41796875
0.1365,4.00390625,-20.740234375,16.6962890625
0.137,7.046875,-21.1806640625,14.3740234375
0.1375,10.330078125,-20.7802734375,10.8505859375
0.138,14.2138671875,-20.1796875,6.646484375
0.1385,17.8173828125,-19.0986328125,2.0419921875
0.139,20.3798828125,-17.13671875,-2.4423828125
0.1395,21.140625,-15.0947265625,-5.1650390625
0.14,21.541015625,-12.2119140625,-8.4482421875
0.1405,21.30078125,-8.6083984375,-11.8916015625
0.141,20.66015625,-4.1640625,-15.6953125
0.1415,19.4990234375,0.0,-18.658203125
0.142,17.9375,3.5634765625,-20.7001953125
0.1425,15.455078125,6.5263671875,-21.2607421875
0.143,12.01171875,9.7294921875,-21.1005859375
0.1435,7.927734375,13.4130859375,-20.8203125
0.144,2.9228515625,17.0966796875,-19.6591796875
0.1445,-1.8017578125,19.4189453125,-17.5771484375
0.145,-4.724609375,20.33984375,-15.8955078125
0.1455,-7.84765625,20.740234375,-13.3330078125
0.146,-11.291015625,20.2197265625,-9.609375
0.1465,-15.134765625,19.458984375,-5.125
0.147,-18.4580078125,18.2177734375,-0.6806640625
0.1475,-20.6201171875,16.255859375,3.4033203125
0.148,-21.1005859375,14.013671875,6.0859375
0.1485,-21.2607421875,10.8505859375,9.44921875
0.149,-21.0205078125,7.0869140625,12.97265625
0.1495,-20.5,2.8427734375,16.65625
0.15,-18.9384765625,-1.3212890625,19.2587890625
0.1505,-17.1767578125,-4.484375,20.7802734375
0.151,-14.6142578125,-7.52734375,21.30078125
0.1515,-10.8505859375,-10.810546875,20.900390625
0.152,-6.2861328125,-14.57421875,20.2197265625
0.1525,-1.4814453125,-17.9775390625,19.05859375
0.153,2.8427734375,-20.01953125,16.9765625
0.1535,5.525390625,-20.419921875,15.0146484375
0.154,8.80859375,-20.6201171875,12.2119140625
0.1545,12.5322265625,-20.099609375,8.1279296875
0.155,16.17578125,-19.138671875,3.68359375
0.1555,19.05859375,-17.6572265625,-0.640625
0.156,20.7802734375,-15.775390625,-4.1240234375
0.1565,21.0205078125,-13.1728515625,-7.0068359375
0.157,20.98046875,-9.849609375,-10.3701171875
0.1575,20.580078125,-5.765625,-14.013671875
0.158,19.8994140625,-1.681640625,-17.4970703125
0.1585,18.2177734375,2.3623046875,-19.779296875
0.159,16.1357421875,5.1650390625,-20.5400390625
0.1595,13.4130859375,8.2880859375,-21.0205078125
0.16,9.2490234375,11.8916015625,-20.580078125
0.1605,4.6044921875,15.375,-19.619140625
0.161,0.0400390625,18.2177734375,-18.09765625
0.1615,-3.7236328125,20.01953125,-16.3759765625
0.162,-6.4462890625,20.1396484375,-14.0537109375
0.1625,-9.6494140625,20.1396484375,-11.05078125
0.163,-13.61328125,19.5390625,-6.7265625
0.1635,-17.1767578125,18.41796875,-2.2021484375
0.164,-19.5390625,16.6962890625,1.9619140625
0.1645,-20.7001953125,14.7744140625,4.9248046875
0.165,-21.0205078125,12.01171875,7.9677734375
0.1655,-20.8603515625,8.328125,11.611328125
0.166,-20.3798828125,4.404296875,15.0546875
0.1665,-19.37890625,0.3203125,18.177734375
0.167,-17.697265625,-3.4833984375,20.259765625
0.1675,-15.3349609375,-6.1259765625,20.6201171875
0.168,-12.412109375,-9.2890625,20.900390625
0.1685,-7.8076171875,-13.1728515625,20.33984375
0.169,-3.0830078125,-16.5361328125,19.138671875
0.1695,1.28125,-18.818359375,17.4169921875
0.17,4.484375,-20.1796875,15.7353515625
0.1705,7.4072265625,-20.2197265625,13.0927734375
0.171,10.810546875,-19.8994140625,9.609375
0.1715,14.5341796875,-19.298828125,5.4052734375
0.172,17.8974609375,-18.017578125,0.9609375
0.1725,19.939453125,-16.17578125,-2.962890625
0.173,20.4599609375,-13.9736328125,-5.6455078125
0.1735,20.7802734375,-11.0908203125,-8.8486328125
0.174,20.4599609375,-6.966796875,-12.6923828125
0.1745,19.859375,-3.123046875,-16.015625
0.175,18.6181640625,0.80078125,-18.578125
0.1755,16.9365234375,4.1640625,-20.419921875
0.176,14.1337890625,7.0068359375,-20.4599609375
0.1765,10.9306640625,10.169921875,-20.5
0.177,6.326171875,14.013671875,-19.8994140625
0.1775,1.521484375,17.296875,-18.578125
0.178,-2.40234375,19.138671875,-16.7763671875
0.1785,-5.205078125,19.8994140625,-14.974609375
0.179,-8.328125,19.9794921875,-12.171875
0.1795,-12.1318359375,19.37890625,-8.0078125
0.18,-15.4951171875,18.6982421875,-4.0439453125
0.1805,-18.4580078125,17.2568359375,0.3203125
0.181,-20.2197265625,15.4150390625,3.84375
0.1815,-20.419921875,12.8525390625,6.56640625
0.182,-20.66015625,9.9296875,9.76953125
0.1825,-20.2998046875,5.6455078125,13.693359375
0.183,-19.5791015625,1.6416015625,17.0166015625
0.1835,-18.0576171875,-1.9619140625,19.138671875
0.184,-16.3759765625,-4.96484375,20.4599609375
0.1845,-13.4130859375,-7.9677734375,20.5
0.185,-9.4091796875,-11.53125,20.1396484375
0.1855,-5.125,-14.89453125,19.458984375
0.186,-0.3203125,-17.9375,17.8974609375
0.1865,3.3232421875,-19.4990234375,16.1357421875
0.187,5.92578125,-19.7392578125,14.013671875
0.1875,9.0087890625,-19.8994140625,11.291015625
0.188,13.1328125,-19.1787109375,6.646484375
0.1885,16.3359375,-18.1376953125,2.5625
0.189,18.6982421875,-16.65625,-1.28125
0.1895,20.01953125,-14.814453125,-4.3642578125
0.19,20.0595703125,-12.01171875,-7.20703125
0.1905,20.1396484375,-8.6884765625,-10.650390625
0.191,19.779296875,-4.7646484375,-14.2138671875
0.1915,18.8583984375,-0.6806640625,-17.45703125
0.192,17.13671875,2.7626953125,-19.21875
0.1925,15.0546875,5.4453125,-19.8193359375
0.193,12.33203125,8.4482421875,-20.2197265625
0.1935,7.5673828125,12.4921875,-19.5390625
0.194,3.5634765625,15.4951171875,-18.73828125
0.1945,-0.720703125,17.8974609375,-17.13671875
0.195,-4.00390625,19.298828125,-15.4951171875
0.1955,-6.6865234375,19.1787109375,-12.8525390625
0.196,-9.8095703125,19.21875,-10.009765625
0.1965,-13.853515625,18.6181640625,-5.525390625
0.197,-17.0166015625,17.296875,-1.201171875
0.1975,-18.9384765625,15.7353515625,2.2421875
0.198,-19.8193359375,13.7734375,5.0849609375
0.1985,-19.939453125,10.970703125,8.0078125
0.199,-19.859375,7.046875,11.931640625
0.1995,-19.4189453125,3.4833984375,15.0947265625
0.2,-18.41796875,-0.48046875,17.9375
0.2005,-16.6962890625,-3.8037109375,19.4990234375
0.201,-14.1337890625,-6.40625,19.69921875
0.2015,-11.4111328125,-9.4091796875,20.01953125
0.202,-6.3662109375,-13.453125,19.21875
0.2025,-1.8818359375,-16.5361328125,17.9775390625
0.203,1.7216796875,-18.337890625,16.49609375
0.2035,4.724609375,-19.4189453125,14.7744140625
0.204,7.6474609375,-19.2587890625,11.8916015625
0.2045,11.1708984375,-18.9384765625,8.248046875
0.205,14.734375,-18.337890625,4.32421875
0.2055,17.6572265625,-16.9365234375,0.0400390625
0.206,19.21875,-15.2548828125,-3.1630859375
0.2065,19.5791015625,-12.892578125,-5.8857421875
0.207,19.859375,-10.2099609375,-8.8486328125
0.2075,19.4990234375,-5.765625,-12.97265625
0.208,18.8984375,-2.1220703125,-16.0556640625
0.2085,17.6171875,1.3212890625,-18.2578125
0.209,15.935546875,4.404296875,-19.69921875
0.2095,12.8525390625,7.287109375,-19.4990234375
0.21,9.609375,10.5302734375,-19.5791015625
0.2105,5.0849609375,14.25390625,-18.9384765625
0.211,0.4404296875,17.13671875,-17.3369140625
0.2115,-2.72265625,18.498046875,-15.8154296875
0.212,-5.525390625,19.138671875,-13.8134765625
0.2125,-8.48828125,19.05859375,-11.05078125
0.213,-12.5322265625,18.3779296875,-6.56640625
0.2135,-15.6953125,17.6171875,-2.72265625
0.214,-18.09765625,16.1357421875,1.12109375
0.2145,-19.37890625,14.3740234375,4.083984375
0.215,-19.4189453125,11.6513671875,6.88671875
0.2155,-19.69921875,8.7685546875,9.9697265625
0.216,-19.3388671875,4.6044921875,13.8134765625
0.2165,-18.41796875,0.6806640625,16.8564453125
0.217,-16.9365234375,-2.482421875,18.498046875
0.2175,-15.1748046875,-5.2451171875,19.5791015625
0.218,-12.1318359375,-8.087890625,19.4990234375
0.2185,-7.8076171875,-11.8515625,18.978515625
