wavelength,x,y,z
0.0,2.9228515625,-0.3603515625,-3.04296875
0.0005,3.0029296875,-1.1611328125,-2.2822265625
0.001,3.0830078125,-1.9619140625,-1.681640625
0.0015,3.2431640625,-2.642578125,-1.3212890625
0.002,3.123046875,-2.8427734375,-0.80078125
0.0025,2.72265625,-2.962890625,-0.3203125
0.003,2.08203125,-3.0830078125,0.48046875
0.0035,1.28125,-3.203125,1.361328125
0.004,0.7607421875,-3.3232421875,2.0419921875
0.0045,0.400390625,-3.4033203125,2.482421875
0.005,0.0,-3.283203125,2.7626953125
0.0055,-0.6806640625,-2.6826171875,2.8427734375
0.006,-1.44140625,-2.0419921875,2.962890625
0.0065,-2.2021484375,-1.44140625,3.04296875
0.007,-2.6826171875,-1.041015625,3.1630859375
0.0075,-2.8828125,-0.720703125,3.04296875
0.008,-2.962890625,-0.2802734375,2.72265625
0.0085,-2.962890625,0.240234375,2.08203125
0.009,-3.04296875,1.0810546875,1.44140625
0.0095,-3.2431640625,1.5615234375,0.9208984375
0.01,-3.203125,2.2421875,0.5205078125
0.0105,-3.1630859375,2.5224609375,0.16015625
0.011,-2.642578125,2.6025390625,-0.400390625
0.0115,-2.08203125,2.802734375,-1.12109375
0.012,-1.44140625,2.9228515625,-1.9619140625
0.0125,-1.0009765625,3.0830078125,-2.5625
0.013,-0.640625,3.1630859375,-2.9228515625
0.0135,-0.2001953125,3.0029296875,-3.203125
0.014,0.4404296875,2.482421875,-3.36328125
0.0145,1.201171875,1.841796875,-3.4833984375
0.015,1.921875,1.28125,-3.603515625
0.0155,2.40234375,0.9208984375,-3.7236328125
0.016,2.642578125,0.6005859375,-3.68359375
0.0165,2.6826171875,0.0,-3.2431640625
0.017,2.8427734375,-0.640625,-2.7626953125
0.0175,2.8427734375,-1.4013671875,-2.001953125
0.018,3.0830078125,-2.0419921875,-1.521484375
0.0185,3.123046875,-2.5224609375,-1.1611328125
0.019,3.0029296875,-2.802734375,-0.720703125
0.0195,2.40234375,-2.8828125,0.0
0.02,1.76171875,-3.04296875,0.7607421875
0.0205,1.1611328125,-3.2431640625,1.5615234375
0.021,0.7607421875,-3.4033203125,2.162109375
0.0215,0.3603515625,-3.36328125,2.5224609375
0.022,-0.2001953125,-3.0830078125,2.6826171875
0.0225,-0.9609375,-2.482421875,2.8828125
0.023,-1.76171875,-1.8017578125,3.0029296875
0.0235,-2.3623046875,-1.28125,3.123046875
0.024,-2.72265625,-0.9609375,3.1630859375
0.0245,-2.9228515625,-0.640625,2.962890625
0.025,-2.9228515625,0.0,2.40234375
0.0255,-3.0029296875,0.6806640625,1.8017578125
0.026,-3.123046875,1.521484375,1.1611328125
0.0265,-3.203125,2.0419921875,0.7607421875
0.027,-3.1630859375,2.3623046875,0.3603515625
0.0275,-2.8828125,2.5625,-0.16015625
0.028,-2.2822265625,2.6826171875,-0.80078125
0.0285,-1.6416015625,2.802734375,-1.6015625
0.029,-1.1611328125,3.0029296875,-2.2822265625
0.0295,-0.80078125,3.123046875,-2.7626953125
0.03,-0.400390625,3.0029296875,-3.04296875
0.0305,0.240234375,2.5625,-3.203125
0.031,0.880859375,2.0419921875,-3.36328125
0.0315,1.6416015625,1.4013671875,-3.4833984375
0.032,2.162109375,1.0810546875,-3.603515625
0.0325,2.4423828125,0.6806640625,-3.5634765625
0.033,2.6025390625,0.2802734375,-3.36328125
0.0335,2.6826171875,-0.3203125,-2.8828125
0.034,2.72265625,-1.0009765625,-2.2822265625
0.0345,2.9228515625,-1.6416015625,-1.76171875
0.035,3.04296875,-2.2421875,-1.3212890625
0.0355,2.962890625,-2.5224609375,-1.0009765625
0.036,2.6025390625,-2.72265625,-0.400390625
0.0365,2.1220703125,-2.9228515625,0.2802734375
0.037,1.4814453125,-3.0830078125,1.12109375
0.0375,1.0009765625,-3.2431640625,1.7216796875
0.038,0.640625,-3.36328125,2.2421875
0.0385,0.16015625,-3.203125,2.5224609375
0.039,-0.5205078125,-2.72265625,2.6826171875
0.0395,-1.2412109375,-2.2021484375,2.8828125
0.04,-2.001953125,-1.6015625,3.04296875
0.0405,-2.5224609375,-1.28125,3.1630859375
0.041,-2.7626953125,-0.9208984375,3.0830078125
0.0415,-2.8828125,-0.4404296875,2.6826171875
0.042,-2.962890625,0.2802734375,2.2021484375
0.0425,-3.0830078125,1.12109375,1.521484375
0.043,-3.2431640625,1.76171875,1.0009765625
0.0435,-3.283203125,2.2421875,0.6005859375
0.044,-3.0830078125,2.5224609375,0.16015625
0.0445,-2.5625,2.642578125,-0.560546875
0.045,-1.9619140625,2.8427734375,-1.3212890625
0.0455,-1.28125,3.04296875,-2.2021484375
0.046,-0.9208984375,3.1630859375,-2.72265625
0.0465,-0.5205078125,3.1630859375,-3.0830078125
0.047,0.0400390625,2.802734375,-3.283203125
0.0475,0.880859375,2.1220703125,-3.4033203125
0.048,1.6015625,1.521484375,-3.5634765625
0.0485,2.2421875,0.9609375,-3.6435546875
0.049,2.5625,0.640625,-3.7236328125
0.0495,2.6826171875,0.2802734375,-3.4833984375
0.05,2.6826171875,-0.2802734375,-2.8828125
0.0505,2.802734375,-1.0009765625,-2.322265625
0.051,2.9228515625,-1.76171875,-1.681640625
0.0515,3.0029296875,-2.2822265625,-1.28125
0.052,2.962890625,-2.6025390625,-0.8408203125
0.0525,2.6826171875,-2.802734375,-0.4404296875
0.053,2.0419921875,-2.8828125,0.3203125
0.0535,1.44140625,-3.0830078125,1.0810546875
0.054,0.9208984375,-3.203125,1.841796875
0.0545,0.560546875,-3.36328125,2.2822265625
0.055,0.1201171875,-3.203125,2.5625
0.0555,-0.48046875,-2.802734375,2.72265625
0.056,-1.2412109375,-2.2421875,2.8828125
0.0565,-1.9619140625,-1.6416015625,3.0029296875
0.057,-2.5224609375,-1.2412109375,3.123046875
0.0575,-2.8427734375,-0.9208984375,3.0830078125
0.058,-2.9228515625,-0.48046875,2.8427734375
0.0585,-2.9228515625,0.240234375,2.2421875
0.059,-3.0830078125,0.9609375,1.6416015625
0.0595,-3.203125,1.7216796875,1.041015625
0.06,-3.3232421875,2.2421875,0.640625
0.0605,-3.1630859375,2.5224609375,0.240234375
0.061,-2.802734375,2.6826171875,-0.3603515625
0.0615,-2.08203125,2.8427734375,-1.1611328125
0.062,-1.4814453125,3.0029296875,-2.001953125
0.0625,-1.0009765625,3.1630859375,-2.642578125
0.063,-0.640625,3.283203125,-3.0830078125
0.0635,-0.080078125,3.0029296875,-3.3232421875
0.064,0.640625,2.40234375,-3.443359375
0.0645,1.4013671875,1.7216796875,-3.603515625
0.065,2.2021484375,1.0810546875,-3.7236328125
0.0655,2.5625,0.720703125,-3.8037109375
0.066,2.802734375,0.3603515625,-3.603515625
0.0665,2.8427734375,-0.16015625,-3.203125
0.067,2.8427734375,-0.9208984375,-2.4423828125
0.0675,2.9228515625,-1.6416015625,-1.8017578125
0.068,3.123046875,-2.322265625,-1.28125
0.0685,3.123046875,-2.72265625,-0.9609375
0.069,2.802734375,-2.8828125,-0.48046875
0.0695,2.2421875,-2.962890625,0.2001953125
0.07,1.5615234375,-3.0830078125,1.041015625
0.0705,0.9208984375,-3.203125,1.8017578125
0.071,0.48046875,-3.3232421875,2.2822265625
0.0715,0.16015625,-3.283203125,2.642578125
0.072,-0.400390625,-2.9228515625,2.802734375
0.0725,-1.201171875,-2.2822265625,2.8427734375
0.073,-1.8818359375,-1.681640625,2.962890625
0.0735,-2.5224609375,-1.1611328125,3.04296875
0.074,-2.802734375,-0.8408203125,3.123046875
0.0745,-2.8828125,-0.48046875,2.8427734375
0.075,-2.962890625,0.0400390625,2.3623046875
0.0755,-2.962890625,0.7607421875,1.76171875
0.076,-3.0830078125,1.4814453125,1.12109375
0.0765,-3.203125,2.0419921875,0.6806640625
0.077,-3.203125,2.4423828125,0.2802734375
0.0775,-2.8828125,2.5625,-0.16015625
0.078,-2.2822265625,2.6826171875,-0.880859375
0.0785,-1.7216796875,2.8828125,-1.6015625
0.079,-1.1611328125,3.04296875,-2.3623046875
0.0795,-0.80078125,3.1630859375,-2.8427734375
0.08,-0.3603515625,3.0830078125,-3.1630859375
0.0805,0.240234375,2.642578125,-3.36328125
0.081,1.0009765625,1.9619140625,-3.4833984375
0.0815,1.76171875,1.4013671875,-3.6435546875
0.082,2.322265625,1.0009765625,-3.7236328125
0.0825,2.642578125,0.6806640625,-3.763671875
0.083,2.72265625,0.240234375,-3.4033203125
0.0835,2.802734375,-0.4404296875,-2.8427734375
0.084,2.9228515625,-1.1611328125,-2.2421875
0.0845,3.0830078125,-1.9619140625,-1.6015625
0.085,3.123046875,-2.4423828125,-1.2412109375
0.0855,3.04296875,-2.802734375,-0.7607421875
0.086,2.6025390625,-2.9228515625,-0.2001953125
0.0865,1.8818359375,-3.0830078125,0.640625
0.087,1.28125,-3.2431640625,1.4814453125
0.0875,0.7607421875,-3.4033203125,2.162109375
0.088,0.3603515625,-3.4833984375,2.5625
0.0885,-0.16015625,-3.203125,2.7626953125
0.089,-0.9208984375,-2.6025390625,2.9228515625
0.0895,-1.76171875,-1.8818359375,3.04296875
0.09,-2.4423828125,-1.28125,3.1630859375
0.0905,-2.8427734375,-0.880859375,3.1630859375
0.091,-3.0830078125,-0.560546875,3.0830078125
0.0915,-3.0830078125,0.0,2.5625
0.092,-3.0830078125,0.7607421875,1.841796875
0.0925,-3.1630859375,1.521484375,1.201171875
0.093,-3.283203125,2.2021484375,0.640625
0.0935,-3.2431640625,2.5224609375,0.2802734375
0.094,-2.9228515625,2.6826171875,-0.2001953125
0.0945,-2.40234375,2.802734375,-0.8408203125
0.095,-1.6015625,2.9228515625,-1.76171875
0.0955,-1.041015625,3.04296875,-2.4423828125
0.096,-0.640625,3.1630859375,-2.962890625
0.0965,-0.3203125,3.123046875,-3.283203125
0.097,0.2802734375,2.642578125,-3.4033203125
0.0975,1.041015625,1.9619140625,-3.5634765625
0.098,1.841796875,1.361328125,-3.603515625
0.0985,2.4423828125,0.880859375,-3.7236328125
0.099,2.6826171875,0.560546875,-3.68359375
0.0995,2.8427734375,0.16015625,-3.4833984375
0.1,2.8427734375,-0.400390625,-2.9228515625
0.1005,2.8427734375,-1.1611328125,-2.2021484375
0.101,3.0029296875,-1.8818359375,-1.6416015625
0.1015,3.123046875,-2.482421875,-1.1611328125
0.102,3.0830078125,-2.8427734375,-0.80078125
0.1025,2.6826171875,-2.9228515625,-0.3203125
0.103,2.1220703125,-3.0830078125,0.48046875
0.1035,1.4013671875,-3.203125,1.3212890625
0.104,0.8408203125,-3.36328125,2.0419921875
0.1045,0.4404296875,-3.4833984375,2.482421875
0.105,0.0400390625,-3.4033203125,2.802734375
0.1055,-0.640625,-2.8828125,2.9228515625
0.106,-1.4814453125,-2.1220703125,3.0830078125
0.1065,-2.2822265625,-1.4814453125,3.1630859375
0.107,-2.8427734375,-1.041015625,3.283203125
0.1075,-3.0830078125,-0.6806640625,3.203125
0.108,-3.1630859375,-0.2001953125,2.802734375
0.1085,-3.203125,0.48046875,2.2021484375
0.109,-3.203125,1.3212890625,1.4013671875
0.1095,-3.36328125,2.0419921875,0.8408203125
0.11,-3.36328125,2.5625,0.3603515625
0.1105,-3.2431640625,2.8427734375,0.0
0.111,-2.6025390625,2.8828125,-0.6806640625
0.1115,-1.921875,3.0029296875,-1.6015625
0.112,-1.1611328125,3.1630859375,-2.40234375
0.1125,-0.720703125,3.2431640625,-3.04296875
0.113,-0.3203125,3.203125,-3.36328125
0.1135,0.2001953125,2.8427734375,-3.5634765625
0.114,1.0009765625,2.2421875,-3.6435546875
0.1145,1.841796875,1.44140625,-3.68359375
0.115,2.482421875,0.880859375,-3.763671875
0.1155,2.8427734375,0.48046875,-3.763671875
0.116,3.0029296875,0.16015625,-3.5634765625
0.1165,2.8828125,-0.400390625,-2.962890625
0.117,2.9228515625,-1.0810546875,-2.322265625
0.1175,2.962890625,-1.921875,-1.6015625
0.118,3.123046875,-2.482421875,-1.12109375
0.1185,3.0029296875,-2.8427734375,-0.720703125
0.119,2.802734375,-2.962890625,-0.3603515625
0.1195,2.162109375,-3.04296875,0.3203125
0.12,1.44140625,-3.123046875,1.1611328125
0.1205,0.8408203125,-3.2431640625,1.921875
0.121,0.4404296875,-3.4033203125,2.40234375
0.1215,0.080078125,-3.4033203125,2.6826171875
0.122,-0.48046875,-2.962890625,2.8427734375
0.1225,-1.201171875,-2.3623046875,3.0029296875
0.123,-2.001953125,-1.6015625,3.123046875
0.1235,-2.6025390625,-1.1611328125,3.203125
0.124,-2.9228515625,-0.80078125,3.1630859375
0.1245,-3.0830078125,-0.48046875,3.04296875
0.125,-3.0830078125,0.16015625,2.4423828125
0.1255,-3.1630859375,0.9208984375,1.76171875
0.126,-3.283203125,1.7216796875,1.12109375
0.1265,-3.36328125,2.322265625,0.640625
0.127,-3.283203125,2.642578125,0.2802734375
0.1275,-2.962890625,2.8427734375,-0.3203125
0.128,-2.322265625,2.9228515625,-1.041015625
0.1285,-1.5615234375,3.04296875,-2.001953125
0.129,-1.0009765625,3.203125,-2.72265625
0.1295,-0.640625,3.3232421875,-3.2431640625
0.13,-0.16015625,3.203125,-3.5234375
0.1305,0.6005859375,2.5625,-3.5634765625
0.131,1.4013671875,1.921875,-3.763671875
0.1315,2.2822265625,1.1611328125,-3.8837890625
0.132,2.7626953125,0.7607421875,-3.8837890625
0.1325,3.0029296875,0.3603515625,-3.763671875
0.133,3.04296875,-0.1201171875,-3.36328125
0.1335,3.0029296875,-0.880859375,-2.642578125
0.134,3.04296875,-1.681640625,-1.841796875
0.1345,3.1630859375,-2.40234375,-1.28125
0.135,3.1630859375,-2.8828125,-0.8408203125
0.1355,2.962890625,-3.0830078125,-0.4404296875
0.136,2.40234375,-3.0830078125,0.2001953125
0.1365,1.6416015625,-3.283203125,1.041015625
0.137,0.880859375,-3.36328125,1.921875
0.1375,0.400390625,-3.4833984375,2.4423828125
0.138,0.0400390625,-3.36328125,2.802734375
0.1385,-0.48046875,-3.123046875,3.0029296875
0.139,-1.2412109375,-2.3623046875,3.04296875
0.1395,-1.9619140625,-1.681640625,3.123046875
0.14,-2.6826171875,-1.041015625,3.1630859375
0.1405,-3.04296875,-0.7607421875,3.2431640625
0.141,-3.1630859375,-0.400390625,3.0029296875
0.1415,-3.203125,0.1201171875,2.5224609375
0.142,-3.203125,0.80078125,1.8818359375
0.1425,-3.203125,1.6416015625,1.12109375
0.143,-3.3232421875,2.2822265625,0.6005859375
0.1435,-3.3232421875,2.6826171875,0.2001953125
0.144,-3.0830078125,2.8828125,-0.240234375
0.1445,-2.40234375,2.8427734375,-1.0009765625
0.145,-1.76171875,3.04296875,-1.8017578125
0.1455,-1.0009765625,3.1630859375,-2.6826171875
0.146,-0.640625,3.3232421875,-3.203125
0.1465,-0.2001953125,3.2431640625,-3.4833984375
0.147,0.3603515625,2.8828125,-3.68359375
0.1475,1.2412109375,2.08203125,-3.763671875
0.148,2.0419921875,1.361328125,-3.84375
0.1485,2.72265625,0.7607421875,-3.8837890625
0.149,3.04296875,0.48046875,-3.923828125
0.1495,3.1630859375,0.0,-3.603515625
0.15,3.123046875,-0.640625,-2.8828125
0.1505,3.1630859375,-1.44140625,-2.2021484375
0.151,3.2431640625,-2.322265625,-1.44140625
0.1515,3.2431640625,-2.8427734375,-1.0009765625
0.152,3.1630859375,-3.1630859375,-0.5205078125
0.1525,2.72265625,-3.283203125,0.0
0.153,1.841796875,-3.283203125,0.880859375
0.1535,1.12109375,-3.4833984375,1.7216796875
0.154,0.48046875,-3.4833984375,2.5224609375
0.1545,0.1201171875,-3.5634765625,2.8427734375
0.155,-0.400390625,-3.203125,3.04296875
0.1555,-1.0810546875,-2.6025390625,3.1630859375
0.156,-1.9619140625,-1.8017578125,3.203125
0.1565,-2.642578125,-1.1611328125,3.2431640625
0.157,-3.0830078125,-0.6806640625,3.203125
0.1575,-3.2431640625,-0.400390625,3.123046875
0.158,-3.2431640625,0.080078125,2.6826171875
0.1585,-3.1630859375,0.7607421875,1.8818359375
0.159,-3.203125,1.521484375,1.2412109375
0.1595,-3.283203125,2.2822265625,0.6005859375
0.16,-3.3232421875,2.642578125,0.240234375
0.1605,-3.0830078125,2.802734375,-0.2802734375
0.161,-2.6025390625,2.8828125,-0.80078125
0.1615,-1.8017578125,2.9228515625,-1.681640625
0.162,-1.12109375,3.123046875,-2.4423828125
0.1625,-0.6005859375,3.203125,-3.0830078125
0.163,-0.3203125,3.283203125,-3.443359375
0.1635,0.240234375,2.9228515625,-3.5634765625
0.164,0.9609375,2.2421875,-3.6435546875
0.1645,1.7216796875,1.5615234375,-3.7236328125
0.165,2.482421875,0.9609375,-3.84375
0.1655,2.8427734375,0.6005859375,-3.84375
0.166,3.04296875,0.240234375,-3.68359375
0.1665,3.0830078125,-0.3203125,-3.203125
0.167,3.0029296875,-1.041015625,-2.4423828125
0.1675,3.0830078125,-1.841796875,-1.76171875
0.168,3.203125,-2.5625,-1.1611328125
0.1685,3.203125,-2.962890625,-0.80078125
0.169,2.8828125,-3.1630859375,-0.3203125
0.1695,2.2822265625,-3.2431640625,0.3203125
0.17,1.521484375,-3.283203125,1.28125
0.1705,0.8408203125,-3.4033203125,2.0419921875
0.171,0.400390625,-3.4833984375,2.5625
0.1715,0.0400390625,-3.4833984375,2.9228515625
0.172,-0.640625,-2.962890625,3.04296875
0.1725,-1.44140625,-2.2421875,3.123046875
0.173,-2.2021484375,-1.5615234375,3.1630859375
0.1735,-2.8427734375,-1.0009765625,3.283203125
0.174,-3.0830078125,-0.6806640625,3.2431640625
0.1745,-3.1630859375,-0.2802734375,2.8427734375
0.175,-3.203125,0.3203125,2.3623046875
0.1755,-3.203125,1.12109375,1.5615234375
0.176,-3.2431640625,1.8818359375,0.9208984375
0.1765,-3.283203125,2.40234375,0.4404296875
0.177,-3.2431640625,2.6826171875,0.080078125
0.1775,-2.8427734375,2.72265625,-0.5205078125
0.178,-2.1220703125,2.8427734375,-1.201171875
0.1785,-1.44140625,3.0029296875,-2.001953125
0.179,-0.880859375,3.1630859375,-2.72265625
0.1795,-0.5205078125,3.1630859375,-3.1630859375
0.18,-0.080078125,3.04296875,-3.36328125
0.1805,0.5205078125,2.5625,-3.5234375
0.181,1.361328125,1.8017578125,-3.5634765625
0.1815,2.0419921875,1.2412109375,-3.68359375
0.182,2.5625,0.7607421875,-3.7236328125
0.1825,2.8427734375,0.48046875,-3.7236328125
0.183,2.8427734375,0.0400390625,-3.3232421875
0.1835,2.8828125,-0.6005859375,-2.7626953125
0.184,2.962890625,-1.361328125,-2.08203125
0.1845,3.04296875,-2.162109375,-1.4814453125
0.185,3.123046875,-2.6025390625,-1.0810546875
0.1855,3.0029296875,-2.962890625,-0.6806640625
0.186,2.5625,-3.0029296875,-0.16015625
0.1865,1.8818359375,-3.0830078125,0.720703125
0.187,1.2412109375,-3.2431640625,1.521484375
0.1875,0.720703125,-3.4033203125,2.2021484375
0.188,0.3203125,-3.4833984375,2.5625
0.1885,-0.16015625,-3.203125,2.802734375
0.189,-0.8408203125,-2.642578125,2.962890625
0.1895,-1.681640625,-1.921875,3.04296875
0.19,-2.322265625,-1.361328125,3.1630859375
0.1905,-2.7626953125,-0.9609375,3.1630859375
0.191,-3.04296875,-0.640625,3.123046875
0.1915,-3.0830078125,-0.1201171875,2.6025390625
0.192,-3.0830078125,0.6005859375,1.9619140625
0.1925,-3.1630859375,1.3212890625,1.3212890625
0.193,-3.283203125,2.0419921875,0.7607421875
0.1935,-3.283203125,2.3623046875,0.3603515625
0.194,-3.0029296875,2.642578125,0.0
0.1945,-2.5224609375,2.7626953125,-0.6806640625
0.195,-1.8017578125,2.8828125,-1.5615234375
0.1955,-1.201171875,3.04296875,-2.2822265625
0.196,-0.7607421875,3.1630859375,-2.8427734375
0.1965,-0.4404296875,3.1630859375,-3.203125
0.197,0.16015625,2.7626953125,-3.3232421875
0.1975,0.9208984375,2.162109375,-3.4833984375
0.198,1.6416015625,1.521484375,-3.5634765625
0.1985,2.2822265625,1.0009765625,-3.7236328125
0.199,2.5625,0.6806640625,-3.68359375
0.1995,2.802734375,0.2802734375,-3.4833984375
0.2,2.802734375,-0.2802734375,-2.962890625
0.2005,2.802734375,-1.041015625,-2.322265625
0.201,2.962890625,-1.76171875,-1.76171875
0.2015,3.04296875,-2.40234375,-1.28125
0.202,3.04296875,-2.642578125,-0.9208984375
0.2025,2.6826171875,-2.8427734375,-0.400390625
0.203,2.162109375,-2.962890625,0.2802734375
0.2035,1.44140625,-3.0830078125,1.12109375
0.204,0.9208984375,-3.2431640625,1.841796875
0.2045,0.560546875,-3.36328125,2.2822265625
0.205,0.2001953125,-3.3232421875,2.6025390625
0.2055,-0.48046875,-2.8427734375,2.7626953125
0.206,-1.201171875,-2.2421875,2.8828125
0.2065,-1.9619140625,-1.6015625,3.04296875
0.207,-2.5224609375,-1.201171875,3.1630859375
0.2075,-2.7626953125,-0.880859375,3.123046875
0.208,-2.9228515625,-0.4404296875,2.802734375
0.2085,-2.962890625,0.1201171875,2.322265625
0.209,-3.0830078125,0.9208984375,1.5615234375
0.2095,-3.203125,1.5615234375,1.041015625
0.21,-3.2431640625,2.2021484375,0.640625
0.2105,-3.203125,2.5224609375,0.2802734375
0.211,-2.72265625,2.6025390625,-0.3603515625
0.2115,-2.162109375,2.802734375,-1.12109375
0.212,-1.4814453125,2.962890625,-1.921875
0.2125,-1.041015625,3.1630859375,-2.5224609375
0.213,-0.640625,3.1630859375,-2.9228515625
0.2135,-0.2001953125,2.962890625,-3.203125
0.214,0.48046875,2.482421875,-3.36328125
0.2145,1.28125,1.76171875,-3.4833984375
0.215,1.921875,1.28125,-3.603515625
0.2155,2.40234375,0.880859375,-3.68359375
0.216,2.6025390625,0.6005859375,-3.603515625
0.2165,2.6826171875,0.0,-3.1630859375
0.217,2.72265625,-0.640625,-2.642578125
0.2175,2.8427734375,-1.4013671875,-2.001953125
0.218,3.0029296875,-2.001953125,-1.521484375
0.2185,3.0029296875,-2.40234375,-1.12109375
0.219,2.8427734375,-2.6826171875,-0.6806640625
0.2195,2.3623046875,-2.802734375,-0.080078125
0.22,1.76171875,-2.9228515625,0.6806640625
0.2205,1.201171875,-3.1630859375,1.44140625
0.221,0.7607421875,-3.283203125,2.0419921875
0.2215,0.4404296875,-3.3232421875,2.3623046875
0.222,-0.1201171875,-3.04296875,2.5625
0.2225,-0.80078125,-2.5625,2.802734375
0.223,-1.6015625,-1.8818359375,2.8828125
0.2235,-2.2021484375,-1.44140625,3.04296875
0.224,-2.5625,-1.0810546875,3.0830078125
0.2245,-2.802734375,-0.80078125,2.9228515625
0.225,-2.8828125,-0.240234375,2.482421875
0.2255,-2.9228515625,0.48046875,1.921875
0.226,-3.0830078125,1.2412109375,1.361328125
0.2265,-3.203125,1.921875,0.9208984375
0.227,-3.203125,2.2421875,0.5205078125
0.2275,-2.9228515625,2.5224609375,0.0
0.228,-2.4423828125,2.6826171875,-0.640625
