wavelength,x,y,z
0.0,-12.522216796875,-13.322998046875,25.514892578125
0.0005,-8.037841796875,-17.607177734375,25.274658203125
0.001,-4.554443359375,-19.809326171875,23.993408203125
0.0015,1.411376953125,-22.812255859375,21.190673828125
0.002,6.095947265625,-24.333740234375,18.227783203125
0.0025,11.821533203125,-25.134521484375,13.343017578125
0.003,15.825439453125,-25.614990234375,9.939697265625
0.0035,19.789306640625,-24.493896484375,4.934814453125
0.004,22.351806640625,-23.212646484375,1.131103515625
0.0045,24.353759765625,-20.489990234375,-3.713623046875
0.005,26.235595703125,-17.326904296875,-8.878662109375
0.0055,25.434814453125,-12.442138671875,-13.082763671875
0.006,26.115478515625,-9.198974609375,-17.006591796875
0.0065,24.473876953125,-5.074951171875,-19.529052734375
0.007,22.632080078125,0.010009765625,-22.732177734375
0.0075,19.509033203125,4.614501953125,-24.213623046875
0.008,15.385009765625,10.380126953125,-25.895263671875
0.0085,11.260986328125,14.303955078125,-25.655029296875
0.009,6.656494140625,18.347900390625,-25.134521484375
0.0095,2.892822265625,20.269775390625,-23.372802734375
0.01,-2.752685546875,23.112548828125,-20.650146484375
0.0105,-7.757568359375,24.634033203125,-17.286865234375
0.011,-13.202880859375,24.954345703125,-12.201904296875
0.0115,-16.846435546875,25.434814453125,-9.158935546875
0.012,-20.369873046875,23.993408203125,-4.194091796875
0.0125,-22.772216796875,22.431884765625,-0.190185546875
0.013,-24.373779296875,19.388916015625,4.454345703125
0.0135,-26.215576171875,15.865478515625,9.939697265625
0.014,-25.334716796875,11.020751953125,13.983642578125
0.0145,-25.775146484375,7.737548828125,17.747314453125
0.015,-23.813232421875,3.573486328125,19.989501953125
0.0155,-21.931396484375,-1.431396484375,23.072509765625
0.016,-18.287841796875,-6.196044921875,24.193603515625
0.0165,-13.963623046875,-11.881591796875,25.514892578125
0.017,-10.199951171875,-15.485107421875,25.274658203125
0.0175,-5.395263671875,-19.168701171875,24.153564453125
0.018,-1.231201171875,-20.970458984375,21.911376953125
0.0185,3.813720703125,-23.372802734375,19.468994140625
0.019,9.419189453125,-24.894287109375,15.505126953125
0.0195,14.223876953125,-24.614013671875,10.500244140625
0.02,17.867431640625,-25.174560546875,7.537353515625
0.0205,20.990478515625,-23.332763671875,2.532470703125
0.021,23.472900390625,-21.490966796875,-1.871826171875
0.0215,24.553955078125,-18.327880859375,-6.115966796875
0.022,26.115478515625,-14.564208984375,-11.561279296875
0.0225,25.154541015625,-10.079833984375,-15.164794921875
0.023,25.194580078125,-6.516357421875,-18.808349609375
0.0235,22.912353515625,-2.272216796875,-20.810302734375
0.024,21.070556640625,2.572509765625,-23.733154296875
0.0245,16.786376953125,7.617431640625,-24.493896484375
0.025,12.502197265625,12.902587890625,-25.494873046875
0.0255,8.978759765625,16.225830078125,-25.334716796875
0.026,3.853759765625,19.669189453125,-23.613037109375
0.0265,-0.630615234375,21.631103515625,-21.290771484375
0.027,-5.275146484375,23.552978515625,-18.608154296875
0.0275,-11.040771484375,24.994384765625,-14.404052734375
0.028,-15.244873046875,24.313720703125,-9.599365234375
0.0285,-18.728271484375,24.794189453125,-6.676513671875
0.029,-21.410888671875,22.552001953125,-1.751708984375
0.0295,-23.853271484375,20.510009765625,2.852783203125
0.03,-24.413818359375,16.906494140625,7.096923828125
0.0305,-25.775146484375,13.022705078125,12.422119140625
0.031,-24.974365234375,8.938720703125,15.705322265625
0.0315,-24.493896484375,4.974853515625,19.228759765625
0.032,-22.011474609375,0.690673828125,21.070556640625
0.0325,-19.969482421875,-4.114013671875,23.713134765625
0.033,-15.525146484375,-9.239013671875,24.353759765625
0.0335,-11.160888671875,-13.963623046875,24.674072265625
0.034,-8.037841796875,-16.966552734375,24.714111328125
0.0345,-2.552490234375,-19.929443359375,22.271728515625
0.035,1.891845703125,-21.971435546875,19.989501953125
0.0355,6.576416015625,-23.372802734375,16.746337890625
0.036,12.101806640625,-24.814208984375,12.782470703125
0.0365,16.025634765625,-23.893310546875,7.977783203125
0.037,19.348876953125,-24.053466796875,4.894775390625
0.0375,21.671142578125,-21.651123046875,0.170166015625
0.038,24.073486328125,-19.529052734375,-4.474365234375
0.0385,24.193603515625,-15.565185546875,-8.598388671875
0.039,25.234619140625,-11.801513671875,-13.443115234375
0.0395,24.634033203125,-8.318115234375,-16.365966796875
0.04,23.392822265625,-3.833740234375,-19.689208984375
0.0405,21.110595703125,0.250244140625,-21.490966796875
0.041,18.427978515625,5.135009765625,-23.733154296875
0.0415,14.143798828125,10.219970703125,-24.533935546875
0.042,9.619384765625,14.584228515625,-24.293701171875
0.0425,6.736572265625,17.386962890625,-24.213623046875
0.043,1.131103515625,20.149658203125,-21.450927734375
0.0435,-3.193115234375,22.271728515625,-19.368896484375
0.044,-8.197998046875,23.192626953125,-15.405029296875
0.0445,-13.082763671875,24.473876953125,-11.881591796875
0.045,-16.686279296875,23.593017578125,-7.477294921875
0.0455,-19.729248046875,23.152587890625,-3.993896484375
0.046,-21.691162109375,20.790283203125,0.370361328125
0.0465,-23.973388671875,18.307861328125,5.175048828125
0.047,-23.893310546875,14.063720703125,9.459228515625
0.0475,-24.614013671875,10.300048828125,13.983642578125
0.048,-24.173583984375,7.297119140625,16.626220703125
0.0485,-22.411865234375,2.372314453125,19.709228515625
0.049,-20.249755859375,-1.711669921875,21.631103515625
0.0495,-16.846435546875,-6.796630859375,23.272705078125
0.05,-13.122802734375,-11.441162109375,24.273681640625
0.0505,-8.438232421875,-15.405029296875,23.472900390625
0.051,-5.555419921875,-17.807373046875,23.032470703125
0.0515,-0.150146484375,-20.329833984375,20.229736328125
0.052,4.414306640625,-22.531982421875,18.067626953125
0.0525,9.539306640625,-22.972412109375,13.463134765625
0.053,13.943603515625,-24.053466796875,10.219970703125
0.0535,17.306884765625,-23.292724609375,6.135986328125
0.054,20.229736328125,-22.251708984375,2.172119140625
0.0545,22.071533203125,-19.849365234375,-2.112060546875
0.055,24.073486328125,-17.126708984375,-6.916748046875
0.0555,23.913330078125,-12.962646484375,-11.040771484375
0.056,24.273681640625,-9.279052734375,-15.084716796875
0.0565,23.673095703125,-6.436279296875,-17.447021484375
0.057,21.631103515625,-1.311279296875,-20.489990234375
0.0575,19.268798828125,3.012939453125,-22.451904296875
0.058,15.104736328125,8.298095703125,-23.492919921875
0.0585,11.901611328125,12.542236328125,-24.533935546875
0.059,7.257080078125,16.225830078125,-23.532958984375
0.0595,3.773681640625,18.548095703125,-22.451904296875
0.06,-1.351318359375,20.910400390625,-19.769287109375
0.0605,-6.316162109375,23.072509765625,-17.166748046875
0.061,-11.200927734375,23.072509765625,-12.322021484375
0.0615,-15.204833984375,23.873291015625,-9.239013671875
0.062,-18.127685546875,22.952392578125,-5.435302734375
0.0625,-20.970458984375,21.510986328125,-1.151123046875
0.063,-22.491943359375,18.828369140625,3.173095703125
0.0635,-24.093505859375,15.505126953125,8.177978515625
0.064,-24.013427734375,11.621337890625,12.021728515625
0.0645,-23.933349609375,7.737548828125,15.865478515625
0.065,-22.972412109375,4.774658203125,17.947509765625
0.0655,-20.850341796875,-0.310302734375,20.830322265625
0.066,-18.127685546875,-4.914794921875,22.752197265625
0.0665,-13.683349609375,-9.959716796875,23.312744140625
0.067,-10.760498046875,-13.763427734375,24.193603515625
0.0675,-6.196044921875,-16.886474609375,22.752197265625
0.068,-2.072021484375,-19.208740234375,21.070556640625
0.0685,2.412353515625,-21.130615234375,18.588134765625
0.069,7.897705078125,-23.252685546875,15.344970703125
0.0695,12.181884765625,-22.932373046875,10.820556640625
0.07,16.265869140625,-23.572998046875,7.417236328125
0.0705,18.668212890625,-22.371826171875,3.853759765625
0.071,21.470947265625,-20.610107421875,-0.710693359375
0.0715,22.712158203125,-17.807373046875,-4.834716796875
0.072,23.833251953125,-14.123779296875,-9.679443359375
0.0725,23.913330078125,-10.880615234375,-13.162841796875
0.073,23.352783203125,-6.796630859375,-16.726318359375
0.0735,22.031494140625,-3.593505859375,-18.648193359375
0.074,19.989501953125,1.131103515625,-21.210693359375
0.0745,16.706298828125,6.256103515625,-23.092529296875
0.075,12.302001953125,10.820556640625,-23.212646484375
0.0755,9.419189453125,14.424072265625,-23.933349609375
0.076,5.054931640625,17.146728515625,-22.291748046875
0.0765,0.570556640625,19.669189453125,-20.369873046875
0.077,-3.593505859375,21.190673828125,-17.887451171875
0.0775,-9.359130859375,23.112548828125,-14.123779296875
0.078,-13.122802734375,22.712158203125,-10.119873046875
0.0785,-16.966552734375,23.032470703125,-6.596435546875
0.079,-18.928466796875,21.591064453125,-3.193115234375
0.0795,-21.490966796875,19.709228515625,1.291259765625
0.08,-22.652099609375,16.626220703125,5.615478515625
0.0805,-23.292724609375,12.542236328125,10.340087890625
0.081,-23.693115234375,9.739501953125,13.583251953125
0.0815,-22.692138671875,5.575439453125,16.746337890625
0.082,-21.130615234375,2.092041015625,18.868408203125
0.0825,-18.968505859375,-2.232177734375,20.950439453125
0.083,-15.405029296875,-7.677490234375,22.792236328125
0.0835,-11.120849609375,-11.681396484375,22.471923828125
0.084,-8.278076171875,-15.124755859375,23.112548828125
0.0845,-3.993896484375,-17.326904296875,21.030517578125
0.085,0.530517578125,-19.889404296875,19.188720703125
0.0855,4.734619140625,-21.130615234375,16.265869140625
0.086,10.219970703125,-22.652099609375,12.462158203125
0.0865,13.703369140625,-22.451904296875,8.858642578125
0.087,17.306884765625,-22.291748046875,5.094970703125
0.0875,19.228759765625,-20.730224609375,1.651611328125
0.088,21.470947265625,-18.688232421875,-2.632568359375
0.0885,22.552001953125,-15.525146484375,-7.076904296875
0.089,22.752197265625,-11.521240234375,-11.321044921875
0.0895,23.352783203125,-9.158935546875,-14.404052734375
0.09,21.751220703125,-4.794677734375,-17.126708984375
0.0905,20.349853515625,-1.071044921875,-19.448974609375
0.091,17.707275390625,3.173095703125,-21.010498046875
0.0915,14.223876953125,8.578369140625,-22.932373046875
0.092,10.059814453125,12.221923828125,-22.411865234375
0.0925,6.896728515625,15.665283203125,-22.572021484375
0.093,2.692626953125,17.627197265625,-20.409912109375
0.0935,-1.791748046875,20.229736328125,-18.728271484375
0.094,-6.316162109375,21.230712890625,-15.244873046875
0.0945,-11.321044921875,22.391845703125,-11.521240234375
0.095,-14.484130859375,22.471923828125,-8.518310546875
0.0955,-17.727294921875,21.631103515625,-4.434326171875
0.096,-19.529052734375,20.069580078125,-1.071044921875
0.0965,-21.330810546875,17.667236328125,3.213134765625
0.097,-22.572021484375,14.303955078125,7.857666015625
0.0975,-22.451904296875,10.139892578125,11.821533203125
0.098,-23.012451171875,7.817626953125,14.864501953125
0.0985,-21.010498046875,3.453369140625,17.306884765625
0.099,-19.689208984375,-0.510498046875,19.909423828125
0.0995,-16.365966796875,-4.874755859375,20.910400390625
0.1,-13.082763671875,-9.959716796875,22.712158203125
0.1005,-9.118896484375,-13.282958984375,22.071533203125
0.101,-5.475341796875,-16.406005859375,21.591064453125
0.1015,-1.391357421875,-18.247802734375,19.348876953125
0.102,3.052978515625,-20.690185546875,17.547119140625
0.1025,7.857666015625,-21.490966796875,13.623291015625
0.103,12.342041015625,-22.171630859375,9.859619140625
0.1035,15.425048828125,-22.491943359375,7.177001953125
0.104,18.387939453125,-20.970458984375,2.772705078125
0.1045,20.309814453125,-19.288818359375,-0.990966796875
0.105,21.631103515625,-16.606201171875,-4.994873046875
0.1055,22.752197265625,-13.282958984375,-9.639404296875
0.106,22.271728515625,-9.239013671875,-13.122802734375
0.1065,22.471923828125,-6.556396484375,-16.045654296875
0.107,20.309814453125,-2.192138671875,-18.247802734375
0.1075,18.828369140625,1.971923828125,-20.890380859375
0.108,14.744384765625,6.536376953125,-21.370849609375
0.1085,11.541259765625,11.180908203125,-22.812255859375
0.109,8.057861328125,14.223876953125,-22.371826171875
0.1095,3.813720703125,17.146728515625,-21.050537109375
0.11,-0.270263671875,18.908447265625,-18.888427734375
0.1105,-4.754638671875,21.030517578125,-16.606201171875
0.111,-9.559326171875,21.831298828125,-12.722412109375
0.1115,-13.603271484375,21.911376953125,-8.838623046875
0.112,-16.325927734375,22.071533203125,-6.356201171875
0.1125,-18.888427734375,20.229736328125,-1.951904296875
0.113,-20.810302734375,18.267822265625,2.011962890625
0.1135,-21.531005859375,14.984619140625,6.055908203125
0.114,-22.772216796875,11.861572265625,10.540283203125
0.1145,-22.131591796875,8.137939453125,13.703369140625
0.115,-21.731201171875,4.974853515625,16.506103515625
0.1155,-19.609130859375,0.970947265625,18.427978515625
0.116,-17.687255859375,-3.513427734375,20.910400390625
0.1165,-13.643310546875,-7.957763671875,21.310791015625
0.117,-10.239990234375,-12.201904296875,22.111572265625
0.1175,-7.317138671875,-14.764404296875,21.751220703125
0.118,-2.552490234375,-17.447021484375,19.709228515625
0.1185,1.211181640625,-19.208740234375,17.867431640625
0.119,6.015869140625,-20.850341796875,14.744384765625
0.1195,10.340087890625,-21.811279296875,11.501220703125
0.12,14.183837890625,-21.531005859375,7.417236328125
0.1205,16.706298828125,-21.490966796875,4.854736328125
0.121,18.988525390625,-19.529052734375,0.650634765625
0.1215,21.070556640625,-17.567138671875,-3.553466796875
0.122,21.270751953125,-13.883544921875,-7.357177734375
0.1225,22.431884765625,-11.040771484375,-11.481201171875
0.123,21.791259765625,-7.677490234375,-14.243896484375
0.1235,20.790283203125,-3.873779296875,-17.046630859375
0.124,18.948486328125,-0.230224609375,-18.888427734375
0.1245,16.305908203125,4.654541015625,-21.090576171875
0.125,12.702392578125,8.858642578125,-21.651123046875
0.1255,8.978759765625,12.902587890625,-21.971435546875
0.126,6.336181640625,15.184814453125,-21.571044921875
0.1265,1.331298828125,17.907470703125,-19.328857421875
0.127,-2.512451171875,19.709228515625,-17.487060546875
0.1275,-7.557373046875,20.910400390625,-13.723388671875
0.128,-11.441162109375,21.951416015625,-10.960693359375
0.1285,-15.044677734375,21.470947265625,-6.996826171875
0.129,-17.447021484375,20.910400390625,-3.993896484375
0.1295,-19.529052734375,18.908447265625,0.010009765625
0.13,-21.611083984375,16.586181640625,4.574462890625
0.1305,-21.490966796875,12.622314453125,8.498291015625
0.131,-22.572021484375,9.739501953125,12.502197265625
0.1315,-21.811279296875,6.616455078125,14.944580078125
0.132,-20.449951171875,2.292236328125,17.947509765625
0.1325,-18.447998046875,-1.551513671875,19.669189453125
0.133,-15.004638671875,-6.796630859375,21.470947265625
0.1335,-11.721435546875,-10.640380859375,22.071533203125
0.134,-7.757568359375,-14.484130859375,21.911376953125
0.1345,-4.674560546875,-16.526123046875,20.910400390625
0.135,0.290283203125,-19.088623046875,18.628173828125
0.1355,4.614501953125,-21.010498046875,16.305908203125
0.136,9.619384765625,-21.651123046875,12.061767578125
0.1365,13.383056640625,-22.612060546875,9.299072265625
0.137,16.746337890625,-21.811279296875,5.175048828125
0.1375,19.228759765625,-20.730224609375,1.571533203125
0.138,20.950439453125,-18.407958984375,-2.432373046875
0.1385,22.912353515625,-15.565185546875,-7.357177734375
0.139,22.431884765625,-11.401123046875,-11.080810546875
0.1395,23.192626953125,-8.398193359375,-14.884521484375
0.14,21.791259765625,-4.834716796875,-17.086669921875
0.1405,20.149658203125,-0.270263671875,-20.049560546875
0.141,17.427001953125,3.973876953125,-21.531005859375
0.1415,13.503173828125,9.299072265625,-22.932373046875
0.142,10.340087890625,12.862548828125,-23.332763671875
0.1425,5.895751953125,16.586181640625,-22.572021484375
0.143,2.132080078125,18.508056640625,-20.770263671875
0.1435,-2.592529296875,20.830322265625,-18.528076171875
0.144,-7.557373046875,22.552001953125,-15.405029296875
0.1445,-12.121826171875,22.552001953125,-10.880615234375
0.145,-15.685302734375,23.232666015625,-8.157958984375
0.1455,-18.648193359375,21.751220703125,-3.793701171875
0.146,-21.010498046875,20.189697265625,0.290283203125
0.1465,-22.171630859375,17.427001953125,4.334228515625
0.147,-23.813232421875,14.023681640625,9.419189453125
0.1475,-23.212646484375,9.899658203125,12.942626953125
0.148,-23.452880859375,6.576416015625,16.626220703125
0.1485,-21.490966796875,2.812744140625,18.427978515625
0.149,-19.729248046875,-1.871826171875,21.270751953125
0.1495,-16.245849609375,-6.436279296875,22.431884765625
0.15,-12.201904296875,-11.401123046875,23.272705078125
0.1505,-9.118896484375,-14.604248046875,23.392822265625
0.151,-4.434326171875,-17.807373046875,21.911376953125
0.1515,-0.350341796875,-19.689208984375,19.829345703125
0.152,4.013916015625,-21.531005859375,17.427001953125
0.1525,9.459228515625,-23.212646484375,13.743408203125
0.153,13.503173828125,-22.772216796875,9.259033203125
0.1535,16.986572265625,-23.412841796875,6.456298828125
0.154,19.509033203125,-21.410888671875,2.052001953125
0.1545,21.911376953125,-19.609130859375,-2.192138671875
0.155,22.552001953125,-16.526123046875,-6.035888671875
0.1555,23.873291015625,-12.962646484375,-10.920654296875
0.156,23.352783203125,-9.359130859375,-14.083740234375
0.1565,23.032470703125,-5.635498046875,-17.567138671875
0.157,20.910400390625,-1.791748046875,-19.248779296875
0.1575,18.988525390625,2.852783203125,-21.931396484375
0.158,15.064697265625,7.737548828125,-22.932373046875
0.1585,11.020751953125,12.261962890625,-23.412841796875
0.159,8.258056640625,15.425048828125,-23.733154296875
0.1595,3.213134765625,18.307861328125,-21.651123046875
0.16,-1.111083984375,20.429931640625,-19.569091796875
0.1605,-5.315185546875,21.791259765625,-16.846435546875
0.161,-10.800537109375,23.472900390625,-13.122802734375
0.1615,-14.484130859375,22.752197265625,-8.838623046875
0.162,-17.967529296875,23.192626953125,-5.755615234375
0.1625,-20.129638671875,21.030517578125,-1.471435546875
0.163,-22.572021484375,19.028564453125,3.093017578125
0.1635,-22.932373046875,15.385009765625,7.096923828125
0.164,-24.053466796875,11.701416015625,12.021728515625
0.1645,-23.693115234375,8.458251953125,14.984619140625
0.165,-22.772216796875,4.174072265625,18.347900390625
0.1655,-20.570068359375,0.210205078125,20.149658203125
0.166,-18.247802734375,-4.514404296875,22.431884765625
0.1665,-14.243896484375,-9.599365234375,23.552978515625
0.167,-9.799560546875,-13.923583984375,23.392822265625
0.1675,-7.036865234375,-16.806396484375,23.552978515625
0.168,-1.551513671875,-19.569091796875,20.830322265625
0.1685,2.852783203125,-21.771240234375,18.788330078125
0.169,7.577392578125,-22.772216796875,15.104736328125
0.1695,12.622314453125,-24.293701171875,11.621337890625
0.17,16.345947265625,-23.332763671875,7.136962890625
0.1705,19.669189453125,-23.132568359375,3.653564453125
0.171,21.671142578125,-20.650146484375,-0.910888671875
0.1715,24.033447265625,-18.327880859375,-5.635498046875
0.172,23.913330078125,-14.243896484375,-9.679443359375
0.1725,24.634033203125,-10.520263671875,-14.283935546875
0.173,24.113525390625,-7.237060546875,-16.966552734375
0.1735,22.431884765625,-2.312255859375,-20.249755859375
0.174,20.029541015625,1.931884765625,-22.091552734375
0.1745,16.706298828125,7.096923828125,-23.853271484375
0.175,12.902587890625,11.821533203125,-24.814208984375
0.1755,8.137939453125,15.985595703125,-24.213623046875
0.176,5.054931640625,18.588134765625,-23.733154296875
0.1765,-0.710693359375,21.190673828125,-20.810302734375
0.177,-5.275146484375,23.352783203125,-18.447998046875
0.1775,-10.400146484375,23.753173828125,-13.803466796875
0.178,-14.844482421875,24.914306640625,-10.560302734375
0.1785,-18.447998046875,23.833251953125,-6.035888671875
0.179,-21.410888671875,22.872314453125,-2.031982421875
0.1795,-23.052490234375,20.109619140625,2.452392578125
0.18,-25.094482421875,17.146728515625,7.577392578125
0.1805,-24.694091796875,12.622314453125,11.701416015625
