wavelength,x,y,z
0.0,-0.3153076171875,16.821411132812,-16.370971679688
0.0005,-3.4783935546875,18.943481445312,-15.570190429688
0.001,-5.7606201171875,19.504028320312,-13.928588867188
0.0015,-8.1629638671875,18.903442382812,-11.245971679688
0.002,-11.526245117188,18.222778320312,-7.3621826171875
0.0025,-15.089721679688,17.261840820312,-2.8377685546875
0.003,-18.252807617188,15.980590820312,1.4864501953125
0.0035,-19.413940429688,14.739379882812,3.8087158203125
0.004,-19.574096679688,12.497192382812,6.1309814453125
0.0045,-19.133666992188,9.5343017578125,8.6934814453125
0.005,-18.252807617188,4.7296142578125,12.657348632812
0.0055,-17.331909179688,0.6856689453125,15.860473632812
0.006,-16.691284179688,-2.5975341796875,18.503051757812
0.0065,-15.249877929688,-4.8797607421875,19.303833007812
0.007,-12.447143554688,-7.1219482421875,18.863403320312
0.0075,-8.4031982421875,-10.605346679688,18.302856445312
0.008,-3.1981201171875,-14.369018554688,17.021606445312
0.0085,1.4063720703125,-17.452026367188,15.820434570312
0.009,3.8487548828125,-18.933471679688,14.979614257812
0.0095,6.0909423828125,-19.213745117188,13.297973632812
0.01,8.6934814453125,-18.613159179688,10.255004882812
0.0105,12.377075195312,-17.772338867188,5.8106689453125
0.011,15.740356445312,-16.691284179688,1.7266845703125
0.0115,18.463012695312,-15.770385742188,-1.9969482421875
0.012,19.023559570312,-14.208862304688,-4.1190185546875
0.0125,18.863403320312,-11.646362304688,-6.4412841796875
0.013,18.422973632812,-8.1629638671875,-9.5643310546875
0.0135,17.662231445312,-3.8387451171875,-13.368041992188
0.014,16.661254882812,0.5255126953125,-16.050659179688
0.0145,16.260864257812,3.1680908203125,-18.132690429688
0.015,14.298950195312,5.2501220703125,-18.773315429688
0.0155,11.175903320312,7.6925048828125,-18.252807617188
0.016,6.4112548828125,11.496215820312,-17.411987304688
0.0165,1.7667236328125,14.899536132812,-16.451049804688
0.017,-2.2371826171875,17.662231445312,-15.490112304688
0.0175,-4.3592529296875,18.543090820312,-14.409057617188
0.018,-6.5614013671875,18.543090820312,-12.286987304688
0.0185,-9.5643310546875,18.062622070312,-8.8836669921875
0.019,-13.287963867188,17.021606445312,-4.5194091796875
0.0195,-16.491088867188,15.980590820312,-0.3553466796875
0.02,-18.613159179688,15.139770507812,2.6075439453125
0.0205,-18.973510742188,13.338012695312,4.7696533203125
0.021,-18.613159179688,10.575317382812,7.1719970703125
0.0215,-18.052612304688,6.4512939453125,10.815551757812
0.022,-17.331909179688,2.5274658203125,14.338989257812
0.0225,-16.651245117188,-1.5565185546875,17.141723632812
0.023,-15.450073242188,-3.7987060546875,18.463012695312
0.0235,-13.568237304688,-6.0008544921875,18.783325195312
0.024,-9.9246826171875,-8.9637451171875,18.222778320312
0.0245,-4.8397216796875,-12.767456054688,16.941528320312
0.025,-0.3553466796875,-16.050659179688,15.980590820312
0.0255,3.1280517578125,-18.412963867188,15.219848632812
0.026,5.2501220703125,-18.693237304688,13.738403320312
0.0265,7.6124267578125,-18.453002929688,11.215942382812
0.027,11.095825195312,-17.972534179688,7.2921142578125
0.0275,14.539184570312,-16.891479492188,3.0079345703125
0.028,17.622192382812,-15.890502929688,-1.0360107421875
0.0285,18.983520507812,-14.769409179688,-3.5184326171875
0.029,19.103637695312,-12.567260742188,-5.7606201171875
0.0295,18.583129882812,-9.2840576171875,-8.6434326171875
0.03,17.822387695312,-5.0799560546875,-12.367065429688
0.0305,17.141723632812,-0.9158935546875,-15.570190429688
0.031,16.380981445312,2.5274658203125,-18.252807617188
0.0315,14.659301757812,4.6495361328125,-18.733276367188
0.032,12.296997070312,7.0518798828125,-18.733276367188
0.0325,7.8126220703125,10.695434570312,-18.012573242188
0.033,2.8477783203125,14.218872070312,-16.731323242188
0.0335,-1.4364013671875,17.221801757812,-15.690307617188
0.034,-4.1990966796875,18.903442382812,-14.849487304688
0.0345,-6.3612060546875,19.023559570312,-13.007690429688
0.035,-9.0438232421875,18.463012695312,-9.9647216796875
0.0355,-12.687377929688,17.702270507812,-5.7205810546875
0.036,-16.130737304688,16.621215820312,-1.2762451171875
0.0365,-18.893432617188,15.580200195312,2.4473876953125
0.037,-19.534057617188,14.018676757812,4.6094970703125
0.0375,-19.494018554688,11.536254882812,7.1719970703125
0.038,-18.933471679688,7.4522705078125,10.495239257812
0.0385,-18.012573242188,3.2081298828125,13.978637695312
0.039,-17.131713867188,-0.7957763671875,17.061645507812
0.0395,-16.290893554688,-3.7987060546875,19.263793945312
0.04,-14.208862304688,-5.9207763671875,19.343872070312
0.0405,-11.085815429688,-8.6033935546875,18.903442382812
0.041,-6.2811279296875,-12.367065429688,17.982543945312
0.0415,-1.2362060546875,-16.010620117188,16.741333007812
0.042,2.8077392578125,-18.332885742188,15.500122070312
0.0425,5.0899658203125,-19.413940429688,14.338989257812
0.043,7.4522705078125,-19.293823242188,12.136840820312
0.0435,10.615356445312,-18.533081054688,8.2930908203125
0.044,14.018676757812,-17.492065429688,4.1290283203125
0.0445,17.301879882812,-16.370971679688,-0.2352294921875
0.045,19.504028320312,-15.329956054688,-3.4783935546875
0.0455,19.504028320312,-13.127807617188,-5.4803466796875
0.046,19.343872070312,-10.325073242188,-8.1629638671875
0.0465,18.543090820312,-5.9207763671875,-11.886596679688
0.047,17.622192382812,-1.7967529296875,-15.129760742188
0.0475,16.661254882812,1.9268798828125,-17.852416992188
0.048,15.380004882812,4.4093017578125,-19.173706054688
0.0485,13.097778320312,6.6915283203125,-19.213745117188
0.049,9.2139892578125,9.7344970703125,-18.533081054688
0.0495,4.4893798828125,13.498168945312,-17.131713867188
0.05,-0.3953857421875,16.661254882812,-16.170776367188
0.0505,-3.7186279296875,18.863403320312,-15.169799804688
0.051,-5.7606201171875,19.063598632812,-13.608276367188
0.0515,-8.2030029296875,18.943481445312,-11.245971679688
0.052,-11.886596679688,17.982543945312,-6.7615966796875
0.0525,-15.129760742188,16.861450195312,-2.5574951171875
0.053,-18.092651367188,15.900512695312,1.3663330078125
0.0535,-19.734252929688,14.699340820312,4.1690673828125
0.054,-19.534057617188,12.216918945312,6.2510986328125
0.0545,-19.173706054688,8.9737548828125,9.2940673828125
0.055,-18.332885742188,4.5694580078125,12.857543945312
0.0555,-17.452026367188,0.3653564453125,16.300903320312
0.056,-16.491088867188,-3.1580810546875,18.543090820312
0.0565,-14.889526367188,-5.2000732421875,19.263793945312
0.057,-12.527221679688,-7.6424560546875,19.303833007812
0.0575,-7.4422607421875,-11.286010742188,18.222778320312
0.058,-2.8778076171875,-14.529174804688,16.941528320312
0.0585,1.4063720703125,-17.612182617188,15.940551757812
0.059,4.4493408203125,-19.453979492188,15.019653320312
0.0595,6.5313720703125,-19.213745117188,12.857543945312
0.06,9.1739501953125,-18.933471679688,10.174926757812
0.0605,13.097778320312,-18.012573242188,5.5303955078125
0.061,16.380981445312,-16.771362304688,1.0860595703125
0.0615,18.943481445312,-15.690307617188,-2.2772216796875
0.062,19.784301757812,-14.248901367188,-4.8397216796875
0.0625,19.544067382812,-11.606323242188,-7.1619873046875
0.063,18.903442382812,-7.4022216796875,-10.765502929688
0.0635,18.062622070312,-3.3983154296875,-13.968627929688
0.064,17.261840820312,0.6456298828125,-17.291870117188
0.0645,16.180786132812,3.8087158203125,-19.293823242188
0.065,13.938598632812,5.8907470703125,-19.253784179688
0.0655,11.215942382812,8.4932861328125,-19.173706054688
0.066,5.9307861328125,12.617309570312,-18.212768554688
0.0665,1.0059814453125,15.940551757812,-16.611206054688
0.067,-2.6375732421875,18.422973632812,-15.730346679688
0.0675,-5.3201904296875,19.704223632812,-14.569213867188
0.068,-7.6024169921875,19.223754882812,-12.126831054688
0.0685,-10.765502929688,18.543090820312,-8.4432373046875
0.069,-14.328979492188,17.702270507812,-4.1590576171875
0.0695,-17.772338867188,16.421020507812,0.4053955078125
0.07,-19.854370117188,15.380004882812,3.6885986328125
0.0705,-20.014526367188,13.257934570312,5.8507080078125
0.071,-19.894409179688,10.535278320312,8.4132080078125
0.0715,-19.053588867188,5.6104736328125,12.537231445312
0.072,-17.972534179688,1.5264892578125,15.620239257812
0.0725,-17.171752929688,-2.2371826171875,18.503051757812
0.073,-15.970581054688,-5.0399169921875,20.144653320312
0.0735,-13.207885742188,-7.2420654296875,19.704223632812
0.074,-9.6444091796875,-10.565307617188,19.223754882812
0.0745,-4.3992919921875,-14.248901367188,18.062622070312
0.075,0.8057861328125,-17.652221679688,16.581176757812
0.0755,4.0089111328125,-19.654174804688,15.620239257812
0.076,6.4913330078125,-20.254760742188,13.938598632812
0.0765,8.9737548828125,-19.894409179688,11.336059570312
0.077,12.897583007812,-18.853393554688,6.5313720703125
0.0775,16.260864257812,-17.772338867188,2.2872314453125
0.078,19.383911132812,-16.651245117188,-1.9969482421875
0.0785,20.865356445312,-15.209838867188,-4.8397216796875
0.079,20.505004882812,-12.487182617188,-7.2420654296875
0.0795,20.224731445312,-9.2440185546875,-10.244995117188
0.08,19.343872070312,-4.2391357421875,-14.288940429688
0.0805,18.102661132812,0.2452392578125,-17.652221679688
0.081,17.141723632812,3.5284423828125,-19.894409179688
0.0815,15.380004882812,6.2110595703125,-20.775268554688
0.082,12.216918945312,8.6934814453125,-20.294799804688
0.0825,7.1719970703125,12.577270507812,-19.253784179688
0.083,2.3673095703125,16.060668945312,-18.092651367188
0.0835,-2.5975341796875,19.303833007812,-16.651245117188
0.084,-5.5604248046875,20.745239257812,-15.410034179688
0.0845,-8.0028076171875,20.585083007812,-13.047729492188
0.085,-10.725463867188,20.184692382812,-10.164916992188
0.0855,-14.889526367188,18.903442382812,-4.7196044921875
0.086,-18.332885742188,17.421997070312,0.0450439453125
0.0865,-20.815307617188,16.300903320312,3.6085205078125
0.087,-21.736206054688,14.379028320312,6.3311767578125
0.0875,-21.055541992188,11.215942382812,8.8936767578125
0.088,-20.454956054688,7.0919189453125,12.457153320312
0.0885,-19.413940429688,2.4473876953125,16.020629882812
0.089,-18.092651367188,-2.1170654296875,19.343872070312
0.0895,-16.691284179688,-5.1600341796875,21.065551757812
0.09,-14.529174804688,-7.5623779296875,21.265747070312
0.0905,-11.245971679688,-10.285034179688,20.785278320312
0.091,-5.2801513671875,-14.569213867188,19.223754882812
0.0915,-0.3153076171875,-17.812377929688,17.742309570312
0.092,3.8887939453125,-20.494995117188,16.581176757812
0.0925,6.6915283203125,-21.495971679688,14.979614257812
0.093,9.2940673828125,-20.815307617188,11.896606445312
0.0935,12.657348632812,-20.014526367188,8.3731689453125
0.094,16.300903320312,-18.933471679688,3.3282470703125
0.0945,19.784301757812,-17.291870117188,-1.7166748046875
0.095,21.465942382812,-15.930541992188,-4.6795654296875
0.0955,21.826293945312,-13.608276367188,-7.4022216796875
0.096,21.065551757812,-10.325073242188,-9.9647216796875
0.0965,20.144653320312,-5.3201904296875,-14.088745117188
0.097,19.063598632812,-0.9959716796875,-17.251831054688
0.0975,17.982543945312,3.2081298828125,-20.374877929688
0.098,16.140747070312,6.0509033203125,-21.455932617188
0.0985,13.177856445312,8.5733642578125,-21.095581054688
0.099,9.4942626953125,11.696411132812,-20.615112304688
0.0995,3.4483642578125,15.940551757812,-18.973510742188
0.1,-1.7967529296875,19.183715820312,-17.291870117188
0.1005,-5.0399169921875,21.105590820312,-16.210815429688
0.101,-7.7225341796875,21.626098632812,-14.369018554688
0.1015,-10.485229492188,20.745239257812,-11.406127929688
0.102,-14.168823242188,19.784301757812,-6.4012451171875
0.1025,-17.772338867188,18.503051757812,-1.6365966796875
0.103,-21.095581054688,16.941528320312,3.1680908203125
0.1035,-22.096557617188,15.259887695312,5.8106689453125
0.104,-22.016479492188,12.417114257812,8.5333251953125
0.1045,-21.335815429688,8.8135986328125,11.496215820312
0.105,-20.254760742188,3.5284423828125,15.740356445312
0.1055,-18.853393554688,-1.1160888671875,18.903442382812
0.106,-17.732299804688,-4.5994873046875,21.385864257812
0.1065,-15.730346679688,-7.2020263671875,22.066528320312
0.107,-12.166870117188,-9.9246826171875,21.265747070312
0.1075,-7.5623779296875,-13.528198242188,20.424926757812
0.108,-1.9168701171875,-17.371948242188,18.823364257812
0.1085,3.3282470703125,-20.494995117188,17.101684570312
0.109,6.0909423828125,-21.616088867188,15.740356445312
0.1095,8.7335205078125,-21.856323242188,13.458129882812
0.11,11.776489257812,-21.015502929688,9.7745361328125
0.1105,15.740356445312,-19.654174804688,4.6094970703125
0.111,19.223754882812,-18.252807617188,-0.1551513671875
0.1115,21.986450195312,-16.851440429688,-4.2391357421875
0.112,22.426879882812,-14.729370117188,-6.8416748046875
0.1125,21.906372070312,-11.366088867188,-9.7645263671875
0.113,21.145629882812,-7.3621826171875,-13.167846679688
0.1135,19.984497070312,-2.2772216796875,-16.971557617188
0.114,18.543090820312,2.4874267578125,-20.174682617188
0.1145,17.141723632812,5.4503173828125,-21.776245117188
0.115,14.779418945312,8.0928955078125,-22.176635742188
0.1155,10.735473632812,11.095825195312,-21.215698242188
0.116,5.2901611328125,15.059692382812,-19.894409179688
0.1165,0.0450439453125,18.583129882812,-18.412963867188
0.117,-4.8797607421875,21.385864257812,-17.011596679688
0.1175,-7.0819091796875,21.906372070312,-15.129760742188
0.118,-9.8846435546875,21.626098632812,-12.246948242188
0.1185,-13.207885742188,20.745239257812,-8.2830810546875
0.119,-17.091674804688,19.223754882812,-3.0379638671875
0.1195,-20.454956054688,17.622192382812,1.8868408203125
0.12,-22.496948242188,16.180786132812,5.3302001953125
0.1205,-22.617065429688,13.618286132812,7.9727783203125
0.121,-21.936401367188,9.8946533203125,10.935668945312
0.1215,-20.935424804688,5.2501220703125,14.739379882812
0.122,-19.814331054688,0.5255126953125,18.302856445312
0.1225,-18.332885742188,-3.9588623046875,21.385864257812
0.123,-16.451049804688,-6.6014404296875,22.186645507812
0.1235,-13.808471679688,-9.2440185546875,22.266723632812
0.124,-9.2840576171875,-12.687377929688,21.185668945312
0.1245,-3.4783935546875,-16.531127929688,19.463989257812
0.125,1.5665283203125,-19.854370117188,17.902465820312
0.1255,5.6104736328125,-22.136596679688,16.581176757812
0.126,8.0528564453125,-22.136596679688,14.379028320312
0.1265,11.015747070312,-21.536010742188,11.055786132812
0.127,14.739379882812,-20.494995117188,6.4512939453125
0.1275,18.382934570312,-18.973510742188,1.4464111328125
0.128,21.465942382812,-17.411987304688,-3.1981201171875
0.1285,22.627075195312,-15.690307617188,-6.1209716796875
0.129,22.546997070312,-12.847534179688,-8.8436279296875
0.1295,21.666137695312,-8.5633544921875,-12.246948242188
0.13,20.424926757812,-3.7586669921875,-15.890502929688
0.1305,19.223754882812,0.8858642578125,-19.213745117188
0.131,17.902465820312,4.7696533203125,-21.856323242188
0.1315,15.500122070312,7.2120361328125,-21.976440429688
0.132,12.417114257812,9.9747314453125,-21.736206054688
0.1325,7.2921142578125,13.858520507812,-20.655151367188
0.133,1.7667236328125,17.542114257812,-18.893432617188
0.1335,-3.1180419921875,20.464965820312,-17.331909179688
0.134,-6.2410888671875,22.026489257812,-16.010620117188
0.1345,-8.7635498046875,21.826293945312,-13.528198242188
0.135,-11.886596679688,20.985473632812,-9.7645263671875
0.1355,-15.650268554688,19.824340820312,-4.9998779296875
0.136,-19.253784179688,18.262817382812,0.0850830078125
0.1365,-21.936401367188,16.781372070312,4.2091064453125
0.137,-22.296752929688,14.579223632812,6.6514892578125
0.1375,-22.216674804688,11.576293945312,9.6143798828125
0.138,-21.295776367188,7.0518798828125,13.338012695312
0.1385,-20.094604492188,2.2872314453125,16.861450195312
0.139,-18.773315429688,-2.1571044921875,19.984497070312
0.1395,-17.492065429688,-5.5203857421875,22.146606445312
0.14,-14.889526367188,-7.9627685546875,22.026489257812
0.1405,-11.205932617188,-10.885620117188,21.385864257812
0.141,-5.9207763671875,-14.929565429688,20.184692382812
0.1415,-0.2752685546875,-18.573120117188,18.422973632812
0.142,4.1290283203125,-21.135620117188,16.941528320312
0.1425,6.7716064453125,-21.976440429688,15.380004882812
0.143,9.5743408203125,-21.776245117188,12.657348632812
0.1435,13.137817382812,-20.735229492188,8.2130126953125
0.144,16.741333007812,-19.534057617188,3.4884033203125
0.1445,20.264770507812,-17.892456054688,-1.6365966796875
0.145,22.426879882812,-16.811401367188,-5.1600341796875
0.1455,22.386840820312,-13.888549804688,-7.6024169921875
0.146,22.066528320312,-10.565307617188,-10.645385742188
0.1465,21.065551757812,-5.6004638671875,-14.729370117188
0.147,19.864379882812,-0.8358154296875,-18.252807617188
0.1475,18.463012695312,3.3282470703125,-21.015502929688
0.148,16.821411132812,6.3311767578125,-22.416870117188
0.1485,13.858520507812,9.0137939453125,-22.216674804688
0.149,9.0938720703125,12.657348632812,-21.175659179688
0.1495,3.8887939453125,16.340942382812,-19.854370117188
0.15,-1.6766357421875,19.984497070312,-18.212768554688
0.1505,-5.6004638671875,22.146606445312,-16.771362304688
0.151,-8.0428466796875,22.226684570312,-14.569213867188
0.1515,-11.005737304688,21.946411132812,-11.646362304688
0.152,-15.169799804688,20.545043945312,-6.3211669921875
0.1525,-19.093627929688,19.143676757812,-1.3963623046875
0.153,-21.856323242188,17.622192382812,3.1280517578125
0.1535,-23.417846679688,15.860473632812,6.4913330078125
0.154,-22.977416992188,12.777465820312,9.1339111328125
0.1545,-22.456909179688,8.6934814453125,12.737426757812
0.155,-21.215698242188,3.7286376953125,16.541137695312
0.1555,-19.894409179688,-1.2762451171875,20.184692382812
0.156,-18.332885742188,-5.1199951171875,22.546997070312
0.1565,-16.170776367188,-7.7625732421875,23.027465820312
0.157,-13.007690429688,-10.605346679688,22.787231445312
0.1575,-7.0819091796875,-14.849487304688,21.265747070312
0.158,-1.7967529296875,-18.252807617188,19.544067382812
0.1585,3.3282470703125,-21.495971679688,17.982543945312
0.159,6.8917236328125,-23.137573242188,16.421020507812
0.1595,9.4942626953125,-22.577026367188,13.458129882812
0.16,12.537231445312,-22.096557617188,10.134887695312
0.1605,16.701293945312,-20.695190429688,4.6895751953125
0.161,20.424926757812,-18.893432617188,-0.7957763671875
0.1615,22.827270507812,-17.331909179688,-4.6395263671875
0.162,23.547973632812,-15.089721679688,-7.5623779296875
0.1625,22.947387695312,-11.726440429688,-10.285034179688
0.163,22.026489257812,-6.8016357421875,-14.328979492188
0.1635,20.745239257812,-2.2772216796875,-17.652221679688
0.164,19.383911132812,2.5675048828125,-21.095581054688
0.1645,17.662231445312,6.0909423828125,-22.977416992188
0.165,14.699340820312,8.5733642578125,-22.536987304688
0.1655,11.416137695312,11.536254882812,-22.296752929688
0.166,5.0899658203125,15.980590820312,-20.655151367188
0.1665,-0.3953857421875,19.343872070312,-18.733276367188
0.167,-4.5194091796875,21.786254882812,-17.331909179688
0.1675,-7.6024169921875,22.907348632812,-15.650268554688
0.168,-10.244995117188,22.026489257812,-12.367065429688
0.1685,-13.568237304688,21.105590820312,-8.2030029296875
0.169,-17.452026367188,19.784301757812,-3.2781982421875
0.1695,-21.095581054688,18.062622070312,2.0469970703125
0.17,-22.897338867188,16.461059570312,5.4102783203125
0.1705,-22.937377929688,13.858520507812,7.9727783203125
0.171,-22.536987304688,10.735473632812,10.775512695312
0.1715,-21.415893554688,5.1300048828125,15.219848632812
0.172,-20.014526367188,0.6055908203125,18.463012695312
0.1725,-18.653198242188,-3.6385498046875,21.265747070312
0.173,-17.171752929688,-6.6014404296875,22.907348632812
0.1735,-13.808471679688,-9.1239013671875,22.066528320312
0.174,-9.8045654296875,-12.407104492188,21.465942382812
0.1745,-3.9989013671875,-16.531127929688,19.944458007812
0.175,1.6866455078125,-19.974487304688,18.062622070312
0.1755,5.0899658203125,-21.856323242188,16.741333007812
0.176,7.8126220703125,-22.376831054688,14.739379882812
0.1765,10.495239257812,-21.776245117188,11.696411132812
0.177,14.659301757812,-20.454956054688,6.4112548828125
0.1775,18.062622070312,-19.093627929688,1.8468017578125
0.178,21.225708007812,-17.692260742188,-2.7176513671875
