wavelength,x,y,z
0.0,15.51513671875,4.86474609375,-22.36181640625
0.0005,11.79150390625,9.14892578125,-22.72216796875
0.001,7.74755859375,13.47314453125,-22.68212890625
0.0015,4.42431640625,16.15576171875,-21.80126953125
0.002,-0.50048828125,18.83837890625,-19.39892578125
0.0025,-4.62451171875,21.00048828125,-17.43701171875
0.003,-8.86865234375,22.44189453125,-14.51416015625
0.0035,-13.03271484375,23.32275390625,-11.27099609375
0.004,-16.67626953125,22.28173828125,-6.62646484375
0.0045,-19.19873046875,21.72119140625,-3.54345703125
0.005,-21.52099609375,19.35888671875,1.26123046875
0.0055,-23.76318359375,17.55712890625,5.38525390625
0.006,-23.64306640625,13.63330078125,9.10888671875
0.0065,-24.48388671875,10.14990234375,13.47314453125
0.007,-23.20263671875,6.14599609375,16.15576171875
0.0075,-21.64111328125,1.90185546875,18.71826171875
0.008,-19.11865234375,-2.74267578125,20.80029296875
0.0085,-16.87646484375,-7.02685546875,22.64208984375
0.009,-13.07275390625,-11.23095703125,22.96240234375
0.0095,-8.46826171875,-15.27490234375,22.28173828125
0.01,-5.06494140625,-17.55712890625,21.20068359375
0.0105,0.14013671875,-20.19970703125,18.79833984375
0.011,4.26416015625,-22.44189453125,17.03662109375
0.0115,8.98876953125,-23.12255859375,13.03271484375
0.012,13.07275390625,-24.08349609375,10.14990234375
0.0125,16.67626953125,-22.96240234375,5.50537109375
0.013,19.07861328125,-21.76123046875,1.98193359375
0.0135,21.44091796875,-19.47900390625,-2.62255859375
0.014,23.48291015625,-17.23681640625,-6.90673828125
0.0145,23.20263671875,-13.03271484375,-10.75048828125
0.015,23.48291015625,-9.22900390625,-14.79443359375
0.0155,22.28173828125,-5.62548828125,-17.15673828125
0.016,20.39990234375,-0.86083984375,-19.83935546875
0.0165,18.07763671875,3.50341796875,-21.72119140625
0.017,14.91455078125,8.18798828125,-23.08251953125
0.0175,11.23095703125,12.19189453125,-23.36279296875
0.018,6.50634765625,16.07568359375,-22.28173828125
0.0185,2.78271484375,18.07763671875,-20.60009765625
0.019,-2.10205078125,20.68017578125,-18.39794921875
0.0195,-6.54638671875,22.80224609375,-16.27587890625
0.02,-11.23095703125,22.92236328125,-11.71142578125
0.0205,-14.99462890625,23.48291015625,-8.62841796875
0.021,-18.23779296875,22.20166015625,-4.18408203125
0.0215,-20.68017578125,20.47998046875,-0.14013671875
0.022,-22.68212890625,18.23779296875,4.18408203125
0.0225,-24.28369140625,15.27490234375,8.62841796875
0.023,-24.04345703125,11.11083984375,12.51220703125
0.0235,-23.68310546875,7.06689453125,16.19580078125
0.024,-22.12158203125,3.42333984375,18.19775390625
0.0245,-20.03955078125,-1.58154296875,20.84033203125
0.025,-17.59716796875,-5.74560546875,22.44189453125
0.0255,-13.59326171875,-10.63037109375,23.16259765625
0.026,-10.10986328125,-14.23388671875,23.24267578125
0.0265,-5.26513671875,-17.67724609375,21.80126953125
0.027,-1.10107421875,-19.71923828125,19.63916015625
0.0275,3.30322265625,-21.96142578125,17.67724609375
0.028,8.02783203125,-23.84326171875,14.87451171875
0.0285,12.39208984375,-23.68310546875,10.43017578125
0.029,16.15576171875,-23.84326171875,7.02685546875
0.0295,18.83837890625,-22.28173828125,2.86279296875
0.03,21.44091796875,-20.43994140625,-1.58154296875
0.0305,22.92236328125,-18.07763671875,-5.42529296875
0.031,23.96337890625,-14.39404296875,-10.02978515625
0.0315,23.68310546875,-10.47021484375,-13.71337890625
0.032,22.96240234375,-6.26611328125,-17.03662109375
0.0325,21.08056640625,-2.54248046875,-18.87841796875
0.033,19.11865234375,2.14208984375,-21.36083984375
0.0335,16.47607421875,6.34619140625,-22.84228515625
0.034,12.03173828125,11.19091796875,-23.04248046875
0.0345,8.58837890625,14.71435546875,-23.00244140625
0.035,3.86376953125,17.59716796875,-21.12060546875
0.0355,-0.62060546875,19.87939453125,-19.03857421875
0.036,-4.42431640625,21.72119140625,-17.15673828125
0.0365,-9.62939453125,23.24267578125,-13.59326171875
0.037,-13.51318359375,22.88232421875,-9.42919921875
0.0375,-17.31689453125,22.76220703125,-5.70556640625
0.038,-19.35888671875,20.92041015625,-1.82177734375
0.0385,-22.08154296875,19.11865234375,2.70263671875
0.039,-23.12255859375,16.51611328125,6.34619140625
0.0395,-24.00341796875,12.59228515625,10.99072265625
0.04,-23.68310546875,8.82861328125,14.47412109375
0.0405,-22.56201171875,4.50439453125,17.55712890625
0.041,-20.43994140625,0.30029296875,19.51904296875
0.0415,-18.59814453125,-3.82373046875,21.56103515625
0.042,-15.43505859375,-8.42822265625,23.00244140625
0.0425,-10.91064453125,-12.75244140625,22.68212890625
0.043,-7.46728515625,-16.15576171875,22.48193359375
0.0435,-2.82275390625,-18.55810546875,20.19970703125
0.044,1.78173828125,-21.16064453125,18.35791015625
0.0445,5.42529296875,-22.44189453125,16.11572265625
0.045,10.63037109375,-23.84326171875,12.43212890625
0.0455,14.35400390625,-23.32275390625,8.26806640625
0.046,17.87744140625,-22.84228515625,4.38427734375
0.0465,19.87939453125,-20.80029296875,0.42041015625
0.047,22.40185546875,-19.07861328125,-3.82373046875
0.0475,23.00244140625,-15.91552734375,-7.62744140625
0.048,23.52294921875,-11.79150390625,-12.19189453125
0.0485,23.16259765625,-8.30810546875,-15.35498046875
0.049,21.60107421875,-3.98388671875,-17.95751953125
0.0495,19.47900390625,0.58056640625,-20.23974609375
0.05,17.59716796875,4.18408203125,-21.76123046875
0.0505,14.11376953125,9.18896484375,-23.20263671875
0.051,9.34912109375,13.23291015625,-22.36181640625
0.0515,5.78564453125,16.47607421875,-21.96142578125
0.052,1.10107421875,18.59814453125,-19.39892578125
0.0525,-3.14306640625,21.28076171875,-17.95751953125
0.053,-7.18701171875,22.04150390625,-14.75439453125
0.0535,-12.03173828125,23.20263671875,-11.23095703125
0.054,-15.63525390625,22.56201171875,-7.18701171875
0.0545,-18.59814453125,21.56103515625,-3.18310546875
0.055,-20.88037109375,19.47900390625,1.22119140625
0.0555,-22.92236328125,17.67724609375,4.90478515625
0.056,-23.40283203125,14.11376953125,8.98876953125
0.0565,-23.48291015625,9.66943359375,13.35302734375
0.057,-23.20263671875,6.46630859375,16.23583984375
0.0575,-21.08056640625,1.78173828125,18.63818359375
0.058,-19.19873046875,-2.58251953125,21.08056640625
0.0585,-16.51611328125,-6.34619140625,21.92138671875
0.059,-13.03271484375,-11.19091796875,23.24267578125
0.0595,-8.30810546875,-14.87451171875,22.08154296875
0.06,-4.46435546875,-17.87744140625,21.16064453125
0.0605,0.34033203125,-19.99951171875,18.63818359375
0.061,4.30419921875,-22.56201171875,17.31689453125
0.0615,8.78857421875,-22.88232421875,13.27294921875
0.062,13.27294921875,-23.68310546875,9.66943359375
0.0625,16.59619140625,-23.20263671875,5.98583984375
0.063,19.23876953125,-21.52099609375,1.78173828125
0.0635,21.60107421875,-19.47900390625,-2.70263671875
0.064,22.92236328125,-17.03662109375,-6.38623046875
0.0645,23.56298828125,-13.51318359375,-10.55029296875
0.065,22.88232421875,-8.82861328125,-14.55419921875
0.0655,22.44189453125,-5.78564453125,-17.15673828125
0.066,19.99951171875,-0.82080078125,-19.43896484375
0.0665,18.43798828125,3.38330078125,-21.84130859375
0.067,14.79443359375,7.46728515625,-22.20166015625
0.0675,11.35107421875,12.15185546875,-23.20263671875
0.068,6.86669921875,15.47509765625,-22.08154296875
0.0685,2.58251953125,18.11767578125,-20.35986328125
0.069,-1.94189453125,20.19970703125,-18.07763671875
0.0695,-6.02587890625,22.44189453125,-16.27587890625
0.07,-10.51025390625,22.64208984375,-12.15185546875
0.0705,-14.75439453125,22.68212890625,-8.02783203125
0.071,-17.59716796875,22.24169921875,-4.82470703125
0.0715,-20.15966796875,20.15966796875,-0.30029296875
0.072,-22.44189453125,18.19775390625,3.98388671875
0.0725,-23.00244140625,14.99462890625,7.70751953125
0.073,-24.00341796875,11.63134765625,11.99169921875
0.0735,-22.84228515625,6.90673828125,15.43505859375
0.074,-22.00146484375,3.62353515625,17.91748046875
0.0745,-19.51904296875,-1.26123046875,20.11962890625
0.075,-17.83740234375,-5.26513671875,22.28173828125
0.0755,-13.63330078125,-9.54931640625,22.24169921875
0.076,-9.94970703125,-13.83349609375,22.72216796875
0.0765,-5.90576171875,-16.75634765625,21.56103515625
0.077,-1.30126953125,-19.35888671875,19.51904296875
0.0775,2.98291015625,-21.44091796875,17.51708984375
0.078,7.30712890625,-23.00244140625,14.75439453125
0.0785,11.51123046875,-23.56298828125,11.23095703125
0.079,15.63525390625,-22.92236328125,6.66650390625
0.0795,17.95751953125,-22.24169921875,3.62353515625
0.08,20.56005859375,-20.15966796875,-1.02099609375
0.0805,22.68212890625,-18.19775390625,-5.10498046875
0.081,22.56201171875,-14.23388671875,-8.94873046875
0.0815,23.52294921875,-10.91064453125,-13.07275390625
0.082,22.24169921875,-6.58642578125,-16.03564453125
0.0825,20.96044921875,-2.82275390625,-18.43798828125
0.083,18.63818359375,1.74169921875,-20.47998046875
0.0835,16.55615234375,5.86572265625,-22.36181640625
0.084,12.35205078125,10.06982421875,-22.32177734375
0.0845,8.22802734375,14.23388671875,-22.20166015625
0.085,4.62451171875,16.51611328125,-20.88037109375
0.0855,-0.26025390625,19.23876953125,-18.79833984375
0.086,-4.18408203125,21.28076171875,-16.95654296875
0.0865,-8.86865234375,22.08154296875,-13.15283203125
0.087,-12.67236328125,22.88232421875,-10.22998046875
0.0875,-16.55615234375,21.84130859375,-5.50537109375
0.088,-18.55810546875,20.76025390625,-2.50244140625
0.0885,-21.08056640625,18.71826171875,2.06201171875
0.089,-22.88232421875,16.59619140625,6.02587890625
0.0895,-22.68212890625,12.43212890625,9.90966796875
0.09,-23.20263671875,8.94873046875,13.83349609375
0.0905,-21.96142578125,5.14501953125,16.35595703125
0.091,-20.19970703125,0.70068359375,18.95849609375
0.0915,-18.19775390625,-3.30322265625,20.76025390625
0.092,-15.19482421875,-7.82763671875,22.12158203125
0.0925,-11.51123046875,-11.63134765625,22.16162109375
0.093,-7.02685546875,-15.55517578125,21.48095703125
0.0935,-3.54345703125,-17.47705078125,19.87939453125
0.094,1.22119140625,-20.19970703125,18.03759765625
0.0945,5.14501953125,-22.16162109375,16.03564453125
0.095,9.78955078125,-22.44189453125,11.83154296875
0.0955,13.47314453125,-23.08251953125,8.90869140625
0.096,16.83642578125,-22.08154296875,4.46435546875
0.0965,19.11865234375,-20.60009765625,0.94091796875
0.097,21.16064453125,-18.75830078125,-3.02294921875
0.0975,22.48193359375,-15.79541015625,-7.22705078125
0.098,22.36181640625,-11.79150390625,-11.03076171875
0.0985,22.36181640625,-8.02783203125,-14.75439453125
0.099,21.00048828125,-4.66455078125,-16.75634765625
0.0995,19.27880859375,0.14013671875,-19.51904296875
0.1,17.15673828125,3.78369140625,-21.00048828125
0.1005,13.59326171875,8.50830078125,-22.00146484375
0.101,10.06982421875,12.19189453125,-22.08154296875
0.1015,5.50537109375,15.71533203125,-21.00048828125
0.102,1.74169921875,17.67724609375,-19.11865234375
0.1025,-2.26220703125,20.03955078125,-17.63720703125
0.103,-6.86669921875,21.76123046875,-14.79443359375
0.1035,-11.07080078125,21.80126953125,-10.71044921875
0.104,-14.87451171875,22.12158203125,-7.38720703125
0.1045,-17.51708984375,20.80029296875,-3.58349609375
0.105,-20.15966796875,19.19873046875,0.70068359375
0.1055,-21.64111328125,17.31689453125,4.02392578125
0.106,-22.72216796875,13.91357421875,8.46826171875
0.1065,-22.56201171875,10.02978515625,12.19189453125
0.107,-22.12158203125,6.10595703125,15.59521484375
0.1075,-20.43994140625,2.50244140625,17.47705078125
0.108,-18.87841796875,-1.94189453125,20.07958984375
0.1085,-16.35595703125,-5.86572265625,21.36083984375
0.109,-12.31201171875,-10.39013671875,21.80126953125
0.1095,-8.90869140625,-13.95361328125,21.80126953125
0.11,-4.38427734375,-16.91650390625,20.19970703125
0.1105,-0.30029296875,-19.15869140625,18.39794921875
0.111,3.18310546875,-21.08056640625,16.95654296875
0.1115,8.10791015625,-22.44189453125,13.51318359375
0.112,12.03173828125,-22.36181640625,9.46923828125
0.1125,15.71533203125,-22.44189453125,6.02587890625
0.113,17.91748046875,-20.84033203125,2.34228515625
0.1135,20.60009765625,-19.19873046875,-1.94189453125
0.114,21.48095703125,-16.83642578125,-5.14501953125
0.1145,22.32177734375,-13.11279296875,-9.62939453125
0.115,22.04150390625,-9.46923828125,-13.07275390625
0.1155,21.28076171875,-5.50537109375,-16.15576171875
0.116,19.39892578125,-1.58154296875,-18.07763671875
0.1165,17.99755859375,2.22216796875,-20.19970703125
0.117,15.03466796875,6.46630859375,-21.52099609375
0.1175,10.83056640625,10.75048828125,-21.40087890625
0.118,7.46728515625,14.15380859375,-21.40087890625
0.1185,3.06298828125,16.59619140625,-19.35888671875
0.119,-1.14111328125,19.07861328125,-17.79736328125
0.1195,-4.46435546875,20.43994140625,-15.87548828125
0.12,-9.30908203125,21.68115234375,-12.39208984375
0.1205,-12.95263671875,21.28076171875,-8.46826171875
0.121,-16.35595703125,21.00048828125,-4.94482421875
0.1215,-18.39794921875,19.35888671875,-1.30126953125
0.122,-20.84033203125,17.91748046875,2.62255859375
0.1225,-21.44091796875,15.07470703125,6.06591796875
0.123,-22.04150390625,11.23095703125,10.43017578125
0.1235,-21.88134765625,7.90771484375,13.59326171875
0.124,-20.56005859375,3.86376953125,16.27587890625
0.1245,-18.91845703125,-0.26025390625,18.51806640625
0.125,-17.27685546875,-3.58349609375,19.99951171875
0.1255,-14.07373046875,-8.14794921875,21.36083984375
0.126,-9.78955078125,-12.03173828125,20.80029296875
0.1265,-6.38623046875,-15.23486328125,20.56005859375
0.127,-2.18212890625,-17.35693359375,18.47802734375
0.1275,1.78173828125,-20.03955078125,17.31689453125
0.128,5.42529296875,-20.96044921875,14.55419921875
0.1285,10.06982421875,-22.08154296875,11.19091796875
0.129,13.55322265625,-21.76123046875,7.42724609375
0.1295,16.51611328125,-20.88037109375,3.82373046875
0.13,18.71826171875,-19.23876953125,0.02001953125
0.1305,20.76025390625,-17.79736328125,-3.54345703125
0.131,21.28076171875,-14.51416015625,-7.30712890625
0.1315,21.36083984375,-10.31005859375,-11.47119140625
0.132,21.32080078125,-7.42724609375,-14.31396484375
0.1325,19.51904296875,-3.22314453125,-16.63623046875
0.133,18.15771484375,0.86083984375,-19.15869140625
0.1335,15.99560546875,4.14404296875,-20.11962890625
0.134,12.71240234375,8.82861328125,-21.40087890625
0.1345,8.30810546875,12.47216796875,-20.64013671875
0.135,4.74462890625,15.39501953125,-19.87939453125
0.1355,0.62060546875,17.51708984375,-17.87744140625
0.136,-3.10302734375,19.99951171875,-16.79638671875
0.1365,-7.30712890625,20.47998046875,-13.15283203125
0.137,-11.51123046875,21.12060546875,-9.78955078125
0.1375,-14.79443359375,21.00048828125,-6.38623046875
0.138,-17.35693359375,19.59912109375,-2.54248046875
0.1385,-19.71923828125,18.03759765625,1.46142578125
0.139,-21.04052734375,16.07568359375,4.62451171875
0.1395,-21.88134765625,12.83251953125,8.74853515625
0.14,-21.32080078125,8.38818359375,12.55224609375
0.1405,-21.16064453125,5.50537109375,15.23486328125
0.141,-19.15869140625,1.10107421875,17.51708984375
0.1415,-17.87744140625,-2.74267578125,19.87939453125
0.142,-14.75439453125,-6.42626953125,20.35986328125
0.1425,-11.43115234375,-10.83056640625,21.28076171875
0.143,-7.34716796875,-14.15380859375,20.47998046875
0.1435,-3.38330078125,-16.79638671875,19.11865234375
0.144,0.78076171875,-19.07861328125,17.31689453125
0.1445,4.34423828125,-21.12060546875,15.79541015625
0.145,8.62841796875,-21.60107421875,12.15185546875
0.1455,12.67236328125,-21.64111328125,8.22802734375
0.146,15.51513671875,-21.48095703125,5.34521484375
0.1465,18.03759765625,-19.71923828125,1.18115234375
0.147,20.47998046875,-18.15771484375,-2.86279296875
0.1475,20.88037109375,-15.31494140625,-6.10595703125
0.148,21.92138671875,-12.15185546875,-10.27001953125
0.1485,20.96044921875,-7.82763671875,-13.59326171875
0.149,20.47998046875,-4.70458984375,-16.07568359375
0.1495,18.43798828125,-0.38037109375,-18.31787109375
0.15,17.07666015625,3.34326171875,-20.43994140625
0.1505,13.43310546875,7.34716796875,-20.72021484375
0.151,9.62939453125,11.55126953125,-21.00048828125
0.1515,6.14599609375,14.35400390625,-20.23974609375
0.152,1.70166015625,16.95654296875,-18.43798828125
0.1525,-2.14208984375,19.15869140625,-16.91650390625
0.153,-6.14599609375,20.56005859375,-14.39404296875
0.1535,-10.14990234375,21.36083984375,-11.23095703125
0.154,-14.07373046875,20.76025390625,-6.90673828125
0.1545,-16.35595703125,20.31982421875,-4.18408203125
0.155,-18.91845703125,18.55810546875,0.18017578125
0.1555,-21.16064453125,16.95654296875,3.90380859375
0.156,-21.12060546875,13.51318359375,7.38720703125
0.1565,-22.04150390625,10.22998046875,11.39111328125
0.157,-21.08056640625,6.38623046875,14.31396484375
0.1575,-19.87939453125,2.54248046875,16.83642578125
0.158,-18.11767578125,-1.46142578125,18.91845703125
0.1585,-16.15576171875,-5.38525390625,20.68017578125
0.159,-12.55224609375,-9.26904296875,20.88037109375
0.1595,-8.34814453125,-13.23291015625,20.56005859375
0.16,-5.22509765625,-15.55517578125,19.63916015625
0.1605,-0.58056640625,-18.31787109375,17.79736328125
0.161,3.14306640625,-20.47998046875,16.51611328125
0.1615,7.38720703125,-21.16064453125,12.91259765625
0.162,11.23095703125,-22.04150390625,10.06982421875
0.1625,14.83447265625,-21.24072265625,5.74560546875
0.163,17.11669921875,-20.35986328125,2.74267578125
0.1635,19.47900390625,-18.71826171875,-1.38134765625
0.164,21.32080078125,-16.59619140625,-5.26513671875
0.1645,21.20068359375,-12.91259765625,-8.82861328125
0.165,21.48095703125,-9.26904296875,-12.71240234375
0.1655,20.60009765625,-6.02587890625,-15.03466796875
0.166,19.11865234375,-1.58154296875,-17.79736328125
0.1665,17.47705078125,2.10205078125,-19.67919921875
0.167,14.67431640625,6.34619140625,-21.00048828125
0.1675,11.23095703125,10.14990234375,-21.20068359375
0.168,6.82666015625,13.83349609375,-20.43994140625
0.1685,3.46337890625,15.87548828125,-19.07861328125
0.169,-0.98095703125,18.43798828125,-17.55712890625
0.1695,-4.94482421875,20.68017578125,-15.67529296875
0.17,-9.14892578125,20.88037109375,-11.71142578125
0.1705,-12.83251953125,21.40087890625,-8.66845703125
0.171,-16.07568359375,20.47998046875,-4.62451171875
0.1715,-18.55810546875,19.19873046875,-0.98095703125
0.172,-20.64013671875,17.63720703125,2.74267578125
0.1725,-22.04150390625,14.87451171875,6.86669921875
0.173,-22.00146484375,11.15087890625,10.51025390625
0.1735,-21.80126953125,7.26708984375,14.11376953125
0.174,-20.60009765625,3.94384765625,16.15576171875
0.1745,-18.91845703125,-0.74072265625,19.03857421875
0.175,-17.07666015625,-4.42431640625,20.64013671875
0.1755,-13.43310546875,-8.82861328125,21.44091796875
0.176,-10.10986328125,-12.43212890625,21.44091796875
0.1765,-5.50537109375,-15.87548828125,20.23974609375
0.177,-1.74169921875,-17.95751953125,18.59814453125
0.1775,2.26220703125,-20.35986328125,17.15673828125
0.178,6.78662109375,-22.20166015625,14.59423828125
0.1785,10.87060546875,-22.16162109375,10.51025390625
0.179,14.55419921875,-22.28173828125,7.10693359375
0.1795,17.23681640625,-21.04052734375,3.22314453125
0.18,19.99951171875,-19.51904296875,-1.02099609375
0.1805,21.48095703125,-17.67724609375,-4.34423828125
0.181,22.44189453125,-14.15380859375,-8.74853515625
0.1815,22.24169921875,-10.39013671875,-12.27197265625
0.182,21.60107421875,-6.38623046875,-15.63525390625
0.1825,19.99951171875,-2.74267578125,-17.55712890625
0.183,18.39794921875,1.82177734375,-20.23974609375
0.1835,16.03564453125,5.70556640625,-21.72119140625
0.184,11.91162109375,10.18994140625,-21.92138671875
0.1845,8.42822265625,13.51318359375,-21.76123046875
0.185,3.74365234375,16.51611328125,-20.03955078125
0.1855,-0.50048828125,18.91845703125,-18.23779296875
0.186,-3.98388671875,20.84033203125,-16.79638671875
0.1865,-8.94873046875,22.28173828125,-13.31298828125
0.187,-12.75244140625,21.96142578125,-9.26904296875
0.1875,-16.47607421875,21.76123046875,-5.50537109375
0.188,-18.63818359375,20.07958984375,-1.70166015625
0.1885,-21.48095703125,18.47802734375,2.74267578125
0.189,-22.40185546875,16.15576171875,5.90576171875
0.1895,-23.12255859375,12.39208984375,10.43017578125
0.19,-22.68212890625,8.54833984375,13.75341796875
0.1905,-21.64111328125,4.26416015625,16.87646484375
0.191,-19.71923828125,0.26025390625,18.91845703125
