wavelength,x,y,z
0.0,-6.5914306640625,-4.6695556640625,10.905639648438
0.0005,-4.1890869140625,-7.0718994140625,10.705444335938
0.001,-1.9468994140625,-9.4742431640625,10.745483398438
0.0015,0.4154052734375,-11.075805664062,9.7845458984375
0.002,1.9368896484375,-11.115844726562,8.4232177734375
0.0025,3.4984130859375,-11.876586914062,7.5823974609375
0.003,6.4212646484375,-12.317016601562,5.0599365234375
0.0035,8.1029052734375,-11.996704101562,3.0579833984375
0.004,10.545288085938,-12.116821289062,0.7757568359375
0.0045,10.985717773438,-10.475219726562,-1.2662353515625
0.005,10.865600585938,-9.2740478515625,-2.3472900390625
0.0055,11.265991210938,-7.6724853515625,-4.3892822265625
0.006,11.025756835938,-4.9898681640625,-6.7515869140625
0.0065,10.705444335938,-2.8277587890625,-8.5133056640625
0.007,10.385131835938,-0.3453369140625,-10.595336914062
0.0075,8.4232177734375,1.5765380859375,-10.435180664062
0.008,7.6624755859375,2.8978271484375,-10.915649414062
0.0085,5.4202880859375,5.7005615234375,-11.396118164062
0.009,3.1781005859375,7.7825927734375,-11.075805664062
0.0095,0.8958740234375,10.024780273438,-10.955688476562
0.01,-1.3062744140625,11.386108398438,-9.9547119140625
0.0105,-2.8277587890625,11.386108398438,-8.3931884765625
0.011,-4.7095947265625,12.186889648438,-7.2320556640625
0.0115,-7.5523681640625,12.507202148438,-4.7496337890625
0.012,-8.9537353515625,11.986694335938,-2.8677978515625
0.0125,-11.195922851562,11.986694335938,-0.6256103515625
0.013,-11.396118164062,10.104858398438,1.3363037109375
0.0135,-11.276000976562,8.8636474609375,2.5374755859375
0.014,-11.676391601562,6.9017333984375,4.8597412109375
0.0145,-11.396118164062,4.4993896484375,6.9818115234375
0.015,-10.915649414062,2.2171630859375,8.7034912109375
0.0155,-10.515258789062,-0.1451416015625,10.545288085938
0.016,-8.4732666015625,-2.0269775390625,10.305053710938
0.0165,-7.5523681640625,-3.5885009765625,10.785522460938
0.017,-5.1099853515625,-6.6314697265625,11.225952148438
0.0175,-2.8677978515625,-8.5133056640625,10.705444335938
0.018,-0.6256103515625,-10.515258789062,10.385131835938
0.0185,1.5765380859375,-11.676391601562,9.2640380859375
0.019,3.2982177734375,-11.636352539062,7.5423583984375
0.0195,5.4202880859375,-12.357055664062,6.0609130859375
0.02,8.1429443359375,-12.677368164062,3.6986083984375
0.0205,9.2640380859375,-11.836547851562,1.7767333984375
0.021,11.185913085938,-11.716430664062,-0.3052978515625
0.0215,11.225952148438,-9.6343994140625,-2.4273681640625
0.022,11.105834960938,-8.1929931640625,-3.7086181640625
0.0225,11.546264648438,-5.9908447265625,-6.3111572265625
0.023,11.105834960938,-3.6685791015625,-8.1529541015625
0.0235,10.385131835938,-1.3863525390625,-9.6343994140625
0.024,9.7445068359375,0.9359130859375,-11.235961914062
0.0245,7.5023193359375,2.9779052734375,-10.875610351562
0.025,6.3411865234375,4.6995849609375,-11.396118164062
0.0255,3.8587646484375,7.8226318359375,-11.796508789062
0.026,1.6566162109375,9.3441162109375,-11.035766601562
0.0265,-0.3453369140625,11.065795898438,-10.595336914062
0.027,-2.6275634765625,12.066772460938,-9.2740478515625
0.0275,-4.5494384765625,12.066772460938,-7.3521728515625
0.028,-6.9117431640625,12.627319335938,-5.4703369140625
0.0285,-9.3541259765625,12.827514648438,-3.2681884765625
0.029,-10.194946289062,11.666381835938,-1.3062744140625
0.0295,-11.836547851562,11.506225585938,0.5355224609375
0.03,-11.716430664062,9.0638427734375,2.7777099609375
0.0305,-11.596313476562,7.4622802734375,4.2591552734375
0.031,-11.996704101562,5.1800537109375,6.9017333984375
0.0315,-11.356079101562,2.8177490234375,8.5032958984375
0.032,-10.515258789062,0.6956787109375,9.6644287109375
0.0325,-9.6744384765625,-1.5865478515625,11.025756835938
0.033,-7.3121337890625,-3.8287353515625,10.745483398438
0.0335,-5.8707275390625,-5.7105712890625,11.145874023438
0.034,-3.4683837890625,-8.6334228515625,11.466186523438
0.0345,-1.0660400390625,-9.9146728515625,10.224975585938
0.035,0.7357177734375,-11.396118164062,9.8646240234375
0.0355,2.9378662109375,-12.156860351562,8.3031005859375
0.036,4.9798583984375,-12.196899414062,6.3812255859375
0.0365,7.4222412109375,-12.637329101562,4.3392333984375
0.037,9.6644287109375,-12.677368164062,2.1771240234375
0.0375,10.224975585938,-11.235961914062,0.2152099609375
0.038,11.626342773438,-10.955688476562,-1.4664306640625
0.0385,11.386108398438,-8.4332275390625,-3.7086181640625
0.039,11.225952148438,-6.6715087890625,-5.3101806640625
0.0395,11.626342773438,-4.5093994140625,-7.9127197265625
0.04,10.745483398438,-2.0269775390625,-9.3541259765625
0.0405,9.8245849609375,-0.0650634765625,-10.395141601562
0.041,8.7835693359375,2.2572021484375,-11.476196289062
0.0415,6.3812255859375,4.5394287109375,-11.235961914062
0.042,4.6995849609375,6.7015380859375,-11.516235351562
0.0425,2.4173583984375,9.4642333984375,-11.916625976562
0.043,0.0150146484375,10.465209960938,-10.395141601562
0.0435,-1.5865478515625,11.826538085938,-10.074829101562
0.044,-3.9088134765625,12.427124023438,-8.3131103515625
0.0445,-6.1109619140625,12.507202148438,-6.1510009765625
0.045,-8.6734619140625,12.867553710938,-3.9888916015625
0.0455,-10.795532226562,12.747436523438,-1.7066650390625
0.046,-11.075805664062,11.025756835938,0.2152099609375
0.0465,-12.236938476562,10.625366210938,1.7366943359375
0.047,-12.036743164062,7.9827880859375,4.1790771484375
0.0475,-11.796508789062,5.9007568359375,6.0208740234375
0.048,-12.196899414062,3.6185302734375,8.6234130859375
0.0485,-10.955688476562,0.9759521484375,9.9046630859375
0.049,-9.7945556640625,-0.9859619140625,10.585327148438
0.0495,-8.7935791015625,-3.0679931640625,11.546264648438
0.05,-6.1510009765625,-5.5904541015625,11.306030273438
0.0505,-4.1490478515625,-7.8326416015625,11.426147460938
0.051,-1.5865478515625,-10.595336914062,11.546264648438
0.0515,0.8157958984375,-11.276000976562,9.6644287109375
0.052,2.0970458984375,-12.236938476562,9.3040771484375
0.0525,4.6195068359375,-12.837524414062,7.3822021484375
0.053,6.9818115234375,-12.757446289062,4.8597412109375
0.0535,9.4241943359375,-12.957641601562,2.6575927734375
0.054,11.386108398438,-12.517211914062,0.2552490234375
0.0545,11.386108398438,-10.595336914062,-1.5865478515625
0.055,12.146850585938,-10.034790039062,-2.8677978515625
0.0555,11.906616210938,-7.1519775390625,-5.5103759765625
0.056,11.546264648438,-4.9898681640625,-7.3121337890625
0.0565,11.826538085938,-2.5875244140625,-9.9547119140625
0.057,10.265014648438,0.0150146484375,-10.915649414062
0.0575,8.9837646484375,1.7767333984375,-11.276000976562
0.058,7.7425537109375,3.8587646484375,-11.956665039062
0.0585,5.0599365234375,6.5413818359375,-11.756469726562
0.059,3.0579833984375,8.7034912109375,-11.796508789062
0.0595,0.4154052734375,11.306030273438,-11.636352539062
0.06,-1.8267822265625,11.706420898438,-9.7545166015625
0.0605,-2.9478759765625,12.387084960938,-9.2740478515625
0.061,-5.7506103515625,13.107788085938,-7.0718994140625
0.0615,-7.9927978515625,12.827514648438,-4.6295166015625
0.062,-10.395141601562,12.947631835938,-2.3472900390625
0.0625,-12.036743164062,12.186889648438,0.0150146484375
0.063,-11.796508789062,10.224975585938,1.6566162109375
0.0635,-12.357055664062,9.5443115234375,2.9779052734375
0.064,-12.236938476562,6.5413818359375,5.7806396484375
0.0645,-11.836547851562,4.3392333984375,7.5023193359375
0.065,-11.876586914062,1.7767333984375,10.064819335938
0.0655,-10.234985351562,-0.6656494140625,10.785522460938
0.066,-9.0338134765625,-2.1871337890625,11.025756835938
0.0665,-7.6324462890625,-4.3492431640625,11.586303710938
0.067,-4.8297119140625,-7.1519775390625,11.466186523438
0.0675,-2.6275634765625,-9.2740478515625,11.265991210938
0.068,0.0150146484375,-11.596313476562,10.865600585938
0.0685,1.9769287109375,-11.836547851562,9.0238037109375
0.069,3.1781005859375,-12.357055664062,8.3431396484375
0.0695,6.2210693359375,-13.117797851562,5.9808349609375
0.07,8.2630615234375,-12.797485351562,3.6986083984375
0.0705,10.545288085938,-12.677368164062,1.2962646484375
0.071,11.866577148438,-11.676391601562,-0.9859619140625
0.0715,11.426147460938,-9.7545166015625,-2.4273681640625
0.072,11.946655273438,-8.8336181640625,-3.9088134765625
0.0725,11.866577148438,-5.8306884765625,-6.8717041015625
0.073,11.346069335938,-3.5885009765625,-8.4732666015625
0.0735,11.225952148438,-0.9859619140625,-10.915649414062
0.074,9.3841552734375,1.4564208984375,-11.356079101562
0.0745,8.1029052734375,2.8577880859375,-11.396118164062
0.075,6.4613037109375,5.2601318359375,-11.996704101562
0.0755,3.7386474609375,7.9827880859375,-11.796508789062
0.076,1.4964599609375,9.9447021484375,-11.396118164062
0.0765,-0.9459228515625,11.986694335938,-10.875610351562
0.077,-2.8677978515625,12.026733398438,-8.9537353515625
0.0775,-4.3492431640625,12.547241210938,-7.9927978515625
0.078,-7.5123291015625,13.147827148438,-5.4302978515625
0.0785,-9.1138916015625,12.667358398438,-3.3883056640625
0.079,-11.155883789062,12.427124023438,-1.0660400390625
0.0795,-12.196899414062,11.225952148438,1.1361083984375
0.08,-11.636352539062,9.1439208984375,2.5775146484375
0.0805,-12.116821289062,7.9027099609375,4.2991943359375
0.081,-12.036743164062,5.0599365234375,7.0618896484375
0.0815,-11.316040039062,2.7777099609375,8.4632568359375
0.082,-11.115844726562,0.3353271484375,10.705444335938
0.0825,-9.1539306640625,-1.8668212890625,10.825561523438
0.083,-7.9527587890625,-3.2281494140625,10.865600585938
0.0835,-5.9508056640625,-5.9107666015625,11.466186523438
0.084,-3.5084228515625,-8.3131103515625,11.185913085938
0.0845,-1.1861572265625,-10.074829101562,10.545288085938
0.085,1.0159912109375,-11.796508789062,9.9447021484375
0.0855,2.9378662109375,-11.716430664062,7.9827880859375
0.086,4.5394287109375,-12.276977539062,6.9017333984375
0.0865,7.5423583984375,-12.837524414062,4.4193115234375
0.087,8.9036865234375,-12.196899414062,2.4573974609375
0.0875,10.705444335938,-11.916625976562,0.3753662109375
0.088,11.426147460938,-10.475219726562,-1.7867431640625
0.0885,10.985717773438,-8.5933837890625,-3.1881103515625
0.089,11.386108398438,-7.0718994140625,-5.1099853515625
0.0895,11.306030273438,-4.5093994140625,-7.5924072265625
0.09,10.545288085938,-2.2672119140625,-8.9537353515625
0.0905,10.224975585938,0.0550537109375,-10.875610351562
0.091,8.1429443359375,2.2171630859375,-10.835571289062
0.0915,6.9818115234375,3.6986083984375,-11.035766601562
0.092,4.8597412109375,6.5413818359375,-11.596313476562
0.0925,2.6175537109375,8.6234130859375,-11.276000976562
0.093,0.4954833984375,10.184936523438,-10.635375976562
0.0935,-1.6265869140625,11.706420898438,-9.9547119140625
0.094,-3.6685791015625,11.706420898438,-7.8726806640625
0.0945,-5.5904541015625,12.226928710938,-6.4713134765625
0.095,-8.4732666015625,12.827514648438,-4.1890869140625
0.0955,-9.5142822265625,11.906616210938,-2.2672119140625
0.096,-11.115844726562,11.626342773438,-0.3453369140625
0.0965,-11.636352539062,9.9046630859375,1.8167724609375
0.097,-11.276000976562,7.9427490234375,3.4583740234375
0.0975,-11.716430664062,6.1409912109375,5.6204833984375
0.098,-11.596313476562,3.7786865234375,7.8626708984375
0.0985,-10.595336914062,1.6165771484375,8.9437255859375
0.099,-10.234985351562,-0.5855712890625,10.625366210938
0.0995,-7.9927978515625,-2.9078369140625,10.585327148438
0.1,-6.5513916015625,-4.6295166015625,10.825561523438
0.1005,-4.3492431640625,-7.5523681640625,11.386108398438
0.101,-1.9468994140625,-9.3140869140625,10.625366210938
0.1015,0.0150146484375,-10.555297851562,9.8646240234375
0.102,2.0570068359375,-11.876586914062,8.9837646484375
0.1025,4.2191162109375,-11.876586914062,6.8616943359375
0.103,6.3011474609375,-12.236938476562,5.0999755859375
0.1035,8.9837646484375,-12.757446289062,2.9378662109375
0.104,9.7044677734375,-11.476196289062,0.9359130859375
0.1045,11.025756835938,-11.195922851562,-0.7056884765625
0.105,11.265991210938,-9.1539306640625,-2.9478759765625
0.1055,10.905639648438,-7.1920166015625,-4.5894775390625
0.106,11.346069335938,-5.2301025390625,-6.8316650390625
0.1065,11.025756835938,-2.8277587890625,-8.8336181640625
0.107,9.7845458984375,-0.7857666015625,-9.5943603515625
0.1075,9.2239990234375,1.3363037109375,-11.035766601562
0.108,6.8616943359375,3.6986083984375,-10.915649414062
0.1085,5.3001708984375,5.5804443359375,-11.115844726562
0.109,3.2581787109375,8.3031005859375,-11.636352539062
0.1095,0.7757568359375,9.7845458984375,-10.555297851562
0.11,-0.9058837890625,10.865600585938,-9.9146728515625
0.1105,-2.8677978515625,11.826538085938,-8.8336181640625
0.111,-5.1099853515625,11.906616210938,-6.6715087890625
0.1115,-7.3521728515625,12.226928710938,-4.7496337890625
0.112,-9.7945556640625,12.587280273438,-2.5875244140625
0.1125,-10.234985351562,10.985717773438,-0.6656494140625
0.113,-11.396118164062,10.705444335938,0.8157958984375
0.1135,-11.516235351562,8.5032958984375,3.0579833984375
0.114,-11.195922851562,6.5013427734375,4.7396240234375
0.1145,-11.556274414062,4.5794677734375,7.0618896484375
0.115,-10.955688476562,2.1771240234375,8.7835693359375
0.1155,-9.7545166015625,0.2152099609375,9.4241943359375
0.116,-9.1138916015625,-1.7867431640625,10.625366210938
0.1165,-6.7115478515625,-4.1490478515625,10.545288085938
0.117,-4.9898681640625,-6.1510009765625,10.705444335938
0.1175,-2.8277587890625,-8.8736572265625,11.065795898438
0.118,-0.3853759765625,-9.9947509765625,9.6644287109375
0.1185,1.0159912109375,-10.915649414062,9.1439208984375
0.119,3.0579833984375,-11.676391601562,7.8226318359375
0.1195,5.3402099609375,-11.796508789062,5.6204833984375
0.12,7.5823974609375,-12.116821289062,3.6986083984375
0.1205,9.7845458984375,-12.196899414062,1.5364990234375
0.121,9.9847412109375,-10.515258789062,-0.3052978515625
0.1215,10.945678710938,-10.114868164062,-1.6666259765625
0.122,10.945678710938,-7.7926025390625,-3.8687744140625
0.1225,10.665405273438,-5.7506103515625,-5.6304931640625
0.123,11.025756835938,-3.7486572265625,-7.9927978515625
0.1235,10.144897460938,-1.3463134765625,-9.3941650390625
0.124,8.9036865234375,0.4954833984375,-9.8746337890625
0.1245,8.0228271484375,2.4173583984375,-10.835571289062
0.125,5.7406005859375,4.7796630859375,-10.755493164062
0.1255,3.9388427734375,6.8616943359375,-10.955688476562
0.126,1.7366943359375,9.4241943359375,-11.235961914062
0.1265,-0.5054931640625,10.224975585938,-9.6343994140625
0.127,-1.7467041015625,11.065795898438,-9.2340087890625
0.1275,-3.9488525390625,11.786499023438,-7.6324462890625
0.128,-6.2711181640625,11.826538085938,-5.3902587890625
0.1285,-8.5133056640625,12.106811523438,-3.4283447265625
0.129,-10.515258789062,11.826538085938,-1.2261962890625
0.1295,-10.555297851562,10.104858398438,0.4554443359375
0.13,-11.235961914062,9.6243896484375,1.7366943359375
0.1305,-11.235961914062,7.1820068359375,4.1390380859375
0.131,-11.035766601562,5.1400146484375,5.9007568359375
0.1315,-11.316040039062,2.9378662109375,8.3431396484375
0.132,-10.154907226562,0.6156005859375,9.4642333984375
0.1325,-8.9537353515625,-1.0260009765625,9.8245849609375
0.133,-7.9527587890625,-2.9478759765625,10.585327148438
0.1335,-5.4703369140625,-5.4703369140625,10.545288085938
0.134,-3.5484619140625,-7.5924072265625,10.585327148438
0.1345,-1.1060791015625,-10.074829101562,10.545288085938
0.135,0.9359130859375,-10.595336914062,8.9437255859375
0.1355,2.0169677734375,-11.235961914062,8.4232177734375
0.136,4.4993896484375,-11.916625976562,6.5413818359375
0.1365,6.7015380859375,-11.916625976562,4.3392333984375
0.137,8.9437255859375,-12.036743164062,2.2171630859375
0.1375,10.585327148438,-11.516235351562,0.0150146484375
0.138,10.385131835938,-9.6744384765625,-1.4263916015625
0.1385,10.945678710938,-9.0338134765625,-2.6676025390625
0.139,10.905639648438,-6.3912353515625,-5.2701416015625
0.1395,10.585327148438,-4.3492431640625,-6.9517822265625
0.14,10.745483398438,-1.9869384765625,-9.3541259765625
0.1405,9.3040771484375,0.3353271484375,-10.154907226562
0.141,8.1429443359375,1.7366943359375,-10.275024414062
0.1415,6.9017333984375,3.7386474609375,-10.915649414062
0.142,4.4193115234375,6.3812255859375,-10.915649414062
0.1425,2.4974365234375,8.3831787109375,-10.915649414062
0.143,0.1351318359375,10.585327148438,-10.635375976562
0.1435,-1.7467041015625,10.865600585938,-8.9937744140625
0.144,-2.9078369140625,11.386108398438,-8.3131103515625
0.1445,-5.7506103515625,12.066772460938,-6.2310791015625
0.145,-7.6724853515625,11.906616210938,-4.1890869140625
0.1455,-9.7945556640625,11.906616210938,-1.9869384765625
0.146,-11.075805664062,11.065795898438,0.1351318359375
0.1465,-10.755493164062,9.3040771484375,1.5364990234375
0.147,-11.235961914062,8.4632568359375,2.8978271484375
0.1475,-11.276000976562,5.7406005859375,5.6605224609375
0.148,-10.875610351562,3.6986083984375,7.1820068359375
0.1485,-10.875610351562,1.2962646484375,9.5443115234375
0.149,-9.2740478515625,-0.9058837890625,9.9447021484375
0.1495,-8.1929931640625,-2.1871337890625,10.104858398438
0.15,-6.6715087890625,-4.5093994140625,10.745483398438
0.1505,-4.1890869140625,-6.9918212890625,10.665405273438
0.151,-2.0269775390625,-8.9537353515625,10.345092773438
0.1515,0.2152099609375,-10.875610351562,9.9447021484375
0.152,2.0169677734375,-11.035766601562,8.2630615234375
0.1525,3.4583740234375,-11.596313476562,7.3421630859375
0.153,6.3812255859375,-12.236938476562,4.9798583984375
0.1535,7.9427490234375,-11.916625976562,3.1380615234375
0.154,9.9046630859375,-11.716430664062,0.9759521484375
0.1545,10.945678710938,-10.675415039062,-1.0660400390625
0.155,10.505249023438,-8.7535400390625,-2.5074462890625
0.1555,10.945678710938,-7.6324462890625,-4.1090087890625
0.156,10.985717773438,-4.9898681640625,-6.7115478515625
0.1565,10.385131835938,-2.8677978515625,-8.1929931640625
0.157,10.224975585938,-0.5054931640625,-10.315063476562
0.1575,8.4232177734375,1.5765380859375,-10.435180664062
0.158,7.1820068359375,2.9779052734375,-10.555297851562
0.1585,5.4202880859375,5.5404052734375,-11.155883789062
0.159,3.1380615234375,7.8226318359375,-11.035766601562
0.1595,1.0159912109375,9.5443115234375,-10.555297851562
0.16,-1.1060791015625,11.225952148438,-9.9947509765625
0.1605,-2.9478759765625,11.185913085938,-8.1129150390625
0.161,-4.6695556640625,11.786499023438,-6.9918212890625
0.1615,-7.6324462890625,12.307006835938,-4.6295166015625
0.162,-8.8336181640625,11.826538085938,-2.8277587890625
0.1625,-10.555297851562,11.546264648438,-0.8258056640625
0.163,-11.316040039062,10.184936523438,1.2562255859375
0.1635,-10.875610351562,8.2630615234375,2.6976318359375
0.164,-11.276000976562,6.7015380859375,4.6195068359375
0.1645,-11.276000976562,4.3392333984375,7.0218505859375
0.165,-10.515258789062,2.2572021484375,8.2230224609375
0.1655,-10.275024414062,0.0150146484375,10.144897460938
0.166,-8.3131103515625,-2.0670166015625,10.144897460938
0.1665,-7.0318603515625,-3.6285400390625,10.305053710938
0.167,-4.9498291015625,-6.3912353515625,10.865600585938
0.1675,-2.7076416015625,-8.3531494140625,10.465209960938
0.168,-0.7056884765625,-9.7945556640625,9.8646240234375
0.1685,1.2962646484375,-11.356079101562,9.1839599609375
0.169,3.2581787109375,-11.316040039062,7.1820068359375
0.1695,5.1400146484375,-11.836547851562,5.7406005859375
0.17,7.9427490234375,-12.357055664062,3.5784912109375
0.1705,8.9437255859375,-11.476196289062,1.7366943359375
0.171,10.425170898438,-11.195922851562,-0.0250244140625
0.1715,10.865600585938,-9.5543212890625,-2.1070556640625
0.172,10.545288085938,-7.6324462890625,-3.6685791015625
0.1725,10.905639648438,-5.9107666015625,-5.7506103515625
0.173,10.825561523438,-3.5885009765625,-7.8726806640625
0.1735,9.9046630859375,-1.5865478515625,-8.9136962890625
0.174,9.5042724609375,0.5755615234375,-10.595336914062
0.1745,7.3421630859375,2.8177490234375,-10.515258789062
0.175,5.9407958984375,4.4993896484375,-10.755493164062
0.1755,3.8587646484375,7.3021240234375,-11.276000976562
0.176,1.6165771484375,8.9837646484375,-10.635375976562
0.1765,-0.1851806640625,10.224975585938,-9.9947509765625
0.177,-2.1871337890625,11.466186523438,-9.1939697265625
0.1775,-4.3492431640625,11.546264648438,-7.1119384765625
0.178,-6.4312744140625,11.986694335938,-5.3502197265625
