wavelength,x,y,z
0.0,3.533447265625,4.093994140625,-7.076904296875
0.0005,4.694580078125,2.652587890625,-7.156982421875
0.001,5.295166015625,1.211181640625,-6.636474609375
0.0015,5.495361328125,0.170166015625,-6.236083984375
0.002,5.735595703125,-0.790771484375,-5.795654296875
0.0025,6.015869140625,-1.951904296875,-5.275146484375
0.003,5.855712890625,-3.513427734375,-3.833740234375
0.0035,5.495361328125,-4.394287109375,-2.752685546875
0.004,4.734619140625,-5.114990234375,-1.471435546875
0.0045,4.134033203125,-5.715576171875,-0.470458984375
0.005,3.413330078125,-6.115966796875,0.650634765625
0.0055,2.812744140625,-6.676513671875,1.771728515625
0.006,1.131103515625,-6.716552734375,3.413330078125
0.0065,-0.350341796875,-6.356201171875,4.454345703125
0.007,-1.151123046875,-6.115966796875,5.054931640625
0.0075,-1.951904296875,-5.915771484375,5.775634765625
0.008,-3.193115234375,-5.275146484375,6.576416015625
0.0085,-4.594482421875,-4.073974609375,7.056884765625
0.009,-5.315185546875,-2.992919921875,7.016845703125
0.0095,-5.835693359375,-1.631591796875,6.416259765625
0.01,-6.035888671875,-0.630615234375,5.975830078125
0.0105,-6.156005859375,0.490478515625,5.415283203125
0.011,-6.476318359375,1.531494140625,5.094970703125
0.0115,-6.115966796875,3.052978515625,3.453369140625
0.012,-5.515380859375,3.973876953125,2.172119140625
0.0125,-4.834716796875,4.574462890625,1.051025390625
0.013,-4.314208984375,5.135009765625,0.090087890625
0.0135,-3.593505859375,5.615478515625,-1.151123046875
0.014,-2.512451171875,6.095947265625,-2.552490234375
0.0145,-1.271240234375,6.095947265625,-3.793701171875
0.015,0.210205078125,5.615478515625,-4.674560546875
0.0155,0.970947265625,5.415283203125,-5.395263671875
0.016,1.891845703125,5.094970703125,-6.115966796875
0.0165,3.052978515625,4.654541015625,-7.076904296875
0.017,4.534423828125,3.012939453125,-7.197021484375
0.0175,5.175048828125,1.731689453125,-6.956787109375
0.018,5.535400390625,0.650634765625,-6.436279296875
0.0185,5.775634765625,-0.350341796875,-6.075927734375
0.019,5.975830078125,-1.551513671875,-5.435302734375
0.0195,6.135986328125,-2.832763671875,-4.674560546875
0.02,5.775634765625,-3.993896484375,-3.353271484375
0.0205,5.014892578125,-4.914794921875,-1.871826171875
0.021,4.334228515625,-5.515380859375,-0.790771484375
0.0215,3.693603515625,-6.035888671875,0.290283203125
0.022,3.173095703125,-6.636474609375,1.331298828125
0.0225,1.531494140625,-6.756591796875,3.052978515625
0.023,0.290283203125,-6.596435546875,4.174072265625
0.0235,-0.870849609375,-6.236083984375,4.894775390625
0.024,-1.671630859375,-6.035888671875,5.615478515625
0.0245,-2.752685546875,-5.555419921875,6.336181640625
0.025,-3.993896484375,-4.874755859375,7.096923828125
0.0255,-5.155029296875,-3.473388671875,7.136962890625
0.026,-5.755615234375,-1.951904296875,6.656494140625
0.0265,-6.035888671875,-0.950927734375,6.216064453125
0.027,-6.236083984375,0.130126953125,5.735595703125
0.0275,-6.436279296875,1.251220703125,5.255126953125
0.028,-6.316162109375,2.812744140625,3.853759765625
0.0285,-5.915771484375,3.813720703125,2.692626953125
0.029,-5.155029296875,4.494384765625,1.411376953125
0.0295,-4.514404296875,5.094970703125,0.290283203125
0.03,-3.833740234375,5.575439453125,-0.790771484375
0.0305,-3.153076171875,6.176025390625,-1.951904296875
0.031,-1.551513671875,6.135986328125,-3.553466796875
0.0315,-0.190185546875,5.735595703125,-4.594482421875
0.032,0.770751953125,5.535400390625,-5.235107421875
0.0325,1.571533203125,5.295166015625,-5.955810546875
0.033,2.852783203125,4.734619140625,-6.756591796875
0.0335,4.254150390625,3.413330078125,-7.317138671875
0.034,5.094970703125,2.332275390625,-7.237060546875
0.0345,5.535400390625,0.930908203125,-6.636474609375
0.035,5.775634765625,-0.190185546875,-6.196044921875
0.0355,5.935791015625,-1.231201171875,-5.715576171875
0.036,6.216064453125,-2.272216796875,-5.275146484375
0.0365,5.815673828125,-3.793701171875,-3.593505859375
0.037,5.255126953125,-4.714599609375,-2.272216796875
0.0375,4.494384765625,-5.315185546875,-1.151123046875
0.038,3.973876953125,-5.875732421875,-0.190185546875
0.0385,3.213134765625,-6.396240234375,1.010986328125
0.039,2.132080078125,-6.796630859375,2.492431640625
0.0395,0.770751953125,-6.716552734375,3.773681640625
0.04,-0.590576171875,-6.196044921875,4.614501953125
0.0405,-1.391357421875,-6.075927734375,5.255126953125
0.041,-2.272216796875,-5.755615234375,5.895751953125
0.0415,-3.353271484375,-5.395263671875,6.816650390625
0.042,-4.834716796875,-3.753662109375,7.016845703125
0.0425,-5.435302734375,-2.512451171875,6.696533203125
0.043,-5.755615234375,-1.391357421875,6.256103515625
0.0435,-5.995849609375,-0.470458984375,5.815673828125
0.044,-6.196044921875,0.690673828125,5.335205078125
0.0445,-6.396240234375,1.851806640625,4.654541015625
0.045,-6.035888671875,3.012939453125,3.373291015625
0.0455,-5.195068359375,3.893798828125,1.931884765625
0.046,-4.634521484375,4.534423828125,0.890869140625
0.0465,-4.154052734375,5.094970703125,0.010009765625
0.047,-3.673583984375,5.735595703125,-1.111083984375
0.0475,-2.232177734375,5.895751953125,-2.672607421875
0.048,-0.990966796875,5.775634765625,-3.793701171875
0.0485,0.170166015625,5.415283203125,-4.554443359375
0.049,0.970947265625,5.255126953125,-5.435302734375
0.0495,1.971923828125,4.934814453125,-6.115966796875
0.05,3.133056640625,4.454345703125,-6.916748046875
0.0505,4.294189453125,3.133056640625,-7.076904296875
0.051,4.974853515625,1.691650390625,-6.556396484375
0.0515,5.295166015625,0.650634765625,-6.236083984375
0.052,5.575439453125,-0.350341796875,-5.915771484375
0.0525,5.895751953125,-1.351318359375,-5.555419921875
0.053,5.815673828125,-2.832763671875,-4.314208984375
0.0535,5.455322265625,-3.833740234375,-3.193115234375
0.054,4.814697265625,-4.554443359375,-1.951904296875
0.0545,4.294189453125,-5.275146484375,-0.910888671875
0.055,3.693603515625,-5.835693359375,0.210205078125
0.0555,3.052978515625,-6.476318359375,1.291259765625
0.056,1.651611328125,-6.516357421875,2.692626953125
0.0565,0.290283203125,-6.236083984375,3.773681640625
0.057,-0.670654296875,-5.955810546875,4.614501953125
0.0575,-1.471435546875,-5.955810546875,5.255126953125
0.058,-2.552490234375,-5.515380859375,6.135986328125
0.0585,-3.913818359375,-4.434326171875,6.656494140625
0.059,-4.754638671875,-3.393310546875,6.696533203125
0.0595,-5.235107421875,-2.072021484375,6.216064453125
0.06,-5.595458984375,-1.151123046875,5.895751953125
0.0605,-5.835693359375,-0.150146484375,5.455322265625
0.061,-6.196044921875,0.810791015625,5.295166015625
0.0615,-5.835693359375,2.212158203125,3.853759765625
0.062,-5.395263671875,3.173095703125,2.612548828125
0.0625,-4.834716796875,3.853759765625,1.571533203125
0.063,-4.434326171875,4.534423828125,0.650634765625
0.0635,-3.953857421875,5.094970703125,-0.390380859375
0.064,-2.952880859375,5.615478515625,-1.751708984375
0.0645,-1.911865234375,5.695556640625,-2.872802734375
0.065,-0.510498046875,5.295166015625,-3.833740234375
0.0655,0.290283203125,5.175048828125,-4.554443359375
0.066,1.171142578125,5.094970703125,-5.355224609375
0.0665,2.172119140625,4.894775390625,-6.316162109375
0.067,3.533447265625,3.493408203125,-6.556396484375
0.0675,4.294189453125,2.372314453125,-6.436279296875
0.068,4.694580078125,1.331298828125,-6.075927734375
0.0685,5.094970703125,0.450439453125,-5.875732421875
0.069,5.415283203125,-0.630615234375,-5.475341796875
0.0695,5.615478515625,-1.711669921875,-5.034912109375
0.07,5.415283203125,-2.752685546875,-3.993896484375
0.0705,4.814697265625,-3.713623046875,-2.592529296875
0.071,4.334228515625,-4.434326171875,-1.631591796875
0.0715,3.853759765625,-5.195068359375,-0.670654296875
0.072,3.653564453125,-5.835693359375,0.290283203125
0.0725,2.332275390625,-6.115966796875,1.731689453125
0.073,1.131103515625,-6.115966796875,2.892822265625
0.0735,0.250244140625,-5.875732421875,3.533447265625
0.074,-0.630615234375,-5.835693359375,4.414306640625
0.0745,-1.591552734375,-5.635498046875,5.255126953125
0.075,-2.672607421875,-5.275146484375,6.135986328125
0.0755,-3.793701171875,-4.154052734375,6.376220703125
0.076,-4.514404296875,-2.832763671875,6.015869140625
0.0765,-4.954833984375,-1.911865234375,5.775634765625
0.077,-5.315185546875,-1.031005859375,5.575439453125
0.0775,-5.755615234375,0.010009765625,5.415283203125
0.078,-5.715576171875,1.211181640625,4.454345703125
0.0785,-5.515380859375,2.132080078125,3.573486328125
0.079,-4.994873046875,2.892822265625,2.492431640625
0.0795,-4.554443359375,3.733642578125,1.571533203125
0.08,-4.154052734375,4.334228515625,0.490478515625
0.0805,-3.873779296875,5.094970703125,-0.510498046875
0.081,-2.592529296875,5.335205078125,-1.791748046875
0.0815,-1.471435546875,5.054931640625,-2.832763671875
0.082,-0.630615234375,5.094970703125,-3.593505859375
0.0825,0.290283203125,5.094970703125,-4.474365234375
0.083,1.251220703125,4.934814453125,-5.435302734375
0.0835,2.532470703125,4.134033203125,-6.035888671875
0.084,3.333251953125,3.253173828125,-6.276123046875
0.0845,3.973876953125,2.052001953125,-5.915771484375
0.085,4.494384765625,1.131103515625,-5.755615234375
0.0855,4.934814453125,0.250244140625,-5.595458984375
0.086,5.415283203125,-0.630615234375,-5.595458984375
0.0865,5.255126953125,-1.911865234375,-4.434326171875
0.087,4.854736328125,-2.872802734375,-3.353271484375
0.0875,4.494384765625,-3.553466796875,-2.352294921875
0.088,4.174072265625,-4.354248046875,-1.471435546875
0.0885,3.773681640625,-5.114990234375,-0.510498046875
0.089,3.052978515625,-5.795654296875,0.730712890625
0.0895,2.092041015625,-5.915771484375,1.771728515625
0.09,0.970947265625,-5.635498046875,2.732666015625
0.0905,0.130126953125,-5.635498046875,3.573486328125
0.091,-0.790771484375,-5.635498046875,4.494384765625
0.0915,-1.711669921875,-5.635498046875,5.455322265625
0.092,-3.032958984375,-4.514404296875,5.815673828125
0.0925,-3.793701171875,-3.553466796875,5.815673828125
0.093,-4.354248046875,-2.552490234375,5.615478515625
0.0935,-4.834716796875,-1.711669921875,5.575439453125
0.094,-5.275146484375,-0.790771484375,5.335205078125
0.0945,-5.635498046875,0.250244140625,5.094970703125
0.095,-5.515380859375,1.291259765625,4.294189453125
0.0955,-5.034912109375,2.212158203125,3.052978515625
0.096,-4.674560546875,2.972900390625,2.052001953125
0.0965,-4.394287109375,3.693603515625,1.211181640625
0.097,-4.314208984375,4.614501953125,0.370361328125
0.0975,-3.153076171875,4.894775390625,-1.151123046875
0.098,-2.272216796875,5.094970703125,-2.072021484375
0.0985,-1.271240234375,4.974853515625,-2.912841796875
0.099,-0.470458984375,5.054931640625,-3.833740234375
0.0995,0.610595703125,4.974853515625,-4.834716796875
0.1,1.651611328125,4.774658203125,-5.755615234375
0.1005,2.812744140625,3.773681640625,-6.075927734375
0.101,3.573486328125,2.532470703125,-5.835693359375
0.1015,4.134033203125,1.571533203125,-5.755615234375
0.102,4.614501953125,0.770751953125,-5.635498046875
0.1025,5.094970703125,-0.230224609375,-5.555419921875
0.103,5.135009765625,-1.431396484375,-4.674560546875
0.1035,5.094970703125,-2.312255859375,-3.993896484375
0.104,4.574462890625,-3.113037109375,-2.872802734375
0.1045,4.254150390625,-3.993896484375,-1.911865234375
0.105,3.973876953125,-4.634521484375,-0.990966796875
0.1055,3.693603515625,-5.595458984375,0.050048828125
0.106,2.532470703125,-5.715576171875,1.331298828125
0.1065,1.331298828125,-5.635498046875,2.372314453125
0.107,0.450439453125,-5.675537109375,3.173095703125
0.1075,-0.350341796875,-5.715576171875,4.093994140625
0.108,-1.431396484375,-5.555419921875,5.094970703125
0.1085,-2.632568359375,-4.834716796875,5.735595703125
0.109,-3.513427734375,-3.993896484375,5.935791015625
0.1095,-4.154052734375,-2.792724609375,5.655517578125
0.11,-4.674560546875,-1.911865234375,5.535400390625
0.1105,-5.114990234375,-0.990966796875,5.335205078125
0.111,-5.635498046875,-0.230224609375,5.415283203125
0.1115,-5.475341796875,1.131103515625,4.254150390625
0.112,-5.155029296875,2.052001953125,3.213134765625
0.1125,-4.754638671875,2.772705078125,2.292236328125
0.113,-4.514404296875,3.533447265625,1.331298828125
0.1135,-4.114013671875,4.294189453125,0.330322265625
0.114,-3.473388671875,4.974853515625,-0.830810546875
0.1145,-2.552490234375,5.175048828125,-1.951904296875
0.115,-1.431396484375,4.854736328125,-2.872802734375
0.1155,-0.590576171875,5.014892578125,-3.713623046875
0.116,0.450439453125,4.974853515625,-4.634521484375
0.1165,1.451416015625,4.934814453125,-5.715576171875
0.117,2.852783203125,3.693603515625,-6.075927734375
0.1175,3.653564453125,2.652587890625,-6.035888671875
0.118,4.134033203125,1.651611328125,-5.795654296875
0.1185,4.654541015625,0.770751953125,-5.715576171875
0.119,5.054931640625,-0.310302734375,-5.435302734375
0.1195,5.415283203125,-1.311279296875,-5.114990234375
0.12,5.255126953125,-2.432373046875,-4.073974609375
0.1205,4.734619140625,-3.393310546875,-2.832763671875
0.121,4.334228515625,-4.114013671875,-1.831787109375
0.1215,3.933837890625,-4.834716796875,-0.950927734375
0.122,3.653564453125,-5.555419921875,0.130126953125
0.1225,2.412353515625,-5.875732421875,1.571533203125
0.123,1.411376953125,-5.795654296875,2.732666015625
0.1235,0.370361328125,-5.755615234375,3.453369140625
0.124,-0.510498046875,-5.755615234375,4.254150390625
0.1245,-1.551513671875,-5.515380859375,5.135009765625
0.125,-2.632568359375,-5.155029296875,6.055908203125
0.1255,-3.833740234375,-3.953857421875,6.256103515625
0.126,-4.514404296875,-2.632568359375,5.935791015625
0.1265,-4.954833984375,-1.751708984375,5.735595703125
0.127,-5.315185546875,-0.870849609375,5.455322265625
0.1275,-5.715576171875,0.210205078125,5.175048828125
0.128,-5.755615234375,1.531494140625,4.214111328125
0.1285,-5.515380859375,2.412353515625,3.333251953125
0.129,-4.874755859375,3.173095703125,2.132080078125
0.1295,-4.514404296875,3.853759765625,1.131103515625
0.13,-3.993896484375,4.534423828125,0.170166015625
0.1305,-3.633544921875,5.295166015625,-0.910888671875
0.131,-2.272216796875,5.415283203125,-2.232177734375
0.1315,-1.071044921875,5.215087890625,-3.313232421875
0.132,-0.310302734375,5.135009765625,-4.033935546875
0.1325,0.610595703125,5.094970703125,-4.874755859375
0.133,1.771728515625,4.774658203125,-5.795654296875
0.1335,3.173095703125,3.813720703125,-6.436279296875
0.134,3.973876953125,2.812744140625,-6.516357421875
0.1345,4.534423828125,1.571533203125,-6.115966796875
0.135,4.934814453125,0.610595703125,-5.835693359375
0.1355,5.255126953125,-0.390380859375,-5.515380859375
0.136,5.695556640625,-1.351318359375,-5.315185546875
0.1365,5.455322265625,-2.872802734375,-3.913818359375
0.137,5.054931640625,-3.753662109375,-2.832763671875
0.1375,4.494384765625,-4.474365234375,-1.791748046875
0.138,4.093994140625,-5.114990234375,-0.830810546875
0.1385,3.453369140625,-5.755615234375,0.370361328125
0.139,2.572509765625,-6.276123046875,1.651611328125
0.1395,1.331298828125,-6.356201171875,2.932861328125
0.14,0.130126953125,-5.955810546875,3.853759765625
0.1405,-0.750732421875,-5.915771484375,4.574462890625
0.141,-1.671630859375,-5.635498046875,5.415283203125
0.1415,-2.792724609375,-5.395263671875,6.416259765625
0.142,-4.314208984375,-3.873779296875,6.656494140625
0.1425,-5.034912109375,-2.712646484375,6.456298828125
0.143,-5.395263671875,-1.631591796875,6.095947265625
0.1435,-5.715576171875,-0.710693359375,5.735595703125
0.144,-5.995849609375,0.530517578125,5.255126953125
0.1445,-6.276123046875,1.651611328125,4.614501953125
0.145,-6.035888671875,2.892822265625,3.373291015625
0.1455,-5.275146484375,3.773681640625,1.931884765625
0.146,-4.634521484375,4.454345703125,0.930908203125
0.1465,-4.114013671875,4.974853515625,0.010009765625
0.147,-3.553466796875,5.655517578125,-1.231201171875
0.1475,-2.031982421875,5.895751953125,-2.912841796875
0.148,-0.830810546875,5.775634765625,-3.993896484375
0.1485,0.250244140625,5.455322265625,-4.674560546875
0.149,1.051025390625,5.295166015625,-5.435302734375
0.1495,2.252197265625,4.774658203125,-6.276123046875
0.15,3.493408203125,4.134033203125,-7.076904296875
0.1505,4.654541015625,2.732666015625,-7.156982421875
0.151,5.255126953125,1.291259765625,-6.596435546875
0.1515,5.495361328125,0.290283203125,-6.156005859375
0.152,5.695556640625,-0.790771484375,-5.755615234375
0.1525,6.015869140625,-1.951904296875,-5.275146484375
0.153,5.855712890625,-3.513427734375,-3.833740234375
0.1535,5.415283203125,-4.474365234375,-2.752685546875
0.154,4.654541015625,-5.034912109375,-1.471435546875
0.1545,4.053955078125,-5.635498046875,-0.470458984375
0.155,3.333251953125,-6.115966796875,0.730712890625
0.1555,2.732666015625,-6.716552734375,1.851806640625
0.156,1.091064453125,-6.716552734375,3.493408203125
0.1565,-0.350341796875,-6.316162109375,4.454345703125
0.157,-1.151123046875,-6.075927734375,5.094970703125
0.1575,-1.951904296875,-5.795654296875,5.775634765625
0.158,-3.233154296875,-5.275146484375,6.656494140625
0.1585,-4.594482421875,-4.033935546875,7.056884765625
0.159,-5.395263671875,-2.872802734375,7.056884765625
0.1595,-5.795654296875,-1.551513671875,6.376220703125
0.16,-6.035888671875,-0.590576171875,5.975830078125
0.1605,-6.156005859375,0.530517578125,5.415283203125
0.161,-6.476318359375,1.531494140625,5.054931640625
0.1615,-6.156005859375,3.052978515625,3.373291015625
0.162,-5.475341796875,4.013916015625,2.052001953125
0.1625,-4.834716796875,4.534423828125,1.010986328125
0.163,-4.274169921875,5.135009765625,0.050048828125
0.1635,-3.553466796875,5.695556640625,-1.151123046875
0.164,-2.432373046875,6.095947265625,-2.592529296875
0.1645,-1.231201171875,6.055908203125,-3.833740234375
0.165,0.210205078125,5.535400390625,-4.674560546875
0.1655,0.970947265625,5.375244140625,-5.315185546875
0.166,1.931884765625,5.014892578125,-6.035888671875
0.1665,3.012939453125,4.654541015625,-6.996826171875
0.167,4.534423828125,3.012939453125,-7.156982421875
0.1675,5.175048828125,1.771728515625,-6.916748046875
0.168,5.455322265625,0.690673828125,-6.396240234375
0.1685,5.735595703125,-0.390380859375,-6.035888671875
0.169,5.895751953125,-1.551513671875,-5.435302734375
0.1695,6.095947265625,-2.752685546875,-4.754638671875
0.17,5.735595703125,-3.873779296875,-3.473388671875
0.1705,4.974853515625,-4.754638671875,-1.951904296875
0.171,4.334228515625,-5.355224609375,-0.950927734375
0.1715,3.773681640625,-5.915771484375,0.130126953125
0.172,3.213134765625,-6.556396484375,1.211181640625
0.1725,1.611572265625,-6.716552734375,2.892822265625
0.173,0.370361328125,-6.556396484375,3.973876953125
0.1735,-0.710693359375,-6.156005859375,4.694580078125
0.174,-1.471435546875,-6.035888671875,5.415283203125
0.1745,-2.672607421875,-5.515380859375,6.256103515625
0.175,-3.793701171875,-4.954833984375,7.016845703125
0.1755,-4.954833984375,-3.553466796875,7.096923828125
0.176,-5.595458984375,-2.072021484375,6.536376953125
0.1765,-5.875732421875,-1.111083984375,6.135986328125
0.177,-6.075927734375,-0.190185546875,5.735595703125
0.1775,-6.396240234375,0.970947265625,5.255126953125
0.178,-6.276123046875,2.572509765625,3.973876953125
0.1785,-5.915771484375,3.533447265625,2.852783203125
0.179,-5.114990234375,4.214111328125,1.571533203125
0.1795,-4.514404296875,4.854736328125,0.490478515625
0.18,-3.873779296875,5.415283203125,-0.630615234375
0.1805,-3.353271484375,6.095947265625,-1.711669921875
0.181,-1.751708984375,6.095947265625,-3.353271484375
0.1815,-0.310302734375,5.735595703125,-4.394287109375
0.182,0.610595703125,5.495361328125,-5.074951171875
0.1825,1.411376953125,5.335205078125,-5.755615234375
0.183,2.692626953125,4.814697265625,-6.756591796875
0.1835,4.134033203125,3.533447265625,-7.237060546875
0.184,4.974853515625,2.452392578125,-7.237060546875
0.1845,5.415283203125,1.010986328125,-6.676513671875
0.185,5.735595703125,0.010009765625,-6.236083984375
0.1855,5.895751953125,-1.231201171875,-5.755615234375
0.186,6.296142578125,-2.272216796875,-5.315185546875
0.1865,5.895751953125,-3.833740234375,-3.633544921875
0.187,5.255126953125,-4.794677734375,-2.272216796875
0.1875,4.534423828125,-5.355224609375,-1.151123046875
0.188,4.013916015625,-5.915771484375,-0.150146484375
