wavelength,x,y,z
0.0,-2.432373046875,5.255126953125,-2.072021484375
0.0005,-1.471435546875,5.455322265625,-3.193115234375
0.001,-0.750732421875,5.735595703125,-4.234130859375
0.0015,0.170166015625,5.615478515625,-4.994873046875
0.002,1.331298828125,4.854736328125,-5.435302734375
0.0025,2.612548828125,3.933837890625,-6.035888671875
0.003,3.773681640625,2.932861328125,-6.356201171875
0.0035,4.494384765625,1.931884765625,-6.396240234375
0.004,4.974853515625,1.091064453125,-6.356201171875
0.0045,4.974853515625,0.250244140625,-5.755615234375
0.005,4.854736328125,-0.910888671875,-4.834716796875
0.0055,4.974853515625,-2.192138671875,-3.993896484375
0.006,4.894775390625,-3.353271484375,-2.912841796875
0.0065,4.774658203125,-4.354248046875,-1.991943359375
0.007,4.414306640625,-5.034912109375,-1.151123046875
0.0075,3.533447265625,-5.315185546875,0.010009765625
0.008,2.532470703125,-5.715576171875,1.291259765625
0.0085,1.491455078125,-6.156005859375,2.692626953125
0.009,0.610595703125,-6.396240234375,3.773681640625
0.0095,-0.270263671875,-6.636474609375,4.694580078125
0.01,-1.231201171875,-6.115966796875,5.295166015625
0.0105,-2.472412109375,-5.074951171875,5.735595703125
0.011,-3.793701171875,-4.114013671875,6.256103515625
0.0115,-4.714599609375,-3.032958984375,6.416259765625
0.012,-5.395263671875,-2.072021484375,6.416259765625
0.0125,-5.635498046875,-1.231201171875,6.095947265625
0.013,-5.475341796875,-0.230224609375,5.255126953125
0.0135,-5.395263671875,1.010986328125,4.294189453125
0.014,-5.435302734375,2.372314453125,3.253173828125
0.0145,-5.275146484375,3.493408203125,2.212158203125
0.015,-5.074951171875,4.334228515625,1.291259765625
0.0155,-4.394287109375,4.734619140625,0.410400390625
0.016,-3.313232421875,4.974853515625,-0.910888671875
0.0165,-2.272216796875,5.415283203125,-2.352294921875
0.017,-1.231201171875,5.615478515625,-3.673583984375
0.0175,-0.470458984375,5.815673828125,-4.634521484375
0.018,0.410400390625,5.895751953125,-5.435302734375
0.0185,1.571533203125,5.094970703125,-5.875732421875
0.019,2.892822265625,3.973876953125,-6.276123046875
0.0195,4.134033203125,2.852783203125,-6.716552734375
0.02,4.894775390625,1.731689453125,-6.676513671875
0.0205,5.415283203125,0.890869140625,-6.596435546875
0.021,5.415283203125,0.010009765625,-6.035888671875
0.0215,5.175048828125,-1.231201171875,-4.994873046875
0.022,5.135009765625,-2.512451171875,-3.913818359375
0.0225,5.094970703125,-3.793701171875,-2.832763671875
0.023,4.854736328125,-4.834716796875,-1.751708984375
0.0235,4.534423828125,-5.555419921875,-0.910888671875
0.024,3.613525390625,-5.795654296875,0.250244140625
0.0245,2.412353515625,-6.035888671875,1.571533203125
0.025,1.291259765625,-6.476318359375,3.133056640625
0.0255,0.290283203125,-6.596435546875,4.214111328125
0.026,-0.590576171875,-6.756591796875,5.215087890625
0.0265,-1.471435546875,-6.396240234375,5.815673828125
0.027,-2.832763671875,-5.275146484375,6.216064453125
0.0275,-4.154052734375,-4.114013671875,6.656494140625
0.028,-5.275146484375,-2.872802734375,6.856689453125
0.0285,-5.875732421875,-1.831787109375,6.696533203125
0.029,-6.156005859375,-0.990966796875,6.456298828125
0.0295,-5.955810546875,0.170166015625,5.575439453125
0.03,-5.755615234375,1.411376953125,4.334228515625
0.0305,-5.715576171875,2.852783203125,3.173095703125
0.031,-5.475341796875,3.973876953125,2.052001953125
0.0315,-5.155029296875,4.894775390625,1.051025390625
0.032,-4.554443359375,5.375244140625,0.130126953125
0.0325,-3.353271484375,5.455322265625,-1.231201171875
0.033,-2.072021484375,5.735595703125,-2.712646484375
0.0335,-0.910888671875,6.015869140625,-4.194091796875
0.034,0.130126953125,6.135986328125,-5.155029296875
0.0345,0.810791015625,6.135986328125,-5.995849609375
0.035,1.931884765625,5.375244140625,-6.476318359375
0.0355,3.333251953125,4.053955078125,-6.756591796875
0.036,4.614501953125,2.812744140625,-7.156982421875
0.0365,5.455322265625,1.571533203125,-7.076904296875
0.037,5.935791015625,0.570556640625,-6.876708984375
0.0375,6.015869140625,-0.470458984375,-6.396240234375
0.038,5.695556640625,-1.551513671875,-5.235107421875
0.0385,5.415283203125,-2.872802734375,-3.953857421875
0.039,5.335205078125,-4.274169921875,-2.712646484375
0.0395,5.014892578125,-5.275146484375,-1.551513671875
0.04,4.654541015625,-6.075927734375,-0.630615234375
0.0405,3.773681640625,-6.356201171875,0.490478515625
0.041,2.412353515625,-6.436279296875,1.811767578125
0.0415,1.091064453125,-6.756591796875,3.413330078125
0.042,0.010009765625,-6.796630859375,4.654541015625
0.0425,-0.950927734375,-6.876708984375,5.575439453125
0.043,-1.751708984375,-6.676513671875,6.256103515625
0.0435,-2.952880859375,-5.595458984375,6.616455078125
0.044,-4.354248046875,-4.234130859375,6.896728515625
0.0445,-5.515380859375,-2.992919921875,7.177001953125
0.045,-6.156005859375,-1.791748046875,6.976806640625
0.0455,-6.556396484375,-0.910888671875,6.736572265625
0.046,-6.396240234375,0.210205078125,5.935791015625
0.0465,-6.035888671875,1.411376953125,4.654541015625
0.047,-5.835693359375,2.812744140625,3.373291015625
0.0475,-5.675537109375,4.093994140625,2.172119140625
0.048,-5.275146484375,5.014892578125,1.091064453125
0.0485,-4.834716796875,5.575439453125,0.210205078125
0.049,-3.713623046875,5.735595703125,-1.031005859375
0.0495,-2.312255859375,5.815673828125,-2.512451171875
0.05,-1.071044921875,6.216064453125,-4.033935546875
0.0505,0.090087890625,6.216064453125,-5.155029296875
0.051,0.810791015625,6.256103515625,-6.035888671875
0.0515,1.731689453125,5.775634765625,-6.556396484375
0.052,3.052978515625,4.534423828125,-6.876708984375
0.0525,4.374267578125,3.213134765625,-7.156982421875
0.053,5.415283203125,1.971923828125,-7.277099609375
0.0535,5.975830078125,0.810791015625,-7.036865234375
0.054,6.135986328125,0.010009765625,-6.716552734375
0.0545,5.895751953125,-1.151123046875,-5.755615234375
0.055,5.535400390625,-2.392333984375,-4.474365234375
0.0555,5.455322265625,-3.833740234375,-3.193115234375
0.056,5.175048828125,-4.994873046875,-1.991943359375
0.0565,4.814697265625,-5.915771484375,-0.990966796875
0.057,4.174072265625,-6.396240234375,0.050048828125
0.0575,3.012939453125,-6.476318359375,1.211181640625
0.058,1.651611328125,-6.636474609375,2.772705078125
0.0585,0.410400390625,-6.836669921875,4.214111328125
0.059,-0.630615234375,-6.876708984375,5.255126953125
0.0595,-1.311279296875,-6.916748046875,6.055908203125
0.06,-2.432373046875,-6.115966796875,6.456298828125
0.0605,-3.833740234375,-4.794677734375,6.776611328125
0.061,-5.114990234375,-3.553466796875,7.177001953125
0.0615,-5.955810546875,-2.312255859375,7.096923828125
0.062,-6.436279296875,-1.271240234375,6.896728515625
0.0625,-6.476318359375,-0.350341796875,6.376220703125
0.063,-6.196044921875,0.890869140625,5.255126953125
0.0635,-5.915771484375,2.212158203125,3.973876953125
0.064,-5.795654296875,3.653564453125,2.692626953125
0.0645,-5.475341796875,4.654541015625,1.531494140625
0.065,-5.114990234375,5.415283203125,0.570556640625
0.0655,-4.234130859375,5.695556640625,-0.590576171875
0.066,-2.872802734375,5.815673828125,-1.951904296875
0.0665,-1.591552734375,6.176025390625,-3.553466796875
0.067,-0.350341796875,6.216064453125,-4.834716796875
0.0675,0.570556640625,6.296142578125,-5.755615234375
0.068,1.331298828125,6.095947265625,-6.436279296875
0.0685,2.572509765625,5.054931640625,-6.836669921875
0.069,3.973876953125,3.693603515625,-7.116943359375
0.0695,5.175048828125,2.412353515625,-7.397216796875
0.07,5.855712890625,1.131103515625,-7.156982421875
0.0705,6.216064453125,0.210205078125,-6.916748046875
0.071,6.055908203125,-0.830810546875,-6.115966796875
0.0715,5.735595703125,-2.072021484375,-4.874755859375
0.072,5.535400390625,-3.433349609375,-3.593505859375
0.0725,5.295166015625,-4.794677734375,-2.312255859375
0.073,4.934814453125,-5.715576171875,-1.151123046875
0.0735,4.454345703125,-6.356201171875,-0.310302734375
0.074,3.373291015625,-6.436279296875,0.930908203125
0.0745,1.971923828125,-6.516357421875,2.292236328125
0.075,0.690673828125,-6.796630859375,3.853759765625
0.0755,-0.510498046875,-6.796630859375,4.974853515625
0.076,-1.151123046875,-6.876708984375,5.815673828125
0.0765,-2.031982421875,-6.436279296875,6.376220703125
0.077,-3.353271484375,-5.155029296875,6.656494140625
0.0775,-4.674560546875,-3.913818359375,7.016845703125
0.078,-5.635498046875,-2.712646484375,7.056884765625
0.0785,-6.196044921875,-1.591552734375,6.856689453125
0.079,-6.396240234375,-0.670654296875,6.536376953125
0.0795,-6.156005859375,0.370361328125,5.615478515625
0.08,-5.835693359375,1.571533203125,4.374267578125
0.0805,-5.755615234375,2.932861328125,3.173095703125
0.081,-5.475341796875,4.053955078125,1.971923828125
0.0815,-5.155029296875,4.894775390625,0.970947265625
0.082,-4.514404296875,5.415283203125,0.090087890625
0.0825,-3.393310546875,5.575439453125,-1.151123046875
0.083,-2.192138671875,5.735595703125,-2.552490234375
0.0835,-0.990966796875,5.975830078125,-3.993896484375
0.084,0.050048828125,6.095947265625,-4.994873046875
0.0845,0.770751953125,6.135986328125,-5.835693359375
0.085,1.691650390625,5.495361328125,-6.276123046875
0.0855,2.972900390625,4.294189453125,-6.556396484375
0.086,4.254150390625,3.173095703125,-6.996826171875
0.0865,5.094970703125,1.971923828125,-6.996826171875
0.087,5.695556640625,0.970947265625,-6.836669921875
0.0875,5.775634765625,0.130126953125,-6.436279296875
0.088,5.535400390625,-0.990966796875,-5.475341796875
0.0885,5.295166015625,-2.192138671875,-4.434326171875
0.089,5.255126953125,-3.553466796875,-3.193115234375
0.0895,4.974853515625,-4.674560546875,-2.112060546875
0.09,4.814697265625,-5.475341796875,-1.191162109375
0.0905,4.053955078125,-5.835693359375,-0.270263671875
0.091,2.932861328125,-6.035888671875,1.010986328125
0.0915,1.771728515625,-6.396240234375,2.532470703125
0.092,0.610595703125,-6.556396484375,3.813720703125
0.0925,-0.310302734375,-6.716552734375,4.814697265625
0.093,-1.031005859375,-6.676513671875,5.575439453125
0.0935,-2.112060546875,-5.875732421875,6.015869140625
0.094,-3.473388671875,-4.714599609375,6.376220703125
0.0945,-4.674560546875,-3.553466796875,6.736572265625
0.095,-5.435302734375,-2.432373046875,6.696533203125
0.0955,-5.915771484375,-1.551513671875,6.616455078125
0.096,-5.915771484375,-0.630615234375,5.975830078125
0.0965,-5.635498046875,0.490478515625,4.974853515625
0.097,-5.595458984375,1.771728515625,3.893798828125
0.0975,-5.515380859375,2.972900390625,2.812744140625
0.098,-5.275146484375,4.053955078125,1.771728515625
0.0985,-4.914794921875,4.774658203125,0.930908203125
0.099,-4.033935546875,5.054931640625,-0.230224609375
0.0995,-2.912841796875,5.215087890625,-1.431396484375
0.1,-1.871826171875,5.695556640625,-2.912841796875
0.1005,-0.830810546875,5.775634765625,-4.033935546875
0.101,0.010009765625,5.975830078125,-5.034912109375
0.1015,0.850830078125,5.735595703125,-5.635498046875
0.102,1.971923828125,4.774658203125,-6.035888671875
0.1025,3.293212890625,3.733642578125,-6.436279296875
0.103,4.334228515625,2.612548828125,-6.676513671875
0.1035,5.054931640625,1.571533203125,-6.596435546875
0.104,5.375244140625,0.770751953125,-6.436279296875
0.1045,5.255126953125,-0.270263671875,-5.755615234375
0.105,5.054931640625,-1.311279296875,-4.834716796875
0.1055,5.054931640625,-2.632568359375,-3.873779296875
0.106,4.934814453125,-3.713623046875,-2.752685546875
0.1065,4.774658203125,-4.634521484375,-1.791748046875
0.107,4.334228515625,-5.275146484375,-0.950927734375
0.1075,3.453369140625,-5.515380859375,0.170166015625
0.108,2.412353515625,-5.835693359375,1.411376953125
0.1085,1.331298828125,-6.196044921875,2.812744140625
0.109,0.450439453125,-6.396240234375,3.853759765625
0.1095,-0.310302734375,-6.596435546875,4.814697265625
0.11,-1.271240234375,-6.115966796875,5.335205078125
0.1105,-2.432373046875,-5.155029296875,5.735595703125
0.111,-3.713623046875,-4.194091796875,6.256103515625
0.1115,-4.634521484375,-3.153076171875,6.416259765625
0.112,-5.315185546875,-2.232177734375,6.416259765625
0.1125,-5.515380859375,-1.431396484375,6.095947265625
0.113,-5.435302734375,-0.510498046875,5.375244140625
0.1135,-5.395263671875,0.610595703125,4.494384765625
0.114,-5.395263671875,1.971923828125,3.533447265625
0.1145,-5.235107421875,3.052978515625,2.532470703125
0.115,-5.074951171875,3.973876953125,1.651611328125
0.1155,-4.514404296875,4.454345703125,0.730712890625
0.116,-3.553466796875,4.734619140625,-0.470458984375
0.1165,-2.632568359375,5.175048828125,-1.751708984375
0.117,-1.591552734375,5.455322265625,-3.032958984375
0.1175,-0.830810546875,5.735595703125,-4.033935546875
0.118,0.010009765625,5.815673828125,-4.874755859375
0.1185,0.970947265625,5.215087890625,-5.395263671875
0.119,2.212158203125,4.334228515625,-5.795654296875
0.1195,3.413330078125,3.333251953125,-6.276123046875
0.12,4.214111328125,2.292236328125,-6.356201171875
0.1205,4.854736328125,1.411376953125,-6.396240234375
0.121,4.934814453125,0.610595703125,-5.955810546875
0.1215,4.814697265625,-0.470458984375,-5.195068359375
0.122,4.854736328125,-1.471435546875,-4.434326171875
0.1225,4.894775390625,-2.672607421875,-3.473388671875
0.123,4.734619140625,-3.713623046875,-2.512451171875
0.1235,4.614501953125,-4.554443359375,-1.671630859375
0.124,3.893798828125,-4.994873046875,-0.790771484375
0.1245,3.052978515625,-5.275146484375,0.370361328125
0.125,2.172119140625,-5.795654296875,1.731689453125
0.1255,1.251220703125,-6.035888671875,2.852783203125
0.126,0.490478515625,-6.356201171875,3.893798828125
0.1265,-0.390380859375,-6.276123046875,4.614501953125
0.127,-1.471435546875,-5.595458984375,5.094970703125
0.1275,-2.672607421875,-4.794677734375,5.695556640625
0.128,-3.793701171875,-3.833740234375,6.055908203125
0.1285,-4.554443359375,-2.912841796875,6.135986328125
0.129,-5.074951171875,-2.112060546875,6.135986328125
0.1295,-5.155029296875,-1.311279296875,5.615478515625
0.13,-5.074951171875,-0.350341796875,4.894775390625
0.1305,-5.235107421875,0.970947265625,4.134033203125
0.131,-5.195068359375,2.052001953125,3.253173828125
0.1315,-5.114990234375,3.133056640625,2.372314453125
0.132,-4.834716796875,3.813720703125,1.531494140625
0.1325,-4.114013671875,4.214111328125,0.530517578125
0.133,-3.273193359375,4.694580078125,-0.710693359375
0.1335,-2.432373046875,5.175048828125,-1.991943359375
0.134,-1.551513671875,5.455322265625,-3.153076171875
0.1345,-0.830810546875,5.815673828125,-4.154052734375
0.135,0.170166015625,5.495361328125,-4.834716796875
0.1355,1.291259765625,4.734619140625,-5.275146484375
0.136,2.572509765625,3.893798828125,-5.915771484375
0.1365,3.573486328125,2.852783203125,-6.196044921875
0.137,4.414306640625,1.931884765625,-6.276123046875
0.1375,4.734619140625,1.171142578125,-6.156005859375
0.138,4.774658203125,0.330322265625,-5.515380859375
0.1385,4.774658203125,-0.790771484375,-4.834716796875
0.139,4.894775390625,-1.991943359375,-3.993896484375
0.1395,4.814697265625,-3.153076171875,-2.992919921875
0.14,4.774658203125,-4.154052734375,-2.192138671875
0.1405,4.214111328125,-4.674560546875,-1.271240234375
0.141,3.453369140625,-5.074951171875,-0.230224609375
0.1415,2.572509765625,-5.635498046875,1.211181640625
0.142,1.611572265625,-5.955810546875,2.412353515625
0.1425,0.810791015625,-6.276123046875,3.533447265625
0.143,0.090087890625,-6.396240234375,4.414306640625
0.1435,-1.111083984375,-5.835693359375,4.974853515625
0.144,-2.312255859375,-4.994873046875,5.495361328125
0.1445,-3.553466796875,-4.073974609375,6.055908203125
0.145,-4.434326171875,-3.072998046875,6.135986328125
0.1455,-5.114990234375,-2.272216796875,6.216064453125
0.146,-5.195068359375,-1.351318359375,5.775634765625
0.1465,-5.114990234375,-0.430419921875,5.054931640625
0.147,-5.195068359375,0.850830078125,4.214111328125
0.1475,-5.275146484375,2.092041015625,3.293212890625
0.148,-5.114990234375,3.133056640625,2.292236328125
0.1485,-4.954833984375,3.973876953125,1.491455078125
0.149,-4.194091796875,4.334228515625,0.530517578125
0.1495,-3.273193359375,4.614501953125,-0.710693359375
0.15,-2.392333984375,5.215087890625,-2.072021484375
0.1505,-1.431396484375,5.455322265625,-3.193115234375
0.151,-0.710693359375,5.735595703125,-4.274169921875
0.1515,0.210205078125,5.615478515625,-4.994873046875
0.152,1.371337890625,4.814697265625,-5.435302734375
0.1525,2.652587890625,3.853759765625,-5.955810546875
0.153,3.733642578125,2.812744140625,-6.276123046875
0.1535,4.494384765625,1.811767578125,-6.356201171875
0.154,4.934814453125,1.091064453125,-6.276123046875
0.1545,4.934814453125,0.210205078125,-5.635498046875
0.155,4.774658203125,-0.870849609375,-4.794677734375
0.1555,4.894775390625,-2.112060546875,-3.913818359375
0.156,4.814697265625,-3.313232421875,-2.912841796875
0.1565,4.734619140625,-4.274169921875,-2.031982421875
0.157,4.334228515625,-4.914794921875,-1.151123046875
0.1575,3.493408203125,-5.235107421875,-0.150146484375
0.158,2.532470703125,-5.635498046875,1.171142578125
0.1585,1.531494140625,-6.035888671875,2.532470703125
0.159,0.690673828125,-6.276123046875,3.573486328125
0.1595,0.010009765625,-6.516357421875,4.534423828125
0.16,-1.071044921875,-6.075927734375,5.135009765625
0.1605,-2.312255859375,-5.114990234375,5.615478515625
0.161,-3.633544921875,-4.194091796875,6.135986328125
0.1615,-4.594482421875,-3.153076171875,6.296142578125
0.162,-5.235107421875,-2.192138671875,6.376220703125
0.1625,-5.475341796875,-1.351318359375,6.055908203125
0.163,-5.355224609375,-0.390380859375,5.255126953125
0.1635,-5.275146484375,0.810791015625,4.334228515625
0.164,-5.395263671875,2.172119140625,3.333251953125
0.1645,-5.235107421875,3.213134765625,2.372314453125
0.165,-5.074951171875,4.134033203125,1.451416015625
0.1655,-4.434326171875,4.534423828125,0.570556640625
0.166,-3.393310546875,4.814697265625,-0.670654296875
0.1665,-2.432373046875,5.335205078125,-2.112060546875
0.167,-1.351318359375,5.575439453125,-3.353271484375
0.1675,-0.590576171875,5.815673828125,-4.434326171875
0.168,0.290283203125,5.855712890625,-5.195068359375
0.1685,1.371337890625,5.054931640625,-5.715576171875
0.169,2.692626953125,3.973876953125,-6.115966796875
0.1695,3.893798828125,2.852783203125,-6.596435546875
0.17,4.774658203125,1.851806640625,-6.556396484375
0.1705,5.255126953125,0.970947265625,-6.556396484375
0.171,5.255126953125,0.090087890625,-5.955810546875
0.1715,5.094970703125,-1.071044921875,-4.994873046875
0.172,5.094970703125,-2.352294921875,-3.953857421875
0.1725,5.054931640625,-3.633544921875,-2.872802734375
0.173,4.854736328125,-4.634521484375,-1.871826171875
0.1735,4.534423828125,-5.395263671875,-0.990966796875
0.174,3.653564453125,-5.635498046875,0.130126953125
0.1745,2.492431640625,-5.915771484375,1.411376953125
0.175,1.331298828125,-6.356201171875,2.972900390625
0.1755,0.370361328125,-6.516357421875,4.134033203125
0.176,-0.470458984375,-6.716552734375,5.094970703125
0.1765,-1.391357421875,-6.396240234375,5.695556640625
0.177,-2.712646484375,-5.275146484375,6.095947265625
0.1775,-4.114013671875,-4.154052734375,6.576416015625
0.178,-5.195068359375,-2.912841796875,6.776611328125
0.1785,-5.795654296875,-1.831787109375,6.696533203125
0.179,-6.115966796875,-0.990966796875,6.416259765625
0.1795,-5.915771484375,0.130126953125,5.495361328125
0.18,-5.675537109375,1.371337890625,4.334228515625
0.1805,-5.675537109375,2.852783203125,3.133056640625
0.181,-5.435302734375,3.973876953125,1.971923828125
0.1815,-5.114990234375,4.854736328125,1.010986328125
0.182,-4.514404296875,5.335205078125,0.090087890625
0.1825,-3.313232421875,5.455322265625,-1.271240234375
0.183,-1.991943359375,5.735595703125,-2.832763671875
0.1835,-0.790771484375,6.055908203125,-4.274169921875
0.184,0.130126953125,6.095947265625,-5.235107421875
0.1845,0.890869140625,6.095947265625,-6.035888671875
0.185,2.011962890625,5.255126953125,-6.436279296875
0.1855,3.373291015625,3.853759765625,-6.756591796875
0.186,4.734619140625,2.692626953125,-7.116943359375
0.1865,5.495361328125,1.451416015625,-7.076904296875
0.187,5.935791015625,0.490478515625,-6.796630859375
0.1875,5.935791015625,-0.510498046875,-6.276123046875
0.188,5.615478515625,-1.631591796875,-5.114990234375
