wavelength,x,y,z
0.0,-5.4453125,1.521484375,4.00390625
0.0005,-5.2451171875,2.8828125,2.642578125
0.001,-5.205078125,4.0439453125,1.6015625
0.0015,-5.0048828125,4.724609375,0.880859375
0.002,-4.2841796875,5.044921875,0.1201171875
0.0025,-3.0830078125,5.0849609375,-1.1611328125
0.003,-1.76171875,5.28515625,-2.642578125
0.0035,-0.640625,5.5654296875,-4.0439453125
0.004,0.16015625,5.8857421875,-5.044921875
0.0045,0.80078125,5.8056640625,-5.765625
0.005,1.8017578125,5.0849609375,-6.1259765625
0.0055,3.123046875,3.8037109375,-6.3662109375
0.006,4.32421875,2.4423828125,-6.486328125
0.0065,5.205078125,1.361328125,-6.646484375
0.007,5.525390625,0.6806640625,-6.6064453125
0.0075,5.4052734375,0.0,-6.1259765625
0.008,5.0849609375,-1.041015625,-5.0849609375
0.0085,4.8447265625,-2.322265625,-3.84375
0.009,4.7646484375,-3.68359375,-2.6025390625
0.0095,4.6845703125,-4.6845703125,-1.8017578125
0.01,4.484375,-5.28515625,-1.0810546875
0.0105,3.7236328125,-5.4853515625,-0.2802734375
0.011,2.5224609375,-5.6455078125,1.0810546875
0.0115,1.201171875,-5.845703125,2.5625
0.012,0.2802734375,-6.2060546875,3.84375
0.0125,-0.400390625,-6.5263671875,4.8046875
0.013,-1.1611328125,-6.3662109375,5.4052734375
0.0135,-2.2421875,-5.4453125,5.7255859375
0.014,-3.4833984375,-4.2841796875,6.0458984375
0.0145,-4.64453125,-3.0029296875,6.2060546875
0.015,-5.4052734375,-2.162109375,6.40625
0.0155,-5.6455078125,-1.521484375,6.2861328125
0.016,-5.525390625,-0.80078125,5.7255859375
0.0165,-5.28515625,0.2802734375,4.7646484375
0.017,-5.0849609375,1.5615234375,3.5234375
0.0175,-5.125,2.8427734375,2.5224609375
0.018,-5.0849609375,3.763671875,1.76171875
0.0185,-4.724609375,4.32421875,1.0810546875
0.019,-3.8837890625,4.564453125,0.1201171875
0.0195,-2.802734375,4.8447265625,-1.28125
0.02,-1.6416015625,5.125,-2.72265625
0.0205,-0.9208984375,5.5654296875,-3.8837890625
0.021,-0.2802734375,5.8056640625,-4.7646484375
0.0215,0.640625,5.4853515625,-5.3251953125
0.022,1.841796875,4.5244140625,-5.765625
0.0225,3.123046875,3.3232421875,-5.9658203125
0.023,4.2041015625,2.2421875,-6.2861328125
0.0235,4.8447265625,1.521484375,-6.4462890625
0.024,5.044921875,0.9208984375,-6.326171875
0.0245,4.9248046875,0.0400390625,-5.6455078125
0.025,4.7646484375,-1.1611328125,-4.64453125
0.0255,4.64453125,-2.4423828125,-3.5234375
0.026,4.7646484375,-3.603515625,-2.6025390625
0.0265,4.6845703125,-4.4443359375,-1.9619140625
0.027,4.2041015625,-4.884765625,-1.1611328125
0.0275,3.283203125,-5.125,0.0
0.028,2.162109375,-5.4453125,1.361328125
0.0285,1.1611328125,-5.845703125,2.72265625
0.029,0.48046875,-6.2861328125,3.84375
0.0295,-0.2802734375,-6.40625,4.6044921875
0.03,-1.2412109375,-5.8857421875,5.125
0.0305,-2.4423828125,-4.9248046875,5.525390625
0.031,-3.68359375,-3.7236328125,5.8056640625
0.0315,-4.64453125,-2.7626953125,6.0859375
0.032,-5.125,-2.1220703125,6.2060546875
0.0325,-5.205078125,-1.521484375,5.8857421875
0.033,-5.0849609375,-0.640625,5.125
0.0335,-5.044921875,0.6005859375,4.1240234375
0.034,-5.0048828125,1.921875,3.123046875
0.0345,-5.0849609375,3.04296875,2.3623046875
0.035,-4.96484375,3.763671875,1.681640625
0.0355,-4.3642578125,4.1240234375,0.880859375
0.036,-3.36328125,4.484375,-0.400390625
0.0365,-2.2822265625,4.8447265625,-1.8017578125
0.037,-1.44140625,5.3251953125,-3.123046875
0.0375,-0.8408203125,5.7255859375,-4.1240234375
0.038,0.0400390625,5.6455078125,-4.8447265625
0.0385,1.12109375,4.96484375,-5.3251953125
0.039,2.40234375,3.8837890625,-5.7255859375
0.0395,3.6435546875,2.7626953125,-6.0458984375
0.04,4.484375,1.8818359375,-6.326171875
0.0405,4.8447265625,1.201171875,-6.3662109375
0.041,4.8447265625,0.48046875,-5.92578125
0.0415,4.6845703125,-0.640625,-5.0048828125
0.042,4.64453125,-1.8818359375,-3.923828125
0.0425,4.724609375,-3.203125,-2.9228515625
0.043,4.724609375,-4.1240234375,-2.162109375
0.0435,4.4443359375,-4.724609375,-1.44140625
0.044,3.6435546875,-5.0048828125,-0.5205078125
0.0445,2.5224609375,-5.3251953125,0.9609375
0.045,1.4013671875,-5.765625,2.40234375
0.0455,0.640625,-6.166015625,3.5634765625
0.046,0.0,-6.4462890625,4.484375
0.0465,-0.9609375,-6.1259765625,5.0849609375
0.047,-2.2021484375,-5.125,5.4853515625
0.0475,-3.4833984375,-3.923828125,5.765625
0.048,-4.564453125,-2.8427734375,6.0859375
0.0485,-5.205078125,-2.162109375,6.24609375
0.049,-5.3251953125,-1.4814453125,6.005859375
0.0495,-5.205078125,-0.6806640625,5.28515625
0.05,-5.0849609375,0.6005859375,4.32421875
0.0505,-5.0048828125,1.921875,3.1630859375
0.051,-5.0849609375,3.0830078125,2.2822265625
0.0515,-4.96484375,3.84375,1.5615234375
0.052,-4.4443359375,4.2841796875,0.80078125
0.0525,-3.4033203125,4.484375,-0.400390625
0.053,-2.322265625,4.8046875,-1.76171875
0.0535,-1.361328125,5.2451171875,-3.1630859375
0.054,-0.6806640625,5.6455078125,-4.2041015625
0.0545,0.1201171875,5.7255859375,-5.0048828125
0.055,1.0810546875,5.125,-5.4853515625
0.0555,2.40234375,4.00390625,-5.845703125
0.056,3.68359375,2.7626953125,-6.1259765625
0.0565,4.6044921875,1.76171875,-6.3662109375
0.057,5.044921875,1.0810546875,-6.4462890625
0.0575,5.0048828125,0.400390625,-6.1259765625
0.058,4.8447265625,-0.640625,-5.125
0.0585,4.724609375,-1.841796875,-4.00390625
0.059,4.724609375,-3.203125,-2.8828125
0.0595,4.724609375,-4.244140625,-2.08203125
0.06,4.484375,-4.9248046875,-1.4013671875
0.0605,3.8037109375,-5.205078125,-0.5205078125
0.061,2.6826171875,-5.4453125,0.8408203125
0.0615,1.44140625,-5.7255859375,2.322265625
0.062,0.6005859375,-6.166015625,3.6435546875
0.0625,-0.16015625,-6.486328125,4.6044921875
0.063,-1.0009765625,-6.2861328125,5.2451171875
0.0635,-2.1220703125,-5.4052734375,5.6455078125
0.064,-3.443359375,-4.2041015625,5.92578125
0.0645,-4.64453125,-2.962890625,6.166015625
0.065,-5.4052734375,-2.08203125,6.3662109375
0.0655,-5.6455078125,-1.44140625,6.24609375
0.066,-5.4853515625,-0.640625,5.60546875
0.0665,-5.2451171875,0.560546875,4.5244140625
0.067,-5.125,1.921875,3.3232421875
0.0675,-5.125,3.1630859375,2.2421875
0.068,-5.044921875,4.083984375,1.4814453125
0.0685,-4.64453125,4.5244140625,0.7607421875
0.069,-3.68359375,4.724609375,-0.3603515625
0.0695,-2.4423828125,4.96484375,-1.7216796875
0.07,-1.28125,5.28515625,-3.2431640625
0.0705,-0.5205078125,5.7255859375,-4.404296875
0.071,0.240234375,5.8857421875,-5.2451171875
0.0715,1.1611328125,5.4052734375,-5.765625
0.072,2.482421875,4.2041015625,-6.1259765625
0.0725,3.8037109375,2.8427734375,-6.3662109375
0.073,4.8447265625,1.681640625,-6.56640625
0.0735,5.365234375,0.880859375,-6.646484375
0.074,5.4453125,0.2802734375,-6.326171875
0.0745,5.205078125,-0.80078125,-5.4052734375
0.075,4.96484375,-2.0419921875,-4.1640625
0.0755,4.8046875,-3.4833984375,-2.8427734375
0.076,4.8046875,-4.64453125,-1.841796875
0.0765,4.6044921875,-5.4052734375,-1.12109375
0.077,3.8837890625,-5.685546875,-0.2802734375
0.0775,2.6826171875,-5.765625,1.0810546875
0.078,1.3212890625,-6.005859375,2.642578125
0.0785,0.240234375,-6.3662109375,4.083984375
0.079,-0.6005859375,-6.6865234375,5.0849609375
0.0795,-1.3212890625,-6.5263671875,5.8056640625
0.08,-2.4423828125,-5.6455078125,6.2060546875
0.0805,-3.84375,-4.244140625,6.4462890625
0.081,-5.125,-2.8427734375,6.56640625
0.0815,-6.005859375,-1.76171875,6.6865234375
0.082,-6.166015625,-1.0009765625,6.5263671875
0.0825,-6.005859375,-0.240234375,5.845703125
0.083,-5.6455078125,1.0009765625,4.6044921875
0.0835,-5.4052734375,2.4423828125,3.1630859375
0.084,-5.28515625,3.84375,1.921875
0.0845,-5.125,4.7646484375,1.041015625
0.085,-4.6845703125,5.2451171875,0.2802734375
0.0855,-3.7236328125,5.365234375,-0.7607421875
0.086,-2.2421875,5.4052734375,-2.2822265625
0.0865,-0.8408203125,5.60546875,-3.84375
0.087,0.16015625,5.92578125,-5.0849609375
0.0875,0.80078125,6.0859375,-5.92578125
0.088,1.681640625,5.5654296875,-6.4462890625
0.0885,2.962890625,4.2841796875,-6.7265625
0.089,4.32421875,2.802734375,-6.8466796875
0.0895,5.4453125,1.4013671875,-6.966796875
0.09,6.005859375,0.5205078125,-6.9267578125
0.0905,6.0458984375,-0.3203125,-6.56640625
0.091,5.7255859375,-1.1611328125,-5.685546875
0.0915,5.28515625,-2.482421875,-4.2041015625
0.092,5.0048828125,-3.8837890625,-2.72265625
0.0925,4.9248046875,-5.1650390625,-1.5615234375
0.093,4.64453125,-5.92578125,-0.720703125
0.0935,3.9638671875,-6.24609375,0.16015625
0.094,2.7626953125,-6.24609375,1.28125
0.0945,1.201171875,-6.2861328125,2.9228515625
0.095,-0.240234375,-6.4462890625,4.484375
0.0955,-1.0009765625,-6.7265625,5.4853515625
0.096,-1.6015625,-6.6865234375,6.2060546875
0.0965,-2.6025390625,-5.9658203125,6.56640625
0.097,-4.00390625,-4.5244140625,6.7666015625
0.0975,-5.28515625,-3.0830078125,6.8466796875
0.098,-6.2861328125,-1.681640625,6.88671875
0.0985,-6.56640625,-0.9208984375,6.7666015625
0.099,-6.40625,-0.16015625,6.2060546875
0.0995,-6.0458984375,0.9208984375,5.0849609375
0.1,-5.60546875,2.2822265625,3.5634765625
0.1005,-5.365234375,3.7236328125,2.162109375
0.101,-5.2451171875,4.8447265625,1.0810546875
0.1015,-4.8447265625,5.4052734375,0.3203125
0.102,-4.00390625,5.60546875,-0.640625
0.1025,-2.642578125,5.5654296875,-1.9619140625
0.103,-1.1611328125,5.7255859375,-3.5634765625
0.1035,0.1201171875,5.92578125,-4.96484375
0.104,0.7607421875,6.1259765625,-5.8857421875
0.1045,1.4814453125,5.8857421875,-6.5263671875
0.105,2.6025390625,4.8447265625,-6.8466796875
0.1055,4.00390625,3.36328125,-7.0068359375
0.106,5.2451171875,1.8818359375,-7.046875
0.1065,6.0458984375,0.7607421875,-7.046875
0.107,6.2060546875,0.0400390625,-6.8466796875
0.1075,6.005859375,-0.8408203125,-6.1259765625
0.108,5.4853515625,-2.001953125,-4.8046875
0.1085,5.1650390625,-3.4833984375,-3.283203125
0.109,5.0048828125,-4.8447265625,-1.921875
0.1095,4.8447265625,-5.8056640625,-1.0009765625
0.11,4.3642578125,-6.2861328125,-0.240234375
0.1105,3.3232421875,-6.326171875,0.80078125
0.111,1.8017578125,-6.3662109375,2.3623046875
0.1115,0.2802734375,-6.4462890625,3.9638671875
0.112,-0.80078125,-6.7265625,5.2451171875
0.1125,-1.4013671875,-6.88671875,6.0859375
0.113,-2.2822265625,-6.40625,6.5263671875
0.1135,-3.5634765625,-5.125,6.7265625
0.114,-4.884765625,-3.5634765625,6.88671875
0.1145,-6.0458984375,-2.08203125,6.9267578125
0.115,-6.56640625,-1.1611328125,6.88671875
0.1155,-6.56640625,-0.400390625,6.5263671875
0.116,-6.2861328125,0.560546875,5.60546875
0.1165,-5.8056640625,1.841796875,4.1240234375
0.117,-5.4853515625,3.3232421875,2.6025390625
0.1175,-5.365234375,4.6044921875,1.4013671875
0.118,-5.0849609375,5.365234375,0.6005859375
0.1185,-4.4443359375,5.685546875,-0.3203125
0.119,-3.1630859375,5.6455078125,-1.4814453125
0.1195,-1.6416015625,5.7255859375,-3.0830078125
0.12,-0.2001953125,5.8857421875,-4.6845703125
0.1205,0.640625,6.1259765625,-5.765625
0.121,1.28125,6.0859375,-6.4462890625
0.1215,2.2421875,5.28515625,-6.9267578125
0.122,3.68359375,3.8837890625,-7.0869140625
0.1225,4.96484375,2.3623046875,-7.126953125
0.123,6.005859375,1.0009765625,-7.1669921875
0.1235,6.3662109375,0.2001953125,-7.046875
0.124,6.2060546875,-0.640625,-6.486328125
0.1245,5.765625,-1.681640625,-5.3251953125
0.125,5.4052734375,-3.0830078125,-3.8037109375
0.1255,5.0849609375,-4.6044921875,-2.2822265625
0.126,4.96484375,-5.7255859375,-1.201171875
0.1265,4.564453125,-6.2861328125,-0.400390625
0.127,3.68359375,-6.4462890625,0.6005859375
0.1275,2.2421875,-6.40625,1.921875
0.128,0.6005859375,-6.486328125,3.603515625
0.1285,-0.640625,-6.6865234375,5.0048828125
0.129,-1.28125,-6.88671875,5.92578125
0.1295,-2.08203125,-6.646484375,6.5263671875
0.13,-3.1630859375,-5.5654296875,6.806640625
0.1305,-4.5244140625,-4.00390625,6.9267578125
0.131,-5.765625,-2.482421875,6.9267578125
0.1315,-6.486328125,-1.3212890625,6.88671875
0.132,-6.6064453125,-0.640625,6.6865234375
0.1325,-6.3662109375,0.240234375,5.92578125
0.133,-5.845703125,1.3212890625,4.6044921875
0.1335,-5.4853515625,2.72265625,3.1630859375
0.134,-5.28515625,4.1240234375,1.8017578125
0.1345,-5.125,5.0048828125,0.880859375
0.135,-4.6845703125,5.4453125,0.16015625
0.1355,-3.68359375,5.525390625,-0.9208984375
0.136,-2.2421875,5.525390625,-2.2822265625
0.1365,-0.80078125,5.60546875,-3.8837890625
0.137,0.240234375,5.8857421875,-5.125
0.1375,0.80078125,6.0458984375,-5.92578125
0.138,1.6015625,5.7255859375,-6.40625
0.1385,2.802734375,4.5244140625,-6.6865234375
0.139,4.1240234375,3.123046875,-6.806640625
0.1395,5.2451171875,1.7216796875,-6.88671875
0.14,5.8857421875,0.7607421875,-6.9267578125
0.1405,5.9658203125,0.080078125,-6.6865234375
0.141,5.7255859375,-0.80078125,-5.92578125
0.1415,5.28515625,-1.9619140625,-4.6044921875
0.142,5.0048828125,-3.36328125,-3.1630859375
0.1425,4.9248046875,-4.6845703125,-1.9619140625
0.143,4.7646484375,-5.525390625,-1.1611328125
0.1435,4.2041015625,-5.92578125,-0.400390625
0.144,3.1630859375,-6.0458984375,0.7607421875
0.1445,1.7216796875,-6.1259765625,2.2421875
0.145,0.3603515625,-6.3662109375,3.763671875
0.1455,-0.5205078125,-6.6865234375,4.9248046875
0.146,-1.1611328125,-6.7265625,5.7255859375
0.1465,-2.001953125,-6.166015625,6.1259765625
0.147,-3.3232421875,-4.9248046875,6.40625
0.1475,-4.6044921875,-3.4833984375,6.56640625
0.148,-5.6455078125,-2.2421875,6.6865234375
0.1485,-6.1259765625,-1.44140625,6.6865234375
0.149,-6.1259765625,-0.7607421875,6.2861328125
0.1495,-5.765625,0.2802734375,5.365234375
0.15,-5.4453125,1.521484375,4.0439453125
0.1505,-5.28515625,2.9228515625,2.6826171875
0.151,-5.2451171875,4.083984375,1.6416015625
0.1515,-5.0048828125,4.8046875,0.9609375
0.152,-4.32421875,5.044921875,0.1201171875
0.1525,-3.0830078125,5.0849609375,-1.1611328125
0.153,-1.8017578125,5.28515625,-2.642578125
0.1535,-0.640625,5.525390625,-4.1240234375
0.154,0.1201171875,5.8857421875,-5.0849609375
0.1545,0.7607421875,5.8857421875,-5.765625
0.155,1.76171875,5.0849609375,-6.1259765625
0.1555,3.123046875,3.8037109375,-6.40625
0.156,4.32421875,2.4423828125,-6.56640625
0.1565,5.2451171875,1.3212890625,-6.6865234375
0.157,5.5654296875,0.720703125,-6.6865234375
0.1575,5.4453125,0.0,-6.1259765625
0.158,5.0849609375,-1.041015625,-5.125
0.1585,4.8447265625,-2.322265625,-3.84375
0.159,4.8046875,-3.7236328125,-2.6025390625
0.1595,4.7646484375,-4.724609375,-1.76171875
0.16,4.484375,-5.3251953125,-1.0810546875
0.1605,3.68359375,-5.60546875,-0.240234375
0.161,2.482421875,-5.7255859375,1.12109375
0.1615,1.12109375,-5.92578125,2.6025390625
0.162,0.240234375,-6.24609375,3.9638671875
0.1625,-0.4404296875,-6.56640625,4.8447265625
0.163,-1.1611328125,-6.3662109375,5.4853515625
0.1635,-2.2822265625,-5.4453125,5.8056640625
0.164,-3.5634765625,-4.244140625,6.0859375
0.1645,-4.724609375,-2.962890625,6.24609375
0.165,-5.4453125,-2.08203125,6.40625
0.1655,-5.685546875,-1.4814453125,6.326171875
0.166,-5.525390625,-0.7607421875,5.7255859375
0.1665,-5.28515625,0.400390625,4.724609375
0.167,-5.125,1.681640625,3.5234375
0.1675,-5.125,2.962890625,2.482421875
0.168,-5.0849609375,3.8837890625,1.681640625
0.1685,-4.724609375,4.3642578125,0.9609375
0.169,-3.84375,4.6044921875,0.0400390625
0.1695,-2.7626953125,4.8447265625,-1.4013671875
0.17,-1.5615234375,5.1650390625,-2.8828125
0.1705,-0.80078125,5.60546875,-4.00390625
0.171,-0.16015625,5.845703125,-4.884765625
0.1715,0.7607421875,5.4853515625,-5.4453125
0.172,1.9619140625,4.5244140625,-5.8056640625
0.1725,3.2431640625,3.3232421875,-6.1259765625
0.173,4.32421875,2.162109375,-6.3662109375
0.1735,4.96484375,1.4013671875,-6.5263671875
0.174,5.125,0.80078125,-6.326171875
0.1745,5.0048828125,0.0,-5.6455078125
0.175,4.8046875,-1.28125,-4.564453125
0.1755,4.724609375,-2.6025390625,-3.36328125
0.176,4.7646484375,-3.8037109375,-2.4423828125
0.1765,4.64453125,-4.64453125,-1.76171875
0.177,4.1640625,-5.0849609375,-1.0009765625
0.1775,3.1630859375,-5.28515625,0.16015625
0.178,2.001953125,-5.525390625,1.5615234375
0.1785,0.9609375,-5.8857421875,3.0029296875
0.179,0.2802734375,-6.326171875,4.0439453125
0.1795,-0.48046875,-6.4462890625,4.8447265625
0.18,-1.4013671875,-5.8857421875,5.3251953125
0.1805,-2.642578125,-4.8046875,5.6455078125
0.181,-3.8837890625,-3.5634765625,5.8857421875
0.1815,-4.8447265625,-2.5625,6.1259765625
0.182,-5.28515625,-1.9619140625,6.24609375
0.1825,-5.3251953125,-1.3212890625,5.8857421875
0.183,-5.125,-0.4404296875,5.0849609375
0.1835,-5.0048828125,0.8408203125,4.0439453125
0.184,-5.0048828125,2.162109375,3.0029296875
0.1845,-5.044921875,3.1630859375,2.2021484375
0.185,-4.884765625,3.84375,1.521484375
0.1855,-4.2841796875,4.2041015625,0.6806640625
0.186,-3.2431640625,4.484375,-0.6005859375
0.1865,-2.162109375,4.8447265625,-1.9619140625
0.187,-1.3212890625,5.3251953125,-3.2431640625
0.1875,-0.6806640625,5.7255859375,-4.2041015625
0.188,0.1201171875,5.6455078125,-4.9248046875
0.1885,1.201171875,4.9248046875,-5.4052734375
0.189,2.482421875,3.84375,-5.765625
0.1895,3.68359375,2.72265625,-6.0859375
0.19,4.484375,1.841796875,-6.3662109375
0.1905,4.8447265625,1.28125,-6.3662109375
0.191,4.8447265625,0.560546875,-5.92578125
0.1915,4.724609375,-0.6005859375,-5.0048828125
0.192,4.6044921875,-1.8017578125,-3.923828125
0.1925,4.724609375,-3.1630859375,-2.962890625
0.193,4.724609375,-4.1240234375,-2.2822265625
0.1935,4.4443359375,-4.724609375,-1.5615234375
0.194,3.68359375,-4.96484375,-0.6005859375
0.1945,2.6025390625,-5.3251953125,0.80078125
0.195,1.521484375,-5.6455078125,2.2421875
0.1955,0.7607421875,-6.1259765625,3.443359375
0.196,0.16015625,-6.4462890625,4.3642578125
0.1965,-0.8408203125,-6.166015625,4.96484375
0.197,-2.001953125,-5.205078125,5.4052734375
0.1975,-3.283203125,-4.083984375,5.7255859375
0.198,-4.4443359375,-2.962890625,6.005859375
0.1985,-5.0849609375,-2.2822265625,6.2060546875
0.199,-5.28515625,-1.6015625,6.0859375
0.1995,-5.1650390625,-0.80078125,5.4052734375
0.2,-5.044921875,0.3603515625,4.4443359375
0.2005,-5.0048828125,1.6015625,3.3232421875
0.201,-5.125,2.8427734375,2.482421875
0.2015,-5.0849609375,3.6435546875,1.76171875
0.202,-4.5244140625,4.1240234375,1.0009765625
0.2025,-3.603515625,4.404296875,-0.2001953125
0.203,-2.5224609375,4.7646484375,-1.521484375
0.2035,-1.521484375,5.1650390625,-2.962890625
0.204,-0.8408203125,5.60546875,-4.0439453125
0.2045,-0.16015625,5.7255859375,-4.8447265625
0.205,0.9208984375,5.205078125,-5.365234375
0.2055,2.2421875,4.1240234375,-5.765625
0.206,3.4833984375,2.8828125,-6.0458984375
0.2065,4.484375,1.921875,-6.326171875
0.207,4.96484375,1.2412109375,-6.4462890625
0.2075,5.0048828125,0.560546875,-6.0859375
0.208,4.8046875,-0.5205078125,-5.205078125
0.2085,4.6845703125,-1.7216796875,-4.1240234375
0.209,4.64453125,-3.0830078125,-2.962890625
0.2095,4.6845703125,-4.1640625,-2.2021484375
0.21,4.5244140625,-4.8447265625,-1.4814453125
0.2105,3.84375,-5.125,-0.640625
0.211,2.72265625,-5.3251953125,0.7607421875
0.2115,1.521484375,-5.685546875,2.2421875
0.212,0.6005859375,-6.1259765625,3.5234375
0.2125,0.0,-6.4462890625,4.484375
0.213,-0.880859375,-6.2861328125,5.1650390625
0.2135,-2.0419921875,-5.4453125,5.60546875
0.214,-3.36328125,-4.2041015625,5.8857421875
0.2145,-4.5244140625,-2.962890625,6.1259765625
0.215,-5.28515625,-2.1220703125,6.326171875
0.2155,-5.5654296875,-1.44140625,6.2060546875
0.216,-5.4453125,-0.6806640625,5.60546875
0.2165,-5.205078125,0.48046875,4.564453125
0.217,-5.0849609375,1.76171875,3.3232421875
0.2175,-5.125,3.04296875,2.2421875
0.218,-5.044921875,3.9638671875,1.521484375
0.2185,-4.64453125,4.484375,0.80078125
0.219,-3.68359375,4.64453125,-0.3203125
0.2195,-2.5224609375,4.9248046875,-1.6416015625
0.22,-1.3212890625,5.2451171875,-3.1630859375
0.2205,-0.6005859375,5.685546875,-4.32421875
0.221,0.16015625,5.845703125,-5.1650390625
0.2215,1.0810546875,5.365234375,-5.7255859375
0.222,2.3623046875,4.2041015625,-6.0458984375
0.2225,3.68359375,2.9228515625,-6.2861328125
0.223,4.7646484375,1.76171875,-6.4462890625
0.2235,5.28515625,1.0009765625,-6.56640625
0.224,5.365234375,0.3203125,-6.2861328125
0.2245,5.125,-0.720703125,-5.4052734375
0.225,4.884765625,-1.9619140625,-4.2041015625
0.2255,4.7646484375,-3.36328125,-2.962890625
0.226,4.8046875,-4.484375,-1.9619140625
0.2265,4.6044921875,-5.205078125,-1.28125
0.227,3.9638671875,-5.4853515625,-0.4404296875
0.2275,2.7626953125,-5.6455078125,0.880859375
0.228,1.4013671875,-5.845703125,2.40234375
