wavelength,x,y,z
0.0,-5.275146484375,1.291259765625,3.533447265625
0.0005,-4.954833984375,0.290283203125,4.093994140625
0.001,-4.314208984375,-0.790771484375,4.494384765625
0.0015,-3.913818359375,-1.551513671875,4.814697265625
0.002,-2.872802734375,-2.552490234375,4.814697265625
0.0025,-2.232177734375,-3.273193359375,4.894775390625
0.003,-1.111083984375,-4.514404296875,4.934814453125
0.0035,-0.070068359375,-4.794677734375,4.174072265625
0.004,0.530517578125,-5.275146484375,4.134033203125
0.0045,1.651611328125,-5.435302734375,3.133056640625
0.005,2.492431640625,-5.515380859375,2.452392578125
0.0055,3.493408203125,-5.515380859375,1.411376953125
0.006,4.334228515625,-5.435302734375,0.570556640625
0.0065,4.494384765625,-4.674560546875,-0.350341796875
0.007,4.854736328125,-4.554443359375,-0.870849609375
0.0075,4.814697265625,-3.433349609375,-1.951904296875
0.008,4.814697265625,-2.872802734375,-2.512451171875
0.0085,4.854736328125,-1.751708984375,-3.713623046875
0.009,4.414306640625,-0.710693359375,-4.154052734375
0.0095,3.893798828125,0.290283203125,-4.634521484375
0.01,3.253173828125,1.211181640625,-4.834716796875
0.0105,2.292236328125,2.292236328125,-4.954833984375
0.011,1.571533203125,3.052978515625,-4.954833984375
0.0115,0.490478515625,4.134033203125,-4.954833984375
0.012,-0.550537109375,4.374267578125,-4.154052734375
0.0125,-1.111083984375,4.854736328125,-4.033935546875
0.013,-2.432373046875,4.974853515625,-2.872802734375
0.0135,-3.153076171875,5.054931640625,-2.272216796875
0.014,-4.154052734375,4.934814453125,-1.151123046875
0.0145,-4.794677734375,4.734619140625,-0.310302734375
0.015,-4.874755859375,3.973876953125,0.530517578125
0.0155,-5.195068359375,3.693603515625,1.091064453125
0.016,-5.155029296875,2.532470703125,2.212158203125
0.0165,-5.074951171875,1.931884765625,2.652587890625
0.017,-5.074951171875,0.810791015625,3.773681640625
0.0175,-4.434326171875,-0.270263671875,4.093994140625
0.018,-4.073974609375,-1.031005859375,4.534423828125
0.0185,-3.273193359375,-1.951904296875,4.614501953125
0.019,-2.472412109375,-2.872802734375,4.734619140625
0.0195,-1.631591796875,-3.593505859375,4.574462890625
0.02,-0.710693359375,-4.474365234375,4.534423828125
0.0205,0.210205078125,-4.634521484375,3.813720703125
0.021,0.730712890625,-5.114990234375,3.733642578125
0.0215,2.011962890625,-5.155029296875,2.532470703125
0.022,2.572509765625,-5.275146484375,2.092041015625
0.0225,3.573486328125,-5.195068359375,1.010986328125
0.023,4.013916015625,-4.874755859375,0.290283203125
0.0235,4.214111328125,-4.394287109375,-0.390380859375
0.024,4.454345703125,-3.993896484375,-0.990966796875
0.0245,4.534423828125,-3.113037109375,-2.031982421875
0.025,4.454345703125,-2.432373046875,-2.592529296875
0.0255,4.534423828125,-1.471435546875,-3.593505859375
0.026,3.773681640625,-0.350341796875,-3.873779296875
0.0265,3.613525390625,0.370361328125,-4.434326171875
0.027,2.612548828125,1.451416015625,-4.514404296875
0.0275,2.092041015625,2.292236328125,-4.754638671875
0.028,1.171142578125,3.052978515625,-4.554443359375
0.0285,0.290283203125,3.853759765625,-4.474365234375
0.029,-0.590576171875,4.013916015625,-3.833740234375
0.0295,-1.231201171875,4.494384765625,-3.593505859375
0.03,-2.552490234375,4.614501953125,-2.432373046875
0.0305,-3.072998046875,4.614501953125,-1.951904296875
0.031,-4.033935546875,4.534423828125,-0.910888671875
0.0315,-4.314208984375,4.093994140625,-0.190185546875
0.032,-4.554443359375,3.693603515625,0.490478515625
0.0325,-4.674560546875,3.012939453125,1.211181640625
0.033,-4.834716796875,2.252197265625,2.052001953125
0.0335,-4.594482421875,1.411376953125,2.612548828125
0.034,-4.634521484375,0.610595703125,3.533447265625
0.0345,-3.833740234375,-0.390380859375,3.693603515625
0.035,-3.753662109375,-0.990966796875,4.174072265625
0.0355,-2.632568359375,-2.112060546875,4.174072265625
0.036,-2.272216796875,-2.712646484375,4.374267578125
0.0365,-1.271240234375,-3.513427734375,4.134033203125
0.037,-0.590576171875,-3.993896484375,3.933837890625
0.0375,0.130126953125,-4.234130859375,3.493408203125
0.038,0.890869140625,-4.554443359375,3.052978515625
0.0385,1.891845703125,-4.714599609375,2.212158203125
0.039,2.412353515625,-4.714599609375,1.691650390625
0.0395,3.173095703125,-4.754638671875,0.970947265625
0.04,3.333251953125,-4.194091796875,0.290283203125
0.0405,3.733642578125,-4.194091796875,-0.190185546875
0.041,3.773681640625,-3.353271484375,-0.990966796875
0.0415,4.013916015625,-2.992919921875,-1.671630859375
0.042,3.893798828125,-2.031982421875,-2.392333984375
0.0425,3.893798828125,-1.351318359375,-3.032958984375
0.043,3.253173828125,-0.390380859375,-3.313232421875
0.0435,3.173095703125,0.210205078125,-3.833740234375
0.044,2.292236328125,1.291259765625,-3.953857421875
0.0445,2.011962890625,1.891845703125,-4.234130859375
0.045,1.091064453125,2.692626953125,-4.154052734375
0.0455,0.370361328125,3.093017578125,-3.833740234375
0.046,-0.310302734375,3.573486328125,-3.633544921875
0.0465,-1.231201171875,3.853759765625,-2.992919921875
0.047,-2.072021484375,4.134033203125,-2.432373046875
0.0475,-2.712646484375,4.053955078125,-1.711669921875
0.048,-3.393310546875,4.134033203125,-1.111083984375
0.0485,-3.553466796875,3.533447265625,-0.390380859375
0.049,-4.033935546875,3.533447265625,0.050048828125
0.0495,-4.114013671875,2.572509765625,1.010986328125
0.05,-4.314208984375,2.292236328125,1.611572265625
0.0505,-4.194091796875,1.291259765625,2.412353515625
0.051,-4.033935546875,0.650634765625,2.932861328125
0.0515,-3.553466796875,-0.270263671875,3.333251953125
0.052,-3.313232421875,-0.910888671875,3.653564453125
0.0525,-2.552490234375,-1.871826171875,3.853759765625
0.053,-2.072021484375,-2.432373046875,3.893798828125
0.0535,-1.311279296875,-3.193115234375,3.893798828125
0.054,-0.630615234375,-3.473388671875,3.493408203125
0.0545,0.010009765625,-3.993896484375,3.373291015625
0.055,0.970947265625,-4.154052734375,2.532470703125
0.0555,1.651611328125,-4.434326171875,2.172119140625
0.056,2.292236328125,-4.274169921875,1.411376953125
0.0565,2.772705078125,-4.354248046875,0.970947265625
0.057,2.932861328125,-3.873779296875,0.330322265625
0.0575,3.293212890625,-3.793701171875,-0.150146484375
0.058,3.493408203125,-2.992919921875,-0.990966796875
0.0585,3.573486328125,-2.552490234375,-1.551513671875
0.059,3.653564453125,-1.751708984375,-2.352294921875
0.0595,3.253173828125,-1.071044921875,-2.712646484375
0.06,3.052978515625,-0.310302734375,-3.193115234375
0.0605,2.532470703125,0.490478515625,-3.473388671875
0.061,2.212158203125,1.291259765625,-3.873779296875
0.0615,1.531494140625,1.891845703125,-3.753662109375
0.062,0.970947265625,2.532470703125,-3.833740234375
0.0625,0.250244140625,2.852783203125,-3.393310546875
0.063,-0.390380859375,3.373291015625,-3.353271484375
0.0635,-1.431396484375,3.573486328125,-2.512451171875
0.064,-2.031982421875,3.853759765625,-2.192138671875
0.0645,-2.752685546875,3.733642578125,-1.431396484375
0.065,-3.113037109375,3.653564453125,-0.990966796875
0.0655,-3.473388671875,3.333251953125,-0.350341796875
0.066,-3.713623046875,3.012939453125,0.290283203125
0.0665,-3.993896484375,2.492431640625,1.131103515625
0.067,-3.993896484375,1.851806640625,1.691650390625
0.0675,-4.114013671875,1.131103515625,2.532470703125
0.068,-3.553466796875,0.290283203125,2.812744140625
0.0685,-3.553466796875,-0.350341796875,3.373291015625
0.069,-2.752685546875,-1.271240234375,3.533447265625
0.0695,-2.432373046875,-1.951904296875,3.853759765625
0.07,-1.631591796875,-2.592529296875,3.653564453125
0.0705,-1.151123046875,-3.193115234375,3.693603515625
0.071,-0.390380859375,-3.473388671875,3.253173828125
0.0715,0.290283203125,-3.913818359375,3.012939453125
0.072,1.291259765625,-4.154052734375,2.252197265625
0.0725,1.851806640625,-4.314208984375,1.771728515625
0.073,2.532470703125,-4.314208984375,1.171142578125
0.0735,2.692626953125,-3.993896484375,0.650634765625
0.074,3.133056640625,-3.833740234375,0.130126953125
0.0745,3.253173828125,-3.153076171875,-0.630615234375
0.075,3.573486328125,-2.752685546875,-1.311279296875
0.0755,3.373291015625,-1.951904296875,-1.951904296875
0.076,3.493408203125,-1.391357421875,-2.592529296875
0.0765,2.852783203125,-0.510498046875,-2.872802734375
0.077,2.852783203125,0.050048828125,-3.353271484375
0.0775,2.052001953125,1.091064453125,-3.553466796875
0.078,1.771728515625,1.651611328125,-3.793701171875
0.0785,0.970947265625,2.332275390625,-3.713623046875
0.079,0.490478515625,2.732666015625,-3.553466796875
0.0795,-0.270263671875,3.173095703125,-3.233154296875
0.08,-1.111083984375,3.493408203125,-2.712646484375
0.0805,-2.031982421875,3.773681640625,-2.152099609375
0.081,-2.552490234375,3.653564453125,-1.591552734375
0.0815,-3.153076171875,3.773681640625,-1.071044921875
0.082,-3.313232421875,3.293212890625,-0.390380859375
0.0825,-3.753662109375,3.213134765625,0.130126953125
0.083,-3.873779296875,2.412353515625,1.010986328125
0.0835,-4.154052734375,1.971923828125,1.651611328125
0.084,-3.913818359375,1.091064453125,2.372314453125
0.0845,-3.873779296875,0.490478515625,2.892822265625
0.085,-3.313232421875,-0.470458984375,3.213134765625
0.0855,-3.072998046875,-1.111083984375,3.653564453125
0.086,-2.312255859375,-2.112060546875,3.853759765625
0.0865,-1.751708984375,-2.632568359375,3.813720703125
0.087,-1.071044921875,-3.353271484375,3.813720703125
0.0875,-0.390380859375,-3.633544921875,3.373291015625
0.088,0.330322265625,-4.073974609375,3.133056640625
0.0885,1.371337890625,-4.354248046875,2.332275390625
0.089,2.252197265625,-4.594482421875,1.731689453125
0.0895,2.692626953125,-4.314208984375,0.970947265625
0.09,3.173095703125,-4.314208984375,0.570556640625
0.0905,3.253173828125,-3.713623046875,-0.150146484375
0.091,3.573486328125,-3.433349609375,-0.710693359375
0.0915,3.773681640625,-2.592529296875,-1.751708984375
0.092,3.773681640625,-1.951904296875,-2.312255859375
0.0925,3.533447265625,-1.071044921875,-2.992919921875
0.093,3.173095703125,-0.350341796875,-3.313232421875
0.0935,2.692626953125,0.490478515625,-3.593505859375
0.094,2.172119140625,1.291259765625,-3.873779296875
0.0945,1.491455078125,2.252197265625,-4.114013671875
0.095,0.730712890625,2.692626953125,-3.793701171875
0.0955,0.210205078125,3.293212890625,-3.833740234375
0.096,-0.630615234375,3.453369140625,-3.193115234375
0.0965,-1.311279296875,3.853759765625,-2.912841796875
0.097,-2.512451171875,3.973876953125,-1.951904296875
0.0975,-3.193115234375,4.093994140625,-1.311279296875
0.098,-3.593505859375,3.733642578125,-0.550537109375
0.0985,-3.953857421875,3.653564453125,-0.070068359375
0.099,-4.073974609375,2.972900390625,0.650634765625
0.0995,-4.274169921875,2.532470703125,1.291259765625
0.1,-4.514404296875,1.691650390625,2.332275390625
0.1005,-4.194091796875,0.930908203125,2.772705078125
0.101,-4.114013671875,0.130126953125,3.493408203125
0.1015,-3.513427734375,-0.750732421875,3.653564453125
0.102,-3.072998046875,-1.431396484375,3.973876953125
0.1025,-2.312255859375,-2.432373046875,4.134033203125
0.103,-1.591552734375,-3.313232421875,4.294189453125
0.1035,-0.670654296875,-3.713623046875,3.773681640625
0.104,-0.190185546875,-4.314208984375,3.853759765625
0.1045,0.770751953125,-4.474365234375,3.012939453125
0.105,1.531494140625,-4.794677734375,2.612548828125
0.1055,2.732666015625,-4.954833984375,1.571533203125
0.106,3.293212890625,-4.754638671875,0.890869140625
0.1065,3.693603515625,-4.434326171875,0.130126953125
0.107,3.973876953125,-4.114013671875,-0.390380859375
0.1075,4.093994140625,-3.433349609375,-1.191162109375
0.108,4.134033203125,-2.752685546875,-1.911865234375
0.1085,4.414306640625,-1.911865234375,-2.992919921875
0.109,3.813720703125,-0.910888671875,-3.393310546875
0.1095,3.733642578125,-0.150146484375,-3.993896484375
0.11,2.852783203125,0.850830078125,-4.073974609375
0.1105,2.412353515625,1.571533203125,-4.394287109375
0.111,1.451416015625,2.652587890625,-4.474365234375
0.1115,0.610595703125,3.493408203125,-4.434326171875
0.112,-0.230224609375,3.733642578125,-3.833740234375
0.1125,-0.790771484375,4.214111328125,-3.793701171875
0.113,-1.951904296875,4.294189453125,-2.712646484375
0.1135,-2.632568359375,4.494384765625,-2.232177734375
0.114,-3.833740234375,4.614501953125,-1.151123046875
0.1145,-4.194091796875,4.134033203125,-0.350341796875
0.115,-4.554443359375,3.893798828125,0.290283203125
0.1155,-4.714599609375,3.333251953125,1.010986328125
0.116,-4.834716796875,2.532470703125,1.771728515625
0.1165,-4.794677734375,1.771728515625,2.532470703125
0.117,-4.914794921875,0.890869140625,3.533447265625
0.1175,-4.154052734375,-0.270263671875,3.853759765625
0.118,-4.114013671875,-0.870849609375,4.414306640625
0.1185,-3.032958984375,-1.951904296875,4.414306640625
0.119,-2.552490234375,-2.712646484375,4.614501953125
0.1195,-1.471435546875,-3.753662109375,4.534423828125
0.12,-0.630615234375,-4.434326171875,4.374267578125
0.1205,0.210205078125,-4.754638671875,3.813720703125
0.121,0.970947265625,-5.155029296875,3.493408203125
0.1215,2.172119140625,-5.195068359375,2.412353515625
0.122,2.812744140625,-5.235107421875,1.891845703125
0.1225,3.893798828125,-5.355224609375,0.810791015625
0.123,4.134033203125,-4.674560546875,0.010009765625
0.1235,4.494384765625,-4.474365234375,-0.630615234375
0.124,4.614501953125,-3.673583984375,-1.471435546875
0.1245,4.654541015625,-2.912841796875,-2.312255859375
0.125,4.534423828125,-1.951904296875,-3.072998046875
0.1255,4.574462890625,-1.031005859375,-3.993896484375
0.126,3.693603515625,0.130126953125,-4.234130859375
0.1265,3.533447265625,0.770751953125,-4.754638671875
0.127,2.292236328125,2.092041015625,-4.754638671875
0.1275,1.771728515625,2.772705078125,-4.874755859375
0.128,0.690673828125,3.813720703125,-4.794677734375
0.1285,-0.270263671875,4.334228515625,-4.394287109375
0.129,-1.031005859375,4.534423828125,-3.833740234375
0.1295,-1.991943359375,4.974853515625,-3.273193359375
0.13,-3.193115234375,4.974853515625,-2.112060546875
0.1305,-3.833740234375,4.814697265625,-1.431396484375
0.131,-4.834716796875,4.854736328125,-0.430419921875
0.1315,-4.914794921875,4.013916015625,0.490478515625
0.132,-5.195068359375,3.813720703125,0.970947265625
0.1325,-5.275146484375,2.732666015625,2.092041015625
0.133,-5.275146484375,1.971923828125,2.852783203125
0.1335,-4.994873046875,0.930908203125,3.613525390625
0.134,-4.914794921875,0.010009765625,4.454345703125
0.1345,-3.913818359375,-1.151123046875,4.534423828125
0.135,-3.753662109375,-1.791748046875,4.974853515625
0.1355,-2.392333984375,-3.193115234375,4.934814453125
0.136,-1.791748046875,-3.753662109375,4.854736328125
0.1365,-0.630615234375,-4.754638671875,4.614501953125
0.137,0.290283203125,-5.155029296875,4.134033203125
0.1375,1.010986328125,-5.275146484375,3.613525390625
0.138,2.052001953125,-5.595458984375,2.892822265625
0.1385,3.213134765625,-5.635498046875,1.771728515625
0.139,3.733642578125,-5.315185546875,1.010986328125
0.1395,4.614501953125,-5.275146484375,0.090087890625
0.14,4.614501953125,-4.434326171875,-0.710693359375
0.1405,4.854736328125,-4.154052734375,-1.231201171875
0.141,4.894775390625,-2.992919921875,-2.432373046875
0.1415,4.854736328125,-2.312255859375,-3.072998046875
0.142,4.534423828125,-1.151123046875,-3.873779296875
0.1425,4.334228515625,-0.270263671875,-4.554443359375
0.143,3.333251953125,0.850830078125,-4.634521484375
0.1435,3.052978515625,1.571533203125,-4.994873046875
0.144,1.771728515625,2.932861328125,-4.994873046875
0.1445,1.131103515625,3.373291015625,-4.914794921875
0.145,0.010009765625,4.294189453125,-4.674560546875
0.1455,-0.870849609375,4.614501953125,-4.073974609375
0.146,-1.591552734375,4.854736328125,-3.553466796875
0.1465,-2.752685546875,5.054931640625,-2.632568359375
0.147,-3.833740234375,5.094970703125,-1.671630859375
0.1475,-4.354248046875,4.694580078125,-0.790771484375
0.148,-5.074951171875,4.614501953125,0.050048828125
0.1485,-5.034912109375,3.693603515625,0.930908203125
0.149,-5.275146484375,3.453369140625,1.411376953125
0.1495,-5.315185546875,2.172119140625,2.692626953125
0.15,-5.195068359375,1.531494140625,3.253173828125
0.1505,-4.834716796875,0.330322265625,4.013916015625
0.151,-4.514404296875,-0.550537109375,4.494384765625
0.1515,-3.593505859375,-1.591552734375,4.614501953125
0.152,-3.193115234375,-2.312255859375,4.814697265625
0.1525,-1.951904296875,-3.673583984375,4.934814453125
0.153,-1.231201171875,-4.073974609375,4.574462890625
0.1535,-0.230224609375,-4.834716796875,4.454345703125
0.154,0.610595703125,-4.994873046875,3.733642578125
0.1545,1.291259765625,-5.275146484375,3.333251953125
0.155,2.532470703125,-5.395263671875,2.252197265625
0.1555,3.373291015625,-5.435302734375,1.451416015625
0.156,3.853759765625,-4.994873046875,0.530517578125
0.1565,4.494384765625,-4.874755859375,-0.150146484375
0.157,4.414306640625,-3.993896484375,-0.950927734375
0.1575,4.614501953125,-3.713623046875,-1.431396484375
0.158,4.654541015625,-2.552490234375,-2.632568359375
0.1585,4.494384765625,-1.871826171875,-3.113037109375
0.159,4.214111328125,-0.790771484375,-3.873779296875
0.1595,3.693603515625,0.090087890625,-4.194091796875
0.16,3.012939453125,1.010986328125,-4.354248046875
0.1605,2.412353515625,1.811767578125,-4.634521484375
0.161,1.531494140625,2.892822265625,-4.834716796875
0.1615,0.730712890625,3.333251953125,-4.354248046875
0.162,-0.110107421875,4.134033203125,-4.354248046875
0.1625,-0.990966796875,4.214111328125,-3.553466796875
0.163,-1.631591796875,4.614501953125,-3.313232421875
0.1635,-2.912841796875,4.694580078125,-2.152099609375
0.164,-3.633544921875,4.734619140625,-1.471435546875
0.1645,-4.154052734375,4.334228515625,-0.590576171875
0.165,-4.634521484375,4.134033203125,0.050048828125
0.1655,-4.674560546875,3.373291015625,0.890869140625
0.166,-4.834716796875,2.932861328125,1.451416015625
0.1665,-4.994873046875,1.931884765625,2.612548828125
0.167,-4.674560546875,1.171142578125,3.052978515625
0.1675,-4.554443359375,0.170166015625,3.893798828125
0.168,-3.833740234375,-0.830810546875,3.973876953125
0.1685,-3.473388671875,-1.591552734375,4.374267578125
0.169,-2.552490234375,-2.552490234375,4.414306640625
0.1695,-1.791748046875,-3.433349609375,4.614501953125
0.17,-0.910888671875,-3.833740234375,4.093994140625
0.1705,-0.270263671875,-4.514404296875,4.134033203125
0.171,0.610595703125,-4.514404296875,3.253173828125
0.1715,1.291259765625,-4.914794921875,2.972900390625
0.172,2.532470703125,-4.994873046875,1.851806640625
0.1725,3.093017578125,-4.874755859375,1.211181640625
0.173,3.613525390625,-4.594482421875,0.410400390625
0.1735,3.853759765625,-4.234130859375,-0.150146484375
0.174,3.973876953125,-3.713623046875,-0.790771484375
0.1745,4.013916015625,-3.113037109375,-1.471435546875
0.175,4.254150390625,-2.352294921875,-2.432373046875
0.1755,3.813720703125,-1.511474609375,-2.832763671875
0.176,3.853759765625,-0.750732421875,-3.513427734375
0.1765,2.972900390625,0.130126953125,-3.633544921875
0.177,2.892822265625,0.690673828125,-4.194091796875
0.1775,1.931884765625,1.851806640625,-4.154052734375
0.178,1.451416015625,2.452392578125,-4.274169921875
0.1785,0.570556640625,2.972900390625,-3.873779296875
0.179,0.010009765625,3.493408203125,-3.833740234375
0.1795,-0.790771484375,3.693603515625,-3.193115234375
0.18,-1.551513671875,4.013916015625,-2.872802734375
0.1805,-2.632568359375,4.214111328125,-1.951904296875
0.181,-3.032958984375,4.013916015625,-1.391357421875
0.1815,-3.673583984375,4.013916015625,-0.710693359375
0.182,-3.793701171875,3.493408203125,-0.150146484375
0.1825,-4.154052734375,3.253173828125,0.530517578125
0.183,-4.234130859375,2.492431640625,1.291259765625
0.1835,-4.514404296875,1.971923828125,2.052001953125
0.184,-4.154052734375,0.970947265625,2.572509765625
0.1845,-4.194091796875,0.410400390625,3.253173828125
0.185,-3.353271484375,-0.630615234375,3.533447265625
0.1855,-3.273193359375,-1.191162109375,3.893798828125
0.186,-2.352294921875,-2.312255859375,4.013916015625
0.1865,-1.871826171875,-2.832763671875,4.053955078125
0.187,-1.031005859375,-3.473388671875,3.853759765625
0.1875,-0.430419921875,-3.833740234375,3.613525390625
0.188,0.410400390625,-4.154052734375,3.133056640625
