wavelength,x,y,z
0.0,-18.528076171875,21.591064453125,-3.713623046875
0.0005,-21.010498046875,19.509033203125,0.890869140625
0.001,-22.612060546875,16.706298828125,5.415283203125
0.0015,-22.572021484375,12.181884765625,9.899658203125
0.002,-23.332763671875,9.459228515625,13.503173828125
0.0025,-22.331787109375,5.615478515625,16.426025390625
0.003,-21.490966796875,1.771728515625,19.468994140625
0.0035,-19.288818359375,-2.392333984375,21.390869140625
0.004,-16.005615234375,-7.837646484375,23.552978515625
0.0045,-11.441162109375,-11.841552734375,22.912353515625
0.005,-8.238037109375,-15.244873046875,23.152587890625
0.0055,-4.514404296875,-17.647216796875,21.871337890625
0.006,0.570556640625,-20.489990234375,19.709228515625
0.0065,4.654541015625,-21.811279296875,16.986572265625
0.007,10.139892578125,-22.572021484375,12.422119140625
0.0075,13.543212890625,-22.652099609375,9.259033203125
0.008,17.106689453125,-22.051513671875,5.094970703125
0.0085,19.589111328125,-21.130615234375,1.651611328125
0.009,21.510986328125,-18.928466796875,-2.552490234375
0.0095,23.112548828125,-15.725341796875,-7.437255859375
0.01,22.552001953125,-11.040771484375,-11.521240234375
0.0105,23.272705078125,-8.478271484375,-14.884521484375
0.011,21.951416015625,-4.514404296875,-17.607177734375
0.0115,20.790283203125,-0.310302734375,-20.610107421875
0.012,18.227783203125,3.733642578125,-22.091552734375
0.0125,14.223876953125,9.259033203125,-23.613037109375
0.013,10.460205078125,12.542236328125,-23.132568359375
0.0135,6.856689453125,16.065673828125,-22.932373046875
0.014,3.213134765625,18.107666015625,-21.490966796875
0.0145,-1.631591796875,20.710205078125,-19.288818359375
0.015,-6.196044921875,21.951416015625,-16.085693359375
0.0155,-11.240966796875,22.111572265625,-11.361083984375
0.016,-14.323974609375,22.511962890625,-8.798583984375
0.0165,-17.647216796875,21.470947265625,-4.474365234375
0.017,-19.889404296875,20.189697265625,-0.990966796875
0.0175,-21.330810546875,17.747314453125,3.012939453125
0.018,-22.772216796875,14.103759765625,8.177978515625
0.0185,-22.131591796875,9.939697265625,11.821533203125
0.019,-22.692138671875,7.257080078125,15.104736328125
0.0195,-21.330810546875,3.613525390625,17.507080078125
0.02,-20.089599609375,-0.630615234375,20.469970703125
0.0205,-17.126708984375,-4.914794921875,21.751220703125
0.021,-12.922607421875,-10.199951171875,22.752197265625
0.0215,-9.959716796875,-13.082763671875,22.672119140625
0.022,-5.795654296875,-16.526123046875,21.951416015625
0.0225,-2.072021484375,-18.407958984375,20.189697265625
0.023,2.252197265625,-20.530029296875,18.187744140625
0.0235,7.497314453125,-21.851318359375,14.343994140625
0.024,11.661376953125,-21.571044921875,9.939697265625
0.0245,14.784423828125,-22.251708984375,7.537353515625
0.025,17.867431640625,-21.050537109375,3.213134765625
0.0255,20.269775390625,-19.609130859375,-0.630615234375
0.026,21.270751953125,-16.766357421875,-4.434326171875
0.0265,22.552001953125,-13.042724609375,-9.559326171875
0.027,22.071533203125,-9.399169921875,-12.722412109375
0.0275,22.351806640625,-6.276123046875,-16.165771484375
0.028,20.750244140625,-2.512451171875,-18.407958984375
0.0285,19.428955078125,1.731689453125,-21.250732421875
0.029,15.665283203125,6.536376953125,-22.291748046875
0.0295,11.501220703125,11.220947265625,-22.772216796875
0.03,9.018798828125,13.903564453125,-23.012451171875
0.0305,4.334228515625,17.306884765625,-21.731201171875
0.031,0.450439453125,19.308837890625,-19.889404296875
0.0315,-3.833740234375,20.990478515625,-17.447021484375
0.032,-9.319091796875,22.311767578125,-13.403076171875
0.0325,-13.002685546875,21.631103515625,-9.118896484375
0.033,-16.245849609375,22.191650390625,-6.556396484375
0.0335,-18.928466796875,20.429931640625,-2.192138671875
0.034,-21.410888671875,18.908447265625,1.931884765625
0.0345,-21.771240234375,15.264892578125,6.055908203125
0.035,-22.812255859375,11.501220703125,10.940673828125
0.0355,-22.411865234375,8.298095703125,13.783447265625
0.036,-22.251708984375,4.534423828125,17.467041015625
0.0365,-20.449951171875,0.690673828125,19.509033203125
0.037,-18.648193359375,-3.673583984375,22.071533203125
0.0375,-14.404052734375,-8.798583984375,22.872314453125
0.038,-10.199951171875,-12.842529296875,22.752197265625
0.0385,-7.757568359375,-15.525146484375,22.952392578125
0.039,-2.432373046875,-18.688232421875,20.830322265625
0.0395,1.611572265625,-20.810302734375,19.028564453125
0.04,6.095947265625,-21.771240234375,15.505126953125
0.0405,11.260986328125,-22.932373046875,11.661376953125
0.041,14.584228515625,-22.051513671875,7.537353515625
0.0415,18.067626953125,-22.291748046875,4.334228515625
0.042,20.309814453125,-20.129638671875,0.010009765625
0.0425,22.592041015625,-18.127685546875,-4.394287109375
0.043,22.552001953125,-13.923583984375,-8.678466796875
0.0435,23.312744140625,-10.239990234375,-13.122802734375
0.044,22.872314453125,-7.317138671875,-15.685302734375
0.0445,21.911376953125,-2.712646484375,-19.368896484375
0.045,19.909423828125,1.291259765625,-21.330810546875
0.0455,17.146728515625,6.015869140625,-23.252685546875
0.046,12.982666015625,10.860595703125,-23.973388671875
0.0465,8.698486328125,14.464111328125,-23.252685546875
0.047,6.055908203125,17.226806640625,-23.332763671875
0.0475,0.570556640625,19.949462890625,-20.690185546875
0.048,-3.713623046875,22.111572265625,-18.728271484375
0.0485,-8.678466796875,22.351806640625,-14.123779296875
0.049,-13.122802734375,23.352783203125,-10.760498046875
0.0495,-16.325927734375,22.351806640625,-6.716552734375
0.05,-19.689208984375,21.911376953125,-2.872802734375
0.0505,-21.450927734375,19.509033203125,1.331298828125
0.051,-23.412841796875,16.906494140625,6.055908203125
0.0515,-23.092529296875,12.261962890625,10.380126953125
0.052,-23.452880859375,8.698486328125,14.424072265625
0.0525,-23.092529296875,5.935791015625,16.906494140625
0.053,-21.531005859375,0.970947265625,20.349853515625
0.0535,-19.529052734375,-3.072998046875,22.271728515625
0.054,-15.605224609375,-8.197998046875,23.432861328125
0.0545,-11.961669921875,-12.522216796875,24.153564453125
0.055,-7.637451171875,-15.845458984375,23.112548828125
0.0555,-4.314208984375,-18.568115234375,22.552001953125
0.056,0.970947265625,-20.890380859375,19.789306640625
0.0565,5.535400390625,-23.132568359375,17.427001953125
0.057,10.540283203125,-22.772216796875,12.141845703125
0.0575,14.504150390625,-23.532958984375,9.018798828125
0.058,17.627197265625,-22.572021484375,5.175048828125
0.0585,20.830322265625,-21.531005859375,0.930908203125
0.059,22.351806640625,-19.008544921875,-3.193115234375
0.0595,23.993408203125,-15.685302734375,-8.278076171875
0.06,23.633056640625,-11.401123046875,-12.322021484375
0.0605,23.552978515625,-7.717529296875,-16.005615234375
0.061,23.032470703125,-4.634521484375,-18.568115234375
0.0615,21.110595703125,0.530517578125,-21.771240234375
0.062,18.668212890625,4.974853515625,-23.693115234375
0.0625,13.823486328125,10.179931640625,-24.093505859375
0.063,10.780517578125,13.903564453125,-24.734130859375
0.0635,6.256103515625,17.146728515625,-23.492919921875
0.064,2.372314453125,19.869384765625,-22.331787109375
0.0645,-2.552490234375,21.911376953125,-19.609130859375
0.065,-7.837646484375,23.873291015625,-16.486083984375
0.0655,-12.522216796875,23.112548828125,-11.200927734375
0.066,-16.165771484375,23.633056640625,-8.037841796875
0.0665,-19.208740234375,22.552001953125,-4.033935546875
0.067,-22.091552734375,20.990478515625,0.530517578125
0.0675,-23.212646484375,18.027587890625,4.694580078125
0.068,-24.373779296875,13.943603515625,9.979736328125
0.0685,-24.093505859375,10.099853515625,13.623291015625
0.069,-23.653076171875,6.176025390625,17.186767578125
0.0695,-22.732177734375,2.772705078125,19.709228515625
0.07,-20.770263671875,-2.072021484375,22.511962890625
0.0705,-17.647216796875,-7.036865234375,24.353759765625
0.071,-12.402099609375,-12.041748046875,24.113525390625
0.0715,-9.679443359375,-15.364990234375,24.674072265625
0.072,-4.834716796875,-18.568115234375,23.072509765625
0.0725,-0.390380859375,-21.210693359375,21.270751953125
0.073,3.973876953125,-22.692138671875,18.548095703125
0.0735,9.899658203125,-24.413818359375,14.464111328125
0.074,13.863525390625,-23.412841796875,9.619384765625
0.0745,17.627197265625,-23.693115234375,6.256103515625
0.075,20.469970703125,-22.371826171875,2.132080078125
0.0755,23.112548828125,-20.489990234375,-2.512451171875
0.076,23.913330078125,-17.126708984375,-6.756591796875
0.0765,24.553955078125,-12.602294921875,-11.961669921875
0.077,24.513916015625,-9.359130859375,-15.244873046875
0.0775,23.673095703125,-4.914794921875,-18.928466796875
0.078,22.191650390625,-1.071044921875,-21.330810546875
0.0785,20.029541015625,3.533447265625,-23.693115234375
0.079,16.145751953125,9.018798828125,-25.294677734375
0.0795,10.940673828125,13.503173828125,-24.493896484375
0.08,8.298095703125,16.706298828125,-25.014404296875
0.0805,3.133056640625,19.709228515625,-23.052490234375
0.081,-1.631591796875,22.351806640625,-21.010498046875
0.0815,-5.915771484375,23.312744140625,-17.807373046875
0.082,-12.041748046875,24.714111328125,-13.202880859375
0.0825,-15.405029296875,23.713134765625,-8.918701171875
0.083,-19.288818359375,23.713134765625,-5.034912109375
0.0835,-21.651123046875,21.831298828125,-0.910888671875
0.084,-24.053466796875,19.669189453125,3.813720703125
0.0845,-24.493896484375,15.625244140625,8.458251953125
0.085,-24.654052734375,10.860595703125,13.383056640625
0.0855,-24.694091796875,8.057861328125,16.345947265625
0.086,-23.532958984375,3.213134765625,20.029541015625
0.0865,-21.771240234375,-0.830810546875,22.311767578125
0.087,-19.128662109375,-5.315185546875,24.113525390625
0.0875,-14.804443359375,-11.080810546875,25.594970703125
0.088,-9.759521484375,-14.924560546875,24.353759765625
0.0885,-6.836669921875,-18.207763671875,24.634033203125
0.089,-1.431396484375,-20.930419921875,22.031494140625
0.0895,3.213134765625,-23.492919921875,20.029541015625
0.09,7.897705078125,-23.733154296875,15.865478515625
0.0905,13.583251953125,-24.814208984375,11.341064453125
0.091,16.666259765625,-23.893310546875,7.457275390625
0.0915,20.710205078125,-23.572998046875,3.052978515625
0.092,22.672119140625,-21.290771484375,-1.231201171875
0.0925,24.714111328125,-18.808349609375,-5.795654296875
0.093,25.074462890625,-14.404052734375,-10.640380859375
0.0935,24.834228515625,-9.759521484375,-15.084716796875
0.094,24.914306640625,-7.116943359375,-17.927490234375
0.0945,23.072509765625,-1.671630859375,-21.531005859375
0.095,21.230712890625,2.532470703125,-23.853271484375
0.0955,17.547119140625,7.337158203125,-24.894287109375
0.096,13.343017578125,12.782470703125,-26.215576171875
0.0965,8.538330078125,16.145751953125,-24.734130859375
0.097,5.094970703125,19.509033203125,-24.694091796875
0.0975,-0.390380859375,21.871337890625,-21.771240234375
0.098,-5.074951171875,24.433837890625,-19.689208984375
0.0985,-10.199951171875,24.193603515625,-14.444091796875
0.099,-15.124755859375,24.874267578125,-10.280029296875
0.0995,-18.087646484375,24.113525390625,-6.716552734375
0.1,-21.971435546875,23.072509765625,-1.751708984375
0.1005,-23.693115234375,20.550048828125,2.572509765625
0.101,-25.174560546875,17.346923828125,7.377197265625
0.1015,-25.374755859375,12.782470703125,12.181884765625
0.102,-24.774169921875,8.298095703125,16.185791015625
0.1025,-24.854248046875,5.575439453125,18.988525390625
0.103,-22.612060546875,0.130126953125,22.271728515625
0.1035,-20.690185546875,-4.314208984375,24.714111328125
0.104,-15.885498046875,-9.399169921875,24.954345703125
0.1045,-12.121826171875,-14.283935546875,26.075439453125
0.105,-7.557373046875,-17.366943359375,24.513916015625
0.1055,-3.273193359375,-20.810302734375,23.673095703125
0.106,1.931884765625,-22.692138671875,20.630126953125
0.1065,6.896728515625,-25.014404296875,18.067626953125
0.107,12.021728515625,-24.413818359375,12.462158203125
0.1075,16.345947265625,-24.694091796875,8.498291015625
0.108,19.228759765625,-24.213623046875,5.175048828125
0.1085,22.792236328125,-22.491943359375,-0.150146484375
0.109,24.393798828125,-19.809326171875,-4.514404296875
0.1095,25.434814453125,-15.925537109375,-9.479248046875
0.11,25.594970703125,-11.801513671875,-13.883544921875
0.1105,24.634033203125,-7.317138671875,-17.487060546875
0.111,24.353759765625,-4.154052734375,-20.409912109375
0.1115,21.871337890625,1.291259765625,-23.292724609375
0.112,19.549072265625,6.095947265625,-25.775146484375
0.1125,13.903564453125,11.220947265625,-25.254638671875
0.113,10.620361328125,15.385009765625,-26.135498046875
0.1135,6.296142578125,18.267822265625,-24.734130859375
0.114,1.451416015625,21.631103515625,-23.212646484375
0.1145,-3.393310546875,23.272705078125,-20.169677734375
0.115,-8.918701171875,25.274658203125,-16.726318359375
0.1155,-13.603271484375,24.593994140625,-11.521240234375
0.116,-17.527099609375,24.393798828125,-7.477294921875
0.1165,-20.329833984375,23.833251953125,-4.154052734375
0.117,-23.412841796875,21.751220703125,1.131103515625
0.1175,-24.854248046875,18.628173828125,5.735595703125
0.118,-25.174560546875,13.943603515625,10.820556640625
0.1185,-25.614990234375,10.500244140625,14.744384765625
0.119,-24.413818359375,6.055908203125,18.107666015625
0.1195,-23.733154296875,2.492431640625,21.070556640625
0.12,-21.290771484375,-2.592529296875,23.552978515625
0.1205,-18.287841796875,-7.957763671875,25.875244140625
0.121,-12.562255859375,-12.802490234375,24.994384765625
0.1215,-9.479248046875,-16.486083984375,25.474853515625
0.122,-5.155029296875,-19.208740234375,24.033447265625
0.1225,0.170166015625,-22.371826171875,22.031494140625
0.123,4.694580078125,-23.693115234375,18.948486328125
0.1235,10.700439453125,-25.174560546875,14.504150390625
0.124,14.664306640625,-24.614013671875,10.099853515625
0.1245,18.548095703125,-24.213623046875,5.815673828125
0.125,21.270751953125,-23.332763671875,2.292236328125
0.1255,23.993408203125,-21.090576171875,-2.752685546875
0.126,25.354736328125,-17.647216796875,-7.717529296875
0.1265,25.114501953125,-12.522216796875,-12.602294921875
0.127,25.594970703125,-9.639404296875,-16.085693359375
0.1275,24.273681640625,-4.914794921875,-19.489013671875
0.128,23.032470703125,-0.750732421875,-22.451904296875
0.1285,20.469970703125,3.893798828125,-24.453857421875
0.129,16.506103515625,9.859619140625,-26.535888671875
0.1295,11.140869140625,14.063720703125,-25.334716796875
0.13,7.937744140625,17.587158203125,-25.574951171875
0.1305,3.533447265625,20.229736328125,-23.853271484375
0.131,-1.951904296875,23.352783203125,-21.651123046875
0.1315,-6.596435546875,24.353759765625,-18.087646484375
0.132,-12.682373046875,25.314697265625,-13.122802734375
0.1325,-16.085693359375,24.834228515625,-9.359130859375
0.133,-20.009521484375,24.073486328125,-4.714599609375
0.1335,-22.411865234375,22.592041015625,-0.910888671875
0.134,-24.654052734375,20.109619140625,3.973876953125
0.1345,-25.815185546875,15.985595703125,9.339111328125
0.135,-25.094482421875,10.780517578125,13.943603515625
0.1355,-25.574951171875,8.137939453125,17.146728515625
0.136,-23.973388671875,3.253173828125,20.469970703125
0.1365,-22.451904296875,-1.231201171875,23.432861328125
0.137,-19.408935546875,-5.755615234375,24.794189453125
0.1375,-15.004638671875,-11.881591796875,26.515869140625
0.138,-10.079833984375,-15.405029296875,25.114501953125
0.1385,-6.436279296875,-18.968505859375,24.994384765625
0.139,-1.711669921875,-21.290771484375,22.752197265625
0.1395,3.493408203125,-24.133544921875,20.510009765625
0.14,8.578369140625,-24.694091796875,16.145751953125
0.1405,14.103759765625,-25.134521484375,11.100830078125
0.141,17.226806640625,-24.854248046875,7.857666015625
0.1415,21.190673828125,-23.693115234375,2.772705078125
0.142,23.352783203125,-21.851318359375,-1.311279296875
0.1425,25.034423828125,-19.088623046875,-5.835693359375
0.143,26.115478515625,-14.764404296875,-11.321044921875
0.1435,24.994384765625,-9.639404296875,-15.445068359375
0.144,25.354736328125,-6.996826171875,-18.568115234375
0.1445,23.312744140625,-1.871826171875,-21.731201171875
0.145,21.711181640625,2.692626953125,-24.573974609375
0.1455,17.667236328125,7.377197265625,-25.294677734375
0.146,13.262939453125,13.302978515625,-26.615966796875
0.1465,8.898681640625,16.305908203125,-25.254638671875
0.147,4.614501953125,20.029541015625,-24.694091796875
0.1475,0.010009765625,22.031494140625,-22.131591796875
0.148,-4.994873046875,24.593994140625,-19.889404296875
0.1485,-10.560302734375,24.874267578125,-14.764404296875
0.149,-15.364990234375,24.794189453125,-9.959716796875
0.1495,-18.247802734375,24.714111328125,-7.116943359375
0.15,-21.931396484375,23.032470703125,-1.751708984375
0.1505,-23.893310546875,20.910400390625,2.452392578125
0.151,-24.974365234375,17.427001953125,7.016845703125
0.1515,-25.895263671875,13.022705078125,12.462158203125
0.152,-24.654052734375,8.298095703125,15.985595703125
0.1525,-24.854248046875,5.375244140625,19.228759765625
0.153,-22.531982421875,0.370361328125,21.871337890625
0.1535,-20.970458984375,-4.194091796875,24.754150390625
0.154,-16.045654296875,-9.158935546875,24.874267578125
0.1545,-11.841552734375,-14.283935546875,25.795166015625
0.155,-8.117919921875,-16.966552734375,24.714111328125
0.1555,-3.072998046875,-20.610107421875,23.392822265625
0.156,1.411376953125,-22.291748046875,20.750244140625
0.1565,6.296142578125,-24.333740234375,17.987548828125
0.157,11.781494140625,-24.573974609375,12.822509765625
0.1575,15.865478515625,-24.013427734375,8.258056640625
0.158,18.788330078125,-24.133544921875,5.575439453125
0.1585,22.031494140625,-22.091552734375,0.290283203125
0.159,24.033447265625,-19.889404296875,-3.993896484375
0.1595,24.433837890625,-15.885498046875,-8.518310546875
0.16,25.314697265625,-11.881591796875,-13.443115234375
0.1605,24.033447265625,-7.717529296875,-16.486083984375
0.161,23.913330078125,-4.154052734375,-19.929443359375
0.1615,21.591064453125,0.570556640625,-22.291748046875
0.162,19.589111328125,5.255126953125,-24.974365234375
0.1625,14.303955078125,10.340087890625,-24.734130859375
0.163,10.340087890625,14.704345703125,-25.094482421875
0.1635,7.217041015625,17.266845703125,-24.573974609375
0.164,1.771728515625,20.670166015625,-22.572021484375
0.1645,-2.472412109375,22.431884765625,-20.209716796875
0.165,-7.717529296875,23.913330078125,-16.606201171875
0.1655,-12.722412109375,24.353759765625,-12.161865234375
0.166,-16.365966796875,23.432861328125,-7.717529296875
0.1665,-19.328857421875,23.432861328125,-4.754638671875
0.167,-22.051513671875,21.190673828125,0.250244140625
0.1675,-24.053466796875,18.748291015625,4.814697265625
0.168,-23.973388671875,14.023681640625,9.459228515625
0.1685,-24.854248046875,10.500244140625,13.903564453125
0.169,-23.813232421875,6.736572265625,16.706298828125
0.1695,-23.132568359375,2.612548828125,20.189697265625
0.17,-20.890380859375,-1.671630859375,22.271728515625
0.1705,-18.207763671875,-6.836669921875,24.674072265625
0.171,-13.122802734375,-11.681396484375,24.473876953125
0.1715,-9.158935546875,-15.525146484375,24.353759765625
0.172,-6.115966796875,-18.007568359375,23.833251953125
0.1725,-0.430419921875,-21.170654296875,21.350830078125
0.173,3.933837890625,-22.972412109375,18.908447265625
0.1735,9.539306640625,-23.733154296875,14.223876953125
0.174,13.743408203125,-24.293701171875,10.660400390625
0.1745,17.306884765625,-23.292724609375,6.216064453125
0.175,20.349853515625,-22.812255859375,2.692626953125
0.1755,22.632080078125,-20.449951171875,-2.031982421875
0.176,24.714111328125,-17.647216796875,-7.036865234375
0.1765,24.073486328125,-12.602294921875,-11.561279296875
0.177,24.834228515625,-9.519287109375,-15.445068359375
0.1775,23.753173828125,-5.795654296875,-18.247802734375
0.178,22.431884765625,-0.950927734375,-21.691162109375
0.1785,19.989501953125,3.493408203125,-23.572998046875
0.179,16.145751953125,9.098876953125,-25.374755859375
0.1795,11.661376953125,13.302978515625,-25.054443359375
0.18,7.577392578125,16.906494140625,-24.533935546875
0.1805,4.174072265625,19.268798828125,-23.572998046875
