wavelength,x,y,z
0.0,-1.42138671875,-3.42333984375,4.26416015625
0.0005,-0.78076171875,-3.86376953125,3.98388671875
0.001,-0.18017578125,-4.34423828125,3.86376953125
0.0015,0.70068359375,-4.50439453125,3.22314453125
0.002,1.58154296875,-4.70458984375,2.54248046875
0.0025,2.54248046875,-4.82470703125,1.74169921875
0.003,3.38330078125,-4.98486328125,1.06103515625
0.0035,3.58349609375,-4.42431640625,0.34033203125
0.004,4.02392578125,-4.46435546875,-0.10009765625
0.0045,3.98388671875,-3.54345703125,-0.98095703125
0.005,4.14404296875,-3.06298828125,-1.62158203125
0.0055,4.30419921875,-2.10205078125,-2.70263671875
0.006,4.14404296875,-1.34130859375,-3.18310546875
0.0065,3.70361328125,-0.46044921875,-3.66357421875
0.007,3.34326171875,0.26025390625,-3.98388671875
0.0075,2.50244140625,1.26123046875,-4.10400390625
0.008,2.06201171875,2.02197265625,-4.34423828125
0.0085,1.10107421875,3.02294921875,-4.46435546875
0.009,0.26025390625,3.38330078125,-3.98388671875
0.0095,-0.30029296875,3.90380859375,-3.90380859375
0.01,-1.42138671875,4.10400390625,-2.98291015625
0.0105,-2.26220703125,4.34423828125,-2.42236328125
0.011,-3.18310546875,4.34423828125,-1.46142578125
0.0115,-3.86376953125,4.38427734375,-0.86083984375
0.012,-4.10400390625,3.86376953125,-0.14013671875
0.0125,-4.38427734375,3.70361328125,0.34033203125
0.013,-4.38427734375,2.70263671875,1.30126953125
0.0135,-4.50439453125,2.18212890625,1.94189453125
0.014,-4.62451171875,1.30126953125,2.90283203125
0.0145,-4.22412109375,0.50048828125,3.26318359375
0.015,-3.98388671875,-0.30029296875,3.78369140625
0.0155,-3.34326171875,-1.02099609375,3.86376953125
0.016,-2.58251953125,-1.98193359375,4.02392578125
0.0165,-1.94189453125,-2.78271484375,4.10400390625
0.017,-1.26123046875,-3.58349609375,4.18408203125
0.0175,-0.46044921875,-3.82373046875,3.70361328125
0.018,0.06005859375,-4.34423828125,3.66357421875
0.0185,1.26123046875,-4.38427734375,2.58251953125
0.019,1.94189453125,-4.70458984375,2.18212890625
0.0195,2.86279296875,-4.74462890625,1.30126953125
0.02,3.34326171875,-4.58447265625,0.74072265625
0.0205,3.58349609375,-4.26416015625,0.14013671875
0.021,3.82373046875,-3.90380859375,-0.38037109375
0.0215,3.90380859375,-3.10302734375,-1.30126953125
0.022,3.98388671875,-2.46240234375,-1.98193359375
0.0225,4.18408203125,-1.74169921875,-2.90283203125
0.023,3.54345703125,-0.82080078125,-3.18310546875
0.0235,3.50341796875,-0.22021484375,-3.70361328125
0.024,2.66259765625,0.78076171875,-3.78369140625
0.0245,2.22216796875,1.54150390625,-4.10400390625
0.025,1.34130859375,2.38232421875,-4.14404296875
0.0255,0.70068359375,3.10302734375,-4.14404296875
0.026,0.02001953125,3.34326171875,-3.66357421875
0.0265,-0.62060546875,3.86376953125,-3.54345703125
0.027,-1.82177734375,3.94384765625,-2.42236328125
0.0275,-2.54248046875,4.18408203125,-1.98193359375
0.028,-3.46337890625,4.22412109375,-1.14111328125
0.0285,-3.74365234375,3.90380859375,-0.58056640625
0.029,-4.10400390625,3.70361328125,0.02001953125
0.0295,-4.14404296875,3.06298828125,0.66064453125
0.03,-4.34423828125,2.42236328125,1.58154296875
0.0305,-4.30419921875,1.62158203125,2.26220703125
0.031,-4.50439453125,0.98095703125,3.06298828125
0.0315,-3.78369140625,0.06005859375,3.26318359375
0.032,-3.78369140625,-0.50048828125,3.74365234375
0.0325,-2.74267578125,-1.54150390625,3.74365234375
0.033,-2.38232421875,-2.26220703125,4.02392578125
0.0335,-1.54150390625,-3.06298828125,3.98388671875
0.034,-0.90087890625,-3.54345703125,3.90380859375
0.0345,-0.26025390625,-3.86376953125,3.50341796875
0.035,0.54052734375,-4.18408203125,3.10302734375
0.0355,1.62158203125,-4.42431640625,2.26220703125
0.036,2.30224609375,-4.50439453125,1.66162109375
0.0365,3.06298828125,-4.62451171875,1.02099609375
0.037,3.22314453125,-4.18408203125,0.46044921875
0.0375,3.62353515625,-4.14404296875,0.02001953125
0.038,3.66357421875,-3.26318359375,-0.86083984375
0.0385,3.90380859375,-2.82275390625,-1.62158203125
0.039,3.86376953125,-1.94189453125,-2.38232421875
0.0395,3.90380859375,-1.38134765625,-2.94287109375
0.04,3.22314453125,-0.46044921875,-3.22314453125
0.0405,3.18310546875,0.06005859375,-3.70361328125
0.041,2.18212890625,1.22119140625,-3.82373046875
0.0415,1.82177734375,1.94189453125,-4.06396484375
0.042,0.98095703125,2.70263671875,-4.02392578125
0.0425,0.34033203125,3.14306640625,-3.78369140625
0.043,-0.30029296875,3.54345703125,-3.54345703125
0.0435,-1.26123046875,3.78369140625,-2.86279296875
0.044,-2.26220703125,4.02392578125,-2.14208984375
0.0445,-2.90283203125,3.98388671875,-1.46142578125
0.045,-3.58349609375,4.14404296875,-0.90087890625
0.0455,-3.70361328125,3.54345703125,-0.22021484375
0.046,-4.06396484375,3.46337890625,0.26025390625
0.0465,-4.10400390625,2.50244140625,1.22119140625
0.047,-4.34423828125,2.06201171875,1.90185546875
0.0475,-4.26416015625,1.18115234375,2.66259765625
0.048,-4.10400390625,0.50048828125,3.10302734375
0.0485,-3.54345703125,-0.34033203125,3.38330078125
0.049,-3.34326171875,-1.06103515625,3.78369140625
0.0495,-2.38232421875,-2.06201171875,3.90380859375
0.05,-1.86181640625,-2.66259765625,3.98388671875
0.0505,-1.14111328125,-3.46337890625,3.98388671875
0.051,-0.50048828125,-3.70361328125,3.58349609375
0.0515,0.18017578125,-4.14404296875,3.38330078125
0.052,1.30126953125,-4.34423828125,2.46240234375
0.0525,2.22216796875,-4.62451171875,1.90185546875
0.053,2.82275390625,-4.50439453125,1.14111328125
0.0535,3.38330078125,-4.54443359375,0.66064453125
0.054,3.50341796875,-3.98388671875,0.02001953125
0.0545,3.78369140625,-3.74365234375,-0.54052734375
0.055,3.86376953125,-2.82275390625,-1.62158203125
0.0555,3.98388671875,-2.22216796875,-2.26220703125
0.056,3.94384765625,-1.42138671875,-3.06298828125
0.0565,3.50341796875,-0.66064453125,-3.34326171875
0.057,3.06298828125,0.14013671875,-3.70361328125
0.0575,2.46240234375,1.02099609375,-3.86376953125
0.058,1.78173828125,2.06201171875,-4.14404296875
0.0585,1.02099609375,2.62255859375,-3.98388671875
0.059,0.42041015625,3.34326171875,-4.02392578125
0.0595,-0.38037109375,3.50341796875,-3.42333984375
0.06,-1.02099609375,3.90380859375,-3.18310546875
0.0605,-2.30224609375,4.02392578125,-2.10205078125
0.061,-3.06298828125,4.22412109375,-1.50146484375
0.0615,-3.62353515625,3.98388671875,-0.70068359375
0.062,-3.98388671875,3.86376953125,-0.22021484375
0.0625,-4.06396484375,3.26318359375,0.46044921875
0.063,-4.18408203125,2.82275390625,1.02099609375
0.0635,-4.42431640625,1.94189453125,2.06201171875
0.064,-4.30419921875,1.22119140625,2.58251953125
0.0645,-4.30419921875,0.50048828125,3.34326171875
0.065,-3.70361328125,-0.38037109375,3.54345703125
0.0655,-3.38330078125,-0.98095703125,3.86376953125
0.066,-2.50244140625,-1.98193359375,3.94384765625
0.0665,-1.90185546875,-2.86279296875,4.18408203125
0.067,-1.14111328125,-3.38330078125,3.90380859375
0.0675,-0.58056640625,-4.02392578125,3.98388671875
0.068,0.30029296875,-4.14404296875,3.30322265625
0.0685,0.98095703125,-4.50439453125,2.94287109375
0.069,2.30224609375,-4.74462890625,1.90185546875
0.0695,2.94287109375,-4.74462890625,1.30126953125
0.07,3.54345703125,-4.62451171875,0.58056640625
0.0705,3.78369140625,-4.30419921875,0.02001953125
0.071,3.94384765625,-3.82373046875,-0.62060546875
0.0715,3.98388671875,-3.06298828125,-1.46142578125
0.072,4.34423828125,-2.38232421875,-2.54248046875
0.0725,3.94384765625,-1.42138671875,-3.02294921875
0.073,3.98388671875,-0.78076171875,-3.78369140625
0.0735,3.14306640625,0.30029296875,-3.82373046875
0.074,2.86279296875,0.98095703125,-4.14404296875
0.0745,1.86181640625,2.14208984375,-4.30419921875
0.075,1.14111328125,2.94287109375,-4.42431640625
0.0755,0.30029296875,3.46337890625,-4.02392578125
0.076,-0.30029296875,3.98388671875,-3.98388671875
0.0765,-1.26123046875,4.06396484375,-3.14306640625
0.077,-2.06201171875,4.34423828125,-2.54248046875
0.0775,-3.46337890625,4.58447265625,-1.46142578125
0.078,-3.86376953125,4.26416015625,-0.66064453125
0.0785,-4.42431640625,4.14404296875,-0.06005859375
0.079,-4.50439453125,3.54345703125,0.62060546875
0.0795,-4.58447265625,2.98291015625,1.22119140625
0.08,-4.58447265625,1.98193359375,2.10205078125
0.0805,-4.82470703125,1.26123046875,3.06298828125
0.081,-4.22412109375,0.26025390625,3.42333984375
0.0815,-4.18408203125,-0.30029296875,4.02392578125
0.082,-3.22314453125,-1.26123046875,3.98388671875
0.0825,-2.86279296875,-1.94189453125,4.22412109375
0.083,-1.82177734375,-3.10302734375,4.34423828125
0.0835,-1.14111328125,-3.70361328125,4.22412109375
0.084,-0.38037109375,-4.18408203125,3.98388671875
0.0845,0.30029296875,-4.50439453125,3.66357421875
0.085,1.22119140625,-4.66455078125,2.86279296875
0.0855,2.10205078125,-4.86474609375,2.22216796875
0.086,3.30322265625,-5.14501953125,1.30126953125
0.0865,3.66357421875,-4.66455078125,0.50048828125
0.087,4.14404296875,-4.74462890625,0.02001953125
0.0875,4.18408203125,-3.94384765625,-0.78076171875
0.088,4.38427734375,-3.50341796875,-1.42138671875
0.0885,4.46435546875,-2.46240234375,-2.54248046875
0.089,4.54443359375,-1.70166015625,-3.38330078125
0.0895,3.94384765625,-0.62060546875,-3.78369140625
0.09,3.86376953125,0.06005859375,-4.30419921875
0.0905,2.82275390625,1.14111328125,-4.30419921875
0.091,2.30224609375,1.90185546875,-4.50439453125
0.0915,1.26123046875,3.18310546875,-4.70458984375
0.092,0.38037109375,3.70361328125,-4.34423828125
0.0925,-0.34033203125,4.18408203125,-4.14404296875
0.093,-1.26123046875,4.50439453125,-3.54345703125
0.0935,-2.26220703125,4.54443359375,-2.62255859375
0.094,-3.18310546875,4.66455078125,-1.78173828125
0.0945,-4.30419921875,4.82470703125,-0.90087890625
0.095,-4.50439453125,4.14404296875,0.02001953125
0.0955,-4.94482421875,4.10400390625,0.50048828125
0.096,-4.82470703125,2.98291015625,1.42138671875
0.0965,-4.90478515625,2.42236328125,2.06201171875
0.097,-4.90478515625,1.30126953125,3.06298828125
0.0975,-4.78466796875,0.58056640625,3.74365234375
0.098,-4.14404296875,-0.46044921875,4.02392578125
0.0985,-3.86376953125,-1.10107421875,4.42431640625
0.099,-2.78271484375,-2.10205078125,4.34423828125
0.0995,-2.22216796875,-2.82275390625,4.46435546875
0.1,-1.26123046875,-3.90380859375,4.54443359375
0.1005,-0.38037109375,-4.22412109375,4.02392578125
0.101,0.18017578125,-4.70458984375,3.90380859375
0.1015,1.22119140625,-4.86474609375,3.06298828125
0.102,2.06201171875,-4.98486328125,2.38232421875
0.1025,3.06298828125,-5.06494140625,1.46142578125
0.103,3.86376953125,-5.14501953125,0.78076171875
0.1035,4.02392578125,-4.54443359375,0.02001953125
0.104,4.42431640625,-4.50439453125,-0.50048828125
0.1045,4.34423828125,-3.50341796875,-1.46142578125
0.105,4.46435546875,-2.94287109375,-2.06201171875
0.1055,4.58447265625,-1.86181640625,-3.18310546875
0.106,4.26416015625,-1.02099609375,-3.70361328125
0.1065,3.82373046875,-0.06005859375,-4.14404296875
0.107,3.34326171875,0.70068359375,-4.38427734375
0.1075,2.38232421875,1.78173828125,-4.50439453125
0.108,1.74169921875,2.54248046875,-4.62451171875
0.1085,0.82080078125,3.62353515625,-4.70458984375
0.109,-0.14013671875,3.90380859375,-4.10400390625
0.1095,-0.70068359375,4.46435546875,-4.02392578125
0.11,-1.94189453125,4.54443359375,-2.90283203125
0.1105,-2.82275390625,4.74462890625,-2.26220703125
0.111,-3.82373046875,4.74462890625,-1.26123046875
0.1115,-4.50439453125,4.62451171875,-0.50048828125
0.112,-4.62451171875,3.90380859375,0.30029296875
0.1125,-4.94482421875,3.70361328125,0.78076171875
0.113,-4.90478515625,2.54248046875,1.90185546875
0.1135,-4.86474609375,1.94189453125,2.54248046875
0.114,-4.98486328125,0.98095703125,3.58349609375
0.1145,-4.38427734375,0.02001953125,3.90380859375
0.115,-4.02392578125,-0.78076171875,4.30419921875
0.1155,-3.26318359375,-1.62158203125,4.38427734375
0.116,-2.38232421875,-2.66259765625,4.50439453125
0.1165,-1.62158203125,-3.38330078125,4.42431640625
0.117,-0.78076171875,-4.22412109375,4.46435546875
0.1175,0.06005859375,-4.42431640625,3.78369140625
0.118,0.62060546875,-4.86474609375,3.66357421875
0.1185,1.90185546875,-4.90478515625,2.42236328125
0.119,2.58251953125,-5.02490234375,1.90185546875
0.1195,3.54345703125,-4.98486328125,0.94091796875
0.12,3.94384765625,-4.82470703125,0.30029296875
0.1205,4.10400390625,-4.30419921875,-0.34033203125
0.121,4.22412109375,-3.90380859375,-0.98095703125
0.1215,4.34423828125,-2.90283203125,-1.94189453125
0.122,4.30419921875,-2.22216796875,-2.54248046875
0.1225,4.50439453125,-1.42138671875,-3.54345703125
0.123,3.70361328125,-0.42041015625,-3.70361328125
0.1235,3.58349609375,0.26025390625,-4.18408203125
0.124,2.58251953125,1.30126953125,-4.22412109375
0.1245,2.02197265625,2.18212890625,-4.50439453125
0.125,1.14111328125,2.98291015625,-4.42431640625
0.1255,0.38037109375,3.74365234375,-4.42431640625
0.126,-0.50048828125,3.98388671875,-3.78369140625
0.1265,-1.14111328125,4.42431640625,-3.58349609375
0.127,-2.46240234375,4.50439453125,-2.34228515625
0.1275,-3.14306640625,4.62451171875,-1.78173828125
0.128,-4.06396484375,4.50439453125,-0.90087890625
0.1285,-4.38427734375,4.14404296875,-0.18017578125
0.129,-4.62451171875,3.74365234375,0.46044921875
0.1295,-4.70458984375,3.10302734375,1.22119140625
0.13,-4.86474609375,2.26220703125,2.26220703125
0.1305,-4.66455078125,1.42138671875,2.82275390625
0.131,-4.82470703125,0.62060546875,3.70361328125
0.1315,-3.98388671875,-0.38037109375,3.86376953125
0.132,-3.82373046875,-0.98095703125,4.30419921875
0.1325,-2.62255859375,-2.18212890625,4.26416015625
0.133,-2.10205078125,-2.94287109375,4.46435546875
0.1335,-1.18115234375,-3.66357421875,4.22412109375
0.134,-0.46044921875,-4.22412109375,4.10400390625
0.1345,0.30029296875,-4.42431640625,3.50341796875
0.135,1.10107421875,-4.74462890625,3.06298828125
0.1355,2.30224609375,-4.86474609375,1.98193359375
0.136,2.90283203125,-4.86474609375,1.34130859375
0.1365,3.70361328125,-4.90478515625,0.62060546875
0.137,3.82373046875,-4.38427734375,0.02001953125
0.1375,4.10400390625,-4.10400390625,-0.50048828125
0.138,4.06396484375,-3.18310546875,-1.38134765625
0.1385,4.30419921875,-2.58251953125,-2.22216796875
0.139,4.10400390625,-1.66162109375,-2.86279296875
0.1395,4.14404296875,-1.02099609375,-3.54345703125
0.14,3.26318359375,0.02001953125,-3.70361328125
0.1405,3.18310546875,0.54052734375,-4.10400390625
0.141,2.06201171875,1.78173828125,-4.14404296875
0.1415,1.62158203125,2.42236328125,-4.38427734375
0.142,0.70068359375,3.18310546875,-4.22412109375
0.1425,0.02001953125,3.66357421875,-3.98388671875
0.143,-0.70068359375,3.94384765625,-3.54345703125
0.1435,-1.66162109375,4.18408203125,-2.86279296875
0.144,-2.82275390625,4.46435546875,-1.98193359375
0.1445,-3.34326171875,4.30419921875,-1.30126953125
0.145,-4.14404296875,4.34423828125,-0.62060546875
0.1455,-4.22412109375,3.70361328125,0.14013671875
0.146,-4.50439453125,3.54345703125,0.62060546875
0.1465,-4.54443359375,2.42236328125,1.66162109375
0.147,-4.74462890625,1.90185546875,2.42236328125
0.1475,-4.50439453125,0.94091796875,3.14306640625
0.148,-4.34423828125,0.26025390625,3.66357421875
0.1485,-3.58349609375,-0.70068359375,3.86376953125
0.149,-3.30322265625,-1.34130859375,4.14404296875
0.1495,-2.26220703125,-2.54248046875,4.22412109375
0.15,-1.66162109375,-3.10302734375,4.18408203125
0.1505,-0.90087890625,-3.86376953125,4.14404296875
0.151,-0.14013671875,-4.14404296875,3.70361328125
0.1515,0.58056640625,-4.46435546875,3.34326171875
0.152,1.62158203125,-4.62451171875,2.42236328125
0.1525,2.62255859375,-4.94482421875,1.62158203125
0.153,3.10302734375,-4.66455078125,0.94091796875
0.1535,3.70361328125,-4.62451171875,0.46044921875
0.154,3.70361328125,-3.98388671875,-0.30029296875
0.1545,3.94384765625,-3.70361328125,-0.74072265625
0.155,4.02392578125,-2.70263671875,-1.86181640625
0.1555,4.10400390625,-2.14208984375,-2.42236328125
0.156,3.94384765625,-1.26123046875,-3.18310546875
0.1565,3.58349609375,-0.50048828125,-3.50341796875
0.157,3.06298828125,0.34033203125,-3.78369140625
0.1575,2.54248046875,1.10107421875,-3.94384765625
0.158,1.78173828125,2.18212890625,-4.26416015625
0.1585,1.10107421875,2.62255859375,-4.06396484375
0.159,0.46044921875,3.38330078125,-4.14404296875
0.1595,-0.38037109375,3.54345703125,-3.50341796875
0.16,-1.02099609375,3.94384765625,-3.26318359375
0.1605,-2.26220703125,4.06396484375,-2.22216796875
0.161,-3.06298828125,4.30419921875,-1.62158203125
0.1615,-3.58349609375,4.02392578125,-0.82080078125
0.162,-4.02392578125,3.98388671875,-0.34033203125
0.1625,-4.10400390625,3.34326171875,0.38037109375
0.163,-4.26416015625,2.98291015625,0.90087890625
0.1635,-4.50439453125,2.06201171875,2.06201171875
0.164,-4.42431640625,1.42138671875,2.54248046875
0.1645,-4.34423828125,0.62060546875,3.30322265625
0.165,-3.82373046875,-0.22021484375,3.54345703125
0.1655,-3.46337890625,-0.94091796875,3.86376953125
0.166,-2.62255859375,-1.82177734375,3.94384765625
0.1665,-1.98193359375,-2.74267578125,4.22412109375
0.167,-1.26123046875,-3.22314453125,3.90380859375
0.1675,-0.70068359375,-3.86376953125,3.98388671875
0.168,0.14013671875,-4.10400390625,3.26318359375
0.1685,0.82080078125,-4.46435546875,2.98291015625
0.169,2.06201171875,-4.66455078125,1.94189453125
0.1695,2.70263671875,-4.66455078125,1.38134765625
0.17,3.26318359375,-4.50439453125,0.66064453125
0.1705,3.54345703125,-4.22412109375,0.22021484375
0.171,3.70361328125,-3.78369140625,-0.46044921875
0.1715,3.78369140625,-3.14306640625,-1.14111328125
0.172,4.10400390625,-2.46240234375,-2.14208984375
0.1725,3.78369140625,-1.66162109375,-2.58251953125
0.173,3.86376953125,-1.02099609375,-3.26318359375
0.1735,3.10302734375,-0.10009765625,-3.38330078125
0.174,2.86279296875,0.54052734375,-3.82373046875
0.1745,1.98193359375,1.58154296875,-3.90380859375
0.175,1.46142578125,2.34228515625,-4.14404296875
0.1755,0.70068359375,2.86279296875,-3.82373046875
0.176,0.18017578125,3.34326171875,-3.86376953125
0.1765,-0.70068359375,3.50341796875,-3.18310546875
0.177,-1.42138671875,3.86376953125,-2.82275390625
0.1775,-2.66259765625,4.14404296875,-1.82177734375
0.178,-3.18310546875,4.02392578125,-1.22119140625
0.1785,-3.78369140625,3.98388671875,-0.62060546875
0.179,-3.86376953125,3.54345703125,0.02001953125
0.1795,-4.14404296875,3.14306640625,0.62060546875
0.18,-4.18408203125,2.38232421875,1.42138671875
0.1805,-4.50439453125,1.78173828125,2.34228515625
0.181,-4.10400390625,0.94091796875,2.74267578125
0.1815,-4.18408203125,0.34033203125,3.38330078125
0.182,-3.34326171875,-0.62060546875,3.50341796875
0.1825,-3.14306640625,-1.26123046875,3.86376953125
0.183,-2.18212890625,-2.38232421875,3.98388671875
0.1835,-1.66162109375,-2.94287109375,4.02392578125
0.184,-0.94091796875,-3.58349609375,3.86376953125
0.1845,-0.30029296875,-3.94384765625,3.62353515625
0.185,0.54052734375,-4.18408203125,2.98291015625
0.1855,1.42138671875,-4.42431640625,2.42236328125
0.186,2.54248046875,-4.70458984375,1.58154296875
0.1865,2.90283203125,-4.42431640625,0.94091796875
0.187,3.46337890625,-4.50439453125,0.54052734375
0.1875,3.50341796875,-3.86376953125,-0.18017578125
0.188,3.78369140625,-3.54345703125,-0.78076171875
0.1885,3.86376953125,-2.58251953125,-1.74169921875
0.189,4.06396484375,-2.06201171875,-2.50244140625
0.1895,3.66357421875,-1.14111328125,-3.02294921875
0.19,3.54345703125,-0.50048828125,-3.50341796875
0.1905,2.82275390625,0.42041015625,-3.62353515625
0.191,2.46240234375,1.14111328125,-3.94384765625
0.1915,1.58154296875,2.26220703125,-4.22412109375
0.192,0.90087890625,2.74267578125,-3.98388671875
0.1925,0.30029296875,3.34326171875,-3.98388671875
0.193,-0.54052734375,3.58349609375,-3.46337890625
0.1935,-1.34130859375,3.90380859375,-2.86279296875
0.194,-2.38232421875,4.10400390625,-2.06201171875
0.1945,-3.34326171875,4.34423828125,-1.34130859375
0.195,-3.66357421875,3.86376953125,-0.58056640625
0.1955,-4.14404296875,3.90380859375,-0.14013671875
0.196,-4.10400390625,3.06298828125,0.66064453125
0.1965,-4.34423828125,2.62255859375,1.30126953125
0.197,-4.46435546875,1.70166015625,2.38232421875
0.1975,-4.38427734375,1.02099609375,2.90283203125
0.198,-3.98388671875,0.14013671875,3.38330078125
0.1985,-3.74365234375,-0.50048828125,3.70361328125
0.199,-2.94287109375,-1.34130859375,3.82373046875
