wavelength,x,y,z
0.0,-5.315185546875,2.492431640625,3.052978515625
0.0005,-4.794677734375,3.173095703125,2.011962890625
0.001,-4.434326171875,3.853759765625,1.131103515625
0.0015,-4.114013671875,4.494384765625,0.170166015625
0.002,-3.553466796875,5.255126953125,-0.990966796875
0.0025,-2.432373046875,5.375244140625,-2.112060546875
0.003,-1.231201171875,5.094970703125,-3.072998046875
0.0035,-0.390380859375,5.094970703125,-3.873779296875
0.004,0.450439453125,5.094970703125,-4.674560546875
0.0045,1.451416015625,5.014892578125,-5.635498046875
0.005,2.772705078125,3.933837890625,-6.115966796875
0.0055,3.653564453125,2.852783203125,-6.156005859375
0.006,4.093994140625,1.851806640625,-5.755615234375
0.0065,4.494384765625,0.930908203125,-5.635498046875
0.007,4.934814453125,0.010009765625,-5.395263671875
0.0075,5.335205078125,-0.990966796875,-5.195068359375
0.008,5.135009765625,-2.112060546875,-4.154052734375
0.0085,4.694580078125,-3.153076171875,-2.992919921875
0.009,4.254150390625,-3.793701171875,-1.991943359375
0.0095,3.973876953125,-4.554443359375,-1.191162109375
0.01,3.733642578125,-5.235107421875,-0.310302734375
0.0105,2.852783203125,-5.755615234375,1.051025390625
0.011,1.891845703125,-5.875732421875,2.092041015625
0.0115,0.770751953125,-5.635498046875,2.932861328125
0.012,0.050048828125,-5.715576171875,3.773681640625
0.0125,-0.950927734375,-5.715576171875,4.614501953125
0.013,-1.911865234375,-5.635498046875,5.615478515625
0.0135,-3.153076171875,-4.514404296875,5.895751953125
0.014,-3.913818359375,-3.193115234375,5.735595703125
0.0145,-4.474365234375,-2.232177734375,5.535400390625
0.015,-4.914794921875,-1.391357421875,5.415283203125
0.0155,-5.315185546875,-0.590576171875,5.255126953125
0.016,-5.475341796875,0.690673828125,4.574462890625
0.0165,-5.395263671875,1.571533203125,3.813720703125
0.017,-4.914794921875,2.412353515625,2.612548828125
0.0175,-4.554443359375,3.173095703125,1.731689453125
0.018,-4.234130859375,3.973876953125,0.850830078125
0.0185,-4.073974609375,4.734619140625,0.010009765625
0.019,-2.912841796875,5.014892578125,-1.431396484375
0.0195,-1.871826171875,5.054931640625,-2.432373046875
0.02,-0.990966796875,4.974853515625,-3.193115234375
0.0205,-0.270263671875,5.054931640625,-4.033935546875
0.021,0.770751953125,4.934814453125,-4.954833984375
0.0215,2.052001953125,4.414306640625,-5.915771484375
0.022,2.932861328125,3.573486328125,-6.035888671875
0.0225,3.653564453125,2.292236328125,-5.755615234375
0.023,4.134033203125,1.331298828125,-5.555419921875
0.0235,4.614501953125,0.530517578125,-5.435302734375
0.024,5.094970703125,-0.390380859375,-5.435302734375
0.0245,5.014892578125,-1.711669921875,-4.354248046875
0.025,4.814697265625,-2.592529296875,-3.473388671875
0.0255,4.334228515625,-3.353271484375,-2.512451171875
0.026,4.134033203125,-4.033935546875,-1.591552734375
0.0265,3.813720703125,-4.834716796875,-0.710693359375
0.027,3.373291015625,-5.595458984375,0.450439453125
0.0275,2.372314453125,-5.755615234375,1.571533203125
0.028,1.211181640625,-5.635498046875,2.532470703125
0.0285,0.490478515625,-5.635498046875,3.333251953125
0.029,-0.470458984375,-5.675537109375,4.214111328125
0.0295,-1.431396484375,-5.715576171875,5.054931640625
0.03,-2.712646484375,-4.594482421875,5.695556640625
0.0305,-3.593505859375,-3.713623046875,5.815673828125
0.031,-4.194091796875,-2.592529296875,5.575439453125
0.0315,-4.674560546875,-1.751708984375,5.415283203125
0.032,-5.114990234375,-0.870849609375,5.255126953125
0.0325,-5.635498046875,0.130126953125,5.094970703125
0.033,-5.475341796875,1.291259765625,4.134033203125
0.0335,-5.114990234375,2.252197265625,2.892822265625
0.034,-4.634521484375,3.052978515625,1.971923828125
0.0345,-4.354248046875,3.733642578125,1.131103515625
0.035,-4.114013671875,4.494384765625,0.250244140625
0.0355,-3.193115234375,5.014892578125,-1.151123046875
0.036,-2.232177734375,5.175048828125,-2.232177734375
0.0365,-1.231201171875,4.974853515625,-3.072998046875
0.037,-0.390380859375,4.974853515625,-3.913818359375
0.0375,0.570556640625,5.014892578125,-4.834716796875
0.038,1.571533203125,4.854736328125,-5.755615234375
0.0385,2.852783203125,3.653564453125,-6.035888671875
0.039,3.613525390625,2.492431640625,-5.835693359375
0.0395,4.134033203125,1.491455078125,-5.635498046875
0.04,4.494384765625,0.690673828125,-5.515380859375
0.0405,4.934814453125,-0.350341796875,-5.235107421875
0.041,5.135009765625,-1.471435546875,-4.674560546875
0.0415,5.014892578125,-2.512451171875,-3.833740234375
0.042,4.534423828125,-3.313232421875,-2.632568359375
0.0425,4.134033203125,-4.033935546875,-1.671630859375
0.043,3.853759765625,-4.754638671875,-0.830810546875
0.0435,3.613525390625,-5.555419921875,0.170166015625
0.044,2.372314453125,-5.755615234375,1.571533203125
0.0445,1.331298828125,-5.755615234375,2.532470703125
0.045,0.450439453125,-5.755615234375,3.333251953125
0.0455,-0.430419921875,-5.675537109375,4.134033203125
0.046,-1.391357421875,-5.475341796875,5.094970703125
0.0465,-2.552490234375,-4.994873046875,5.815673828125
0.047,-3.673583984375,-3.993896484375,6.095947265625
0.0475,-4.354248046875,-2.672607421875,5.735595703125
0.048,-4.834716796875,-1.711669921875,5.535400390625
0.0485,-5.114990234375,-0.950927734375,5.335205078125
0.049,-5.635498046875,0.010009765625,5.175048828125
0.0495,-5.515380859375,1.451416015625,3.933837890625
0.05,-5.315185546875,2.412353515625,3.093017578125
0.0505,-4.834716796875,3.173095703125,2.052001953125
0.051,-4.514404296875,3.853759765625,1.131103515625
0.0515,-4.033935546875,4.534423828125,0.170166015625
0.052,-3.433349609375,5.215087890625,-1.071044921875
0.0525,-2.312255859375,5.375244140625,-2.312255859375
0.053,-1.031005859375,5.175048828125,-3.353271484375
0.0535,-0.310302734375,5.135009765625,-4.033935546875
0.054,0.610595703125,5.094970703125,-4.834716796875
0.0545,1.651611328125,4.814697265625,-5.795654296875
0.055,3.093017578125,3.693603515625,-6.276123046875
0.0555,3.853759765625,2.612548828125,-6.276123046875
0.056,4.454345703125,1.451416015625,-5.915771484375
0.0565,4.774658203125,0.490478515625,-5.635498046875
0.057,5.094970703125,-0.550537109375,-5.275146484375
0.0575,5.455322265625,-1.551513671875,-4.994873046875
0.058,5.215087890625,-2.832763671875,-3.673583984375
0.0585,4.734619140625,-3.753662109375,-2.512451171875
0.059,4.214111328125,-4.354248046875,-1.511474609375
0.0595,3.893798828125,-4.994873046875,-0.670654296875
0.06,3.453369140625,-5.675537109375,0.370361328125
0.0605,2.372314453125,-6.075927734375,1.851806640625
0.061,1.211181640625,-6.156005859375,2.932861328125
0.0615,0.250244140625,-5.835693359375,3.693603515625
0.062,-0.670654296875,-5.795654296875,4.494384765625
0.0625,-1.551513671875,-5.635498046875,5.255126953125
0.063,-2.592529296875,-5.315185546875,6.216064453125
0.0635,-4.033935546875,-3.873779296875,6.416259765625
0.064,-4.794677734375,-2.672607421875,6.135986328125
0.0645,-5.155029296875,-1.631591796875,5.815673828125
0.065,-5.515380859375,-0.790771484375,5.575439453125
0.0655,-5.795654296875,0.330322265625,5.135009765625
0.066,-5.915771484375,1.731689453125,4.214111328125
0.0665,-5.675537109375,2.772705078125,3.213134765625
0.067,-5.074951171875,3.613525390625,1.931884765625
0.0675,-4.514404296875,4.174072265625,0.970947265625
0.068,-4.033935546875,4.814697265625,0.010009765625
0.0685,-3.633544921875,5.615478515625,-1.111083984375
0.069,-2.031982421875,5.735595703125,-2.752685546875
0.0695,-0.910888671875,5.615478515625,-3.793701171875
0.07,0.050048828125,5.335205078125,-4.434326171875
0.0705,0.850830078125,5.255126953125,-5.155029296875
0.071,1.971923828125,4.774658203125,-6.035888671875
0.0715,3.253173828125,4.093994140625,-6.756591796875
0.072,4.334228515625,2.812744140625,-6.876708984375
0.0725,4.934814453125,1.291259765625,-6.356201171875
0.073,5.255126953125,0.370361328125,-5.955810546875
0.0735,5.375244140625,-0.710693359375,-5.515380859375
0.074,5.775634765625,-1.711669921875,-5.155029296875
0.0745,5.575439453125,-3.353271484375,-3.633544921875
0.075,5.255126953125,-4.274169921875,-2.552490234375
0.0755,4.494384765625,-4.914794921875,-1.351318359375
0.076,3.973876953125,-5.475341796875,-0.470458984375
0.0765,3.413330078125,-6.035888671875,0.690673828125
0.077,2.532470703125,-6.716552734375,2.011962890625
0.0775,1.131103515625,-6.636474609375,3.453369140625
0.078,-0.270263671875,-6.156005859375,4.334228515625
0.0785,-0.990966796875,-5.955810546875,4.934814453125
0.079,-1.871826171875,-5.755615234375,5.655517578125
0.0795,-3.113037109375,-5.235107421875,6.536376953125
0.08,-4.554443359375,-3.873779296875,6.896728515625
0.0805,-5.275146484375,-2.712646484375,6.696533203125
0.081,-5.755615234375,-1.471435546875,6.135986328125
0.0815,-5.915771484375,-0.590576171875,5.775634765625
0.082,-6.115966796875,0.690673828125,5.255126953125
0.0825,-6.396240234375,1.811767578125,4.654541015625
0.083,-6.035888671875,3.253173828125,3.173095703125
0.0835,-5.275146484375,4.134033203125,1.771728515625
0.084,-4.634521484375,4.774658203125,0.690673828125
0.0845,-4.154052734375,5.175048828125,-0.270263671875
0.085,-3.393310546875,5.855712890625,-1.391357421875
0.0855,-2.072021484375,6.095947265625,-2.992919921875
0.086,-0.830810546875,6.015869140625,-4.194091796875
0.0865,0.370361328125,5.495361328125,-4.914794921875
0.087,1.131103515625,5.375244140625,-5.475341796875
0.0875,2.092041015625,4.974853515625,-6.236083984375
0.088,3.173095703125,4.494384765625,-7.076904296875
0.0885,4.614501953125,2.692626953125,-7.116943359375
0.089,5.295166015625,1.371337890625,-6.756591796875
0.0895,5.455322265625,0.290283203125,-6.196044921875
0.09,5.615478515625,-0.630615234375,-5.755615234375
0.0905,5.895751953125,-1.791748046875,-5.155029296875
0.091,5.855712890625,-3.153076171875,-4.114013671875
0.0915,5.495361328125,-4.274169921875,-2.872802734375
0.092,4.774658203125,-5.074951171875,-1.591552734375
0.0925,4.134033203125,-5.515380859375,-0.590576171875
0.093,3.653564453125,-6.035888671875,0.410400390625
0.0935,3.052978515625,-6.716552734375,1.491455078125
0.094,1.371337890625,-6.796630859375,3.213134765625
0.0945,0.090087890625,-6.436279296875,4.294189453125
0.095,-0.910888671875,-6.156005859375,4.854736328125
0.0955,-1.591552734375,-5.915771484375,5.495361328125
0.096,-2.832763671875,-5.435302734375,6.336181640625
0.0965,-4.154052734375,-4.634521484375,7.056884765625
0.097,-5.155029296875,-3.273193359375,6.976806640625
0.0975,-5.715576171875,-1.871826171875,6.416259765625
0.098,-5.915771484375,-0.790771484375,5.975830078125
0.0985,-6.075927734375,0.210205078125,5.495361328125
0.099,-6.396240234375,1.291259765625,5.094970703125
0.0995,-6.075927734375,2.852783203125,3.573486328125
0.1,-5.675537109375,3.853759765625,2.412353515625
0.1005,-4.994873046875,4.414306640625,1.251220703125
0.101,-4.394287109375,4.894775390625,0.250244140625
0.1015,-3.713623046875,5.575439453125,-0.950927734375
0.102,-2.992919921875,6.095947265625,-2.152099609375
0.1025,-1.511474609375,6.055908203125,-3.593505859375
0.103,-0.190185546875,5.695556640625,-4.554443359375
0.1035,0.770751953125,5.415283203125,-5.195068359375
0.104,1.531494140625,5.255126953125,-5.835693359375
0.1045,2.692626953125,4.734619140625,-6.716552734375
0.105,4.174072265625,3.293212890625,-7.076904296875
0.1055,5.014892578125,2.092041015625,-7.076904296875
0.106,5.375244140625,0.890869140625,-6.436279296875
0.1065,5.615478515625,-0.270263671875,-6.035888671875
0.107,5.775634765625,-1.231201171875,-5.435302734375
0.1075,6.135986328125,-2.432373046875,-4.994873046875
0.108,5.695556640625,-3.913818359375,-3.353271484375
0.1085,5.215087890625,-4.834716796875,-2.031982421875
0.109,4.534423828125,-5.275146484375,-0.950927734375
0.1095,3.933837890625,-5.955810546875,0.050048828125
0.11,3.213134765625,-6.556396484375,1.211181640625
0.1105,1.891845703125,-6.916748046875,2.852783203125
0.111,0.610595703125,-6.756591796875,4.053955078125
0.1115,-0.670654296875,-6.276123046875,4.814697265625
0.112,-1.431396484375,-6.075927734375,5.415283203125
0.1125,-2.312255859375,-5.715576171875,6.095947265625
0.113,-3.673583984375,-5.275146484375,7.056884765625
0.1135,-4.994873046875,-3.633544921875,7.056884765625
0.114,-5.715576171875,-2.152099609375,6.696533203125
0.1145,-5.995849609375,-1.031005859375,6.135986328125
0.115,-6.115966796875,0.050048828125,5.735595703125
0.1155,-6.276123046875,1.131103515625,5.094970703125
0.116,-6.396240234375,2.572509765625,4.134033203125
0.1165,-6.075927734375,3.693603515625,2.852783203125
0.117,-5.155029296875,4.374267578125,1.331298828125
0.1175,-4.434326171875,4.974853515625,0.330322265625
0.118,-3.833740234375,5.455322265625,-0.710693359375
0.1185,-3.353271484375,6.095947265625,-1.751708984375
0.119,-1.631591796875,6.135986328125,-3.513427734375
0.1195,-0.390380859375,5.855712890625,-4.514404296875
0.12,0.650634765625,5.415283203125,-5.114990234375
0.1205,1.411376953125,5.094970703125,-5.755615234375
0.121,2.452392578125,4.694580078125,-6.396240234375
0.1215,3.773681640625,3.933837890625,-7.197021484375
0.122,4.734619140625,2.612548828125,-7.116943359375
0.1225,5.255126953125,1.211181640625,-6.476318359375
0.123,5.535400390625,0.130126953125,-6.035888671875
0.1235,5.615478515625,-0.910888671875,-5.635498046875
0.124,5.935791015625,-1.871826171875,-5.235107421875
0.1245,5.775634765625,-3.473388671875,-3.793701171875
0.125,5.175048828125,-4.434326171875,-2.552490234375
0.1255,4.534423828125,-4.954833984375,-1.431396484375
0.126,3.973876953125,-5.515380859375,-0.470458984375
0.1265,3.333251953125,-6.035888671875,0.650634765625
0.127,2.732666015625,-6.636474609375,1.771728515625
0.1275,1.291259765625,-6.556396484375,3.173095703125
0.128,-0.190185546875,-6.156005859375,4.134033203125
0.1285,-1.031005859375,-5.955810546875,4.814697265625
0.129,-1.751708984375,-5.875732421875,5.455322265625
0.1295,-2.712646484375,-5.515380859375,6.256103515625
0.13,-4.114013671875,-4.194091796875,6.696533203125
0.1305,-4.874755859375,-3.193115234375,6.656494140625
0.131,-5.355224609375,-1.911865234375,6.135986328125
0.1315,-5.715576171875,-0.910888671875,5.815673828125
0.132,-5.835693359375,0.130126953125,5.375244140625
0.1325,-6.356201171875,1.171142578125,5.175048828125
0.133,-5.955810546875,2.572509765625,3.813720703125
0.1335,-5.395263671875,3.493408203125,2.332275390625
0.134,-4.754638671875,4.093994140625,1.291259765625
0.1345,-4.354248046875,4.774658203125,0.370361328125
0.135,-3.873779296875,5.375244140625,-0.710693359375
0.1355,-2.712646484375,5.775634765625,-2.192138671875
0.136,-1.551513671875,5.775634765625,-3.273193359375
0.1365,-0.310302734375,5.255126953125,-4.234130859375
0.137,0.450439453125,5.175048828125,-4.874755859375
0.1375,1.291259765625,5.054931640625,-5.595458984375
0.138,2.412353515625,4.814697265625,-6.516357421875
0.1385,3.773681640625,3.333251953125,-6.676513671875
0.139,4.494384765625,2.092041015625,-6.396240234375
0.1395,4.934814453125,1.051025390625,-6.035888671875
0.14,5.215087890625,0.050048828125,-5.755615234375
0.1405,5.415283203125,-0.910888671875,-5.235107421875
0.141,5.575439453125,-2.112060546875,-4.474365234375
0.1415,5.375244140625,-3.193115234375,-3.553466796875
0.142,4.694580078125,-4.154052734375,-2.192138671875
0.1425,4.174072265625,-4.674560546875,-1.191162109375
0.143,3.733642578125,-5.355224609375,-0.310302734375
0.1435,3.493408203125,-6.075927734375,0.610595703125
0.144,1.971923828125,-6.196044921875,2.212158203125
0.1445,0.930908203125,-5.995849609375,3.253173828125
0.145,-0.270263671875,-5.995849609375,3.973876953125
0.1455,-0.990966796875,-5.755615234375,4.614501953125
0.146,-1.871826171875,-5.515380859375,5.495361328125
0.1465,-3.072998046875,-4.994873046875,6.336181640625
0.147,-4.033935546875,-3.833740234375,6.416259765625
0.1475,-4.754638671875,-2.512451171875,6.015869140625
0.148,-5.155029296875,-1.511474609375,5.735595703125
0.1485,-5.315185546875,-0.630615234375,5.295166015625
0.149,-5.875732421875,0.370361328125,5.335205078125
0.1495,-5.635498046875,1.731689453125,3.973876953125
0.15,-5.435302734375,2.652587890625,3.093017578125
0.1505,-4.794677734375,3.333251953125,1.931884765625
0.151,-4.434326171875,3.973876953125,1.010986328125
0.1515,-3.913818359375,4.614501953125,0.050048828125
0.152,-3.513427734375,5.295166015625,-1.031005859375
0.1525,-2.312255859375,5.375244140625,-2.232177734375
0.153,-1.151123046875,5.094970703125,-3.193115234375
0.1535,-0.270263671875,5.094970703125,-4.033935546875
0.154,0.610595703125,5.094970703125,-4.834716796875
0.1545,1.571533203125,4.854736328125,-5.675537109375
0.155,2.852783203125,3.893798828125,-6.115966796875
0.1555,3.733642578125,2.932861328125,-6.356201171875
0.156,4.334228515625,1.731689453125,-5.915771484375
0.1565,4.574462890625,0.730712890625,-5.635498046875
0.157,4.934814453125,-0.310302734375,-5.395263671875
0.1575,5.455322265625,-1.111083984375,-5.275146484375
0.158,5.255126953125,-2.432373046875,-3.993896484375
0.1585,4.774658203125,-3.233154296875,-2.872802734375
0.159,4.334228515625,-3.873779296875,-1.911865234375
0.1595,3.973876953125,-4.674560546875,-1.031005859375
0.16,3.613525390625,-5.435302734375,-0.150146484375
0.1605,2.852783203125,-5.795654296875,1.131103515625
0.161,1.771728515625,-5.915771484375,2.332275390625
0.1615,0.690673828125,-5.635498046875,3.052978515625
0.162,-0.190185546875,-5.635498046875,3.773681640625
0.1625,-1.071044921875,-5.635498046875,4.694580078125
0.163,-1.991943359375,-5.595458984375,5.695556640625
0.1635,-3.233154296875,-4.354248046875,5.895751953125
0.164,-4.114013671875,-3.233154296875,5.855712890625
0.1645,-4.514404296875,-2.112060546875,5.535400390625
0.165,-4.834716796875,-1.471435546875,5.295166015625
0.1655,-5.275146484375,-0.510498046875,5.135009765625
0.166,-5.595458984375,0.610595703125,4.734619140625
0.1665,-5.435302734375,1.611572265625,3.813720703125
0.167,-4.954833984375,2.492431640625,2.612548828125
0.1675,-4.514404296875,3.253173828125,1.731689453125
0.168,-4.314208984375,3.893798828125,0.930908203125
0.1685,-4.073974609375,4.654541015625,-0.150146484375
0.169,-2.832763671875,5.054931640625,-1.431396484375
0.1695,-1.991943359375,4.974853515625,-2.392333984375
0.17,-0.950927734375,4.934814453125,-3.233154296875
0.1705,-0.310302734375,5.054931640625,-3.913818359375
0.171,0.770751953125,4.854736328125,-4.834716796875
0.1715,1.731689453125,4.614501953125,-5.715576171875
0.172,3.012939453125,3.613525390625,-6.075927734375
0.1725,3.573486328125,2.412353515625,-5.715576171875
0.173,4.174072265625,1.331298828125,-5.675537109375
0.1735,4.534423828125,0.610595703125,-5.435302734375
0.174,4.974853515625,-0.350341796875,-5.315185546875
0.1745,4.974853515625,-1.591552734375,-4.434326171875
0.175,4.854736328125,-2.392333984375,-3.633544921875
0.1755,4.454345703125,-3.233154296875,-2.592529296875
0.176,4.013916015625,-3.873779296875,-1.671630859375
0.1765,3.773681640625,-4.754638671875,-0.790771484375
0.177,3.573486328125,-5.435302734375,0.170166015625
0.1775,2.412353515625,-5.755615234375,1.331298828125
0.178,1.291259765625,-5.635498046875,2.412353515625
0.1785,0.610595703125,-5.555419921875,3.173095703125
0.179,-0.350341796875,-5.675537109375,4.093994140625
0.1795,-1.351318359375,-5.595458984375,5.054931640625
0.18,-2.712646484375,-4.834716796875,5.695556640625
0.1805,-3.433349609375,-3.913818359375,5.775634765625
0.181,-4.154052734375,-2.872802734375,5.575439453125
0.1815,-4.554443359375,-1.871826171875,5.415283203125
0.182,-4.994873046875,-1.031005859375,5.295166015625
0.1825,-5.515380859375,-0.190185546875,5.255126953125
0.183,-5.355224609375,1.131103515625,4.134033203125
0.1835,-5.114990234375,2.172119140625,3.093017578125
0.184,-4.554443359375,2.772705078125,2.052001953125
0.1845,-4.394287109375,3.493408203125,1.211181640625
0.185,-4.073974609375,4.334228515625,0.410400390625
0.1855,-3.553466796875,4.814697265625,-0.830810546875
0.186,-2.392333984375,5.094970703125,-2.031982421875
0.1865,-1.271240234375,4.934814453125,-2.912841796875
0.187,-0.590576171875,5.014892578125,-3.673583984375
0.1875,0.330322265625,4.974853515625,-4.514404296875
0.188,1.291259765625,5.014892578125,-5.475341796875
