wavelength,x,y,z
0.0,2.5675048828125,16.741333007812,-18.933471679688
0.0005,-1.7967529296875,18.623168945312,-16.811401367188
0.001,-5.1199951171875,19.944458007812,-14.969604492188
0.0015,-8.3231201171875,20.344848632812,-12.487182617188
0.002,-11.726440429688,20.224731445312,-9.0838623046875
0.0025,-15.249877929688,19.584106445312,-5.1600341796875
0.003,-18.132690429688,18.022583007812,-0.7957763671875
0.0035,-20.214721679688,15.980590820312,3.2882080078125
0.004,-20.775268554688,13.618286132812,6.2510986328125
0.0045,-21.295776367188,10.855590820312,9.4542236328125
0.005,-21.095581054688,6.9317626953125,13.217895507812
0.0055,-20.294799804688,3.1280517578125,16.260864257812
0.006,-18.573120117188,-0.7156982421875,18.382934570312
0.0065,-16.611206054688,-4.3192138671875,19.984497070312
0.007,-13.848510742188,-7.3621826171875,20.384887695312
0.0075,-10.405151367188,-10.645385742188,20.344848632812
0.008,-6.0408935546875,-14.248901367188,19.704223632812
0.0085,-1.1561279296875,-17.331909179688,18.062622070312
0.009,2.9278564453125,-19.093627929688,15.980590820312
0.0095,5.8907470703125,-19.854370117188,14.058715820312
0.01,9.1339111328125,-20.294799804688,11.536254882812
0.0105,12.817504882812,-19.854370117188,7.5723876953125
0.011,15.900512695312,-19.013549804688,3.8487548828125
0.0115,18.382934570312,-17.331909179688,-0.3153076171875
0.012,20.184692382812,-15.329956054688,-4.0389404296875
0.0125,20.505004882812,-12.767456054688,-6.9217529296875
0.013,20.905395507812,-9.8846435546875,-10.204956054688
0.0135,20.505004882812,-5.9207763671875,-13.808471679688
0.014,19.584106445312,-2.0770263671875,-16.771362304688
0.0145,17.622192382812,1.6466064453125,-18.493041992188
0.015,15.500122070312,4.8497314453125,-19.614135742188
0.0155,12.777465820312,8.0528564453125,-20.174682617188
0.016,8.5333251953125,11.776489257812,-19.734252929688
0.0165,4.5294189453125,14.859497070312,-18.973510742188
0.017,-0.1551513671875,17.542114257812,-17.211791992188
0.0175,-3.9588623046875,19.143676757812,-15.369995117188
0.018,-6.7215576171875,19.504028320312,-13.127807617188
0.0185,-9.8846435546875,19.984497070312,-10.645385742188
0.019,-13.808471679688,19.343872070312,-6.2811279296875
0.0195,-16.691284179688,18.182739257812,-2.2772216796875
0.02,-18.773315429688,16.380981445312,1.5264892578125
0.0205,-20.214721679688,14.379028320312,4.8897705078125
0.021,-20.535034179688,11.696411132812,7.9327392578125
0.0215,-20.655151367188,8.2930908203125,11.496215820312
0.022,-20.174682617188,4.6895751953125,14.579223632812
0.0225,-18.933471679688,0.6856689453125,17.381958007812
0.023,-16.851440429688,-3.0379638671875,19.023559570312
0.0235,-14.569213867188,-5.8807373046875,19.584106445312
0.024,-11.966674804688,-8.9637451171875,20.184692382812
0.0245,-7.0819091796875,-13.047729492188,19.463989257812
0.025,-2.8778076171875,-15.890502929688,18.302856445312
0.0255,1.2462158203125,-17.972534179688,16.461059570312
0.026,4.8096923828125,-19.413940429688,14.699340820312
0.0265,7.7325439453125,-19.614135742188,12.176879882812
0.027,10.935668945312,-19.814331054688,9.2540283203125
0.0275,14.579223632812,-19.213745117188,5.2501220703125
0.028,17.462036132812,-17.652221679688,0.9659423828125
0.0285,19.263793945312,-15.810424804688,-2.6375732421875
0.029,20.104614257812,-13.648315429688,-5.6405029296875
0.0295,20.585083007812,-11.045776367188,-8.6834716796875
0.03,20.424926757812,-6.9217529296875,-12.647338867188
0.0305,19.704223632812,-3.5584716796875,-15.410034179688
0.031,18.222778320312,0.2852783203125,-17.652221679688
0.0315,16.140747070312,3.9288330078125,-19.293823242188
0.032,13.338012695312,6.8917236328125,-19.494018554688
0.0325,10.455200195312,9.9747314453125,-19.854370117188
0.033,5.6905517578125,13.898559570312,-19.093627929688
0.0335,1.1260986328125,16.661254882812,-17.532104492188
0.034,-2.5174560546875,18.222778320312,-15.690307617188
0.0345,-5.7205810546875,19.343872070312,-13.848510742188
0.035,-8.8035888671875,19.544067382812,-11.245971679688
0.0355,-12.447143554688,19.183715820312,-7.4422607421875
0.036,-15.490112304688,18.543090820312,-3.8787841796875
0.0365,-18.052612304688,16.821411132812,0.4053955078125
0.037,-19.574096679688,14.859497070312,3.8487548828125
0.0375,-20.134643554688,12.377075195312,6.8116455078125
0.038,-20.575073242188,9.8946533203125,9.8145751953125
0.0385,-20.174682617188,5.4903564453125,13.778442382812
0.039,-19.173706054688,1.8868408203125,16.461059570312
0.0395,-17.371948242188,-1.6365966796875,18.102661132812
0.04,-15.450073242188,-4.9998779296875,19.584106445312
0.0405,-12.447143554688,-8.0028076171875,19.664184570312
0.041,-8.6834716796875,-11.526245117188,19.504028320312
0.0415,-4.5194091796875,-14.809448242188,18.743286132812
0.042,0.2852783203125,-17.331909179688,16.781372070312
0.0425,3.6885986328125,-18.653198242188,14.979614257812
0.043,6.6114501953125,-19.293823242188,12.857543945312
0.0435,9.6143798828125,-19.654174804688,10.455200195312
0.044,13.578247070312,-18.933471679688,5.9708251953125
0.0445,16.300903320312,-17.892456054688,2.2872314453125
0.045,18.342895507812,-16.170776367188,-1.4364013671875
0.0455,19.624145507812,-14.128784179688,-4.6795654296875
0.046,19.864379882812,-11.406127929688,-7.5623779296875
0.0465,20.104614257812,-8.5233154296875,-10.765502929688
0.047,19.664184570312,-4.7596435546875,-14.168823242188
0.0475,18.342895507812,-0.7957763671875,-16.811401367188
0.048,16.340942382812,2.5274658203125,-18.092651367188
0.0485,14.218872070312,5.5704345703125,-19.093627929688
0.049,11.536254882812,8.6134033203125,-19.494018554688
0.0495,6.6514892578125,12.537231445312,-18.773315429688
0.05,2.9278564453125,15.380004882812,-17.932495117188
0.0505,-1.2762451171875,17.462036132812,-16.130737304688
0.051,-4.5194091796875,18.703247070312,-14.288940429688
0.0515,-7.4422607421875,18.943481445312,-11.846557617188
0.052,-10.485229492188,19.223754882812,-9.2840576171875
0.0525,-14.248901367188,18.543090820312,-4.9998779296875
0.053,-16.971557617188,16.981567382812,-0.8758544921875
0.0535,-18.573120117188,15.299926757812,2.4073486328125
0.054,-19.614135742188,13.257934570312,5.4503173828125
0.0545,-19.854370117188,10.615356445312,8.3331298828125
0.055,-19.734252929688,6.8516845703125,12.096801757812
0.0555,-19.213745117188,3.4884033203125,14.859497070312
0.056,-17.772338867188,-0.3553466796875,17.261840820312
0.0565,-15.690307617188,-3.6785888671875,18.543090820312
0.057,-13.247924804688,-6.5614013671875,19.023559570312
0.0575,-10.565307617188,-9.6444091796875,19.463989257812
0.058,-5.4803466796875,-13.568237304688,18.503051757812
0.0585,-1.2762451171875,-16.170776367188,17.061645507812
0.059,2.2471923828125,-17.812377929688,15.420043945312
0.0595,5.4503173828125,-18.933471679688,13.578247070312
0.06,8.4532470703125,-19.053588867188,10.895629882812
0.0605,11.816528320312,-18.933471679688,7.5723876953125
0.061,15.059692382812,-18.252807617188,3.8887939453125
0.0615,17.622192382812,-16.531127929688,-0.3953857421875
0.062,18.863403320312,-14.689331054688,-3.3983154296875
0.0625,19.544067382812,-12.367065429688,-6.4412841796875
0.063,19.944458007812,-9.8846435546875,-9.2840576171875
0.0635,19.504028320312,-5.6405029296875,-13.167846679688
0.064,18.623168945312,-2.1971435546875,-15.690307617188
0.0645,17.021606445312,1.2462158203125,-17.572143554688
0.065,15.019653320312,4.6094970703125,-18.893432617188
0.0655,12.016723632812,7.5323486328125,-18.973510742188
0.066,8.6534423828125,11.015747070312,-19.133666992188
0.0665,4.1290283203125,14.579223632812,-18.332885742188
0.067,-0.4754638671875,16.941528320312,-16.370971679688
0.0675,-3.5184326171875,18.182739257812,-14.769409179688
0.068,-6.6014404296875,19.103637695312,-12.767456054688
0.0685,-9.6444091796875,19.223754882812,-10.124877929688
0.069,-13.448120117188,18.623168945312,-5.8406982421875
0.0695,-16.290893554688,17.622192382812,-2.1971435546875
0.07,-18.453002929688,15.860473632812,1.7667236328125
0.0705,-19.453979492188,13.778442382812,4.7696533203125
0.071,-19.854370117188,11.095825195312,7.8526611328125
0.0715,-20.134643554688,8.2930908203125,10.855590820312
0.072,-19.574096679688,4.2891845703125,14.459106445312
0.0725,-18.172729492188,0.3653564453125,16.941528320312
0.073,-16.370971679688,-2.8377685546875,18.302856445312
0.0735,-14.328979492188,-6.0809326171875,19.463989257812
0.074,-11.165893554688,-9.0037841796875,19.423950195312
0.0745,-6.7215576171875,-12.807495117188,18.903442382812
0.075,-2.5574951171875,-15.850463867188,17.982543945312
0.0755,1.9268798828125,-17.972534179688,15.940551757812
0.076,4.8497314453125,-18.893432617188,14.098754882812
0.0765,7.9727783203125,-19.413940429688,11.656372070312
0.077,11.135864257812,-19.534057617188,8.8936767578125
0.0775,14.779418945312,-18.693237304688,4.5294189453125
0.078,17.462036132812,-17.171752929688,0.4454345703125
0.0785,19.143676757812,-15.410034179688,-2.9979248046875
0.079,19.984497070312,-13.127807617188,-6.0408935546875
0.0795,20.184692382812,-10.204956054688,-9.1639404296875
0.08,19.984497070312,-6.6414794921875,-12.607299804688
0.0805,19.463989257812,-3.0780029296875,-15.650268554688
0.081,17.662231445312,1.0059814453125,-17.932495117188
0.0815,15.500122070312,4.1290283203125,-18.933471679688
0.082,13.097778320312,7.3321533203125,-19.734252929688
0.0825,9.7344970703125,10.575317382812,-19.734252929688
0.083,4.8096923828125,14.298950195312,-18.693237304688
0.0835,0.6055908203125,16.941528320312,-17.331909179688
0.084,-3.2781982421875,18.703247070312,-15.410034179688
0.0845,-6.2811279296875,19.343872070312,-13.408081054688
0.085,-9.5242919921875,19.584106445312,-10.565307617188
0.0855,-12.887573242188,19.343872070312,-7.1619873046875
0.086,-16.170776367188,18.422973632812,-3.0379638671875
0.0865,-18.613159179688,16.461059570312,1.3262939453125
0.087,-19.814331054688,14.499145507812,4.4093017578125
0.0875,-20.535034179688,12.096801757812,7.5323486328125
0.088,-20.615112304688,8.9737548828125,10.735473632812
0.0885,-20.054565429688,4.8497314453125,14.258911132812
0.089,-19.053588867188,1.2462158203125,16.941528320312
0.0895,-17.291870117188,-2.6375732421875,18.943481445312
0.09,-14.929565429688,-5.6405029296875,19.704223632812
0.0905,-12.086791992188,-8.7635498046875,20.024536132812
0.091,-8.2830810546875,-12.327026367188,19.864379882812
0.0915,-3.3983154296875,-15.730346679688,18.663208007812
0.092,1.1260986328125,-17.972534179688,16.621215820312
0.0925,4.4093017578125,-19.333862304688,14.899536132812
0.093,7.5323486328125,-19.934448242188,12.657348632812
0.0935,10.735473632812,-19.894409179688,9.6143798828125
0.094,14.298950195312,-19.293823242188,5.6905517578125
0.0945,17.301879882812,-18.092651367188,1.5665283203125
0.095,19.463989257812,-16.050659179688,-2.5975341796875
0.0955,20.184692382812,-13.848510742188,-5.4403076171875
0.096,20.745239257812,-11.245971679688,-8.6834716796875
0.0965,20.665161132812,-7.8426513671875,-12.046752929688
0.097,19.984497070312,-3.8787841796875,-15.329956054688
0.0975,18.422973632812,0.0050048828125,-17.652221679688
0.098,16.541137695312,3.5684814453125,-19.333862304688
0.0985,14.018676757812,6.6514892578125,-19.934448242188
0.099,10.695434570312,9.8546142578125,-19.894409179688
0.0995,6.4512939453125,13.458129882812,-19.453979492188
0.1,1.8868408203125,16.621215820312,-18.212768554688
0.1005,-2.4373779296875,18.463012695312,-16.010620117188
0.101,-5.4002685546875,19.263793945312,-14.088745117188
0.1015,-8.6033935546875,19.864379882812,-11.686401367188
0.102,-11.926635742188,19.544067382812,-8.2430419921875
0.1025,-15.329956054688,18.783325195312,-4.2391357421875
0.103,-17.972534179688,17.221801757812,0.0050048828125
0.1035,-19.854370117188,15.219848632812,3.7686767578125
0.104,-20.334838867188,12.817504882812,6.5714111328125
0.1045,-20.695190429688,9.9346923828125,9.7745361328125
0.105,-20.454956054688,6.2510986328125,13.297973632812
0.1055,-19.734252929688,2.4073486328125,16.340942382812
0.106,-17.812377929688,-1.4364013671875,18.342895507812
0.1065,-15.770385742188,-4.6395263671875,19.504028320312
0.107,-13.247924804688,-7.7625732421875,20.184692382812
0.1075,-9.4442138671875,-11.165893554688,19.864379882812
0.108,-5.0399169921875,-14.529174804688,19.063598632812
0.1085,-0.5155029296875,-17.331909179688,17.502075195312
0.109,3.6085205078125,-19.093627929688,15.500122070312
0.1095,6.4112548828125,-19.574096679688,13.338012695312
0.11,9.6143798828125,-20.054565429688,10.855590820312
0.1105,13.338012695312,-19.654174804688,6.8917236328125
0.111,16.501098632812,-18.573120117188,2.8878173828125
0.1115,18.823364257812,-16.811401367188,-1.2362060546875
0.112,20.304809570312,-14.769409179688,-4.6795654296875
0.1125,20.745239257812,-12.246948242188,-7.6824951171875
0.113,20.905395507812,-9.0037841796875,-11.085815429688
0.1135,20.344848632812,-5.2000732421875,-14.449096679688
0.114,19.343872070312,-1.2362060546875,-17.331909179688
0.1145,17.261840820312,2.6876220703125,-19.173706054688
0.115,14.859497070312,5.7305908203125,-19.854370117188
0.1155,12.176879882812,8.9737548828125,-20.494995117188
0.116,7.5323486328125,12.897583007812,-19.934448242188
0.1165,3.2882080078125,15.940551757812,-18.853393554688
0.117,-1.2362060546875,18.222778320312,-16.931518554688
0.1175,-4.8797607421875,19.784301757812,-15.049682617188
0.118,-7.8026123046875,19.984497070312,-12.567260742188
0.1185,-11.045776367188,20.184692382812,-9.7244873046875
0.119,-14.889526367188,19.584106445312,-5.4803466796875
0.1195,-17.972534179688,18.142700195312,-1.0760498046875
0.12,-19.894409179688,16.140747070312,2.8477783203125
0.1205,-20.855346679688,13.898559570312,6.0108642578125
0.121,-21.335815429688,11.135864257812,9.2540283203125
0.1215,-21.255737304688,7.2921142578125,12.977661132812
0.122,-20.494995117188,3.5684814453125,15.980590820312
0.1225,-18.973510742188,-0.5155029296875,18.543090820312
0.123,-16.851440429688,-4.3592529296875,20.304809570312
0.1235,-14.088745117188,-7.2420654296875,20.464965820312
0.124,-11.165893554688,-10.445190429688,20.905395507812
0.1245,-6.1209716796875,-14.489135742188,20.024536132812
0.125,-1.4764404296875,-17.452026367188,18.543090820312
0.1255,2.6876220703125,-19.213745117188,16.421020507812
0.126,6.0909423828125,-20.374877929688,14.379028320312
0.1265,9.2540283203125,-20.535034179688,11.656372070312
0.127,12.777465820312,-20.254760742188,8.0528564453125
0.1275,16.140747070312,-19.534057617188,4.0889892578125
0.128,19.023559570312,-17.692260742188,-0.5155029296875
0.1285,20.665161132812,-15.610229492188,-4.1990966796875
0.129,21.105590820312,-13.047729492188,-7.2020263671875
0.1295,21.505981445312,-10.325073242188,-10.405151367188
0.13,21.065551757812,-5.8406982421875,-14.328979492188
0.1305,20.064575195312,-2.1971435546875,-17.051635742188
0.131,18.182739257812,1.6466064453125,-18.933471679688
0.1315,15.980590820312,5.2901611328125,-20.494995117188
0.132,12.817504882812,8.3731689453125,-20.494995117188
0.1325,9.2940673828125,11.776489257812,-20.494995117188
0.133,4.6895751953125,15.380004882812,-19.614135742188
0.1335,-0.3153076171875,18.182739257812,-17.732299804688
0.134,-3.9989013671875,19.624145507812,-15.690307617188
0.1345,-7.0819091796875,20.304809570312,-13.488159179688
0.135,-10.285034179688,20.625122070312,-10.885620117188
0.1355,-14.248901367188,19.864379882812,-6.4012451171875
0.136,-17.171752929688,18.863403320312,-2.5975341796875
0.1365,-19.534057617188,16.981567382812,1.6466064453125
0.137,-20.975463867188,14.779418945312,5.2501220703125
0.1375,-21.175659179688,11.896606445312,8.2530517578125
0.138,-21.495971679688,9.0137939453125,11.536254882812
0.1385,-20.895385742188,4.6895751953125,15.259887695312
0.139,-19.614135742188,0.6055908203125,18.062622070312
0.1395,-17.492065429688,-3.0379638671875,19.584106445312
0.14,-15.369995117188,-6.2811279296875,20.785278320312
0.1405,-12.246948242188,-9.4842529296875,20.905395507812
0.141,-7.5623779296875,-13.408081054688,20.304809570312
0.1415,-3.3983154296875,-16.411010742188,19.343872070312
0.142,1.5264892578125,-18.853393554688,17.261840820312
0.1425,5.0899658203125,-20.214721679688,15.179809570312
0.143,8.1729736328125,-20.494995117188,12.577270507812
0.1435,11.376098632812,-20.815307617188,9.9346923828125
0.144,15.460083007812,-19.934448242188,5.1700439453125
0.1445,18.422973632812,-18.533081054688,0.8858642578125
0.145,20.264770507812,-16.611206054688,-2.8778076171875
0.1455,21.425903320312,-14.369018554688,-6.3211669921875
0.146,21.546020507812,-11.165893554688,-9.5242919921875
0.1465,21.505981445312,-7.4822998046875,-13.167846679688
0.147,20.865356445312,-3.7186279296875,-16.370971679688
0.1475,19.263793945312,0.6055908203125,-19.013549804688
0.148,16.821411132812,4.3292236328125,-20.334838867188
0.1485,14.178833007812,7.5323486328125,-20.935424804688
0.149,11.135864257812,10.815551757812,-21.295776367188
0.1495,5.6104736328125,15.099731445312,-20.214721679688
0.15,1.2462158203125,17.902465820312,-18.853393554688
0.1505,-3.0379638671875,19.824340820312,-16.811401367188
0.151,-6.6014404296875,21.025512695312,-14.649291992188
0.1515,-9.9647216796875,20.985473632812,-11.486206054688
0.152,-13.448120117188,20.945434570312,-8.2030029296875
0.1525,-17.171752929688,19.984497070312,-3.7186279296875
0.153,-20.054565429688,17.942504882812,1.2462158203125
0.1535,-21.455932617188,15.700317382812,4.6895751953125
0.154,-22.296752929688,13.177856445312,8.0928955078125
0.1545,-22.376831054688,10.054809570312,11.336059570312
0.155,-21.856323242188,5.4503173828125,15.460083007812
0.1555,-20.815307617188,1.7266845703125,18.182739257812
0.156,-18.893432617188,-2.5574951171875,20.464965820312
0.1565,-16.330932617188,-6.2010498046875,21.626098632812
0.157,-12.967651367188,-9.5242919921875,21.626098632812
0.1575,-9.5643310546875,-12.927612304688,21.786254882812
0.158,-3.9588623046875,-16.971557617188,20.464965820312
0.1585,1.1260986328125,-19.574096679688,18.262817382812
0.159,4.8096923828125,-21.015502929688,16.220825195312
0.1595,8.2930908203125,-21.896362304688,13.858520507812
0.16,11.816528320312,-21.736206054688,10.415161132812
0.1605,15.620239257812,-21.095581054688,6.1710205078125
0.161,18.823364257812,-19.934448242188,1.9669189453125
0.1615,21.425903320312,-17.692260742188,-2.9578857421875
0.162,22.386840820312,-15.169799804688,-6.2811279296875
0.1625,22.787231445312,-12.126831054688,-9.7645263671875
0.163,22.827270507812,-9.0037841796875,-13.007690429688
0.1635,21.986450195312,-4.1190185546875,-16.971557617188
0.164,20.344848632812,0.1251220703125,-19.534057617188
0.1645,18.182739257812,3.8487548828125,-21.175659179688
0.165,15.500122070312,7.5323486328125,-22.216674804688
0.1655,11.616333007812,10.975708007812,-21.936401367188
0.166,7.2921142578125,14.779418945312,-21.495971679688
0.1665,2.4073486328125,18.182739257812,-20.254760742188
0.167,-2.8778076171875,20.505004882812,-17.652221679688
0.1675,-6.1610107421875,21.425903320312,-15.410034179688
0.168,-9.6444091796875,21.946411132812,-12.807495117188
0.1685,-13.047729492188,21.786254882812,-9.4442138671875
0.169,-17.011596679688,20.625122070312,-4.5194091796875
0.1695,-19.894409179688,19.023559570312,-0.1551513671875
0.17,-21.896362304688,16.781372070312,4.1290283203125
0.1705,-22.617065429688,14.138793945312,7.4122314453125
0.171,-22.777221679688,10.695434570312,11.055786132812
0.1715,-22.577026367188,7.1719970703125,14.419067382812
0.172,-21.656127929688,2.8077392578125,17.902465820312
0.1725,-19.574096679688,-1.7567138671875,20.344848632812
0.173,-17.171752929688,-5.1600341796875,21.425903320312
0.1735,-14.609252929688,-8.5233154296875,22.266723632812
0.174,-10.645385742188,-12.006713867188,21.906372070312
0.1745,-5.5604248046875,-15.890502929688,20.825317382812
0.175,-0.9559326171875,-18.813354492188,19.423950195312
0.1755,3.8087158203125,-20.855346679688,16.941528320312
0.176,6.9718017578125,-21.576049804688,14.579223632812
0.1765,10.575317382812,-21.776245117188,11.576293945312
0.177,14.098754882812,-21.536010742188,8.0528564453125
0.1775,17.742309570312,-20.334838867188,3.3682861328125
0.178,20.424926757812,-18.252807617188,-1.3162841796875
