wavelength,x,y,z
0.0,17.251831054688,3.0379638671875,-19.343872070312
0.0005,15.490112304688,6.2811279296875,-20.985473632812
0.001,11.806518554688,9.0438232421875,-20.464965820312
0.0015,7.4822998046875,12.767456054688,-19.544067382812
0.002,2.7977294921875,16.370971679688,-18.863403320312
0.0025,-2.2071533203125,19.253784179688,-17.141723632812
0.003,-5.6505126953125,20.815307617188,-15.540161132812
0.0035,-8.2930908203125,21.576049804688,-13.618286132812
0.004,-11.576293945312,20.855346679688,-9.8546142578125
0.0045,-14.098754882812,19.854370117188,-5.3302001953125
0.005,-18.543090820312,18.693237304688,-1.0059814453125
0.0055,-20.825317382812,16.851440429688,2.9578857421875
0.006,-22.066528320312,14.969604492188,6.2010498046875
0.0065,-21.666137695312,12.807495117188,9.0037841796875
0.007,-20.785278320312,7.3621826171875,12.327026367188
0.0075,-20.024536132812,3.1180419921875,15.970581054688
0.008,-18.623168945312,-1.4464111328125,19.053588867188
0.0085,-15.380004882812,-5.0098876953125,20.655151367188
0.009,-14.739379882812,-7.9727783203125,21.816284179688
0.0095,-10.575317382812,-11.175903320312,20.775268554688
0.01,-5.5704345703125,-14.779418945312,19.694213867188
0.0105,-0.8057861328125,-18.062622070312,18.533081054688
0.011,3.9188232421875,-20.545043945312,16.691284179688
0.0115,6.6815185546875,-21.866333007812,15.129760742188
0.012,9.9246826171875,-21.666137695312,12.286987304688
0.0125,13.167846679688,-20.985473632812,8.2430419921875
0.013,16.771362304688,-19.864379882812,3.8787841796875
0.0135,19.894409179688,-18.142700195312,-0.8458251953125
0.014,21.455932617188,-16.380981445312,-4.2491455078125
0.0145,22.256713867188,-14.218872070312,-7.2120361328125
0.015,21.335815429688,-8.9737548828125,-10.214965820312
0.0155,20.454956054688,-5.9307861328125,-13.578247070312
0.016,19.694213867188,-1.9669189453125,-16.861450195312
0.0165,17.972534179688,2.4774169921875,-19.704223632812
0.017,16.010620117188,5.7205810546875,-21.105590820312
0.0175,13.448120117188,8.6033935546875,-21.345825195312
0.018,9.0037841796875,12.006713867188,-20.344848632812
0.0185,3.9989013671875,15.810424804688,-17.942504882812
0.019,-0.8458251953125,18.733276367188,-17.662231445312
0.0195,-4.8497314453125,20.735229492188,-16.180786132812
0.02,-7.5323486328125,21.696166992188,-14.579223632812
0.0205,-10.615356445312,21.215698242188,-10.855590820312
0.021,-13.978637695312,20.174682617188,-7.0919189453125
0.0215,-17.341918945312,19.453979492188,-2.6475830078125
0.022,-20.104614257812,17.291870117188,1.9168701171875
0.0225,-21.505981445312,15.530151367188,4.9197998046875
0.023,-21.906372070312,13.167846679688,7.8026123046875
0.0235,-20.865356445312,8.8836669921875,10.925659179688
0.024,-20.064575195312,4.5994873046875,14.409057617188
0.0245,-18.863403320312,0.5955810546875,17.411987304688
0.025,-17.462036132812,-3.5684814453125,19.974487304688
0.0255,-15.460083007812,-6.5714111328125,21.095581054688
0.026,-11.976684570312,-9.3741455078125,20.655151367188
0.0265,-7.7325439453125,-12.737426757812,19.854370117188
0.027,-2.7276611328125,-16.541137695312,18.893432617188
0.0275,2.1971435546875,-19.183715820312,16.971557617188
0.028,5.3602294921875,-20.665161132812,15.650268554688
0.0285,7.9627685546875,-21.746215820312,13.848510742188
0.029,11.646362304688,-20.785278320312,9.5643310546875
0.0295,14.849487304688,-19.784301757812,5.7205810546875
0.03,19.213745117188,-18.903442382812,1.5565185546875
0.0305,20.935424804688,-16.941528320312,-2.9678955078125
0.031,21.335815429688,-15.059692382812,-5.6104736328125
0.0315,21.736206054688,-11.816528320312,-8.6934814453125
0.032,20.454956054688,-7.8126220703125,-11.936645507812
0.0325,19.854370117188,-3.4083251953125,-15.420043945312
0.033,18.292846679688,0.6756591796875,-18.422973632812
0.0335,16.891479492188,4.3192138671875,-19.223754882812
0.034,14.689331054688,7.3621826171875,-21.505981445312
0.0345,10.204956054688,10.605346679688,-20.344848632812
0.035,5.9207763671875,14.048706054688,-19.624145507812
0.0355,1.1561279296875,17.612182617188,-18.583129882812
0.036,-3.5684814453125,20.214721679688,-16.541137695312
0.0365,-6.3712158203125,21.375854492188,-15.099731445312
0.037,-9.4542236328125,23.057495117188,-12.657348632812
0.0375,-13.177856445312,20.615112304688,-8.0928955078125
0.038,-16.741333007812,19.654174804688,-4.0889892578125
0.0385,-19.303833007812,18.172729492188,0.2752685546875
0.039,-21.586059570312,16.491088867188,4.3992919921875
0.0395,-22.506958007812,15.369995117188,7.1219482421875
0.04,-21.305786132812,10.204956054688,10.445190429688
0.0405,-20.985473632812,6.0809326171875,13.688354492188
0.041,-19.584106445312,1.8367919921875,17.211791992188
0.0415,-17.982543945312,-2.8477783203125,19.814331054688
0.042,-16.581176757812,-5.9708251953125,21.295776367188
0.0425,-13.818481445312,-8.9337158203125,21.856323242188
0.043,-8.6534423828125,-12.337036132812,20.414916992188
0.0435,-4.2491455078125,-15.900512695312,19.494018554688
0.044,0.6756591796875,-18.983520507812,18.092651367188
0.0445,4.9197998046875,-21.305786132812,16.290893554688
0.045,8.9637451171875,-20.505004882812,14.449096679688
0.0455,10.845581054688,-21.626098632812,11.205932617188
0.046,14.449096679688,-20.585083007812,6.9217529296875
0.0465,17.772338867188,-19.624145507812,2.4774169921875
0.047,20.334838867188,-17.742309570312,-1.9268798828125
0.0475,22.216674804688,-16.020629882812,-5.4102783203125
0.048,22.697143554688,-13.257934570312,-8.2930908203125
0.0485,20.975463867188,-8.6934814453125,-11.616333007812
0.049,20.294799804688,-5.1700439453125,-14.939575195312
0.0495,20.494995117188,-0.5655517578125,-18.022583007812
0.05,17.211791992188,3.6385498046875,-20.745239257812
0.0505,15.329956054688,6.9217529296875,-21.225708007812
0.051,12.286987304688,9.8045654296875,-21.425903320312
0.0515,7.1619873046875,13.408081054688,-20.264770507812
0.052,3.8387451171875,17.011596679688,-19.103637695312
0.0525,-2.0870361328125,19.734252929688,-17.341918945312
0.053,-5.7706298828125,21.576049804688,-15.900512695312
0.0535,-8.4932861328125,21.936401367188,-13.738403320312
0.054,-12.016723632812,21.095581054688,-9.6143798828125
0.0545,-15.540161132812,20.294799804688,-5.7706298828125
0.055,-18.783325195312,19.053588867188,-1.1260986328125
0.0555,-21.305786132812,17.091674804688,3.1981201171875
0.056,-22.386840820312,14.969604492188,6.0809326171875
0.0565,-21.946411132812,11.966674804688,9.0037841796875
0.057,-20.585083007812,7.0418701171875,12.647338867188
0.0575,-20.104614257812,3.4383544921875,16.050659179688
0.058,-19.303833007812,-1.1260986328125,18.893432617188
0.0585,-15.380004882812,-5.0098876953125,21.135620117188
0.059,-15.099731445312,-7.8126220703125,21.616088867188
0.0595,-8.9737548828125,-10.735473632812,20.815307617188
0.06,-6.4512939453125,-14.779418945312,19.974487304688
0.0605,-1.0460205078125,-16.661254882812,18.613159179688
0.061,3.6785888671875,-20.224731445312,17.932495117188
0.0615,6.4813232421875,-21.586059570312,15.410034179688
0.062,9.1639404296875,-22.106567382812,12.847534179688
0.0625,13.207885742188,-19.223754882812,8.1629638671875
0.063,16.250854492188,-20.064575195312,4.4793701171875
0.0635,19.534057617188,-18.463012695312,1.2762451171875
0.064,21.455932617188,-16.621215820312,-4.0489501953125
0.0645,21.896362304688,-14.499145507812,-6.8516845703125
0.065,21.415893554688,-10.975708007812,-9.9747314453125
0.0655,20.895385742188,-6.1710205078125,-13.658325195312
0.066,19.934448242188,-2.2071533203125,-17.101684570312
0.0665,18.052612304688,2.3172607421875,-19.183715820312
0.067,16.411010742188,5.8006591796875,-21.225708007812
0.0675,14.008666992188,8.5233154296875,-21.666137695312
0.068,9.0838623046875,12.286987304688,-20.144653320312
0.0685,4.4793701171875,15.289916992188,-20.024536132812
0.069,-0.2852783203125,19.053588867188,-17.982543945312
0.0695,-4.3292236328125,20.695190429688,-16.541137695312
0.07,-7.5323486328125,21.696166992188,-14.659301757812
0.0705,-10.455200195312,21.816284179688,-11.416137695312
0.071,-14.459106445312,20.294799804688,-6.8516845703125
0.0715,-17.502075195312,19.373901367188,-2.9278564453125
0.072,-20.384887695312,17.732299804688,1.5565185546875
0.0725,-22.226684570312,15.930541992188,5.2000732421875
0.073,-22.106567382812,13.127807617188,7.8426513671875
0.0735,-21.105590820312,8.8836669921875,11.165893554688
0.074,-19.223754882812,4.7196044921875,14.649291992188
0.0745,-19.103637695312,0.3553466796875,18.012573242188
0.075,-17.341918945312,-2.5675048828125,20.094604492188
0.0755,-15.299926757812,-6.4512939453125,21.536010742188
0.076,-12.457153320312,-9.4542236328125,21.375854492188
0.0765,-7.5723876953125,-13.538208007812,19.974487304688
0.077,-2.7677001953125,-16.461059570312,19.013549804688
0.0775,1.9168701171875,-19.103637695312,17.612182617188
0.078,5.7606201171875,-21.185668945312,15.690307617188
0.0785,8.0028076171875,-21.465942382812,13.888549804688
0.079,11.566284179688,-20.785278320312,10.204956054688
0.0795,15.169799804688,-20.064575195312,5.7205810546875
0.08,18.212768554688,-18.743286132812,1.3963623046875
0.0805,20.454956054688,-17.341918945312,-2.6876220703125
0.081,22.056518554688,-15.139770507812,-5.7706298828125
0.0815,21.415893554688,-12.497192382812,-8.4932861328125
0.082,20.615112304688,-7.5723876953125,-12.056762695312
0.0825,19.814331054688,-4.0089111328125,-15.219848632812
0.083,18.453002929688,0.3953857421875,-18.382934570312
0.0835,16.931518554688,4.2791748046875,-20.424926757812
0.084,14.529174804688,6.7615966796875,-21.145629882812
0.0845,11.326049804688,10.405151367188,-20.464965820312
0.085,6.1209716796875,14.369018554688,-19.183715820312
0.0855,1.1160888671875,17.091674804688,-18.382934570312
0.086,-2.9678955078125,19.614135742188,-16.741333007812
0.0865,-6.0509033203125,21.455932617188,-15.259887695312
0.087,-9.0538330078125,21.135620117188,-12.617309570312
0.0875,-12.136840820312,20.535034179688,-8.4132080078125
0.088,-15.860473632812,19.694213867188,-4.5294189453125
0.0885,-18.623168945312,18.252807617188,0.0750732421875
0.089,-20.665161132812,16.250854492188,3.4383544921875
0.0895,-20.505004882812,14.168823242188,6.2010498046875
0.09,-20.945434570312,10.925659179688,9.2440185546875
0.0905,-19.864379882812,7.6824951171875,13.007690429688
0.091,-18.983520507812,2.4774169921875,15.890502929688
0.0915,-17.622192382812,-1.6866455078125,18.653198242188
0.092,-16.100708007812,-5.2901611328125,20.575073242188
0.0925,-13.217895507812,-7.7725830078125,20.454956054688
0.093,-9.2540283203125,-11.135864257812,19.774291992188
0.0935,-4.4093017578125,-14.699340820312,19.053588867188
0.094,0.5155029296875,-17.662231445312,17.411987304688
0.0945,3.8787841796875,-19.343872070312,16.130737304688
0.095,6.5213623046875,-21.546020507812,14.729370117188
0.0955,9.6043701171875,-21.105590820312,11.366088867188
0.096,13.167846679688,-19.544067382812,7.3621826171875
0.0965,16.451049804688,-19.544067382812,3.3582763671875
0.097,19.253784179688,-16.981567382812,-0.8057861328125
0.0975,20.775268554688,-15.980590820312,-4.3292236328125
0.098,20.895385742188,-13.217895507812,-6.6114501953125
0.0985,20.214721679688,-9.6544189453125,-9.9346923828125
0.099,19.774291992188,-5.4903564453125,-13.938598632812
0.0995,18.533081054688,-1.0460205078125,-16.501098632812
0.1,16.771362304688,2.5174560546875,-18.823364257812
0.1005,15.650268554688,6.0408935546875,-19.223754882812
0.101,11.806518554688,8.5633544921875,-20.024536132812
0.1015,7.7225341796875,12.166870117188,-19.143676757812
0.102,3.5584716796875,15.530151367188,-18.903442382812
0.1025,-1.3262939453125,18.693237304688,-16.821411132812
0.103,-4.4493408203125,20.214721679688,-15.540161132812
0.1035,-7.6524658203125,20.975463867188,-13.378051757812
0.104,-10.775512695312,20.374877929688,-9.8946533203125
0.1045,-14.379028320312,20.494995117188,-6.1309814453125
0.105,-17.462036132812,18.292846679688,-2.0469970703125
0.1055,-19.744262695312,16.611206054688,2.1971435546875
0.106,-21.105590820312,14.809448242188,4.9598388671875
0.1065,-20.705200195312,11.886596679688,8.1229248046875
0.107,-19.944458007812,7.8426513671875,10.925659179688
0.1075,-19.423950195312,3.6785888671875,14.729370117188
0.108,-18.142700195312,-0.5655517578125,17.612182617188
0.1085,-16.380981445312,-3.9288330078125,19.333862304688
0.109,-14.779418945312,-7.0118408203125,20.655151367188
0.1095,-10.895629882812,-10.054809570312,19.894409179688
0.11,-6.2911376953125,-13.698364257812,18.853393554688
0.1105,-2.0069580078125,-16.821411132812,18.052612304688
0.111,3.0780029296875,-19.103637695312,16.330932617188
0.1115,5.9608154296875,-20.264770507812,15.049682617188
0.112,8.7235107421875,-20.384887695312,12.527221679688
0.1125,11.686401367188,-19.904418945312,9.0037841796875
0.113,16.651245117188,-17.942504882812,4.7596435546875
0.1135,18.412963867188,-18.382934570312,1.2762451171875
0.114,20.214721679688,-16.300903320312,-3.5684814453125
0.1145,21.175659179688,-12.817504882812,-5.5303955078125
0.115,20.334838867188,-10.895629882812,-9.2540283203125
0.1155,19.574096679688,-5.1300048828125,-11.856567382812
0.116,19.093627929688,-2.8878173828125,-15.940551757812
0.1165,17.652221679688,1.7567138671875,-18.102661132812
0.117,15.850463867188,4.6795654296875,-20.585083007812
0.1175,13.448120117188,8.9637451171875,-20.424926757812
0.118,9.2039794921875,10.845581054688,-19.423950195312
0.1185,4.4793701171875,14.689331054688,-18.983520507812
0.119,0.2752685546875,19.213745117188,-17.462036132812
0.1195,-4.1690673828125,19.734252929688,-16.140747070312
0.12,-6.8116455078125,20.975463867188,-14.419067382812
0.1205,-10.214965820312,20.535034179688,-10.975708007812
0.121,-12.977661132812,19.974487304688,-7.0919189453125
0.1215,-16.981567382812,18.933471679688,-3.2481689453125
0.122,-19.504028320312,17.331909179688,1.7567138671875
0.1225,-20.785278320312,16.651245117188,4.3192138671875
0.123,-21.305786132812,13.047729492188,7.0819091796875
0.1235,-20.264770507812,9.2039794921875,10.565307617188
0.124,-19.544067382812,4.9197998046875,14.008666992188
0.1245,-18.663208007812,0.8758544921875,16.771362304688
0.125,-17.181762695312,-3.1280517578125,19.494018554688
0.1255,-15.420043945312,-6.1710205078125,20.575073242188
0.126,-12.096801757812,-9.0137939453125,20.294799804688
0.1265,-7.8526611328125,-12.176879882812,19.614135742188
0.127,-2.9678955078125,-16.060668945312,18.573120117188
0.1275,1.8768310546875,-18.863403320312,16.931518554688
0.128,4.9598388671875,-20.104614257812,15.490112304688
0.1285,7.8026123046875,-20.825317382812,13.888549804688
0.129,11.286010742188,-20.024536132812,9.6043701171875
0.1295,14.809448242188,-19.063598632812,5.8807373046875
0.13,17.612182617188,-18.342895507812,1.7967529296875
0.1305,19.894409179688,-16.701293945312,-2.4473876953125
0.131,20.935424804688,-14.539184570312,-5.0098876953125
0.1315,20.855346679688,-11.976684570312,-7.9327392578125
0.132,19.854370117188,-8.0128173828125,-10.255004882812
0.1325,20.494995117188,-3.7286376953125,-15.019653320312
0.133,17.892456054688,0.4754638671875,-17.261840820312
0.1335,16.370971679688,3.9588623046875,-19.544067382812
0.134,14.449096679688,6.8416748046875,-20.825317382812
0.1345,10.325073242188,9.9246826171875,-19.383911132812
0.135,6.1209716796875,13.287963867188,-18.703247070312
0.1355,1.5565185546875,16.731323242188,-18.142700195312
0.136,-3.0880126953125,19.253784179688,-15.740356445312
0.1365,-5.7706298828125,20.334838867188,-14.899536132812
0.137,-8.6934814453125,20.735229492188,-13.097778320312
0.1375,-12.056762695312,19.774291992188,-8.2130126953125
0.138,-15.540161132812,19.053588867188,-4.4493408203125
0.1385,-18.142700195312,17.892456054688,1.2762451171875
0.139,-20.665161132812,16.010620117188,3.4783935546875
0.1395,-21.145629882812,13.928588867188,6.0809326171875
0.14,-20.264770507812,10.445190429688,9.2440185546875
0.1405,-19.504028320312,6.2811279296875,12.126831054688
0.141,-18.943481445312,2.2371826171875,15.810424804688
0.1415,-17.341918945312,-1.8868408203125,18.172729492188
0.142,-15.820434570312,-4.8497314453125,19.734252929688
0.1425,-13.778442382812,-7.6124267578125,20.575073242188
0.143,-9.0137939453125,-10.895629882812,19.173706054688
0.1435,-4.7696533203125,-14.298950195312,18.533081054688
0.144,-0.3253173828125,-17.381958007812,17.331909179688
0.1445,5.1199951171875,-19.704223632812,15.810424804688
0.145,7.6824951171875,-19.223754882812,14.168823242188
0.1455,9.4041748046875,-20.344848632812,11.326049804688
0.146,12.767456054688,-19.544067382812,7.3221435546875
0.1465,16.130737304688,-18.663208007812,2.9979248046875
0.147,18.813354492188,-17.141723632812,-1.2061767578125
0.1475,20.334838867188,-15.940551757812,-4.1690673828125
0.148,20.775268554688,-13.658325195312,-7.0118408203125
0.1485,20.494995117188,-9.4942626953125,-9.8946533203125
0.149,19.053588867188,-5.2901611328125,-12.657348632812
0.1495,18.453002929688,-1.4464111328125,-16.060668945312
0.15,16.771362304688,2.6776123046875,-18.623168945312
0.1505,15.009643554688,5.4803466796875,-19.944458007812
0.151,12.166870117188,8.3231201171875,-20.024536132812
0.1515,7.5623779296875,11.806518554688,-18.863403320312
0.152,3.1180419921875,15.329956054688,-18.062622070312
0.1525,-1.3663330078125,19.213745117188,-16.581176757812
0.153,-4.7296142578125,19.854370117188,-15.339965820312
0.1535,-7.3321533203125,21.776245117188,-13.498168945312
0.154,-10.615356445312,19.774291992188,-9.6944580078125
0.1545,-13.818481445312,20.494995117188,-6.1309814453125
0.155,-17.141723632812,18.172729492188,-2.0469970703125
0.1555,-19.504028320312,16.370971679688,2.2772216796875
0.156,-19.223754882812,14.649291992188,5.2801513671875
0.1565,-20.705200195312,12.006713867188,7.6024169921875
0.157,-19.744262695312,7.8426513671875,12.807495117188
0.1575,-19.023559570312,3.6785888671875,14.208862304688
0.158,-17.862426757812,-0.3653564453125,17.291870117188
0.1585,-16.421020507812,-4.1690673828125,19.654174804688
0.159,-14.459106445312,-6.6915283203125,20.334838867188
0.1595,-10.775512695312,-9.6944580078125,19.534057617188
0.16,-6.4512939453125,-13.097778320312,18.893432617188
0.1605,-1.6466064453125,-16.621215820312,17.892456054688
0.161,2.7576904296875,-18.943481445312,16.050659179688
0.1615,5.5604248046875,-20.384887695312,14.849487304688
0.162,8.3631591796875,-20.785278320312,12.727416992188
0.1625,11.846557617188,-19.704223632812,8.2830810546875
0.163,15.049682617188,-19.183715820312,4.7196044921875
0.1635,18.092651367188,-17.862426757812,0.4754638671875
0.164,20.294799804688,-16.020629882812,-3.4083251953125
0.1645,20.735229492188,-13.978637695312,-5.9708251953125
0.165,20.454956054688,-10.695434570312,-9.0137939453125
0.1655,19.494018554688,-6.4913330078125,-12.377075195312
0.166,18.813354492188,-2.5274658203125,-15.339965820312
0.1665,17.291870117188,1.5565185546875,-17.702270507812
0.167,15.890502929688,5.0799560546875,-19.584106445312
0.1675,13.127807617188,7.3621826171875,-20.705200195312
0.168,8.7635498046875,10.845581054688,-19.504028320312
0.1685,4.8397216796875,14.208862304688,-19.263793945312
0.169,0.1151123046875,17.492065429688,-17.462036132812
0.1695,-3.9288330078125,19.574096679688,-15.700317382812
0.17,-6.6114501953125,20.454956054688,-14.218872070312
0.1705,-9.6544189453125,20.535034179688,-11.496215820312
0.171,-13.257934570312,19.453979492188,-7.0118408203125
0.1715,-16.380981445312,18.613159179688,-3.1680908203125
0.172,-18.983520507812,17.091674804688,0.9559326171875
0.1725,-20.745239257812,15.410034179688,4.3592529296875
0.173,-20.905395507812,12.927612304688,6.8817138671875
0.1735,-20.064575195312,8.9237060546875,10.204956054688
0.174,-19.423950195312,5.0799560546875,13.408081054688
0.1745,-18.583129882812,0.9158935546875,16.771362304688
0.175,-16.901489257812,-2.9678955078125,18.933471679688
0.1755,-15.299926757812,-5.8507080078125,20.214721679688
0.176,-12.296997070312,-7.6925048828125,20.454956054688
0.1765,-7.4522705078125,-12.537231445312,19.133666992188
0.177,-3.0880126953125,-15.540161132812,18.412963867188
0.1775,1.2362060546875,-18.222778320312,17.932495117188
0.178,4.8397216796875,-20.224731445312,15.329956054688
