wavelength,x,y,z
0.0,-3.873779296875,-4.114013671875,6.256103515625
0.0005,-4.994873046875,-2.872802734375,6.416259765625
0.001,-5.755615234375,-1.791748046875,6.456298828125
0.0015,-6.075927734375,-1.151123046875,6.216064453125
0.002,-5.875732421875,0.010009765625,5.575439453125
0.0025,-5.755615234375,1.211181640625,4.494384765625
0.003,-5.755615234375,2.612548828125,3.333251953125
0.0035,-5.595458984375,3.853759765625,2.212158203125
0.004,-5.435302734375,4.774658203125,1.331298828125
0.0045,-4.834716796875,5.175048828125,0.490478515625
0.005,-3.753662109375,5.375244140625,-0.710693359375
0.0055,-2.512451171875,5.695556640625,-2.232177734375
0.006,-1.231201171875,5.935791015625,-3.793701171875
0.0065,-0.310302734375,6.135986328125,-4.834716796875
0.007,0.530517578125,6.256103515625,-5.755615234375
0.0075,1.611572265625,5.415283203125,-6.196044921875
0.008,3.093017578125,4.093994140625,-6.556396484375
0.0085,4.494384765625,2.692626953125,-6.796630859375
0.009,5.495361328125,1.331298828125,-6.876708984375
0.0095,5.935791015625,0.530517578125,-6.716552734375
0.01,6.015869140625,-0.510498046875,-6.316162109375
0.0105,5.735595703125,-1.591552734375,-5.235107421875
0.011,5.615478515625,-3.032958984375,-3.993896484375
0.0115,5.495361328125,-4.434326171875,-2.672607421875
0.012,5.215087890625,-5.475341796875,-1.591552734375
0.0125,4.894775390625,-6.156005859375,-0.790771484375
0.013,3.973876953125,-6.396240234375,0.290283203125
0.0135,2.532470703125,-6.436279296875,1.691650390625
0.014,1.131103515625,-6.716552734375,3.333251953125
0.0145,-0.190185546875,-6.756591796875,4.614501953125
0.015,-0.950927734375,-6.916748046875,5.575439453125
0.0155,-1.711669921875,-6.636474609375,6.216064453125
0.016,-2.952880859375,-5.475341796875,6.456298828125
0.0165,-4.434326171875,-4.114013671875,6.696533203125
0.017,-5.635498046875,-2.592529296875,6.896728515625
0.0175,-6.396240234375,-1.551513671875,6.696533203125
0.018,-6.596435546875,-0.590576171875,6.576416015625
0.0185,-6.396240234375,0.410400390625,5.775634765625
0.019,-6.075927734375,1.611572265625,4.494384765625
0.0195,-5.915771484375,3.052978515625,3.253173828125
0.02,-5.715576171875,4.334228515625,1.971923828125
0.0205,-5.395263671875,5.175048828125,1.010986328125
0.021,-4.874755859375,5.695556640625,0.250244140625
0.0215,-3.833740234375,5.775634765625,-0.910888671875
0.022,-2.392333984375,5.895751953125,-2.392333984375
0.0225,-1.031005859375,6.135986328125,-3.953857421875
0.023,0.090087890625,6.176025390625,-5.114990234375
0.0235,0.770751953125,6.336181640625,-5.995849609375
0.024,1.691650390625,5.815673828125,-6.476318359375
0.0245,3.052978515625,4.454345703125,-6.716552734375
0.025,4.494384765625,3.012939453125,-7.036865234375
0.0255,5.695556640625,1.611572265625,-7.116943359375
0.026,6.135986328125,0.570556640625,-6.956787109375
0.0265,6.336181640625,-0.350341796875,-6.676513671875
0.027,6.055908203125,-1.311279296875,-5.755615234375
0.0275,5.735595703125,-2.632568359375,-4.474365234375
0.028,5.615478515625,-4.114013671875,-3.113037109375
0.0285,5.335205078125,-5.275146484375,-1.911865234375
0.029,5.094970703125,-6.115966796875,-0.990966796875
0.0295,4.414306640625,-6.436279296875,0.010009765625
0.03,3.173095703125,-6.516357421875,1.131103515625
0.0305,1.731689453125,-6.716552734375,2.692626953125
0.031,0.330322265625,-6.796630859375,4.214111328125
0.0315,-0.630615234375,-6.916748046875,5.255126953125
0.032,-1.351318359375,-6.916748046875,6.055908203125
0.0325,-2.432373046875,-6.115966796875,6.456298828125
0.033,-3.833740234375,-4.714599609375,6.696533203125
0.0335,-5.275146484375,-3.313232421875,7.016845703125
0.034,-6.115966796875,-1.951904296875,6.856689453125
0.0345,-6.596435546875,-1.031005859375,6.776611328125
0.035,-6.556396484375,-0.190185546875,6.256103515625
0.0355,-6.236083984375,0.970947265625,5.175048828125
0.036,-6.075927734375,2.372314453125,3.893798828125
0.0365,-5.915771484375,3.813720703125,2.572509765625
0.037,-5.635498046875,4.814697265625,1.491455078125
0.0375,-5.275146484375,5.575439453125,0.610595703125
0.038,-4.434326171875,5.775634765625,-0.390380859375
0.0385,-3.072998046875,5.855712890625,-1.751708984375
0.039,-1.671630859375,6.135986328125,-3.353271484375
0.0395,-0.430419921875,6.216064453125,-4.754638671875
0.04,0.490478515625,6.376220703125,-5.715576171875
0.0405,1.291259765625,6.135986328125,-6.396240234375
0.041,2.532470703125,5.054931640625,-6.716552734375
0.0415,4.053955078125,3.533447265625,-7.076904296875
0.042,5.295166015625,2.172119140625,-7.197021484375
0.0425,6.055908203125,0.890869140625,-7.076904296875
0.043,6.376220703125,0.050048828125,-6.916748046875
0.0435,6.216064453125,-0.990966796875,-6.156005859375
0.044,5.895751953125,-2.232177734375,-4.954833984375
0.0445,5.735595703125,-3.713623046875,-3.553466796875
0.045,5.495361328125,-4.994873046875,-2.272216796875
0.0455,5.175048828125,-5.955810546875,-1.231201171875
0.046,4.734619140625,-6.516357421875,-0.390380859375
0.0465,3.573486328125,-6.596435546875,0.770751953125
0.047,2.132080078125,-6.716552734375,2.292236328125
0.0475,0.650634765625,-6.916748046875,3.973876953125
0.048,-0.510498046875,-6.916748046875,5.094970703125
0.0485,-1.271240234375,-7.076904296875,6.055908203125
0.049,-2.152099609375,-6.516357421875,6.496337890625
0.0495,-3.553466796875,-5.155029296875,6.776611328125
0.05,-4.914794921875,-3.713623046875,7.016845703125
0.0505,-6.035888671875,-2.272216796875,7.016845703125
0.051,-6.596435546875,-1.151123046875,6.856689453125
0.0515,-6.716552734375,-0.310302734375,6.536376953125
0.052,-6.396240234375,0.730712890625,5.575439453125
0.0525,-6.115966796875,2.011962890625,4.294189453125
0.053,-5.955810546875,3.493408203125,2.892822265625
0.0535,-5.635498046875,4.614501953125,1.731689453125
0.054,-5.355224609375,5.415283203125,0.810791015625
0.0545,-4.674560546875,5.775634765625,0.010009765625
0.055,-3.513427734375,5.815673828125,-1.271240234375
0.0555,-2.072021484375,6.015869140625,-2.832763671875
0.056,-0.710693359375,6.135986328125,-4.274169921875
0.0565,0.290283203125,6.216064453125,-5.315185546875
0.057,0.970947265625,6.256103515625,-6.115966796875
0.0575,1.971923828125,5.495361328125,-6.516357421875
0.058,3.373291015625,4.134033203125,-6.756591796875
0.0585,4.694580078125,2.692626953125,-6.996826171875
0.059,5.615478515625,1.411376953125,-6.956787109375
0.0595,6.095947265625,0.490478515625,-6.876708984375
0.06,6.135986328125,-0.430419921875,-6.436279296875
0.0605,5.815673828125,-1.431396484375,-5.435302734375
0.061,5.615478515625,-2.712646484375,-4.234130859375
0.0615,5.455322265625,-4.114013671875,-2.952880859375
0.062,5.175048828125,-5.155029296875,-1.831787109375
0.0625,4.974853515625,-5.915771484375,-1.031005859375
0.063,4.134033203125,-6.236083984375,0.010009765625
0.0635,2.932861328125,-6.276123046875,1.131103515625
0.064,1.611572265625,-6.556396484375,2.692626953125
0.0645,0.370361328125,-6.676513671875,4.013916015625
0.065,-0.550537109375,-6.876708984375,5.054931640625
0.0655,-1.271240234375,-6.916748046875,5.775634765625
0.066,-2.352294921875,-5.835693359375,6.095947265625
0.0665,-3.713623046875,-4.594482421875,6.416259765625
0.067,-4.954833984375,-3.233154296875,6.696533203125
0.0675,-5.795654296875,-2.031982421875,6.656494140625
0.068,-6.276123046875,-1.271240234375,6.616455078125
0.0685,-6.196044921875,-0.430419921875,6.095947265625
0.069,-5.955810546875,0.730712890625,5.094970703125
0.0695,-5.835693359375,2.052001953125,3.973876953125
0.07,-5.755615234375,3.373291015625,2.732666015625
0.0705,-5.515380859375,4.414306640625,1.771728515625
0.071,-5.235107421875,5.094970703125,0.970947265625
0.0715,-4.354248046875,5.335205078125,0.010009765625
0.072,-3.153076171875,5.575439453125,-1.431396484375
0.0725,-1.871826171875,5.815673828125,-2.952880859375
0.073,-0.790771484375,5.975830078125,-4.194091796875
0.0735,0.010009765625,6.216064453125,-5.195068359375
0.074,0.970947265625,5.935791015625,-5.875732421875
0.0745,2.212158203125,4.854736328125,-6.196044921875
0.075,3.573486328125,3.573486328125,-6.556396484375
0.0755,4.774658203125,2.252197265625,-6.716552734375
0.076,5.495361328125,1.211181640625,-6.716552734375
0.0765,5.815673828125,0.450439453125,-6.596435546875
0.077,5.695556640625,-0.550537109375,-5.915771484375
0.0775,5.495361328125,-1.671630859375,-4.834716796875
0.078,5.415283203125,-3.072998046875,-3.713623046875
0.0785,5.255126953125,-4.314208984375,-2.552490234375
0.079,5.054931640625,-5.195068359375,-1.631591796875
0.0795,4.614501953125,-5.755615234375,-0.830810546875
0.08,3.573486328125,-5.915771484375,0.330322265625
0.0805,2.372314453125,-6.236083984375,1.731689453125
0.081,1.051025390625,-6.396240234375,3.173095703125
0.0815,0.170166015625,-6.556396484375,4.294189453125
0.082,-0.630615234375,-6.756591796875,5.175048828125
0.0825,-1.591552734375,-6.196044921875,5.695556640625
0.083,-2.832763671875,-5.074951171875,6.015869140625
0.0835,-4.154052734375,-3.833740234375,6.336181640625
0.084,-5.114990234375,-2.592529296875,6.376220703125
0.0845,-5.755615234375,-1.751708984375,6.416259765625
0.085,-5.915771484375,-0.990966796875,6.135986328125
0.0855,-5.755615234375,0.010009765625,5.375244140625
0.086,-5.635498046875,1.131103515625,4.454345703125
0.0865,-5.555419921875,2.492431640625,3.333251953125
0.087,-5.435302734375,3.573486328125,2.292236328125
0.0875,-5.275146484375,4.454345703125,1.491455078125
0.088,-4.714599609375,4.814697265625,0.690673828125
0.0885,-3.713623046875,5.054931640625,-0.510498046875
0.089,-2.592529296875,5.415283203125,-1.871826171875
0.0895,-1.511474609375,5.615478515625,-3.193115234375
0.09,-0.710693359375,5.935791015625,-4.274169921875
0.0905,0.130126953125,6.055908203125,-5.114990234375
0.091,1.211181640625,5.295166015625,-5.595458984375
0.0915,2.492431640625,4.294189453125,-5.995849609375
0.092,3.773681640625,3.052978515625,-6.316162109375
0.0925,4.654541015625,1.931884765625,-6.436279296875
0.093,5.255126953125,1.171142578125,-6.556396484375
0.0935,5.335205078125,0.450439453125,-6.156005859375
0.094,5.255126953125,-0.630615234375,-5.395263671875
0.0945,5.255126953125,-1.871826171875,-4.474365234375
0.095,5.175048828125,-3.153076171875,-3.393310546875
0.0955,5.094970703125,-4.194091796875,-2.432373046875
0.096,4.974853515625,-4.994873046875,-1.751708984375
0.0965,4.174072265625,-5.435302734375,-0.790771484375
0.097,3.213134765625,-5.715576171875,0.490478515625
0.0975,2.052001953125,-6.075927734375,1.931884765625
0.098,1.091064453125,-6.276123046875,3.133056640625
0.0985,0.370361328125,-6.596435546875,4.174072265625
0.099,-0.550537109375,-6.476318359375,4.894775390625
0.0995,-1.671630859375,-5.635498046875,5.295166015625
0.1,-2.992919921875,-4.634521484375,5.735595703125
0.1005,-4.154052734375,-3.513427734375,6.055908203125
0.101,-4.994873046875,-2.512451171875,6.135986328125
0.1015,-5.435302734375,-1.831787109375,6.216064453125
0.102,-5.435302734375,-1.031005859375,5.735595703125
0.1025,-5.395263671875,0.050048828125,4.974853515625
0.103,-5.435302734375,1.291259765625,4.093994140625
0.1035,-5.395263671875,2.492431640625,3.133056640625
0.104,-5.355224609375,3.493408203125,2.292236328125
0.1045,-5.114990234375,4.134033203125,1.571533203125
0.105,-4.314208984375,4.494384765625,0.570556640625
0.1055,-3.473388671875,4.854736328125,-0.790771484375
0.106,-2.352294921875,5.335205078125,-2.112060546875
0.1065,-1.511474609375,5.655517578125,-3.233154296875
0.107,-0.790771484375,5.975830078125,-4.274169921875
0.1075,0.250244140625,5.655517578125,-4.914794921875
0.108,1.451416015625,4.814697265625,-5.435302734375
0.1085,2.772705078125,3.773681640625,-5.875732421875
0.109,3.853759765625,2.652587890625,-6.115966796875
0.1095,4.614501953125,1.851806640625,-6.316162109375
0.11,4.974853515625,1.131103515625,-6.276123046875
0.1105,4.974853515625,0.290283203125,-5.755615234375
0.111,5.054931640625,-0.950927734375,-4.994873046875
0.1115,5.094970703125,-2.232177734375,-4.033935546875
0.112,5.094970703125,-3.353271484375,-3.113037109375
0.1125,5.054931640625,-4.354248046875,-2.312255859375
0.113,4.614501953125,-4.914794921875,-1.551513671875
0.1135,3.773681640625,-5.275146484375,-0.470458984375
0.114,2.812744140625,-5.755615234375,0.970947265625
0.1145,1.771728515625,-6.075927734375,2.292236328125
0.115,0.970947265625,-6.436279296875,3.413330078125
0.1155,0.170166015625,-6.556396484375,4.374267578125
0.116,-0.990966796875,-6.035888671875,4.934814453125
0.1165,-2.272216796875,-5.114990234375,5.415283203125
0.117,-3.553466796875,-3.993896484375,5.815673828125
0.1175,-4.514404296875,-2.952880859375,6.015869140625
0.118,-5.155029296875,-2.232177734375,6.216064453125
0.1185,-5.315185546875,-1.471435546875,5.935791015625
0.119,-5.315185546875,-0.510498046875,5.255126953125
0.1195,-5.435302734375,0.770751953125,4.494384765625
0.12,-5.435302734375,2.052001953125,3.533447265625
0.1205,-5.395263671875,3.052978515625,2.612548828125
0.121,-5.235107421875,3.893798828125,1.851806640625
0.1215,-4.674560546875,4.334228515625,0.970947265625
0.122,-3.753662109375,4.774658203125,-0.310302734375
0.1225,-2.752685546875,5.215087890625,-1.671630859375
0.123,-1.791748046875,5.535400390625,-2.912841796875
0.1235,-1.031005859375,5.895751953125,-4.033935546875
0.124,-0.150146484375,5.815673828125,-4.834716796875
0.1245,1.131103515625,5.014892578125,-5.315185546875
0.125,2.492431640625,4.013916015625,-5.835693359375
0.1255,3.693603515625,2.852783203125,-6.115966796875
0.126,4.534423828125,1.931884765625,-6.316162109375
0.1265,5.054931640625,1.171142578125,-6.356201171875
0.127,5.094970703125,0.370361328125,-5.915771484375
0.1275,5.054931640625,-0.790771484375,-5.114990234375
0.128,5.135009765625,-2.072021484375,-4.154052734375
0.1285,5.054931640625,-3.313232421875,-3.153076171875
0.129,5.014892578125,-4.354248046875,-2.272216796875
0.1295,4.734619140625,-5.034912109375,-1.591552734375
0.13,3.893798828125,-5.315185546875,-0.510498046875
0.1305,2.892822265625,-5.715576171875,0.850830078125
0.131,1.771728515625,-6.075927734375,2.252197265625
0.1315,0.930908203125,-6.356201171875,3.413330078125
0.132,0.170166015625,-6.596435546875,4.414306640625
0.1325,-0.870849609375,-6.236083984375,4.974853515625
0.133,-2.152099609375,-5.235107421875,5.455322265625
0.1335,-3.473388671875,-4.154052734375,5.895751953125
0.134,-4.514404296875,-2.992919921875,6.095947265625
0.1345,-5.275146484375,-2.112060546875,6.256103515625
0.135,-5.515380859375,-1.391357421875,6.055908203125
0.1355,-5.435302734375,-0.510498046875,5.415283203125
0.136,-5.475341796875,0.690673828125,4.574462890625
0.1365,-5.475341796875,1.971923828125,3.533447265625
0.137,-5.435302734375,3.133056640625,2.572509765625
0.1375,-5.355224609375,4.013916015625,1.771728515625
0.138,-4.834716796875,4.534423828125,0.970947265625
0.1385,-3.833740234375,4.814697265625,-0.270263671875
0.139,-2.832763671875,5.295166015625,-1.671630859375
0.1395,-1.671630859375,5.615478515625,-3.032958984375
0.14,-0.950927734375,5.895751953125,-4.114013671875
0.1405,0.010009765625,6.015869140625,-4.994873046875
0.141,1.091064453125,5.295166015625,-5.475341796875
0.1415,2.492431640625,4.174072265625,-5.955810546875
0.142,3.813720703125,2.972900390625,-6.356201171875
0.1425,4.734619140625,1.851806640625,-6.436279296875
0.143,5.295166015625,1.010986328125,-6.516357421875
0.1435,5.415283203125,0.250244140625,-6.115966796875
0.144,5.255126953125,-0.950927734375,-5.235107421875
0.1445,5.255126953125,-2.272216796875,-4.194091796875
0.145,5.215087890625,-3.593505859375,-3.072998046875
0.1455,5.094970703125,-4.634521484375,-2.192138671875
0.146,4.854736328125,-5.355224609375,-1.351318359375
0.1465,4.093994140625,-5.635498046875,-0.390380859375
0.147,2.852783203125,-5.875732421875,1.010986328125
0.1475,1.651611328125,-6.276123046875,2.532470703125
0.148,0.650634765625,-6.436279296875,3.773681640625
0.1485,-0.190185546875,-6.716552734375,4.774658203125
0.149,-1.111083984375,-6.436279296875,5.415283203125
0.1495,-2.352294921875,-5.435302734375,5.815673828125
0.15,-3.753662109375,-4.194091796875,6.216064453125
0.1505,-4.914794921875,-2.912841796875,6.416259765625
0.151,-5.635498046875,-1.871826171875,6.416259765625
0.1515,-5.955810546875,-1.151123046875,6.336181640625
0.152,-5.835693359375,-0.230224609375,5.615478515625
0.1525,-5.715576171875,1.010986328125,4.534423828125
0.153,-5.715576171875,2.412353515625,3.453369140625
0.1535,-5.595458984375,3.613525390625,2.292236328125
0.154,-5.395263671875,4.574462890625,1.451416015625
0.1545,-4.874755859375,5.094970703125,0.610595703125
0.155,-3.873779296875,5.295166015625,-0.590576171875
0.1555,-2.592529296875,5.615478515625,-2.031982421875
0.156,-1.391357421875,5.895751953125,-3.553466796875
0.1565,-0.510498046875,6.055908203125,-4.634521484375
0.157,0.330322265625,6.256103515625,-5.515380859375
0.1575,1.411376953125,5.575439453125,-6.075927734375
0.158,2.852783203125,4.254150390625,-6.396240234375
0.1585,4.294189453125,2.892822265625,-6.756591796875
0.159,5.255126953125,1.611572265625,-6.836669921875
0.1595,5.815673828125,0.690673828125,-6.756591796875
0.16,5.935791015625,-0.270263671875,-6.396240234375
0.1605,5.735595703125,-1.351318359375,-5.435302734375
0.161,5.575439453125,-2.712646484375,-4.154052734375
0.1615,5.455322265625,-4.154052734375,-2.952880859375
0.162,5.255126953125,-5.195068359375,-1.791748046875
0.1625,4.974853515625,-5.995849609375,-0.990966796875
0.163,4.134033203125,-6.276123046875,0.050048828125
0.1635,2.812744140625,-6.356201171875,1.371337890625
0.164,1.411376953125,-6.676513671875,3.012939453125
0.1645,0.210205078125,-6.716552734375,4.374267578125
0.165,-0.670654296875,-6.916748046875,5.335205078125
0.1655,-1.471435546875,-6.716552734375,6.055908203125
0.166,-2.712646484375,-5.635498046875,6.376220703125
0.1665,-4.194091796875,-4.194091796875,6.696533203125
0.167,-5.475341796875,-2.832763671875,6.856689453125
0.1675,-6.196044921875,-1.591552734375,6.736572265625
0.168,-6.516357421875,-0.750732421875,6.576416015625
0.1685,-6.396240234375,0.170166015625,5.895751953125
0.169,-6.115966796875,1.411376953125,4.694580078125
0.1695,-5.955810546875,2.812744140625,3.413330078125
0.17,-5.755615234375,4.134033203125,2.172119140625
0.1705,-5.435302734375,5.054931640625,1.211181640625
0.171,-4.994873046875,5.655517578125,0.370361328125
0.1715,-3.993896484375,5.775634765625,-0.750732421875
0.172,-2.552490234375,5.895751953125,-2.232177734375
0.1725,-1.231201171875,6.135986328125,-3.833740234375
0.173,0.010009765625,6.216064453125,-4.994873046875
0.1735,0.650634765625,6.376220703125,-5.915771484375
0.174,1.571533203125,5.895751953125,-6.436279296875
0.1745,2.972900390625,4.574462890625,-6.716552734375
0.175,4.454345703125,3.133056640625,-7.076904296875
0.1755,5.535400390625,1.691650390625,-7.076904296875
0.176,6.135986328125,0.610595703125,-6.956787109375
0.1765,6.336181640625,-0.350341796875,-6.716552734375
0.177,6.095947265625,-1.351318359375,-5.795654296875
0.1775,5.775634765625,-2.632568359375,-4.514404296875
0.178,5.655517578125,-4.073974609375,-3.193115234375
0.1785,5.415283203125,-5.275146484375,-1.951904296875
0.179,5.094970703125,-6.115966796875,-0.990966796875
0.1795,4.494384765625,-6.516357421875,-0.150146484375
0.18,3.213134765625,-6.556396484375,1.131103515625
0.1805,1.771728515625,-6.756591796875,2.692626953125
0.181,0.330322265625,-6.836669921875,4.254150390625
0.1815,-0.670654296875,-6.916748046875,5.295166015625
0.182,-1.351318359375,-6.996826171875,6.095947265625
0.1825,-2.392333984375,-6.196044921875,6.456298828125
0.183,-3.833740234375,-4.754638671875,6.696533203125
0.1835,-5.195068359375,-3.313232421875,6.976806640625
0.184,-6.156005859375,-1.951904296875,6.896728515625
0.1845,-6.596435546875,-1.031005859375,6.736572265625
0.185,-6.596435546875,-0.190185546875,6.296142578125
0.1855,-6.316162109375,0.930908203125,5.215087890625
0.186,-6.075927734375,2.292236328125,3.973876953125
0.1865,-5.915771484375,3.773681640625,2.612548828125
0.187,-5.635498046875,4.814697265625,1.571533203125
0.1875,-5.275146484375,5.535400390625,0.690673828125
0.188,-4.514404296875,5.775634765625,-0.310302734375
