wavelength,x,y,z
0.0,-11.240966796875,21.070556640625,-10.360107421875
0.0005,-14.724365234375,20.429931640625,-6.436279296875
0.001,-17.326904296875,19.709228515625,-3.233154296875
0.0015,-19.408935546875,17.707275390625,0.930908203125
0.002,-21.010498046875,15.465087890625,4.614501953125
0.0025,-21.290771484375,12.141845703125,8.177978515625
0.003,-21.290771484375,8.458251953125,11.861572265625
0.0035,-20.690185546875,4.013916015625,15.665283203125
0.004,-19.569091796875,0.610595703125,17.987548828125
0.0045,-17.807373046875,-2.992919921875,19.789306640625
0.005,-15.805419921875,-6.716552734375,21.591064453125
0.0055,-11.561279296875,-10.239990234375,21.030517578125
0.006,-7.717529296875,-13.723388671875,20.790283203125
0.0065,-3.673583984375,-16.766357421875,20.069580078125
0.007,1.211181640625,-19.088623046875,17.787353515625
0.0075,4.854736328125,-20.449951171875,15.745361328125
0.008,8.498291015625,-21.130615234375,13.022705078125
0.0085,12.141845703125,-21.010498046875,9.339111328125
0.009,15.585205078125,-20.129638671875,5.094970703125
0.0095,17.947509765625,-19.008544921875,1.851806640625
0.01,19.829345703125,-17.046630859375,-2.031982421875
0.0105,21.270751953125,-14.764404296875,-5.715576171875
0.011,21.030517578125,-10.840576171875,-9.399169921875
0.0115,20.950439453125,-7.197021484375,-12.882568359375
0.012,20.429931640625,-3.393310546875,-16.165771484375
0.0125,18.868408203125,0.570556640625,-18.447998046875
0.013,16.826416015625,4.013916015625,-20.009521484375
0.0135,14.464111328125,7.577392578125,-21.290771484375
0.014,10.219970703125,11.180908203125,-20.810302734375
0.0145,5.735595703125,14.784423828125,-20.169677734375
0.015,2.172119140625,17.306884765625,-19.288818359375
0.0155,-2.432373046875,19.388916015625,-17.086669921875
0.016,-6.115966796875,20.750244140625,-14.964599609375
0.0165,-9.759521484375,20.750244140625,-11.521240234375
0.017,-13.122802734375,20.590087890625,-8.197998046875
0.0175,-16.365966796875,19.709228515625,-4.154052734375
0.018,-18.568115234375,18.067626953125,-0.350341796875
0.0185,-20.129638671875,16.145751953125,3.173095703125
0.019,-21.290771484375,13.503173828125,6.776611328125
0.0195,-20.890380859375,9.339111328125,10.620361328125
0.02,-20.489990234375,5.415283203125,14.103759765625
0.0205,-20.009521484375,2.132080078125,16.906494140625
0.021,-18.287841796875,-1.791748046875,19.108642578125
0.0215,-16.165771484375,-5.315185546875,20.510009765625
0.022,-13.122802734375,-8.758544921875,21.070556640625
0.0225,-9.279052734375,-12.201904296875,20.830322265625
0.023,-4.514404296875,-15.765380859375,19.829345703125
0.0235,-0.510498046875,-18.007568359375,18.307861328125
0.024,3.533447265625,-19.809326171875,16.345947265625
0.0245,7.177001953125,-20.970458984375,14.063720703125
0.025,10.900634765625,-20.530029296875,10.059814453125
0.0255,14.023681640625,-20.209716796875,6.776611328125
0.026,16.866455078125,-19.368896484375,3.213134765625
0.0265,18.948486328125,-17.326904296875,-0.910888671875
0.027,20.269775390625,-15.364990234375,-4.194091796875
0.0275,20.950439453125,-12.322021484375,-7.837646484375
0.028,20.630126953125,-8.398193359375,-11.441162109375
0.0285,20.069580078125,-4.354248046875,-14.804443359375
0.029,19.188720703125,-1.151123046875,-17.166748046875
0.0295,17.467041015625,2.612548828125,-19.208740234375
0.03,15.224853515625,6.095947265625,-20.530029296875
0.0305,11.381103515625,9.659423828125,-20.369873046875
0.031,7.737548828125,13.062744140625,-20.329833984375
0.0315,3.373291015625,16.265869140625,-19.368896484375
0.032,-1.071044921875,18.307861328125,-17.326904296875
0.0325,-4.514404296875,19.789306640625,-15.525146484375
0.033,-8.117919921875,20.630126953125,-12.962646484375
0.0335,-11.721435546875,20.149658203125,-8.998779296875
0.034,-14.764404296875,19.549072265625,-5.515380859375
0.0345,-17.246826171875,18.588134765625,-2.192138671875
0.035,-19.208740234375,16.506103515625,1.891845703125
0.0355,-20.289794921875,14.303955078125,5.094970703125
0.036,-20.489990234375,10.740478515625,8.898681640625
0.0365,-20.289794921875,7.016845703125,12.302001953125
0.037,-19.729248046875,3.213134765625,15.505126953125
0.0375,-18.287841796875,-0.310302734375,17.627197265625
0.038,-16.646240234375,-3.713623046875,19.428955078125
0.0385,-14.323974609375,-7.116943359375,20.550048828125
0.039,-10.119873046875,-10.680419921875,20.069580078125
0.0395,-6.396240234375,-13.883544921875,19.789306640625
0.04,-2.392333984375,-16.686279296875,18.868408203125
0.0405,2.132080078125,-18.648193359375,16.506103515625
0.041,5.375244140625,-19.849365234375,14.664306640625
0.0415,8.938720703125,-20.209716796875,11.661376953125
0.042,12.342041015625,-19.849365234375,7.937744140625
0.0425,15.224853515625,-19.048583984375,4.494384765625
0.043,17.427001953125,-17.767333984375,1.091064453125
0.0435,19.268798828125,-15.845458984375,-2.712646484375
0.044,20.029541015625,-13.363037109375,-5.955810546875
0.0445,19.949462890625,-9.479248046875,-9.679443359375
0.045,19.709228515625,-5.955810546875,-12.882568359375
0.0455,19.188720703125,-2.592529296875,-15.765380859375
0.046,17.427001953125,1.131103515625,-17.727294921875
0.0465,15.665283203125,4.374267578125,-19.248779296875
0.047,12.902587890625,7.777587890625,-20.009521484375
0.0475,8.818603515625,11.260986328125,-19.529052734375
0.048,4.854736328125,14.223876953125,-18.928466796875
0.0485,1.091064453125,16.786376953125,-17.807373046875
0.049,-3.072998046875,18.668212890625,-15.805419921875
0.0495,-6.196044921875,19.589111328125,-13.683349609375
0.05,-9.799560546875,19.629150390625,-10.320068359375
0.0505,-12.962646484375,19.268798828125,-6.956787109375
0.051,-15.685302734375,18.508056640625,-3.553466796875
0.0515,-17.647216796875,16.786376953125,0.130126953125
0.052,-19.248779296875,14.944580078125,3.493408203125
0.0525,-19.849365234375,12.101806640625,6.856689453125
0.053,-19.569091796875,8.137939453125,10.540283203125
0.0535,-19.208740234375,4.694580078125,13.583251953125
0.054,-18.568115234375,1.411376953125,16.185791015625
0.0545,-16.846435546875,-2.272216796875,18.187744140625
0.055,-14.924560546875,-5.355224609375,19.388916015625
0.0555,-11.681396484375,-8.838623046875,19.749267578125
0.056,-7.757568359375,-12.322021484375,19.348876953125
0.0565,-3.833740234375,-15.164794921875,18.548095703125
0.057,0.130126953125,-17.326904296875,16.906494140625
0.0575,3.973876953125,-19.048583984375,15.144775390625
0.058,7.177001953125,-19.529052734375,12.702392578125
0.0585,10.700439453125,-19.368896484375,9.098876953125
0.059,13.663330078125,-19.048583984375,5.895751953125
0.0595,16.265869140625,-18.047607421875,2.492431640625
0.06,18.107666015625,-16.165771484375,-1.311279296875
0.0605,19.348876953125,-14.243896484375,-4.474365234375
0.061,19.709228515625,-10.960693359375,-7.997802734375
0.0615,19.388916015625,-7.036865234375,-11.601318359375
0.062,18.948486328125,-3.793701171875,-14.364013671875
0.0625,17.867431640625,-0.430419921875,-16.606201171875
0.063,16.265869140625,3.213134765625,-18.608154296875
0.0635,13.783447265625,6.336181640625,-19.368896484375
0.064,10.219970703125,9.699462890625,-19.368896484375
0.0645,6.376220703125,13.102783203125,-19.088623046875
0.065,2.412353515625,15.665283203125,-18.127685546875
0.0655,-1.631591796875,17.667236328125,-16.085693359375
0.066,-4.954833984375,19.188720703125,-14.484130859375
0.0665,-8.318115234375,19.428955078125,-11.561279296875
0.067,-11.801513671875,19.068603515625,-7.837646484375
0.0675,-14.444091796875,18.588134765625,-4.874755859375
0.068,-16.766357421875,17.306884765625,-1.351318359375
0.0685,-18.648193359375,15.385009765625,2.492431640625
0.069,-19.368896484375,13.022705078125,5.455322265625
0.0695,-19.529052734375,9.539306640625,9.098876953125
0.07,-19.168701171875,5.655517578125,12.622314453125
0.0705,-18.608154296875,2.492431640625,15.224853515625
0.071,-17.166748046875,-0.910888671875,17.106689453125
0.0715,-15.645263671875,-4.274169921875,19.028564453125
0.072,-12.802490234375,-7.437255859375,19.388916015625
0.0725,-8.958740234375,-10.840576171875,19.068603515625
0.073,-5.395263671875,-13.803466796875,18.708251953125
0.0735,-1.271240234375,-16.365966796875,17.346923828125
0.074,2.692626953125,-18.087646484375,15.425048828125
0.0745,5.735595703125,-19.088623046875,13.543212890625
0.075,9.138916015625,-19.248779296875,10.500244140625
0.0755,12.542236328125,-18.768310546875,6.736572265625
0.076,14.904541015625,-18.207763671875,3.853759765625
0.0765,16.946533203125,-16.686279296875,0.450439453125
0.077,18.828369140625,-14.884521484375,-3.233154296875
0.0775,19.108642578125,-12.081787109375,-6.316162109375
0.078,19.148681640625,-8.478271484375,-9.879638671875
0.0785,18.868408203125,-5.074951171875,-13.002685546875
0.079,18.147705078125,-1.751708984375,-15.645263671875
0.0795,16.466064453125,1.771728515625,-17.366943359375
0.08,14.784423828125,4.814697265625,-18.928466796875
0.0805,11.621337890625,8.137939453125,-19.208740234375
0.081,7.537353515625,11.701416015625,-18.848388671875
0.0815,4.294189453125,14.343994140625,-18.327880859375
0.082,0.130126953125,16.746337890625,-16.726318359375
0.0825,-3.753662109375,18.548095703125,-15.004638671875
0.083,-6.756591796875,18.988525390625,-12.602294921875
0.0835,-10.119873046875,19.148681640625,-9.559326171875
0.084,-13.443115234375,18.668212890625,-5.835693359375
0.0845,-15.845458984375,17.747314453125,-2.632568359375
0.085,-17.647216796875,16.065673828125,0.810791015625
0.0855,-19.328857421875,14.223876953125,4.334228515625
0.086,-19.368896484375,10.860595703125,7.697509765625
0.0865,-19.288818359375,6.976806640625,11.461181640625
0.087,-18.968505859375,3.853759765625,14.223876953125
0.0875,-17.967529296875,0.290283203125,16.706298828125
0.088,-16.165771484375,-3.353271484375,18.588134765625
0.0885,-14.043701171875,-6.356201171875,19.509033203125
0.089,-10.720458984375,-9.799560546875,19.709228515625
0.0895,-6.236083984375,-13.443115234375,19.148681640625
0.09,-2.632568359375,-15.885498046875,18.227783203125
0.0905,1.411376953125,-17.847412109375,16.385986328125
0.091,5.135009765625,-19.609130859375,14.664306640625
0.0915,8.378173828125,-19.529052734375,11.501220703125
0.092,11.821533203125,-19.489013671875,8.137939453125
0.0925,14.864501953125,-19.048583984375,4.774658203125
0.093,17.306884765625,-17.607177734375,1.010986328125
0.0935,19.028564453125,-15.685302734375,-2.592529296875
0.094,20.109619140625,-13.403076171875,-5.915771484375
0.0945,20.109619140625,-9.759521484375,-9.559326171875
0.095,19.709228515625,-5.555419921875,-13.403076171875
0.0955,19.148681640625,-2.552490234375,-15.765380859375
0.096,17.707275390625,1.091064453125,-17.967529296875
0.0965,15.785400390625,4.814697265625,-19.889404296875
0.097,12.582275390625,7.937744140625,-19.889404296875
0.0975,9.178955078125,11.341064453125,-20.009521484375
0.098,4.774658203125,14.904541015625,-19.368896484375
0.0985,0.610595703125,17.306884765625,-17.807373046875
0.099,-3.193115234375,18.908447265625,-15.925537109375
0.0995,-6.796630859375,20.309814453125,-13.883544921875
0.1,-10.280029296875,19.989501953125,-10.280029296875
0.1005,-13.683349609375,19.509033203125,-6.476318359375
0.101,-16.245849609375,18.908447265625,-3.473388671875
0.1015,-18.407958984375,17.106689453125,0.530517578125
0.102,-20.009521484375,15.024658203125,4.134033203125
0.1025,-20.329833984375,12.021728515625,7.457275390625
0.103,-20.409912109375,8.378173828125,11.060791015625
0.1035,-19.849365234375,4.134033203125,14.744384765625
0.104,-18.888427734375,0.850830078125,17.026611328125
0.1045,-17.166748046875,-2.592529296875,18.828369140625
0.105,-15.405029296875,-6.196044921875,20.630126953125
0.1055,-11.481201171875,-9.479248046875,20.189697265625
0.106,-7.677490234375,-12.882568359375,19.949462890625
0.1065,-3.833740234375,-15.885498046875,19.308837890625
0.107,0.850830078125,-18.167724609375,17.226806640625
0.1075,4.454345703125,-19.569091796875,15.304931640625
0.108,7.817626953125,-20.329833984375,12.782470703125
0.1085,11.341064453125,-20.209716796875,9.339111328125
0.109,14.744384765625,-19.368896484375,5.255126953125
0.1095,16.946533203125,-18.447998046875,2.172119140625
0.11,18.828369140625,-16.646240234375,-1.551513671875
0.1105,20.389892578125,-14.524169921875,-5.114990234375
0.111,20.189697265625,-10.880615234375,-8.558349609375
0.1115,20.149658203125,-7.317138671875,-12.041748046875
0.112,19.709228515625,-3.673583984375,-15.244873046875
0.1125,18.267822265625,0.090087890625,-17.567138671875
0.113,16.426025390625,3.453369140625,-19.088623046875
0.1135,14.303955078125,6.896728515625,-20.449951171875
0.114,10.300048828125,10.380126953125,-20.129638671875
0.1145,5.975830078125,13.983642578125,-19.529052734375
0.115,2.532470703125,16.506103515625,-18.848388671875
0.1155,-1.951904296875,18.628173828125,-16.766357421875
0.116,-5.595458984375,20.069580078125,-14.804443359375
0.1165,-9.038818359375,20.149658203125,-11.601318359375
0.117,-12.442138671875,20.149658203125,-8.358154296875
0.1175,-15.645263671875,19.348876953125,-4.474365234375
0.118,-17.887451171875,17.867431640625,-0.790771484375
0.1185,-19.489013671875,15.985595703125,2.652587890625
0.119,-20.770263671875,13.623291015625,6.256103515625
0.1195,-20.489990234375,9.499267578125,10.019775390625
0.12,-20.209716796875,5.615478515625,13.583251953125
0.1205,-19.689208984375,2.332275390625,16.385986328125
0.121,-18.127685546875,-1.631591796875,18.668212890625
0.1215,-16.045654296875,-5.074951171875,20.189697265625
0.122,-13.202880859375,-8.478271484375,20.830322265625
0.1225,-9.359130859375,-12.001708984375,20.750244140625
0.123,-4.594482421875,-15.605224609375,19.789306640625
0.1235,-0.630615234375,-17.927490234375,18.387939453125
0.124,3.493408203125,-19.769287109375,16.385986328125
0.1245,7.136962890625,-21.010498046875,14.143798828125
0.125,10.940673828125,-20.650146484375,10.139892578125
0.1255,14.143798828125,-20.369873046875,6.776611328125
0.126,17.106689453125,-19.529052734375,3.173095703125
0.1265,19.268798828125,-17.487060546875,-1.111083984375
0.127,20.670166015625,-15.445068359375,-4.474365234375
0.1275,21.390869140625,-12.482177734375,-8.157958984375
0.128,21.070556640625,-8.318115234375,-11.961669921875
0.1285,20.429931640625,-4.234130859375,-15.405029296875
0.129,19.509033203125,-0.910888671875,-17.807373046875
0.1295,17.707275390625,3.093017578125,-19.889404296875
0.13,15.385009765625,6.696533203125,-21.210693359375
0.1305,11.421142578125,10.300048828125,-21.130615234375
0.131,7.617431640625,13.823486328125,-20.970458984375
0.1315,3.052978515625,17.146728515625,-19.929443359375
0.132,-1.591552734375,19.228759765625,-17.767333984375
0.1325,-5.235107421875,20.790283203125,-15.845458984375
0.133,-8.918701171875,21.631103515625,-13.162841796875
0.1335,-12.802490234375,21.070556640625,-8.918701171875
0.134,-15.885498046875,20.389892578125,-5.275146484375
0.1345,-18.528076171875,19.268798828125,-1.631591796875
0.135,-20.530029296875,16.946533203125,2.732666015625
0.1355,-21.651123046875,14.584228515625,6.095947265625
0.136,-21.851318359375,10.820556640625,10.019775390625
0.1365,-21.490966796875,6.696533203125,13.743408203125
0.137,-20.690185546875,2.652587890625,17.026611328125
0.1375,-19.168701171875,-1.111083984375,19.188720703125
0.138,-17.286865234375,-4.834716796875,21.070556640625
0.1385,-14.684326171875,-8.318115234375,22.071533203125
0.139,-10.079833984375,-12.121826171875,21.470947265625
0.1395,-6.156005859375,-15.405029296875,21.070556640625
0.14,-1.711669921875,-18.327880859375,19.829345703125
0.1405,3.173095703125,-20.329833984375,17.226806640625
0.141,6.576416015625,-21.450927734375,15.104736328125
0.1415,10.300048828125,-21.771240234375,11.901611328125
0.142,14.063720703125,-21.130615234375,7.697509765625
0.1425,16.986572265625,-20.249755859375,3.893798828125
0.143,19.348876953125,-18.728271484375,0.170166015625
0.1435,21.270751953125,-16.446044921875,-4.033935546875
0.144,21.911376953125,-13.763427734375,-7.397216796875
0.1445,21.791259765625,-9.559326171875,-11.401123046875
0.145,21.270751953125,-5.635498046875,-14.844482421875
0.1455,20.469970703125,-1.791748046875,-17.807373046875
0.146,18.427978515625,2.212158203125,-19.729248046875
0.1465,16.426025390625,5.735595703125,-21.290771484375
0.147,13.383056640625,9.299072265625,-21.931396484375
0.1475,8.698486328125,13.102783203125,-21.210693359375
0.148,4.614501953125,16.265869140625,-20.530029296875
0.1485,0.290283203125,18.868408203125,-19.088623046875
0.149,-4.354248046875,20.790283203125,-16.646240234375
0.1495,-7.677490234375,21.551025390625,-14.323974609375
0.15,-11.481201171875,21.591064453125,-10.680419921875
0.1505,-15.044677734375,20.990478515625,-6.676513671875
0.151,-17.807373046875,19.909423828125,-2.952880859375
0.1515,-19.889404296875,17.947509765625,1.091064453125
0.152,-21.651123046875,15.705322265625,4.974853515625
0.1525,-22.051513671875,12.502197265625,8.538330078125
0.153,-21.731201171875,7.977783203125,12.662353515625
0.1535,-21.130615234375,4.214111328125,15.865478515625
0.154,-20.209716796875,0.490478515625,18.708251953125
0.1545,-18.047607421875,-3.673583984375,20.670166015625
0.155,-15.805419921875,-6.996826171875,21.831298828125
0.1555,-12.241943359375,-10.720458984375,22.151611328125
0.156,-7.517333984375,-14.524169921875,21.470947265625
0.1565,-3.353271484375,-17.406982421875,20.429931640625
0.157,1.211181640625,-19.649169921875,18.427978515625
0.1575,5.535400390625,-21.531005859375,16.185791015625
0.158,8.938720703125,-21.811279296875,13.262939453125
0.1585,12.782470703125,-21.611083984375,9.339111328125
0.159,16.145751953125,-20.970458984375,5.455322265625
0.1595,18.868408203125,-19.609130859375,1.571533203125
0.16,20.790283203125,-17.447021484375,-2.632568359375
0.1605,22.151611328125,-15.164794921875,-6.276123046875
0.161,22.311767578125,-11.481201171875,-10.119873046875
0.1615,21.791259765625,-6.756591796875,-14.123779296875
0.162,21.070556640625,-3.193115234375,-16.966552734375
0.1625,19.669189453125,0.690673828125,-19.448974609375
0.163,17.467041015625,4.894775390625,-21.490966796875
0.1635,14.584228515625,8.177978515625,-21.971435546875
0.164,10.700439453125,11.901611328125,-22.011474609375
0.1645,5.935791015625,15.745361328125,-21.290771484375
0.165,1.651611328125,18.427978515625,-19.969482421875
0.1655,-2.792724609375,20.309814453125,-17.647216796875
0.166,-6.796630859375,21.991455078125,-15.605224609375
0.1665,-10.320068359375,21.911376953125,-12.121826171875
0.167,-14.123779296875,21.390869140625,-7.957763671875
0.1675,-17.126708984375,20.670166015625,-4.434326171875
0.168,-19.649169921875,18.988525390625,-0.270263671875
0.1685,-21.490966796875,16.586181640625,3.933837890625
0.169,-22.251708984375,13.823486328125,7.377197265625
0.1695,-22.331787109375,9.899658203125,11.461181640625
0.17,-21.691162109375,5.255126953125,15.425048828125
0.1705,-20.810302734375,1.731689453125,18.067626953125
0.171,-19.048583984375,-2.112060546875,20.109619140625
0.1715,-17.006591796875,-6.115966796875,22.151611328125
0.172,-13.523193359375,-9.439208984375,22.111572265625
0.1725,-9.439208984375,-13.122802734375,21.831298828125
0.173,-4.994873046875,-16.606201171875,21.150634765625
0.1735,-0.310302734375,-19.208740234375,19.348876953125
0.174,4.013916015625,-20.850341796875,16.946533203125
0.1745,7.697509765625,-22.011474609375,14.704345703125
0.175,11.461181640625,-21.931396484375,10.940673828125
0.1755,15.224853515625,-21.130615234375,6.536376953125
0.176,17.787353515625,-20.369873046875,3.293212890625
0.1765,20.109619140625,-18.447998046875,-0.950927734375
0.177,21.911376953125,-16.125732421875,-5.074951171875
0.1775,22.071533203125,-12.762451171875,-8.478271484375
0.178,22.071533203125,-8.798583984375,-12.362060546875
0.1785,21.390869140625,-4.474365234375,-16.005615234375
0.179,20.309814453125,-0.790771484375,-18.608154296875
0.1795,18.227783203125,3.052978515625,-20.329833984375
0.18,16.185791015625,6.816650390625,-22.131591796875
0.1805,12.181884765625,10.380126953125,-21.851318359375
0.181,7.697509765625,14.143798828125,-21.290771484375
