wavelength,x,y,z
0.0,3.66357421875,-23.12255859375,19.39892578125
0.0005,9.22900390625,-24.80419921875,15.51513671875
0.001,13.71337890625,-25.36474609375,11.71142578125
0.0015,17.35693359375,-24.44384765625,7.18701171875
0.002,20.19970703125,-24.08349609375,4.14404296875
0.0025,22.64208984375,-21.52099609375,-0.98095703125
0.003,25.32470703125,-19.07861328125,-6.18603515625
0.0035,24.80419921875,-14.35400390625,-10.43017578125
0.004,25.52490234375,-10.79052734375,-14.75439453125
0.0045,24.44384765625,-7.22705078125,-17.31689453125
0.005,23.00244140625,-2.58251953125,-20.56005859375
0.0055,20.43994140625,2.10205078125,-22.64208984375
0.006,17.35693359375,7.82763671875,-25.28466796875
0.0065,12.63232421875,12.27197265625,-25.00439453125
0.007,8.26806640625,16.31591796875,-24.60400390625
0.0075,5.30517578125,18.55810546875,-23.96337890625
0.008,-0.62060546875,21.56103515625,-21.12060546875
0.0085,-5.54541015625,23.88330078125,-18.59814453125
0.009,-10.91064453125,24.44384765625,-13.91357421875
0.0095,-14.87451171875,25.04443359375,-10.75048828125
0.01,-18.07763671875,23.92333984375,-6.38623046875
0.0105,-20.76025390625,23.04248046875,-2.86279296875
0.011,-22.84228515625,20.43994140625,1.90185546875
0.0115,-25.32470703125,17.59716796875,7.30712890625
0.012,-24.36376953125,12.67236328125,11.39111328125
0.0125,-24.84423828125,9.26904296875,15.31494140625
0.013,-23.80322265625,6.06591796875,17.55712890625
0.0135,-21.92138671875,0.98095703125,20.80029296875
0.014,-19.51904296875,-3.70361328125,22.92236328125
0.0145,-15.67529296875,-9.22900390625,24.60400390625
0.015,-11.63134765625,-13.15283203125,24.52392578125
0.0155,-7.22705078125,-16.71630859375,23.68310546875
0.016,-3.74365234375,-18.91845703125,22.44189453125
0.0165,1.66162109375,-21.72119140625,19.87939453125
0.017,6.98681640625,-24.16357421875,17.15673828125
0.0175,11.71142578125,-23.88330078125,12.15185546875
0.018,15.43505859375,-24.52392578125,9.26904296875
0.0185,18.39794921875,-23.36279296875,5.26513671875
0.019,21.12060546875,-22.08154296875,1.22119140625
0.0195,23.04248046875,-19.47900390625,-3.46337890625
0.02,24.88427734375,-16.15576171875,-8.66845703125
0.0205,24.04345703125,-11.67138671875,-12.39208984375
0.021,24.16357421875,-8.26806640625,-15.99560546875
0.0215,23.00244140625,-5.06494140625,-18.07763671875
0.022,21.08056640625,0.06005859375,-21.20068359375
0.0225,18.35791015625,5.10498046875,-23.56298828125
0.023,13.79345703125,10.22998046875,-24.08349609375
0.0235,10.51025390625,13.83349609375,-24.40380859375
0.024,6.10595703125,17.11669921875,-23.24267578125
0.0245,2.10205078125,19.35888671875,-21.56103515625
0.025,-2.82275390625,21.80126953125,-19.23876953125
0.0255,-8.58837890625,24.08349609375,-15.95556640625
0.026,-12.71240234375,23.40283203125,-11.15087890625
0.0265,-16.23583984375,24.04345703125,-8.30810546875
0.027,-18.71826171875,22.64208984375,-4.50439453125
0.0275,-21.40087890625,21.08056640625,-0.26025390625
0.028,-23.12255859375,18.23779296875,4.42431640625
0.0285,-24.28369140625,14.35400390625,9.58935546875
0.029,-23.80322265625,10.55029296875,12.99267578125
0.0295,-23.48291015625,6.94677734375,16.35595703125
0.03,-22.08154296875,3.54345703125,18.31787109375
0.0305,-20.19970703125,-1.46142578125,21.40087890625
0.031,-17.03662109375,-6.74658203125,23.60302734375
0.0315,-12.23193359375,-11.39111328125,23.36279296875
0.032,-9.46923828125,-14.71435546875,23.88330078125
0.0325,-4.82470703125,-17.63720703125,22.16162109375
0.033,-0.46044921875,-20.15966796875,20.31982421875
0.0335,4.22412109375,-22.32177734375,17.95751953125
0.034,9.98974609375,-24.04345703125,14.07373046875
0.0345,13.63330078125,-23.24267578125,9.74951171875
0.035,17.15673828125,-23.68310546875,6.70654296875
0.0355,19.47900390625,-22.00146484375,2.74267578125
0.036,22.28173828125,-20.19970703125,-1.94189453125
0.0365,23.56298828125,-17.11669921875,-6.38623046875
0.037,24.08349609375,-12.87255859375,-11.23095703125
0.0375,23.88330078125,-9.78955078125,-14.15380859375
0.038,23.00244140625,-5.62548828125,-17.47705078125
0.0385,21.28076171875,-1.86181640625,-19.63916015625
0.039,19.27880859375,3.10302734375,-22.48193359375
0.0395,15.47509765625,8.54833984375,-24.12353515625
0.04,10.67041015625,12.67236328125,-23.44287109375
0.0405,8.06787109375,15.83544921875,-23.96337890625
0.041,3.06298828125,18.43798828125,-21.68115234375
0.0415,-1.62158203125,21.12060546875,-19.79931640625
0.042,-6.22607421875,22.76220703125,-16.87646484375
0.0425,-11.67138671875,24.04345703125,-12.83251953125
0.043,-14.83447265625,23.24267578125,-8.94873046875
0.0435,-18.27783203125,23.16259765625,-5.42529296875
0.044,-20.11962890625,21.24072265625,-1.66162109375
0.0445,-22.92236328125,19.23876953125,3.22314453125
0.045,-23.56298828125,15.51513671875,7.70751953125
0.0455,-23.68310546875,11.19091796875,12.19189453125
0.046,-23.68310546875,8.62841796875,14.87451171875
0.0465,-22.20166015625,4.02392578125,17.95751953125
0.047,-20.47998046875,0.06005859375,20.19970703125
0.0475,-18.07763671875,-4.78466796875,22.60205078125
0.048,-14.19384765625,-9.94970703125,23.88330078125
0.0485,-9.54931640625,-13.63330078125,22.80224609375
0.049,-6.62646484375,-16.67626953125,22.96240234375
0.0495,-1.66162109375,-19.03857421875,20.31982421875
0.05,3.06298828125,-21.80126953125,18.67822265625
0.0505,7.78759765625,-22.72216796875,14.91455078125
0.051,12.51220703125,-23.64306640625,11.19091796875
0.0515,15.43505859375,-23.08251953125,7.82763671875
0.052,18.75830078125,-22.36181640625,3.82373046875
0.0525,20.68017578125,-20.35986328125,-0.14013671875
0.053,23.12255859375,-18.15771484375,-4.82470703125
0.0535,23.44287109375,-14.23388671875,-9.18896484375
0.054,23.12255859375,-10.10986328125,-13.11279296875
0.0545,23.28271484375,-7.74755859375,-15.67529296875
0.055,21.28076171875,-2.90283203125,-18.51806640625
0.0555,19.71923828125,1.30126953125,-21.12060546875
0.056,16.39599609375,6.06591796875,-22.56201171875
0.0565,12.67236328125,10.87060546875,-23.68310546875
0.057,8.54833984375,14.11376953125,-22.76220703125
0.0575,5.10498046875,17.11669921875,-22.36181640625
0.058,0.50048828125,19.19873046875,-19.83935546875
0.0585,-4.34423828125,22.12158203125,-18.07763671875
0.059,-9.10888671875,22.44189453125,-13.63330078125
0.0595,-13.31298828125,23.00244140625,-10.10986328125
0.06,-15.99560546875,22.76220703125,-7.38720703125
0.0605,-18.91845703125,21.44091796875,-2.98291015625
0.061,-20.92041015625,19.43896484375,0.98095703125
0.0615,-22.68212890625,16.67626953125,5.58544921875
0.062,-23.20263671875,12.87255859375,9.94970703125
0.0625,-22.56201171875,8.94873046875,13.39306640625
0.063,-22.64208984375,6.46630859375,15.95556640625
0.0635,-20.39990234375,1.74169921875,18.51806640625
0.064,-19.03857421875,-2.74267578125,21.52099609375
0.0645,-14.95458984375,-7.38720703125,22.08154296875
0.065,-11.51123046875,-11.79150390625,23.00244140625
0.0655,-7.98779296875,-14.67431640625,22.24169921875
0.066,-3.58349609375,-17.59716796875,20.96044921875
0.0665,0.78076171875,-19.55908203125,18.71826171875
0.067,5.86572265625,-22.36181640625,16.39599609375
0.0675,10.22998046875,-22.40185546875,12.23193359375
0.068,14.07373046875,-22.56201171875,8.62841796875
0.0685,16.63623046875,-22.44189453125,6.10595703125
0.069,19.35888671875,-20.68017578125,1.46142578125
0.0695,21.72119140625,-18.71826171875,-2.90283203125
0.07,22.56201171875,-15.31494140625,-7.18701171875
0.0705,23.20263671875,-11.95166015625,-11.23095703125
0.071,22.36181640625,-8.18798828125,-14.23388671875
0.0715,21.92138671875,-5.06494140625,-16.99658203125
0.072,19.71923828125,-0.50048828125,-19.35888671875
0.0725,17.91748046875,4.50439453125,-22.56201171875
0.073,13.35302734375,8.90869140625,-22.32177734375
0.0735,9.94970703125,12.91259765625,-23.00244140625
0.074,6.78662109375,15.43505859375,-22.28173828125
0.0745,1.86181640625,18.47802734375,-20.39990234375
0.075,-2.46240234375,20.56005859375,-18.31787109375
0.0755,-7.82763671875,22.60205078125,-15.07470703125
0.076,-11.63134765625,22.72216796875,-11.51123046875
0.0765,-15.23486328125,22.44189453125,-7.70751953125
0.077,-17.59716796875,22.00146484375,-4.98486328125
0.0775,-20.11962890625,19.99951171875,-0.46044921875
0.078,-22.56201171875,17.75732421875,4.42431640625
0.0785,-22.48193359375,13.55322265625,8.62841796875
0.079,-23.28271484375,10.63037109375,12.35205078125
0.0795,-22.28173828125,7.02685546875,15.03466796875
0.08,-21.28076171875,3.18310546875,17.91748046875
0.0805,-19.19873046875,-1.30126953125,20.19970703125
0.081,-16.63623046875,-6.66650390625,23.00244140625
0.0815,-12.15185546875,-10.59033203125,22.44189453125
0.082,-8.70849609375,-14.27392578125,22.72216796875
0.0825,-5.38525390625,-16.55615234375,21.64111328125
0.083,-0.18017578125,-19.51904296875,19.51904296875
0.0835,4.34423828125,-21.72119140625,17.31689453125
0.084,9.62939453125,-22.76220703125,13.15283203125
0.0845,13.07275390625,-23.08251953125,10.14990234375
0.085,16.51611328125,-22.44189453125,6.10595703125
0.0855,18.91845703125,-21.52099609375,2.82275390625
0.086,21.28076171875,-19.39892578125,-1.74169921875
0.0865,23.48291015625,-16.71630859375,-6.66650390625
0.087,22.76220703125,-12.19189453125,-10.55029296875
0.0875,23.36279296875,-9.50927734375,-13.99365234375
0.088,22.08154296875,-5.82568359375,-16.43603515625
0.0885,20.68017578125,-1.42138671875,-19.43896484375
0.089,18.39794921875,3.10302734375,-21.64111328125
0.0895,14.79443359375,8.50830078125,-23.48291015625
0.09,10.83056640625,12.03173828125,-22.96240234375
0.0905,7.18701171875,15.59521484375,-22.80224609375
0.091,3.54345703125,17.63720703125,-21.20068359375
0.0915,-1.58154296875,20.43994140625,-19.11865234375
0.092,-6.46630859375,22.52197265625,-16.35595703125
0.0925,-11.27099609375,22.72216796875,-11.83154296875
0.093,-14.43408203125,23.12255859375,-9.22900390625
0.0935,-17.47705078125,22.04150390625,-5.06494140625
0.094,-19.71923828125,20.72021484375,-1.58154296875
0.0945,-21.76123046875,18.39794921875,2.86279296875
0.095,-23.40283203125,15.11474609375,7.90771484375
0.0955,-22.56201171875,10.83056640625,11.47119140625
0.096,-23.04248046875,8.14794921875,14.71435546875
0.0965,-21.48095703125,4.54443359375,16.71630859375
0.097,-19.95947265625,0.02001953125,19.71923828125
0.0975,-17.43701171875,-4.70458984375,21.80126953125
0.098,-13.31298828125,-9.70947265625,22.76220703125
0.0985,-9.98974609375,-12.83251953125,22.56201171875
0.099,-5.98583984375,-16.03564453125,21.76123046875
0.0995,-2.10205078125,-18.07763671875,19.91943359375
0.1,2.58251953125,-20.68017578125,17.99755859375
0.1005,7.82763671875,-22.52197265625,14.71435546875
0.101,11.87158203125,-22.28173828125,10.43017578125
0.1015,15.03466796875,-22.84228515625,7.98779296875
0.102,17.79736328125,-21.48095703125,3.86376953125
0.1025,20.23974609375,-19.99951171875,-0.14013671875
0.103,21.92138671875,-17.59716796875,-4.26416015625
0.1035,23.12255859375,-14.03369140625,-9.10888671875
0.104,22.48193359375,-10.27001953125,-12.23193359375
0.1045,22.52197265625,-7.30712890625,-15.43505859375
0.105,20.88037109375,-3.58349609375,-17.47705078125
0.1055,19.35888671875,1.02099609375,-20.64013671875
0.106,16.15576171875,6.02587890625,-22.28173828125
0.1065,11.87158203125,10.67041015625,-22.60205078125
0.107,9.14892578125,13.67333984375,-22.88232421875
0.1075,4.62451171875,16.71630859375,-21.48095703125
0.108,0.46044921875,18.99853515625,-19.55908203125
0.1085,-4.10400390625,21.36083984375,-17.55712890625
0.109,-9.46923828125,22.88232421875,-13.79345703125
0.1095,-13.11279296875,22.36181640625,-9.66943359375
0.11,-16.27587890625,22.84228515625,-7.10693359375
0.1105,-18.71826171875,21.08056640625,-2.90283203125
0.111,-21.36083984375,19.43896484375,1.46142578125
0.1115,-22.44189453125,16.35595703125,5.66552734375
0.112,-23.36279296875,12.51220703125,10.51025390625
0.1125,-22.84228515625,9.18896484375,13.31298828125
0.113,-22.36181640625,5.42529296875,16.67626953125
0.1135,-20.39990234375,1.46142578125,18.71826171875
0.114,-18.83837890625,-3.30322265625,21.84130859375
0.1145,-14.95458984375,-8.30810546875,23.00244140625
0.115,-10.55029296875,-12.59228515625,22.84228515625
0.1155,-7.94775390625,-15.39501953125,23.04248046875
0.116,-2.58251953125,-18.43798828125,20.80029296875
0.1165,1.94189453125,-20.84033203125,18.83837890625
0.117,6.70654296875,-22.68212890625,15.95556640625
0.1175,11.59130859375,-23.84326171875,12.23193359375
0.118,15.11474609375,-23.00244140625,8.02783203125
0.1185,18.35791015625,-23.04248046875,4.90478515625
0.119,20.64013671875,-20.80029296875,0.46044921875
0.1195,23.48291015625,-18.91845703125,-4.50439453125
0.12,23.64306640625,-14.99462890625,-8.58837890625
0.1205,24.20361328125,-11.19091796875,-13.15283203125
0.121,23.56298828125,-8.06787109375,-15.67529296875
0.1215,22.28173828125,-3.46337890625,-19.07861328125
0.122,20.03955078125,0.98095703125,-21.12060546875
0.1225,17.63720703125,6.18603515625,-23.96337890625
0.123,13.35302734375,10.95068359375,-24.32373046875
0.1235,8.74853515625,14.91455078125,-23.68310546875
0.124,5.94580078125,17.47705078125,-23.52294921875
0.1245,0.18017578125,20.35986328125,-20.68017578125
0.125,-4.62451171875,22.92236328125,-18.59814453125
0.1255,-9.70947265625,23.76318359375,-14.43408203125
0.126,-13.99365234375,24.64404296875,-11.15087890625
0.1265,-17.23681640625,23.52294921875,-6.86669921875
0.127,-20.19970703125,22.84228515625,-3.18310546875
0.1275,-22.12158203125,20.27978515625,1.34130859375
0.128,-24.80419921875,17.83740234375,6.54638671875
0.1285,-24.20361328125,13.27294921875,10.59033203125
0.129,-24.48388671875,9.46923828125,14.75439453125
0.1295,-23.76318359375,6.54638671875,16.95654296875
0.13,-21.80126953125,1.42138671875,20.19970703125
0.1305,-19.47900390625,-3.18310546875,22.44189453125
0.131,-16.23583984375,-8.38818359375,24.36376953125
0.1315,-12.15185546875,-12.67236328125,24.52392578125
0.132,-7.62744140625,-16.27587890625,23.60302734375
0.1325,-4.30419921875,-18.67822265625,22.72216796875
0.133,1.38134765625,-21.28076171875,19.83935546875
0.1335,6.50634765625,-24.08349609375,17.55712890625
0.134,11.39111328125,-23.96337890625,12.67236328125
0.1345,15.23486328125,-24.72412109375,9.66943359375
0.135,18.23779296875,-23.64306640625,5.62548828125
0.1355,21.20068359375,-22.36181640625,1.38134765625
0.136,23.08251953125,-19.67919921875,-3.26318359375
0.1365,25.28466796875,-16.83642578125,-8.38818359375
0.137,24.52392578125,-12.35205078125,-12.23193359375
0.1375,24.40380859375,-8.66845703125,-15.95556640625
0.138,23.56298828125,-5.62548828125,-18.07763671875
0.1385,21.32080078125,-0.18017578125,-21.28076171875
0.139,18.87841796875,4.82470703125,-23.80322265625
0.1395,14.47412109375,10.06982421875,-24.60400390625
0.14,11.03076171875,13.95361328125,-25.04443359375
0.1405,6.50634765625,17.23681640625,-23.80322265625
0.141,2.50244140625,19.71923828125,-22.28173828125
0.1415,-2.86279296875,22.12158203125,-19.51904296875
0.142,-8.46826171875,24.92431640625,-16.75634765625
0.1425,-12.95263671875,24.20361328125,-11.67138671875
0.143,-16.59619140625,24.76416015625,-8.70849609375
0.1435,-19.27880859375,23.48291015625,-4.78466796875
0.144,-22.08154296875,21.76123046875,-0.26025390625
0.1445,-23.84326171875,18.87841796875,4.50439453125
0.145,-25.32470703125,15.15478515625,9.74951171875
0.1455,-24.80419921875,11.03076171875,13.39306640625
0.146,-24.32373046875,7.18701171875,16.91650390625
0.1465,-23.04248046875,3.82373046875,19.03857421875
0.147,-20.76025390625,-1.58154296875,22.08154296875
0.1475,-17.99755859375,-6.94677734375,24.64404296875
0.148,-12.99267578125,-11.83154296875,24.52392578125
0.1485,-9.90966796875,-15.35498046875,24.96435546875
0.149,-5.14501953125,-18.43798828125,23.28271484375
0.1495,-0.38037109375,-21.00048828125,21.20068359375
0.15,4.50439453125,-23.12255859375,18.55810546875
0.1505,10.47021484375,-25.44482421875,14.99462890625
0.151,14.35400390625,-24.44384765625,10.27001953125
0.1515,18.07763671875,-24.84423828125,6.94677734375
0.152,20.56005859375,-23.12255859375,2.82275390625
0.1525,23.36279296875,-21.16064453125,-2.14208984375
0.153,24.92431640625,-18.03759765625,-6.86669921875
0.1535,25.60498046875,-13.79345703125,-11.95166015625
0.154,25.16455078125,-10.14990234375,-15.11474609375
0.1545,24.24365234375,-5.86572265625,-18.51806640625
0.155,22.44189453125,-1.90185546875,-20.64013671875
0.1555,20.07958984375,3.34326171875,-23.56298828125
0.156,16.51611328125,9.02880859375,-25.64501953125
0.1565,11.23095703125,13.51318359375,-24.84423828125
0.157,8.42822265625,16.83642578125,-25.32470703125
0.1575,3.34326171875,19.67919921875,-23.08251953125
0.158,-1.74169921875,22.28173828125,-20.80029296875
0.1585,-6.50634765625,24.08349609375,-17.87744140625
0.159,-12.47216796875,25.72509765625,-13.67333984375
0.1595,-15.87548828125,24.64404296875,-9.30908203125
0.16,-19.47900390625,24.64404296875,-5.74560546875
0.1605,-21.52099609375,22.44189453125,-1.54150390625
0.161,-24.32373046875,20.27978515625,3.54345703125
0.1615,-25.36474609375,16.59619140625,8.30810546875
0.162,-25.56494140625,11.95166015625,13.27294921875
0.1625,-25.28466796875,8.98876953125,16.03564453125
0.163,-23.84326171875,4.22412109375,19.35888671875
0.1635,-21.76123046875,0.02001953125,21.56103515625
0.164,-19.31884765625,-5.14501953125,24.20361328125
0.1645,-15.23486328125,-10.83056640625,25.80517578125
0.165,-10.10986328125,-14.87451171875,24.64404296875
0.1655,-7.18701171875,-17.95751953125,24.84423828125
0.166,-1.62158203125,-20.64013671875,22.04150390625
0.1665,3.46337890625,-23.40283203125,19.87939453125
0.167,8.38818359375,-24.64404296875,16.23583984375
0.1675,13.83349609375,-25.88525390625,12.11181640625
0.168,17.03662109375,-24.84423828125,8.02783203125
0.1685,20.64013671875,-24.40380859375,3.98388671875
0.169,22.60205078125,-21.96142578125,-0.50048828125
0.1695,25.36474609375,-19.67919921875,-5.70556640625
0.17,25.76513671875,-15.39501953125,-10.31005859375
0.1705,25.56494140625,-10.75048828125,-14.87451171875
0.171,25.36474609375,-8.14794921875,-17.35693359375
0.1715,23.32275390625,-2.74267578125,-20.68017578125
0.172,21.12060546875,1.78173828125,-23.04248046875
0.1725,17.99755859375,7.06689453125,-25.16455078125
0.173,13.71337890625,12.51220703125,-26.28564453125
0.1735,8.70849609375,16.15576171875,-24.92431640625
0.174,5.42529296875,19.23876953125,-24.72412109375
0.1745,-0.30029296875,21.68115234375,-21.56103515625
0.175,-5.42529296875,24.64404296875,-19.51904296875
0.1755,-10.59033203125,25.04443359375,-14.83447265625
0.176,-15.39501953125,25.92529296875,-10.99072265625
0.1765,-18.31787109375,24.96435546875,-7.22705078125
0.177,-21.72119140625,23.80322265625,-2.66259765625
0.1775,-23.52294921875,21.12060546875,1.86181640625
0.178,-26.00537109375,18.31787109375,7.22705078125
0.1785,-25.96533203125,13.83349609375,11.83154296875
0.179,-25.52490234375,9.26904296875,15.99560546875
0.1795,-25.20458984375,6.66650390625,18.35791015625
0.18,-22.64208984375,0.98095703125,21.48095703125
0.1805,-20.47998046875,-3.86376953125,24.16357421875
0.181,-16.51611328125,-9.10888671875,25.32470703125
0.1815,-12.51220703125,-13.99365234375,26.20556640625
0.182,-7.70751953125,-17.31689453125,24.72412109375
0.1825,-3.66357421875,-20.31982421875,23.72314453125
0.183,1.94189453125,-22.56201171875,20.52001953125
0.1835,7.42724609375,-25.64501953125,18.19775390625
0.184,12.43212890625,-25.32470703125,12.95263671875
0.1845,16.75634765625,-25.96533203125,9.30908203125
0.185,19.51904296875,-25.04443359375,5.74560546875
0.1855,22.76220703125,-23.28271484375,0.62060546875
0.186,24.68408203125,-20.35986328125,-4.18408203125
0.1865,26.56591796875,-16.99658203125,-9.46923828125
0.187,26.36572265625,-12.67236328125,-13.75341796875
0.1875,25.60498046875,-8.18798828125,-17.47705078125
0.188,24.84423828125,-5.14501953125,-19.83935546875
0.1885,22.08154296875,0.66064453125,-22.80224609375
0.189,19.67919921875,5.98583984375,-25.72509765625
0.1895,14.47412109375,11.23095703125,-25.76513671875
0.19,10.95068359375,15.55517578125,-26.60595703125
0.1905,6.34619140625,18.55810546875,-25.00439453125
0.191,1.58154296875,21.60107421875,-23.24267578125
