wavelength,x,y,z
0.0,14.734375,-21.0205078125,6.966796875
0.0005,17.8974609375,-20.1796875,3.1630859375
0.001,20.419921875,-18.337890625,-1.1611328125
0.0015,22.0615234375,-16.17578125,-5.0048828125
0.002,22.0615234375,-12.8525390625,-8.248046875
0.0025,22.1416015625,-9.2890625,-11.8916015625
0.003,21.701171875,-4.9248046875,-15.7353515625
0.0035,20.5400390625,-0.80078125,-18.8583984375
0.004,18.4580078125,3.123046875,-20.6201171875
0.0045,16.255859375,6.5263671875,-21.9013671875
0.005,12.7724609375,9.849609375,-21.8212890625
0.0055,7.8876953125,13.93359375,-21.220703125
0.006,3.9638671875,16.9765625,-20.5400390625
0.0065,-1.0009765625,19.5791015625,-18.5380859375
0.007,-4.8447265625,21.1005859375,-16.416015625
0.0075,-7.8876953125,21.060546875,-13.61328125
0.008,-11.291015625,21.140625,-10.5302734375
0.0085,-15.4150390625,20.3798828125,-5.765625
0.009,-18.2978515625,19.0185546875,-1.6416015625
0.0095,-20.33984375,17.13671875,2.162109375
0.01,-21.541015625,14.89453125,5.6455078125
0.0105,-21.4609375,11.4912109375,8.888671875
0.011,-21.30078125,7.4873046875,12.7724609375
0.0115,-20.900390625,3.84375,15.9755859375
0.012,-19.5390625,-0.3203125,18.7783203125
0.0125,-17.4169921875,-4.00390625,20.4599609375
0.013,-14.89453125,-7.046875,20.98046875
0.0135,-11.8115234375,-10.25,21.220703125
0.014,-6.6064453125,-14.4140625,20.33984375
0.0145,-2.5625,-17.0966796875,19.21875
0.015,1.521484375,-19.138671875,17.45703125
0.0155,5.044921875,-20.5,15.5751953125
0.016,8.16796875,-20.259765625,12.412109375
0.0165,11.53125,-20.2197265625,9.0888671875
0.017,15.1748046875,-19.619140625,5.1650390625
0.0175,17.9375,-18.0576171875,0.9609375
0.018,19.6591796875,-16.2158203125,-2.5625
0.0185,20.3798828125,-13.853515625,-5.7255859375
0.019,20.4599609375,-10.7705078125,-8.80859375
0.0195,20.2197265625,-6.4462890625,-12.8525390625
0.02,19.7392578125,-3.1630859375,-15.6953125
0.0205,18.3779296875,0.640625,-18.09765625
0.021,16.4560546875,4.2041015625,-19.8193359375
0.0215,13.4130859375,7.126953125,-19.7392578125
0.022,10.3701171875,10.41015625,-20.1396484375
0.0225,5.765625,14.2939453125,-19.4990234375
0.023,1.3212890625,16.9365234375,-17.9775390625
0.0235,-2.162109375,18.5380859375,-16.416015625
0.024,-5.4453125,19.69921875,-14.4541015625
0.0245,-8.6083984375,19.4990234375,-11.53125
0.025,-12.3720703125,19.1787109375,-7.4873046875
0.0255,-15.4951171875,18.6982421875,-4.0439453125
0.026,-17.9775390625,17.13671875,0.0
0.0265,-19.5390625,15.3349609375,3.4033203125
0.027,-19.859375,12.4521484375,6.40625
0.0275,-20.1396484375,9.4892578125,9.609375
0.028,-19.8994140625,5.28515625,13.61328125
0.0285,-19.0185546875,1.6416015625,16.3759765625
0.029,-17.537109375,-1.8017578125,18.337890625
0.0295,-15.6953125,-5.0849609375,19.859375
0.03,-12.4521484375,-8.1279296875,19.69921875
0.0305,-8.5283203125,-11.8115234375,19.5791015625
0.031,-4.564453125,-15.0947265625,19.138671875
0.0315,0.0400390625,-17.376953125,17.376953125
0.032,3.203125,-18.9384765625,15.6953125
0.0325,6.24609375,-19.5390625,13.373046875
0.033,9.4892578125,-19.5390625,10.4501953125
0.0335,13.453125,-18.978515625,6.0859375
0.034,16.2958984375,-18.09765625,2.5224609375
0.0345,18.3779296875,-16.5361328125,-1.0810546875
0.035,19.5791015625,-14.494140625,-4.2041015625
0.0355,19.5791015625,-11.4111328125,-7.3271484375
0.036,19.779296875,-8.0078125,-10.890625
0.0365,19.5791015625,-4.3642578125,-14.3740234375
0.037,18.3779296875,-0.560546875,-17.0166015625
0.0375,16.65625,2.802734375,-18.578125
0.038,14.654296875,5.92578125,-19.619140625
0.0385,11.3310546875,8.96875,-19.619140625
0.039,6.7265625,12.8525390625,-19.0986328125
0.0395,2.8828125,15.775390625,-18.337890625
0.04,-1.12109375,17.8974609375,-16.736328125
0.0405,-4.2841796875,19.05859375,-14.974609375
0.041,-7.3671875,19.138671875,-12.171875
0.0415,-10.73046875,19.1787109375,-9.048828125
0.042,-14.333984375,18.6181640625,-5.0849609375
0.0425,-16.9765625,17.2568359375,-1.1611328125
0.043,-18.658203125,15.6552734375,2.1220703125
0.0435,-19.5791015625,13.4130859375,5.2451171875
0.044,-19.5791015625,10.2900390625,8.2880859375
0.0445,-19.4990234375,6.40625,12.091796875
0.045,-19.1787109375,3.123046875,15.0947265625
0.0455,-17.8974609375,-0.640625,17.5771484375
0.046,-16.015625,-3.7236328125,19.0185546875
0.0465,-13.3330078125,-6.8466796875,19.3388671875
0.047,-10.2099609375,-10.08984375,19.4990234375
0.0475,-5.4453125,-13.93359375,18.73828125
0.048,-1.4013671875,-16.4560546875,17.45703125
0.0485,2.001953125,-18.2578125,16.0556640625
0.049,5.125,-19.0986328125,14.09375
0.0495,8.248046875,-18.9384765625,11.0107421875
0.05,11.8115234375,-18.818359375,7.52734375
0.0505,15.0146484375,-18.2578125,3.9638671875
0.051,17.45703125,-16.65625,0.0
0.0515,18.6982421875,-14.9345703125,-2.962890625
0.052,19.2587890625,-12.3720703125,-6.0859375
0.0525,19.3388671875,-9.3291015625,-9.1689453125
0.053,19.138671875,-5.365234375,-12.97265625
0.0535,18.41796875,-1.9619140625,-15.6953125
0.054,17.056640625,1.6015625,-17.8173828125
0.0545,15.0546875,4.6845703125,-19.0185546875
0.055,11.9716796875,7.7275390625,-19.0185546875
0.0555,8.4482421875,11.2509765625,-19.1787109375
0.056,4.2041015625,14.6943359375,-18.578125
0.0565,-0.16015625,16.9765625,-16.81640625
0.057,-3.1630859375,18.3779296875,-15.375
0.0575,-6.2060546875,19.0185546875,-13.1328125
0.058,-9.4091796875,18.8583984375,-9.9697265625
0.0585,-13.0927734375,18.498046875,-6.1259765625
0.059,-15.8955078125,17.6171875,-2.6025390625
0.0595,-18.2177734375,15.9755859375,1.3212890625
0.06,-19.1787109375,14.013671875,4.2041015625
0.0605,-19.4189453125,11.0107421875,7.4072265625
0.061,-19.4990234375,7.6875,10.890625
0.0615,-19.2587890625,3.9638671875,14.3740234375
0.062,-18.017578125,0.3203125,16.8564453125
0.0625,-16.5361328125,-3.0029296875,18.5380859375
0.063,-14.333984375,-6.0458984375,19.4990234375
0.0635,-10.890625,-9.2490234375,19.298828125
0.064,-6.7666015625,-12.8525390625,18.978515625
0.0645,-2.72265625,-15.935546875,18.09765625
0.065,1.44140625,-17.9375,16.3359375
0.0655,4.2841796875,-18.818359375,14.57421875
0.066,7.447265625,-19.138671875,11.9716796875
0.0665,10.8505859375,-18.9384765625,8.568359375
0.067,14.2138671875,-18.337890625,4.8046875
0.0675,16.8564453125,-17.0966796875,1.0810546875
0.068,18.6982421875,-15.4150390625,-2.4423828125
0.0685,19.2587890625,-13.1328125,-5.3251953125
0.069,19.3388671875,-9.9697265625,-8.48828125
0.0695,19.21875,-6.40625,-12.01171875
0.07,18.8984375,-2.8828125,-15.21484375
0.0705,17.376953125,0.9208984375,-17.4169921875
0.071,15.615234375,3.8837890625,-18.658203125
0.0715,13.1328125,6.88671875,-19.298828125
0.072,9.44921875,10.25,-19.138671875
0.0725,5.28515625,13.693359375,-18.578125
0.073,1.2412109375,16.416015625,-17.3369140625
0.0735,-2.5625,18.2177734375,-15.775390625
0.074,-5.28515625,18.7783203125,-13.7333984375
0.0745,-8.48828125,18.8984375,-10.890625
0.075,-12.0517578125,18.6181640625,-7.3271484375
0.0755,-15.21484375,17.9375,-3.603515625
0.076,-17.4970703125,16.3759765625,0.2802734375
0.0765,-18.9384765625,14.6943359375,3.283203125
0.077,-19.4189453125,12.0517578125,6.3662109375
0.0775,-19.4189453125,8.6484375,9.8095703125
0.078,-19.21875,5.0849609375,13.1728515625
0.0785,-18.5380859375,1.5615234375,16.015625
0.079,-16.9765625,-2.2021484375,18.2177734375
0.0795,-14.9345703125,-4.96484375,19.0185546875
0.08,-12.171875,-8.0478515625,19.3388671875
0.0805,-8.16796875,-11.8115234375,19.138671875
0.081,-3.923828125,-14.9345703125,18.3779296875
0.0815,0.3203125,-16.9765625,16.65625
0.082,3.443359375,-18.73828125,15.2548828125
0.0825,6.326171875,-18.978515625,12.892578125
0.083,9.609375,-18.8583984375,9.6494140625
0.0835,13.052734375,-18.578125,6.166015625
0.084,16.0556640625,-17.6572265625,2.2822265625
0.0845,18.2177734375,-15.9755859375,-1.4814453125
0.085,19.05859375,-14.013671875,-4.2041015625
0.0855,19.4990234375,-11.2509765625,-7.4072265625
0.086,19.37890625,-7.4072265625,-11.0908203125
0.0865,19.138671875,-4.00390625,-14.25390625
0.087,18.017578125,-0.5205078125,-16.6962890625
0.0875,16.4560546875,3.04296875,-18.73828125
0.088,14.013671875,5.92578125,-19.1787109375
0.0885,10.810546875,9.048828125,-19.298828125
0.089,6.7666015625,12.7724609375,-19.05859375
0.0895,2.5224609375,15.8955078125,-18.0576171875
0.09,-1.4814453125,17.8173828125,-16.3359375
0.0905,-4.4443359375,18.9384765625,-14.6943359375
0.091,-7.607421875,19.21875,-12.0517578125
0.0915,-11.1708984375,18.8583984375,-8.328125
0.092,-14.3740234375,18.498046875,-4.884765625
0.0925,-17.1767578125,17.2568359375,-1.0009765625
0.093,-19.0986328125,15.455078125,2.802734375
0.0935,-19.5791015625,12.97265625,5.60546875
0.094,-19.8994140625,10.009765625,8.9287109375
0.0945,-19.7392578125,6.0458984375,12.732421875
0.095,-19.21875,2.40234375,15.85546875
0.0955,-17.697265625,-1.28125,17.9375
0.096,-16.015625,-4.5244140625,19.5791015625
0.0965,-13.1328125,-7.607421875,19.859375
0.097,-9.2890625,-11.05078125,19.6591796875
0.0975,-5.3251953125,-14.4140625,19.1787109375
0.098,-0.80078125,-17.2568359375,17.7373046875
0.0985,3.04296875,-19.0185546875,15.935546875
0.099,5.845703125,-19.4990234375,13.8134765625
0.0995,9.0888671875,-19.7392578125,11.05078125
0.1,13.052734375,-19.21875,6.7666015625
0.1005,16.015625,-18.4580078125,3.1630859375
0.101,18.3779296875,-16.7763671875,-0.5205078125
0.1015,20.01953125,-15.0947265625,-4.1640625
0.102,20.099609375,-12.091796875,-7.126953125
0.1025,20.099609375,-8.8486328125,-10.6904296875
0.103,19.859375,-4.96484375,-14.09375
0.1035,19.0185546875,-1.0810546875,-17.1767578125
0.104,17.1767578125,2.6826171875,-19.0185546875
0.1045,15.0546875,5.60546875,-19.939453125
0.105,12.171875,8.80859375,-20.259765625
0.1055,7.4072265625,12.8125,-19.69921875
0.106,3.68359375,15.7353515625,-19.05859375
0.1065,-0.720703125,18.1376953125,-17.3369140625
0.107,-4.404296875,19.779296875,-15.53515625
0.1075,-7.2470703125,19.7392578125,-12.892578125
0.108,-10.5703125,19.859375,-9.8896484375
0.1085,-14.4140625,19.3388671875,-5.765625
0.109,-17.376953125,18.0576171875,-1.6015625
0.1095,-19.37890625,16.3359375,2.08203125
0.11,-20.5400390625,14.2138671875,5.3251953125
0.1105,-20.5400390625,11.0908203125,8.5283203125
0.111,-20.5,6.966796875,12.5322265625
0.1115,-20.0595703125,3.5234375,15.53515625
0.112,-18.8583984375,-0.400390625,18.2578125
0.1125,-16.9365234375,-4.1640625,20.0595703125
0.113,-14.173828125,-7.0068359375,20.33984375
0.1135,-11.2509765625,-10.25,20.6201171875
0.114,-6.166015625,-14.2939453125,19.859375
0.1145,-1.9619140625,-17.13671875,18.658203125
0.115,1.9619140625,-18.978515625,16.896484375
0.1155,5.4052734375,-20.33984375,15.0546875
0.116,8.6083984375,-20.1396484375,11.8916015625
0.1165,12.171875,-19.859375,8.248046875
0.117,15.615234375,-19.37890625,4.5244140625
0.1175,18.41796875,-17.8173828125,0.240234375
0.118,20.1396484375,-15.8955078125,-3.36328125
0.1185,20.6201171875,-13.3330078125,-6.40625
0.119,20.8203125,-10.25,-9.6494140625
0.1195,20.419921875,-5.765625,-13.8134765625
0.12,19.7392578125,-2.2822265625,-16.65625
0.1205,18.2177734375,1.4814453125,-18.8984375
0.121,16.2958984375,5.0849609375,-20.5400390625
0.1215,12.9326171875,8.1279296875,-20.33984375
0.122,9.529296875,11.53125,-20.580078125
0.1225,4.96484375,15.294921875,-19.8193359375
0.123,0.2802734375,18.017578125,-18.09765625
0.1235,-3.3232421875,19.4990234375,-16.3359375
0.124,-6.5263671875,20.419921875,-14.173828125
0.1245,-9.76953125,20.2197265625,-11.05078125
0.125,-13.7734375,19.619140625,-6.646484375
0.1255,-16.81640625,18.8984375,-3.0830078125
0.126,-19.21875,17.216796875,1.0009765625
0.1265,-20.740234375,15.1748046875,4.484375
0.127,-20.8203125,12.091796875,7.6875
0.1275,-21.0205078125,8.80859375,11.0908203125
0.128,-20.5400390625,4.484375,15.0146484375
0.1285,-19.4990234375,0.6005859375,17.857421875
0.129,-17.6572265625,-2.962890625,19.619140625
0.1295,-15.6953125,-6.24609375,21.0205078125
0.13,-12.1318359375,-9.3291015625,20.7802734375
0.1305,-7.7275390625,-13.3330078125,20.33984375
0.131,-3.68359375,-16.49609375,19.6591796875
0.1315,1.0810546875,-18.9384765625,17.6572265625
0.132,4.484375,-20.2197265625,15.775390625
0.1325,7.607421875,-20.4599609375,13.1328125
0.133,10.9306640625,-20.4599609375,10.0498046875
0.1335,14.974609375,-19.69921875,5.4052734375
0.134,17.857421875,-18.4580078125,1.521484375
0.1345,19.8193359375,-16.6962890625,-2.2021484375
0.135,20.9404296875,-14.494140625,-5.525390625
0.1355,20.7802734375,-11.0908203125,-8.80859375
0.136,20.7001953125,-7.4072265625,-12.4921875
0.1365,20.33984375,-3.763671875,-15.9755859375
0.137,18.8984375,0.560546875,-18.5380859375
0.1375,16.81640625,4.0439453125,-20.01953125
0.138,14.3740234375,7.1669921875,-20.7802734375
0.1385,11.0107421875,10.41015625,-20.7802734375
0.139,5.92578125,14.494140625,-19.939453125
0.1395,1.9619140625,17.296875,-18.9384765625
0.14,-2.2822265625,19.37890625,-17.056640625
0.1405,-5.6455078125,20.4599609375,-15.0947265625
0.141,-8.96875,20.259765625,-11.771484375
0.1415,-12.33203125,20.1796875,-8.5283203125
0.142,-16.015625,19.458984375,-4.32421875
0.1425,-18.7783203125,17.7373046875,0.1201171875
0.143,-20.3798828125,15.85546875,3.4833984375
0.1435,-21.140625,13.3330078125,6.7666015625
0.144,-21.0205078125,9.9296875,10.08984375
0.1445,-20.7802734375,5.60546875,14.0537109375
0.145,-20.1396484375,2.0419921875,17.056640625
0.1455,-18.578125,-1.9619140625,19.4990234375
0.146,-16.3759765625,-5.4052734375,20.7802734375
0.1465,-13.1328125,-8.6484375,20.900390625
0.147,-9.7294921875,-12.0517578125,21.0205078125
0.1475,-4.564453125,-16.015625,19.9794921875
0.148,0.0,-18.578125,18.2978515625
0.1485,3.5634765625,-20.2197265625,16.6162109375
0.149,6.88671875,-21.0205078125,14.333984375
0.1495,10.3701171875,-20.66015625,10.73046875
0.15,14.09375,-20.259765625,6.8466796875
0.1505,17.4169921875,-19.4189453125,2.8427734375
0.151,19.9794921875,-17.45703125,-1.6015625
0.1515,21.1005859375,-15.4150390625,-4.7646484375
0.152,21.5009765625,-12.412109375,-8.2080078125
0.1525,21.380859375,-8.8486328125,-11.7314453125
0.153,20.9404296875,-4.4443359375,-15.53515625
0.1535,19.779296875,-0.560546875,-18.337890625
0.154,18.0576171875,3.3232421875,-20.5
0.1545,15.615234375,6.6865234375,-21.5009765625
0.155,11.8515625,10.08984375,-21.220703125
0.1555,7.767578125,13.853515625,-21.1005859375
0.156,3.1630859375,17.537109375,-20.0595703125
0.1565,-1.841796875,19.8193359375,-17.9375
0.157,-5.125,21.0205078125,-16.095703125
0.1575,-8.5283203125,21.4609375,-13.4130859375
0.158,-12.2119140625,21.060546875,-9.5693359375
0.1585,-15.9755859375,20.33984375,-5.28515625
0.159,-18.978515625,19.138671875,-1.12109375
0.1595,-21.30078125,16.9765625,3.2431640625
0.16,-22.021484375,14.4541015625,6.4462890625
0.1605,-22.181640625,10.8505859375,10.169921875
0.161,-21.94140625,7.046875,13.853515625
0.1615,-21.3408203125,2.802734375,17.537109375
0.162,-19.619140625,-1.4814453125,20.01953125
0.1625,-17.6171875,-5.125,21.701171875
0.163,-14.8544921875,-8.48828125,22.421875
0.1635,-10.5703125,-12.171875,21.9013671875
0.164,-6.0458984375,-15.8955078125,21.2607421875
0.1645,-1.3212890625,-19.0986328125,19.9794921875
0.165,3.4833984375,-21.140625,17.6572265625
0.1655,6.646484375,-21.8212890625,15.375
0.166,10.2099609375,-21.9814453125,12.2119140625
0.1665,14.09375,-21.4609375,8.0478515625
0.167,17.6572265625,-20.4599609375,3.68359375
0.1675,20.419921875,-18.7783203125,-0.720703125
0.168,22.341796875,-16.65625,-4.7646484375
0.1685,22.6220703125,-13.6533203125,-8.0478515625
0.169,22.5419921875,-9.7294921875,-11.8515625
0.1695,22.0615234375,-5.5654296875,-15.5751953125
0.17,21.2607421875,-1.361328125,-18.9384765625
0.1705,19.138671875,3.0029296875,-21.220703125
0.171,16.736328125,6.40625,-22.3017578125
0.1715,13.61328125,9.8896484375,-22.7421875
0.172,8.96875,13.8134765625,-22.1015625
0.1725,4.32421875,17.296875,-21.140625
0.173,-0.6005859375,20.099609375,-19.4189453125
0.1735,-4.8046875,22.0615234375,-17.1767578125
0.174,-8.087890625,22.1416015625,-14.494140625
0.1745,-11.7314453125,22.0615234375,-10.970703125
0.175,-15.7353515625,21.4208984375,-6.6064453125
0.1755,-19.0986328125,20.1396484375,-2.08203125
0.176,-21.4609375,18.0576171875,2.3623046875
0.1765,-22.90234375,15.6953125,5.9658203125
0.177,-23.0625,12.4521484375,9.4892578125
0.1775,-22.7822265625,8.087890625,13.4931640625
0.178,-22.1015625,4.0439453125,16.9365234375
0.1785,-20.8603515625,-0.240234375,19.9794921875
0.179,-18.658203125,-4.5244140625,22.1416015625
0.1795,-15.8955078125,-7.6875,22.58203125
0.18,-12.4521484375,-11.2109375,22.7822265625
0.1805,-7.447265625,-15.3349609375,22.0615234375
0.181,-2.72265625,-18.578125,20.7802734375
0.1815,1.921875,-20.8203125,18.6982421875
0.182,5.8857421875,-22.341796875,16.6162109375
0.1825,9.1689453125,-22.26171875,13.4931640625
0.183,12.892578125,-21.861328125,9.609375
0.1835,16.6162109375,-21.2607421875,5.4453125
0.184,19.859375,-19.7392578125,0.80078125
0.1845,21.94140625,-17.537109375,-3.5634765625
0.185,22.7021484375,-14.89453125,-6.806640625
0.1855,22.9423828125,-11.451171875,-10.4501953125
0.186,22.4619140625,-6.88671875,-14.6142578125
0.1865,21.78125,-2.9228515625,-17.857421875
0.187,20.1796875,1.2412109375,-20.3798828125
0.1875,17.9775390625,5.4052734375,-22.501953125
0.188,14.734375,8.6083984375,-22.4619140625
0.1885,11.05078125,12.1318359375,-22.5419921875
0.189,6.1259765625,16.17578125,-21.8212890625
0.1895,1.1611328125,19.37890625,-20.2998046875
0.19,-3.2431640625,21.2607421875,-18.017578125
0.1905,-6.806640625,22.341796875,-15.8955078125
0.191,-10.330078125,22.26171875,-12.5322265625
0.1915,-14.3740234375,21.5009765625,-8.0478515625
0.192,-17.697265625,20.8203125,-4.1240234375
0.1925,-20.7001953125,19.0185546875,0.6005859375
0.193,-22.6220703125,16.6962890625,4.96484375
0.1935,-22.8623046875,13.61328125,8.087890625
0.194,-23.0625,10.1298828125,11.8115234375
0.1945,-22.501953125,5.365234375,16.015625
0.195,-21.541015625,1.2412109375,19.2587890625
0.1955,-19.5390625,-2.8828125,21.2607421875
0.196,-17.376953125,-6.646484375,23.0224609375
0.1965,-13.7333984375,-10.08984375,22.8623046875
0.197,-9.2890625,-13.93359375,22.421875
0.1975,-4.8046875,-17.4169921875,21.62109375
0.198,0.5205078125,-20.419921875,19.6591796875
0.1985,4.6845703125,-22.0615234375,17.376953125
0.199,7.84765625,-22.421875,14.7744140625
0.1995,11.4912109375,-22.341796875,11.451171875
0.2,15.8154296875,-21.5009765625,6.4462890625
0.2005,18.8583984375,-20.4599609375,2.3623046875
0.201,21.4208984375,-18.4580078125,-1.9619140625
0.2015,22.9423828125,-16.095703125,-5.8056640625
0.202,22.7822265625,-12.572265625,-9.12890625
0.2025,22.7421875,-8.728515625,-13.0126953125
0.203,22.1416015625,-4.484375,-16.6962890625
0.2035,20.8603515625,0.0,-19.8994140625
0.204,18.578125,3.9638671875,-21.62109375
0.2045,16.1357421875,7.3671875,-22.58203125
0.205,12.6123046875,10.7705078125,-22.6220703125
0.2055,7.3271484375,15.0546875,-21.78125
0.206,3.283203125,17.9775390625,-20.900390625
0.2065,-1.6416015625,20.5,-18.7783203125
0.207,-5.6455078125,22.0615234375,-16.65625
0.2075,-8.728515625,21.78125,-13.4931640625
0.208,-12.251953125,21.78125,-10.25
0.2085,-16.416015625,20.900390625,-5.4853515625
0.209,-19.4189453125,19.37890625,-1.0009765625
0.2095,-21.30078125,17.4169921875,2.8828125
0.21,-22.501953125,14.974609375,6.4462890625
0.2105,-22.421875,11.451171875,9.8896484375
0.211,-22.1416015625,7.0068359375,14.0537109375
0.2115,-21.5810546875,3.3232421875,17.216796875
0.212,-20.1396484375,-1.0009765625,20.01953125
0.2125,-17.8173828125,-4.9248046875,21.7412109375
0.213,-14.89453125,-8.0078125,21.94140625
0.2135,-11.611328125,-11.4111328125,22.2216796875
0.214,-6.1259765625,-15.6953125,21.1806640625
0.2145,-1.76171875,-18.5380859375,19.859375
0.215,2.40234375,-20.4599609375,17.9375
0.2155,6.0859375,-21.78125,15.8154296875
0.216,9.44921875,-21.4609375,12.33203125
0.2165,13.0927734375,-21.140625,8.568359375
0.217,16.6962890625,-20.4599609375,4.5244140625
0.2175,19.619140625,-18.658203125,0.0
0.218,21.2607421875,-16.6162109375,-3.7236328125
0.2185,21.861328125,-13.853515625,-7.0068359375
0.219,21.9814453125,-10.5302734375,-10.25
