wavelength,x,y,z
0.0,25.60498046875,-15.35498046875,-10.39013671875
0.0005,25.56494140625,-11.79150390625,-13.83349609375
0.001,25.36474609375,-7.98779296875,-17.43701171875
0.0015,23.56298828125,-4.62451171875,-18.87841796875
0.002,21.12060546875,0.74072265625,-21.72119140625
0.0025,17.99755859375,5.82568359375,-23.64306640625
0.003,13.99365234375,11.27099609375,-25.04443359375
0.0035,11.11083984375,14.47412109375,-25.48486328125
0.004,6.22607421875,17.47705078125,-23.68310546875
0.0045,2.34228515625,19.03857421875,-21.44091796875
0.005,-2.98291015625,21.44091796875,-18.63818359375
0.0055,-8.58837890625,23.52294921875,-15.23486328125
0.006,-12.67236328125,23.84326171875,-11.51123046875
0.0065,-16.15576171875,24.00341796875,-8.22802734375
0.007,-18.31787109375,22.28173828125,-4.46435546875
0.0075,-20.88037109375,20.11962890625,0.34033203125
0.008,-22.76220703125,17.15673828125,5.10498046875
0.0085,-24.60400390625,13.71337890625,10.31005859375
0.009,-24.68408203125,10.75048828125,13.31298828125
0.0095,-24.16357421875,6.86669921875,16.59619140625
0.01,-22.16162109375,3.34326171875,18.15771484375
0.0105,-20.03955078125,-1.86181640625,21.08056640625
0.011,-16.79638671875,-7.18701171875,23.16259765625
0.0115,-13.19287109375,-11.83154296875,24.20361328125
0.012,-10.14990234375,-14.95458984375,24.32373046875
0.0125,-5.62548828125,-17.47705078125,22.44189453125
0.013,-1.06103515625,-19.51904296875,19.99951171875
0.0135,3.90380859375,-21.84130859375,17.47705078125
0.014,9.98974609375,-24.08349609375,13.71337890625
0.0145,13.39306640625,-24.12353515625,10.43017578125
0.015,16.83642578125,-24.20361328125,7.06689453125
0.0155,19.11865234375,-22.00146484375,2.66259765625
0.016,21.84130859375,-19.83935546875,-2.26220703125
0.0165,23.44287109375,-16.51611328125,-7.18701171875
0.017,25.12451171875,-12.91259765625,-12.39208984375
0.0175,25.00439453125,-9.58935546875,-15.43505859375
0.018,24.08349609375,-5.78564453125,-18.23779296875
0.0185,21.48095703125,-1.30126953125,-20.07958984375
0.019,19.39892578125,3.70361328125,-23.00244140625
0.0195,15.39501953125,9.58935546875,-24.84423828125
0.02,11.79150390625,13.71337890625,-25.36474609375
0.0205,8.10791015625,16.87646484375,-24.96435546875
0.021,3.02294921875,19.35888671875,-22.40185546875
0.0215,-2.10205078125,21.60107421875,-19.71923828125
0.022,-7.18701171875,23.52294921875,-16.59619140625
0.0225,-13.07275390625,25.48486328125,-12.79248046875
0.023,-16.47607421875,24.72412109375,-8.66845703125
0.0235,-19.55908203125,24.36376953125,-5.22509765625
0.024,-22.24169921875,21.28076171875,0.54052734375
0.0245,-24.84423828125,18.79833984375,5.46533203125
0.025,-25.64501953125,14.71435546875,10.35009765625
0.0255,-27.16650390625,11.55126953125,14.99462890625
0.026,-26.12548828125,7.30712890625,18.07763671875
0.0265,-24.56396484375,2.74267578125,21.00048828125
0.027,-21.20068359375,-2.62255859375,23.00244140625
0.0275,-18.55810546875,-8.02783203125,25.76513671875
0.028,-14.15380859375,-13.47314453125,26.76611328125
0.0285,-10.06982421875,-17.39697265625,26.60595703125
0.029,-6.18603515625,-19.99951171875,25.52490234375
0.0295,0.14013671875,-22.84228515625,22.16162109375
0.03,5.58544921875,-24.96435546875,18.91845703125
0.0305,11.47119140625,-26.40576171875,14.63427734375
0.031,16.19580078125,-27.88720703125,11.39111328125
0.0315,19.99951171875,-26.32568359375,6.10595703125
0.032,22.60205078125,-25.40478515625,2.30224609375
0.0325,25.24462890625,-21.72119140625,-3.82373046875
0.033,27.80712890625,-18.47802734375,-9.50927734375
0.0335,27.88720703125,-13.35302734375,-14.63427734375
0.034,28.88818359375,-10.27001953125,-18.55810546875
0.0345,26.96630859375,-5.62548828125,-21.32080078125
0.035,24.72412109375,-0.30029296875,-24.28369140625
0.0355,20.80029296875,5.42529296875,-26.00537109375
0.036,17.19677734375,11.59130859375,-28.56787109375
0.0365,12.55224609375,16.35595703125,-28.76806640625
0.037,7.54736328125,20.31982421875,-27.80712890625
0.0375,3.58349609375,22.24169921875,-25.84521484375
0.038,-3.34326171875,25.24462890625,-22.08154296875
0.0385,-8.94873046875,26.96630859375,-18.31787109375
0.039,-15.11474609375,28.00732421875,-13.27294921875
0.0395,-18.71826171875,28.64794921875,-10.39013671875
0.04,-22.56201171875,26.60595703125,-4.62451171875
0.0405,-25.00439453125,24.36376953125,0.14013671875
0.041,-27.20654296875,20.56005859375,6.06591796875
0.0415,-29.44873046875,16.71630859375,12.11181640625
0.042,-29.00830078125,11.55126953125,16.75634765625
0.0425,-29.40869140625,8.26806640625,20.35986328125
0.043,-26.88623046875,3.46337890625,22.64208984375
0.0435,-24.08349609375,-2.42236328125,25.56494140625
0.044,-20.03955078125,-8.02783203125,27.16650390625
0.0445,-15.83544921875,-14.39404296875,29.24853515625
0.045,-11.71142578125,-17.95751953125,28.84814453125
0.0455,-6.22607421875,-21.92138671875,27.36669921875
0.046,-1.94189453125,-23.36279296875,24.68408203125
0.0465,4.86474609375,-26.28564453125,20.96044921875
0.047,10.83056640625,-27.88720703125,16.67626953125
0.0475,16.67626953125,-28.52783203125,11.59130859375
0.048,19.99951171875,-28.60791015625,8.46826171875
0.0485,23.28271484375,-26.60595703125,3.10302734375
0.049,25.48486328125,-23.76318359375,-1.94189453125
0.0495,27.36669921875,-20.03955078125,-7.46728515625
0.05,29.28857421875,-15.67529296875,-13.71337890625
0.0505,28.60791015625,-11.03076171875,-17.55712890625
0.051,28.36767578125,-7.14697265625,-21.12060546875
0.0515,25.68505859375,-2.58251953125,-23.00244140625
0.052,22.88232421875,3.14306640625,-25.76513671875
0.0525,18.75830078125,8.66845703125,-27.20654296875
0.053,14.23388671875,14.87451171875,-28.88818359375
0.0535,10.27001953125,18.07763671875,-28.20751953125
0.054,4.90478515625,21.56103515625,-26.40576171875
0.0545,0.18017578125,23.04248046875,-23.24267578125
0.055,-5.62548828125,25.48486328125,-20.07958984375
0.0555,-11.71142578125,26.96630859375,-15.51513671875
0.056,-16.51611328125,27.20654296875,-11.11083984375
0.0565,-19.87939453125,26.92626953125,-7.50732421875
0.057,-22.76220703125,24.64404296875,-2.30224609375
0.0575,-25.00439453125,21.76123046875,2.78271484375
0.058,-26.52587890625,18.19775390625,7.82763671875
0.0585,-28.28759765625,14.07373046875,13.63330078125
0.059,-27.56689453125,9.90966796875,16.95654296875
0.0595,-27.00634765625,5.90576171875,20.27978515625
0.06,-24.04345703125,1.14111328125,22.08154296875
0.0605,-21.60107421875,-4.18408203125,24.92431640625
0.061,-17.27685546875,-9.74951171875,26.12548828125
0.0615,-13.31298828125,-15.07470703125,27.48681640625
0.062,-9.30908203125,-18.07763671875,26.60595703125
0.0625,-4.26416015625,-21.00048828125,24.60400390625
0.063,0.86083984375,-22.72216796875,21.28076171875
0.0635,6.06591796875,-25.00439453125,18.47802734375
0.064,12.31201171875,-26.60595703125,13.91357421875
0.0645,16.15576171875,-26.44580078125,9.94970703125
0.065,19.47900390625,-26.20556640625,6.46630859375
0.0655,22.28173828125,-23.52294921875,1.06103515625
0.066,24.52392578125,-20.80029296875,-3.94384765625
0.0665,25.64501953125,-16.91650390625,-8.90869140625
0.067,27.36669921875,-13.11279296875,-14.35400390625
0.0675,26.36572265625,-8.90869140625,-17.51708984375
0.068,25.56494140625,-5.18505859375,-20.31982421875
0.0685,22.44189453125,-0.18017578125,-22.12158203125
0.069,20.19970703125,4.86474609375,-24.84423828125
0.0695,15.51513671875,10.47021484375,-25.80517578125
0.07,11.83154296875,14.95458984375,-26.60595703125
0.0705,7.70751953125,17.95751953125,-25.60498046875
0.071,2.50244140625,20.52001953125,-23.08251953125
0.0715,-2.54248046875,22.36181640625,-19.99951171875
0.072,-7.54736328125,24.08349609375,-16.79638671875
0.0725,-13.11279296875,25.60498046875,-12.87255859375
0.073,-16.63623046875,24.84423828125,-8.42822265625
0.0735,-19.47900390625,24.40380859375,-5.34521484375
0.074,-22.00146484375,21.40087890625,0.14013671875
0.0745,-24.24365234375,18.83837890625,4.94482421875
0.075,-24.88427734375,14.83447265625,9.50927734375
0.0755,-26.36572265625,11.83154296875,13.91357421875
0.076,-25.28466796875,7.58740234375,16.95654296875
0.0765,-23.88330078125,3.50341796875,19.63916015625
0.077,-21.00048828125,-1.30126953125,21.48095703125
0.0775,-18.55810546875,-6.26611328125,24.04345703125
0.078,-14.43408203125,-11.47119140625,25.00439453125
0.0785,-10.59033203125,-15.23486328125,25.00439453125
0.079,-7.06689453125,-17.79736328125,24.16357421875
0.0795,-1.54150390625,-20.31982421875,21.20068359375
0.08,3.18310546875,-22.32177734375,18.63818359375
0.0805,8.50830078125,-23.72314453125,14.79443359375
0.081,13.19287109375,-25.44482421875,11.83154296875
0.0815,16.79638671875,-24.20361328125,7.14697265625
0.082,19.23876953125,-23.52294921875,3.98388671875
0.0825,21.60107421875,-20.56005859375,-1.22119140625
0.083,24.00341796875,-17.99755859375,-6.14599609375
0.0835,24.44384765625,-13.75341796875,-10.83056640625
0.084,25.56494140625,-10.87060546875,-14.75439453125
0.0845,24.52392578125,-7.18701171875,-17.31689453125
0.085,22.60205078125,-2.58251953125,-19.95947265625
0.0855,19.91943359375,2.06201171875,-21.88134765625
0.086,16.87646484375,7.42724609375,-24.16357421875
0.0865,13.31298828125,12.07177734375,-25.24462890625
0.087,8.70849609375,15.83544921875,-24.44384765625
0.0875,5.50537109375,17.87744140625,-23.40283203125
0.088,-0.30029296875,20.43994140625,-20.31982421875
0.0885,-4.98486328125,22.60205078125,-17.87744140625
0.089,-10.43017578125,23.56298828125,-13.51318359375
0.0895,-14.19384765625,24.92431640625,-11.15087890625
0.09,-17.75732421875,23.60302734375,-6.30615234375
0.0905,-20.27978515625,22.08154296875,-2.26220703125
0.091,-22.52197265625,19.19873046875,2.86279296875
0.0915,-24.84423828125,16.31591796875,8.02783203125
0.092,-25.04443359375,12.19189453125,12.27197265625
0.0925,-25.64501953125,8.90869140625,16.07568359375
0.093,-24.32373046875,5.42529296875,18.11767578125
0.0935,-21.96142578125,0.06005859375,21.12060546875
0.094,-19.11865234375,-4.86474609375,23.12255859375
0.0945,-15.39501953125,-10.43017578125,24.96435546875
0.095,-12.43212890625,-14.07373046875,25.64501953125
0.0955,-7.18701171875,-17.87744140625,24.28369140625
0.096,-3.66357421875,-19.63916015625,22.60205078125
0.0965,2.42236328125,-22.44189453125,19.47900390625
0.097,7.86767578125,-24.60400390625,16.19580078125
0.0975,13.19287109375,-25.16455078125,11.63134765625
0.098,16.63623046875,-25.76513671875,8.82861328125
0.0985,19.71923828125,-24.28369140625,4.26416015625
0.099,22.36181640625,-22.12158203125,-0.50048828125
0.0995,24.36376953125,-18.91845703125,-5.62548828125
0.1,26.44580078125,-15.19482421875,-11.39111328125
0.1005,26.24560546875,-11.27099609375,-15.03466796875
0.101,26.12548828125,-7.34716796875,-18.75830078125
0.1015,24.12353515625,-3.46337890625,-20.64013671875
0.102,21.68115234375,2.14208984375,-23.64306640625
0.1025,18.03759765625,7.54736328125,-25.36474609375
0.103,13.71337890625,13.35302734375,-26.88623046875
0.1035,10.35009765625,16.51611328125,-26.76611328125
0.104,4.94482421875,19.99951171875,-24.96435546875
0.1045,0.34033203125,21.76123046875,-22.28173828125
0.105,-5.26513671875,24.28369140625,-19.35888671875
0.1055,-11.35107421875,26.12548828125,-15.11474609375
0.106,-15.83544921875,26.20556640625,-10.83056640625
0.1065,-19.35888671875,26.08544921875,-7.18701171875
0.107,-22.36181640625,23.84326171875,-1.94189453125
0.1075,-24.92431640625,21.12060546875,3.30322265625
0.108,-26.40576171875,17.67724609375,8.18798828125
0.1085,-28.20751953125,13.59326171875,13.99365234375
0.109,-27.36669921875,9.46923828125,17.19677734375
0.1095,-26.76611328125,5.26513671875,20.72021484375
0.11,-23.72314453125,0.30029296875,22.64208984375
0.1105,-21.28076171875,-5.14501953125,25.56494140625
0.111,-16.79638671875,-10.75048828125,26.60595703125
0.1115,-12.71240234375,-15.99560546875,27.80712890625
0.112,-8.58837890625,-18.99853515625,26.76611328125
0.1125,-3.06298828125,-22.20166015625,24.56396484375
0.113,2.38232421875,-24.04345703125,21.08056640625
0.1135,7.58740234375,-26.16552734375,18.19775390625
0.114,13.91357421875,-27.60693359375,13.39306640625
0.1145,17.79736328125,-27.16650390625,9.10888671875
0.115,21.20068359375,-26.76611328125,5.30517578125
0.1155,24.08349609375,-23.76318359375,-0.58056640625
0.116,26.40576171875,-20.80029296875,-5.78564453125
0.1165,27.40673828125,-16.75634765625,-10.75048828125
0.117,28.88818359375,-12.79248046875,-16.15576171875
0.1175,27.56689453125,-8.10791015625,-19.39892578125
0.118,26.48583984375,-4.02392578125,-22.36181640625
0.1185,22.92236328125,1.46142578125,-24.20361328125
0.119,20.43994140625,6.74658203125,-26.92626953125
0.1195,15.39501953125,12.35205078125,-27.56689453125
0.12,11.39111328125,16.91650390625,-28.20751953125
0.1205,6.78662109375,19.91943359375,-26.72607421875
0.121,0.94091796875,22.88232421875,-24.00341796875
0.1215,-4.50439453125,24.64404296875,-20.39990234375
0.122,-9.74951171875,26.48583984375,-17.07666015625
0.1225,-15.39501953125,27.60693359375,-12.63232421875
0.123,-19.19873046875,26.48583984375,-7.70751953125
0.1235,-22.00146484375,25.80517578125,-4.30419921875
0.124,-24.84423828125,22.36181640625,1.98193359375
0.1245,-27.12646484375,19.35888671875,7.22705078125
0.125,-27.56689453125,14.87451171875,12.11181640625
0.1255,-28.80810546875,11.67138671875,16.47607421875
0.126,-27.04638671875,6.54638671875,19.79931640625
0.1265,-25.56494140625,2.14208984375,22.56201171875
0.127,-21.92138671875,-3.50341796875,24.48388671875
0.1275,-19.15869140625,-8.94873046875,27.08642578125
0.128,-14.19384765625,-14.11376953125,27.40673828125
0.1285,-10.14990234375,-18.07763671875,27.36669921875
0.129,-5.90576171875,-20.64013671875,25.72509765625
0.1295,0.38037109375,-23.48291015625,22.56201171875
0.13,5.66552734375,-25.32470703125,19.19873046875
0.1305,11.43115234375,-26.80615234375,14.99462890625
0.131,15.99560546875,-27.80712890625,11.55126953125
0.1315,19.91943359375,-26.24560546875,6.06591796875
0.132,22.32177734375,-25.12451171875,2.62255859375
0.1325,25.00439453125,-21.76123046875,-3.42333984375
0.133,27.28662109375,-18.51806640625,-8.98876953125
0.1335,27.36669921875,-13.55322265625,-13.83349609375
0.134,28.24755859375,-10.59033203125,-17.63720703125
0.1345,26.36572265625,-5.90576171875,-20.35986328125
0.135,24.32373046875,-1.02099609375,-23.12255859375
0.1355,20.80029296875,4.42431640625,-25.00439453125
0.136,17.31689453125,10.22998046875,-27.36669921875
0.1365,12.83251953125,14.75439453125,-27.52685546875
0.137,7.98779296875,18.71826171875,-26.68603515625
0.1375,4.30419921875,20.56005859375,-24.88427734375
0.138,-2.22216796875,23.48291015625,-21.48095703125
0.1385,-7.30712890625,25.28466796875,-18.23779296875
0.139,-13.11279296875,26.28564453125,-13.59326171875
0.1395,-16.67626953125,26.96630859375,-10.75048828125
0.14,-20.35986328125,25.12451171875,-5.26513671875
0.1405,-22.68212890625,23.32275390625,-1.14111328125
0.141,-25.00439453125,19.99951171875,4.50439453125
0.1415,-27.24658203125,16.63623046875,10.06982421875
0.142,-26.96630859375,11.99169921875,14.35400390625
0.1425,-27.40673828125,8.70849609375,17.99755859375
0.143,-25.36474609375,4.54443359375,19.99951171875
0.1435,-22.92236328125,-0.94091796875,22.92236328125
0.144,-19.59912109375,-6.10595703125,24.76416015625
0.1445,-15.75537109375,-11.87158203125,26.72607421875
0.145,-12.19189453125,-15.39501953125,26.64599609375
0.1455,-6.90673828125,-19.11865234375,25.28466796875
0.146,-3.22314453125,-20.64013671875,23.20263671875
0.1465,3.02294921875,-23.52294921875,19.95947265625
0.147,8.54833984375,-25.40478515625,16.47607421875
0.1475,13.83349609375,-26.00537109375,11.87158203125
0.148,17.15673828125,-26.28564453125,8.90869140625
0.1485,20.11962890625,-24.56396484375,4.22412109375
0.149,22.48193359375,-22.36181640625,-0.38037109375
0.1495,24.60400390625,-19.19873046875,-5.54541015625
0.15,26.56591796875,-15.39501953125,-11.31103515625
0.1505,26.12548828125,-11.51123046875,-14.75439453125
0.151,26.00537109375,-7.70751953125,-18.27783203125
0.1515,23.92333984375,-3.98388671875,-19.87939453125
0.152,21.48095703125,1.46142578125,-22.80224609375
0.1525,18.07763671875,6.62646484375,-24.56396484375
0.153,13.99365234375,12.19189453125,-26.12548828125
0.1535,10.71044921875,15.35498046875,-25.92529296875
0.154,5.62548828125,18.51806640625,-24.12353515625
0.1545,1.58154296875,20.07958984375,-21.72119140625
0.155,-3.78369140625,22.56201171875,-18.99853515625
0.1555,-9.62939453125,24.48388671875,-15.23486328125
0.156,-13.71337890625,24.64404296875,-11.35107421875
0.1565,-17.23681640625,24.64404296875,-7.86767578125
0.157,-19.63916015625,22.64208984375,-3.46337890625
0.1575,-22.20166015625,20.35986328125,1.34130859375
0.158,-23.92333984375,17.43701171875,5.94580078125
0.1585,-25.68505859375,13.75341796875,11.39111328125
0.159,-25.32470703125,10.22998046875,14.43408203125
0.1595,-24.68408203125,6.38623046875,17.63720703125
0.16,-22.40185546875,2.34228515625,19.23876953125
0.1605,-20.27978515625,-2.74267578125,22.12158203125
0.161,-16.67626953125,-8.02783203125,23.84326171875
0.1615,-13.07275390625,-12.63232421875,24.84423828125
0.162,-9.62939453125,-15.67529296875,24.48388671875
0.1625,-4.98486328125,-18.23779296875,22.52197265625
0.163,-0.34033203125,-20.19970703125,19.99951171875
0.1635,4.42431640625,-22.44189453125,17.55712890625
0.164,10.47021484375,-24.44384765625,13.59326171875
0.1645,13.91357421875,-24.24365234375,10.02978515625
0.165,17.27685546875,-24.20361328125,6.70654296875
0.1655,19.55908203125,-21.84130859375,2.06201171875
0.166,22.16162109375,-19.67919921875,-2.70263671875
0.1665,23.48291015625,-16.35595703125,-7.26708984375
0.167,25.12451171875,-12.83251953125,-12.35205078125
0.1675,24.64404296875,-9.22900390625,-15.39501953125
0.168,23.64306640625,-5.62548828125,-18.03759765625
0.1685,21.12060546875,-1.30126953125,-19.83935546875
0.169,19.11865234375,3.54345703125,-22.56201171875
0.1695,15.31494140625,9.02880859375,-24.28369140625
0.17,11.71142578125,13.03271484375,-24.64404296875
0.1705,8.06787109375,16.11572265625,-24.16357421875
0.171,3.06298828125,18.55810546875,-21.64111328125
0.1715,-1.62158203125,20.72021484375,-19.23876953125
0.172,-6.30615234375,22.48193359375,-16.43603515625
0.1725,-11.91162109375,24.40380859375,-12.83251953125
0.173,-15.31494140625,23.64306640625,-8.70849609375
0.1735,-18.23779296875,23.36279296875,-5.54541015625
0.174,-20.72021484375,20.60009765625,-0.38037109375
0.1745,-23.36279296875,18.43798828125,4.46435546875
0.175,-24.20361328125,14.75439453125,8.90869140625
0.1755,-25.64501953125,11.83154296875,13.27294921875
0.176,-24.80419921875,7.70751953125,16.35595703125
0.1765,-23.24267578125,3.26318359375,19.19873046875
0.177,-20.64013671875,-1.54150390625,21.20068359375
0.1775,-18.15771484375,-6.54638671875,23.84326171875
0.178,-14.27392578125,-11.67138671875,25.12451171875
0.1785,-10.22998046875,-15.43505859375,24.92431640625
0.179,-6.70654296875,-18.07763671875,24.04345703125
0.1795,-0.78076171875,-20.80029296875,20.96044921875
0.18,4.14404296875,-23.04248046875,18.47802734375
0.1805,9.54931640625,-24.40380859375,14.51416015625
0.181,14.19384765625,-26.08544921875,11.59130859375
0.1815,17.91748046875,-24.72412109375,6.54638671875
0.182,20.56005859375,-23.80322265625,3.02294921875
0.1825,23.08251953125,-20.64013671875,-2.62255859375
0.183,25.64501953125,-17.95751953125,-7.94775390625
0.1835,25.88525390625,-13.39306640625,-12.63232421875
0.184,26.88623046875,-10.39013671875,-16.55615234375
0.1845,25.40478515625,-6.22607421875,-19.15869140625
0.185,23.20263671875,-1.02099609375,-22.12158203125
0.1855,20.03955078125,4.18408203125,-24.04345703125
0.186,16.63623046875,9.94970703125,-26.32568359375
0.1865,12.75244140625,14.39404296875,-27.00634765625
0.187,7.70751953125,18.31787109375,-25.92529296875
0.1875,4.02392578125,20.23974609375,-24.36376953125
0.188,-2.54248046875,23.20263671875,-20.88037109375
0.1885,-7.70751953125,25.32470703125,-17.87744140625
0.189,-13.39306640625,26.08544921875,-13.07275390625
0.1895,-16.99658203125,27.04638671875,-10.39013671875
0.19,-20.68017578125,25.12451171875,-4.94482421875
0.1905,-23.24267578125,23.12255859375,-0.34033203125
