wavelength,x,y,z
0.0,-13.27294921875,23.20263671875,-10.47021484375
0.0005,-16.63623046875,22.32177734375,-6.26611328125
0.001,-18.75830078125,21.04052734375,-2.82275390625
0.0015,-21.00048828125,18.51806640625,1.98193359375
0.002,-23.20263671875,15.43505859375,7.38720703125
0.0025,-22.84228515625,11.27099609375,11.23095703125
0.003,-23.68310546875,8.74853515625,14.67431640625
0.0035,-22.28173828125,5.18505859375,16.83642578125
0.004,-20.47998046875,0.50048828125,19.79931640625
0.0045,-17.63720703125,-4.22412109375,21.60107421875
0.005,-13.95361328125,-9.66943359375,23.36279296875
0.0055,-10.71044921875,-12.95263671875,23.36279296875
0.006,-6.78662109375,-16.39599609375,22.92236328125
0.0065,-3.18310546875,-17.99755859375,21.00048828125
0.007,2.02197265625,-20.68017578125,18.55810546875
0.0075,7.26708984375,-22.48193359375,15.23486328125
0.008,11.79150390625,-22.92236328125,11.23095703125
0.0085,15.03466796875,-23.72314453125,8.78857421875
0.009,18.03759765625,-22.24169921875,4.38427734375
0.0095,20.35986328125,-20.52001953125,0.30029296875
0.01,22.04150390625,-17.63720703125,-4.34423828125
0.0105,23.92333984375,-14.23388671875,-9.66943359375
0.011,23.32275390625,-10.27001953125,-13.07275390625
0.0115,23.76318359375,-7.50732421875,-16.35595703125
0.012,21.80126953125,-3.66357421875,-18.23779296875
0.0125,19.87939453125,1.38134765625,-21.36083984375
0.013,16.23583984375,6.38623046875,-22.68212890625
0.0135,12.51220703125,11.43115234375,-24.04345703125
0.014,9.62939453125,14.39404296875,-24.04345703125
0.0145,5.30517578125,17.55712890625,-22.92236328125
0.015,1.26123046875,19.27880859375,-20.60009765625
0.0155,-3.74365234375,21.64111328125,-18.15771484375
0.016,-9.30908203125,23.32275390625,-14.39404296875
0.0165,-13.27294921875,23.12255859375,-10.35009765625
0.017,-16.47607421875,23.76318359375,-7.94775390625
0.0175,-19.03857421875,21.72119140625,-3.30322265625
0.018,-21.44091796875,19.75927734375,1.26123046875
0.0185,-22.64208984375,16.47607421875,5.78564453125
0.019,-24.28369140625,12.91259765625,10.99072265625
0.0195,-23.64306640625,9.26904296875,14.11376953125
0.02,-23.56298828125,5.98583984375,17.31689453125
0.0205,-21.28076171875,1.94189453125,19.07861328125
0.021,-19.19873046875,-3.14306640625,22.08154296875
0.0215,-15.15478515625,-8.22802734375,23.12255859375
0.022,-11.39111328125,-12.79248046875,23.92333984375
0.0225,-8.66845703125,-15.51513671875,23.96337890625
0.023,-3.78369140625,-18.43798828125,21.92138671875
0.0235,0.62060546875,-20.23974609375,19.51904296875
0.024,5.50537109375,-22.24169921875,16.71630859375
0.0245,10.87060546875,-23.88330078125,13.07275390625
0.025,14.43408203125,-23.32275390625,8.94873046875
0.0255,17.55712890625,-23.72314453125,6.26611328125
0.026,19.91943359375,-21.28076171875,1.58154296875
0.0265,22.48193359375,-18.99853515625,-3.38330078125
0.027,23.24267578125,-15.35498046875,-7.82763671875
0.0275,24.52392578125,-11.91162109375,-12.63232421875
0.028,23.92333984375,-8.58837890625,-15.39501953125
0.0285,23.08251953125,-4.66455078125,-18.55810546875
0.029,20.64013671875,-0.34033203125,-20.39990234375
0.0295,18.11767578125,4.98486328125,-23.20263671875
0.03,13.99365234375,9.94970703125,-24.04345703125
0.0305,10.10986328125,14.07373046875,-24.20361328125
0.031,7.54736328125,16.67626953125,-24.28369140625
0.0315,2.18212890625,19.35888671875,-21.64111328125
0.032,-2.54248046875,21.44091796875,-19.15869140625
0.0325,-7.58740234375,22.88232421875,-15.67529296875
0.033,-12.43212890625,24.32373046875,-12.35205078125
0.0335,-15.83544921875,23.48291015625,-8.18798828125
0.034,-18.75830078125,23.32275390625,-5.10498046875
0.0345,-20.96044921875,20.72021484375,-0.34033203125
0.035,-23.44287109375,17.99755859375,5.02490234375
0.0355,-23.68310546875,13.91357421875,9.38916015625
0.036,-24.68408203125,10.59033203125,13.83349609375
0.0365,-24.08349609375,7.42724609375,16.39599609375
0.037,-22.60205078125,2.98291015625,19.39892578125
0.0375,-19.95947265625,-1.58154296875,21.32080078125
0.038,-16.87646484375,-7.06689453125,23.64306640625
0.0385,-13.03271484375,-11.59130859375,24.36376953125
0.039,-8.90869140625,-15.43505859375,24.00341796875
0.0395,-6.14599609375,-17.71728515625,23.64306640625
0.04,-0.54052734375,-20.23974609375,20.64013671875
0.0405,4.42431640625,-22.52197265625,17.99755859375
0.041,9.62939453125,-23.36279296875,13.79345703125
0.0415,13.71337890625,-24.64404296875,10.95068359375
0.042,17.03662109375,-23.64306640625,6.78662109375
0.0425,19.79931640625,-22.72216796875,3.14306640625
0.043,21.80126953125,-19.91943359375,-1.78173828125
0.0435,24.20361328125,-16.99658203125,-7.10693359375
0.044,24.04345703125,-12.79248046875,-11.27099609375
0.0445,24.72412109375,-9.54931640625,-15.27490234375
0.045,23.92333984375,-6.50634765625,-17.51708984375
0.0455,21.84130859375,-1.46142578125,-20.47998046875
0.046,19.07861328125,3.34326171875,-22.48193359375
0.0465,15.19482421875,8.90869140625,-24.16357421875
0.047,11.95166015625,12.87255859375,-24.96435546875
0.0475,7.66748046875,16.47607421875,-24.20361328125
0.048,4.50439453125,18.51806640625,-23.12255859375
0.0485,-1.02099609375,20.92041015625,-20.11962890625
0.049,-6.26611328125,23.28271484375,-17.35693359375
0.0495,-11.27099609375,23.56298828125,-12.79248046875
0.05,-14.95458984375,24.60400390625,-10.14990234375
0.0505,-17.95751953125,23.48291015625,-6.10595703125
0.051,-20.64013671875,22.04150390625,-1.94189453125
0.0515,-22.44189453125,18.99853515625,2.94287109375
0.052,-24.56396484375,15.67529296875,8.42822265625
0.0525,-24.32373046875,11.59130859375,12.35205078125
0.053,-24.64404296875,8.18798828125,16.19580078125
0.0535,-23.52294921875,5.22509765625,18.07763671875
0.054,-21.28076171875,-0.14013671875,21.12060546875
0.0545,-18.23779296875,-5.14501953125,23.16259765625
0.055,-13.99365234375,-10.51025390625,24.20361328125
0.0555,-11.11083984375,-14.07373046875,24.92431640625
0.056,-6.58642578125,-17.43701171875,23.76318359375
0.0565,-2.86279296875,-19.51904296875,22.08154296875
0.057,2.42236328125,-21.76123046875,19.19873046875
0.0575,8.14794921875,-24.12353515625,15.91552734375
0.058,12.63232421875,-23.92333984375,11.39111328125
0.0585,16.35595703125,-24.76416015625,8.66845703125
0.059,19.03857421875,-23.32275390625,4.50439453125
0.0595,21.84130859375,-21.48095703125,-0.26025390625
0.06,23.40283203125,-18.23779296875,-5.10498046875
0.0605,25.16455078125,-14.59423828125,-10.55029296875
0.061,24.84423828125,-10.83056640625,-14.07373046875
0.0615,24.80419921875,-7.10693359375,-17.79736328125
0.062,23.08251953125,-3.58349609375,-19.59912109375
0.0625,20.72021484375,1.90185546875,-22.68212890625
0.063,16.99658203125,7.38720703125,-24.48388671875
0.0635,12.55224609375,12.43212890625,-25.04443359375
0.064,9.90966796875,15.67529296875,-25.64501953125
0.0645,4.98486328125,18.87841796875,-24.04345703125
0.065,0.54052734375,21.08056640625,-21.76123046875
0.0655,-4.50439453125,22.96240234375,-18.83837890625
0.066,-10.59033203125,25.12451171875,-14.99462890625
0.0665,-14.55419921875,24.48388671875,-10.43017578125
0.067,-18.23779296875,25.12451171875,-7.46728515625
0.0675,-20.68017578125,23.00244140625,-2.90283203125
0.068,-23.44287109375,20.80029296875,2.18212890625
0.0685,-24.48388671875,17.03662109375,7.06689453125
0.069,-25.88525390625,13.07275390625,12.47216796875
0.0695,-25.44482421875,9.46923828125,15.75537109375
0.07,-24.84423828125,5.26513671875,19.31884765625
0.0705,-22.48193359375,1.26123046875,21.08056640625
0.071,-20.03955078125,-4.14404296875,23.88330078125
0.0715,-15.83544921875,-9.74951171875,25.32470703125
0.072,-11.23095703125,-14.39404296875,25.32470703125
0.0725,-8.46826171875,-17.47705078125,25.64501953125
0.073,-3.06298828125,-20.35986328125,23.16259765625
0.0735,1.78173828125,-22.60205078125,20.60009765625
0.074,6.70654296875,-24.00341796875,17.27685546875
0.0745,12.63232421875,-25.84521484375,13.35302734375
0.075,16.19580078125,-24.84423828125,8.82861328125
0.0755,19.83935546875,-25.08447265625,5.46533203125
0.076,21.92138671875,-22.44189453125,0.74072265625
0.0765,24.64404296875,-19.87939453125,-4.62451171875
0.077,25.16455078125,-15.79541015625,-9.30908203125
0.0775,26.08544921875,-11.79150390625,-14.27392578125
0.078,25.60498046875,-8.50830078125,-17.19677734375
0.0785,24.24365234375,-3.82373046875,-20.56005859375
0.079,21.68115234375,0.62060546875,-22.36181640625
0.0795,18.71826171875,5.98583984375,-24.76416015625
0.08,14.39404296875,11.43115234375,-25.92529296875
0.0805,9.82958984375,15.43505859375,-25.36474609375
0.081,7.18701171875,18.31787109375,-25.60498046875
0.0815,1.54150390625,20.84033203125,-22.56201171875
0.082,-3.42333984375,23.16259765625,-20.03955078125
0.0825,-8.38818359375,24.08349609375,-16.07568359375
0.083,-13.71337890625,25.64501953125,-12.47216796875
0.0835,-16.91650390625,24.60400390625,-8.22802734375
0.084,-20.19970703125,24.16357421875,-4.50439453125
0.0845,-22.04150390625,21.44091796875,0.14013671875
0.085,-24.60400390625,18.63818359375,5.50537109375
0.0855,-24.80419921875,14.35400390625,10.10986328125
0.086,-25.32470703125,10.39013671875,14.59423828125
0.0865,-25.12451171875,7.66748046875,17.23681640625
0.087,-23.08251953125,2.70263671875,20.19970703125
0.0875,-20.72021484375,-1.74169921875,22.16162109375
0.088,-17.31689453125,-6.94677734375,23.96337890625
0.0885,-13.51318359375,-12.03173828125,25.28466796875
0.089,-9.06884765625,-15.59521484375,24.36376953125
0.0895,-6.18603515625,-18.27783203125,24.16357421875
0.09,-0.78076171875,-20.43994140625,21.04052734375
0.0905,4.18408203125,-22.96240234375,18.71826171875
0.091,9.14892578125,-23.44287109375,14.35400390625
0.0915,13.79345703125,-24.80419921875,11.19091796875
0.092,16.87646484375,-24.08349609375,7.42724609375
0.0925,19.87939453125,-23.04248046875,3.34326171875
0.093,21.80126953125,-20.39990234375,-1.26123046875
0.0935,24.16357421875,-17.55712890625,-6.50634765625
0.094,24.40380859375,-13.51318359375,-10.87060546875
0.0945,24.64404296875,-9.70947265625,-14.95458984375
0.095,24.48388671875,-7.18701171875,-17.43701171875
0.0955,22.08154296875,-1.94189453125,-20.31982421875
0.096,19.83935546875,2.82275390625,-22.72216796875
0.0965,15.75537109375,8.06787109375,-23.96337890625
0.097,12.63232421875,12.63232421875,-25.40478515625
0.0975,8.22802734375,15.99560546875,-24.36376953125
0.098,4.86474609375,18.67822265625,-23.64306640625
0.0985,-0.58056640625,20.96044921875,-20.60009765625
0.099,-5.82568359375,23.64306640625,-18.11767578125
0.0995,-10.79052734375,23.80322265625,-13.43310546875
0.1,-14.99462890625,24.84423828125,-10.31005859375
0.1005,-17.91748046875,24.08349609375,-6.74658203125
0.101,-20.96044921875,22.48193359375,-2.10205078125
0.1015,-22.88232421875,19.51904296875,2.86279296875
0.102,-24.92431640625,16.15576171875,8.34814453125
0.1025,-25.04443359375,12.23193359375,12.51220703125
0.103,-24.92431640625,8.18798828125,16.47607421875
0.1035,-24.32373046875,5.38525390625,18.67822265625
0.104,-21.72119140625,-0.30029296875,21.76123046875
0.1045,-18.91845703125,-5.54541015625,24.20361328125
0.105,-14.23388671875,-10.87060546875,24.80419921875
0.1055,-11.31103515625,-14.83447265625,25.76513671875
0.106,-6.62646484375,-18.07763671875,24.36376953125
0.1065,-2.42236328125,-20.52001953125,22.76220703125
0.107,3.06298828125,-22.68212890625,19.55908203125
0.1075,8.94873046875,-25.20458984375,16.31591796875
0.108,13.39306640625,-24.80419921875,11.55126953125
0.1085,17.43701171875,-25.44482421875,8.18798828125
0.109,20.11962890625,-24.08349609375,4.26416015625
0.1095,23.08251953125,-22.04150390625,-0.90087890625
0.11,24.68408203125,-18.55810546875,-6.06591796875
0.1105,26.20556640625,-14.59423828125,-11.51123046875
0.111,25.96533203125,-10.87060546875,-15.11474609375
0.1115,25.32470703125,-6.58642578125,-18.87841796875
0.112,23.80322265625,-3.06298828125,-20.88037109375
0.1125,21.04052734375,2.58251953125,-23.68310546875
0.113,17.31689453125,8.30810546875,-25.80517578125
0.1135,12.35205078125,13.27294921875,-25.76513671875
0.114,9.58935546875,16.79638671875,-26.40576171875
0.1145,4.74462890625,19.67919921875,-24.48388671875
0.115,-0.14013671875,22.08154296875,-22.24169921875
0.1155,-5.14501953125,23.76318359375,-18.91845703125
0.116,-11.31103515625,25.92529296875,-15.03466796875
0.1165,-15.07470703125,25.12451171875,-10.55029296875
0.117,-18.99853515625,25.32470703125,-6.90673828125
0.1175,-21.08056640625,23.40283203125,-2.90283203125
0.118,-23.76318359375,21.04052734375,2.26220703125
0.1185,-25.08447265625,17.23681640625,7.46728515625
0.119,-25.92529296875,12.87255859375,12.67236328125
0.1195,-25.88525390625,9.74951171875,15.83544921875
0.12,-24.68408203125,5.22509765625,19.23876953125
0.1205,-22.80224609375,1.46142578125,21.12060546875
0.121,-20.03955078125,-3.78369140625,23.52294921875
0.1215,-16.15576171875,-9.62939453125,25.48486328125
0.122,-11.43115234375,-13.79345703125,24.96435546875
0.1225,-8.66845703125,-17.11669921875,25.44482421875
0.123,-3.86376953125,-19.39892578125,23.08251953125
0.1235,1.14111328125,-22.00146484375,20.80029296875
0.124,5.90576171875,-23.36279296875,17.43701171875
0.1245,11.79150390625,-25.16455078125,13.43310546875
0.125,15.07470703125,-24.52392578125,9.62939453125
0.1255,18.87841796875,-24.40380859375,5.74560546875
0.126,20.64013671875,-22.44189453125,1.98193359375
0.1265,23.32275390625,-19.95947265625,-3.18310546875
0.127,24.64404296875,-16.31591796875,-8.30810546875
0.1275,24.88427734375,-11.99169921875,-12.91259765625
0.128,25.28466796875,-9.42919921875,-15.91552734375
0.1285,23.60302734375,-4.78466796875,-18.95849609375
0.129,21.80126953125,-0.70068359375,-21.24072265625
0.1295,18.83837890625,4.34423828125,-23.32275390625
0.13,15.07470703125,10.14990234375,-25.32470703125
0.1305,10.59033203125,13.87353515625,-24.56396484375
0.131,7.62744140625,17.27685546875,-24.96435546875
0.1315,3.06298828125,19.27880859375,-22.40185546875
0.132,-2.10205078125,22.12158203125,-20.23974609375
0.1325,-7.06689453125,23.20263671875,-16.51611328125
0.133,-12.47216796875,24.72412109375,-12.71240234375
0.1335,-15.63525390625,24.36376953125,-9.30908203125
0.134,-19.23876953125,23.64306640625,-4.94482421875
0.1345,-21.08056640625,21.52099609375,-1.02099609375
0.135,-23.52294921875,18.83837890625,4.22412109375
0.1355,-24.68408203125,14.99462890625,9.30908203125
0.136,-24.64404296875,10.63037109375,13.67333984375
0.1365,-25.04443359375,8.18798828125,16.63623046875
0.137,-22.92236328125,3.18310546875,19.43896484375
0.1375,-21.04052734375,-1.38134765625,22.08154296875
0.138,-17.43701171875,-6.34619140625,23.52294921875
0.1385,-13.95361328125,-11.79150390625,25.40478515625
0.139,-9.42919921875,-15.23486328125,24.36376953125
0.1395,-6.02587890625,-18.47802734375,24.20361328125
0.14,-0.98095703125,-20.43994140625,21.16064453125
0.1405,4.22412109375,-23.24267578125,18.95849609375
0.141,9.34912109375,-23.84326171875,14.59423828125
0.1415,14.15380859375,-24.96435546875,10.95068359375
0.142,17.23681640625,-24.60400390625,7.62744140625
0.1425,20.64013671875,-23.16259765625,2.74267578125
0.143,22.56201171875,-20.64013671875,-1.78173828125
0.1435,24.60400390625,-17.55712890625,-6.90673828125
0.144,25.36474609375,-13.71337890625,-11.71142578125
0.1445,24.96435546875,-9.38916015625,-15.67529296875
0.145,24.96435546875,-6.74658203125,-18.39794921875
0.1455,22.24169921875,-1.30126953125,-21.16064453125
0.146,20.03955078125,3.70361328125,-23.84326171875
0.1465,15.55517578125,8.86865234375,-24.48388671875
0.147,12.35205078125,13.63330078125,-26.12548828125
0.1475,7.90771484375,16.83642578125,-24.84423828125
0.148,3.90380859375,19.83935546875,-23.80322265625
0.1485,-1.30126953125,21.68115234375,-20.56005859375
0.149,-6.54638671875,24.36376953125,-18.11767578125
0.1495,-11.59130859375,24.48388671875,-13.31298828125
0.15,-15.75537109375,25.00439453125,-9.74951171875
0.1505,-18.55810546875,24.48388671875,-6.54638671875
0.151,-21.56103515625,22.40185546875,-1.34130859375
0.1515,-23.44287109375,19.51904296875,3.46337890625
0.152,-24.92431640625,15.95556640625,8.58837890625
0.1525,-25.52490234375,12.19189453125,12.95263671875
0.153,-24.68408203125,7.90771484375,16.51611328125
0.1535,-24.28369140625,5.02490234375,18.91845703125
0.154,-21.32080078125,-0.42041015625,21.48095703125
0.1545,-18.99853515625,-5.46533203125,24.20361328125
0.155,-14.15380859375,-10.35009765625,24.24365234375
0.1555,-11.11083984375,-14.55419921875,25.32470703125
0.156,-7.06689453125,-17.27685546875,24.08349609375
0.1565,-2.46240234375,-19.99951171875,22.28173828125
0.157,2.42236328125,-21.76123046875,19.23876953125
0.1575,7.90771484375,-24.08349609375,16.23583984375
0.158,12.23193359375,-24.20361328125,12.07177734375
0.1585,16.15576171875,-24.24365234375,8.26806640625
0.159,18.51806640625,-23.68310546875,5.42529296875
0.1595,21.36083984375,-21.28076171875,0.14013671875
0.16,23.36279296875,-18.47802734375,-4.74462890625
0.1605,24.08349609375,-14.59423828125,-9.46923828125
0.161,24.92431640625,-11.63134765625,-13.43310546875
0.1615,23.88330078125,-7.54736328125,-16.51611328125
0.162,23.00244140625,-4.18408203125,-18.91845703125
0.1625,20.23974609375,0.90087890625,-21.24072265625
0.163,17.51708984375,6.30615234375,-23.88330078125
0.1635,13.07275390625,10.67041015625,-23.76318359375
0.164,9.98974609375,14.55419921875,-24.60400390625
0.1645,6.62646484375,16.87646484375,-23.56298828125
0.165,1.58154296875,19.59912109375,-21.32080078125
0.1655,-2.98291015625,21.36083984375,-18.59814453125
0.166,-8.58837890625,23.32275390625,-15.07470703125
0.1665,-12.35205078125,23.68310546875,-11.79150390625
0.167,-16.07568359375,23.36279296875,-7.82763671875
0.1675,-18.23779296875,22.56201171875,-4.94482421875
0.168,-20.84033203125,20.19970703125,0.14013671875
0.1685,-23.00244140625,17.31689453125,5.22509765625
0.169,-23.20263671875,13.15283203125,9.62939453125
0.1695,-24.32373046875,10.55029296875,13.39306640625
0.17,-23.20263671875,6.82666015625,16.07568359375
0.1705,-21.92138671875,2.94287109375,18.71826171875
0.171,-19.35888671875,-1.78173828125,20.88037109375
0.1715,-16.19580078125,-7.38720703125,23.32275390625
0.172,-12.31201171875,-11.23095703125,23.24267578125
0.1725,-8.94873046875,-14.91455078125,23.56298828125
0.173,-5.70556640625,-16.87646484375,22.28173828125
0.1735,-0.42041015625,-19.71923828125,19.95947265625
0.174,4.30419921875,-21.52099609375,17.23681640625
0.1745,9.62939453125,-22.88232421875,13.27294921875
0.175,12.99267578125,-23.44287109375,10.55029296875
0.1755,16.55615234375,-22.84228515625,6.46630859375
0.176,18.71826171875,-21.64111328125,3.14306640625
0.1765,21.12060546875,-19.19873046875,-1.78173828125
0.177,23.24267578125,-16.23583984375,-6.98681640625
0.1775,22.96240234375,-12.07177734375,-10.99072265625
0.178,23.92333984375,-9.54931640625,-14.47412109375
0.1785,22.48193359375,-5.78564453125,-16.79638671875
0.179,20.96044921875,-1.34130859375,-19.71923828125
0.1795,18.11767578125,3.46337890625,-21.64111328125
0.18,14.59423828125,8.98876953125,-23.64306640625
0.1805,11.11083984375,12.31201171875,-23.52294921875
0.181,7.50732421875,15.87548828125,-23.44287109375
0.1815,3.98388671875,17.59716796875,-21.64111328125
0.182,-1.22119140625,20.35986328125,-19.39892578125
0.1825,-6.30615234375,22.16162109375,-16.19580078125
0.183,-11.15087890625,22.88232421875,-12.15185546875
0.1835,-14.31396484375,23.48291015625,-9.66943359375
0.184,-17.39697265625,22.28173828125,-5.42529296875
0.1845,-19.63916015625,20.76025390625,-1.66162109375
0.185,-21.60107421875,17.99755859375,3.14306640625
0.1855,-23.52294921875,14.71435546875,8.34814453125
0.186,-23.04248046875,10.71044921875,12.03173828125
0.1865,-23.68310546875,8.02783203125,15.39501953125
0.187,-21.92138671875,4.34423828125,17.31689453125
0.1875,-20.23974609375,-0.50048828125,20.39990234375
0.188,-16.95654296875,-5.26513671875,21.92138671875
0.1885,-13.27294921875,-10.47021484375,23.48291015625
0.189,-10.22998046875,-13.43310546875,23.36279296875
0.1895,-6.10595703125,-16.71630859375,22.56201171875
0.19,-2.22216796875,-18.43798828125,20.43994140625
0.1905,2.70263671875,-20.92041015625,18.19775390625
0.191,8.06787109375,-22.64208984375,14.59423828125
