wavelength,x,y,z
0.0,3.012939453125,4.134033203125,-6.476318359375
0.0005,4.294189453125,2.652587890625,-6.596435546875
0.001,5.094970703125,1.371337890625,-6.436279296875
0.0015,5.495361328125,0.610595703125,-6.436279296875
0.002,5.495361328125,-0.150146484375,-6.075927734375
0.0025,5.295166015625,-1.071044921875,-5.235107421875
0.003,5.094970703125,-2.272216796875,-4.073974609375
0.0035,4.854736328125,-3.633544921875,-2.712646484375
0.004,4.694580078125,-4.634521484375,-1.751708984375
0.0045,4.494384765625,-5.315185546875,-1.031005859375
0.005,3.893798828125,-5.715576171875,-0.270263671875
0.0055,2.852783203125,-5.915771484375,1.010986328125
0.006,1.571533203125,-6.156005859375,2.492431640625
0.0065,0.450439453125,-6.276123046875,3.773681640625
0.007,-0.350341796875,-6.556396484375,4.734619140625
0.0075,-1.111083984375,-6.436279296875,5.455322265625
0.008,-2.152099609375,-5.755615234375,5.895751953125
0.0085,-3.433349609375,-4.554443359375,6.216064453125
0.009,-4.634521484375,-3.153076171875,6.256103515625
0.0095,-5.395263671875,-2.072021484375,6.216064453125
0.01,-5.715576171875,-1.351318359375,6.216064453125
0.0105,-5.675537109375,-0.630615234375,5.735595703125
0.011,-5.515380859375,0.450439453125,4.934814453125
0.0115,-5.395263671875,1.731689453125,3.813720703125
0.012,-5.155029296875,3.012939453125,2.532470703125
0.0125,-5.074951171875,3.933837890625,1.691650390625
0.013,-4.754638671875,4.534423828125,0.930908203125
0.0135,-4.114013671875,4.934814453125,0.050048828125
0.014,-3.032958984375,5.175048828125,-1.311279296875
0.0145,-1.751708984375,5.415283203125,-2.752685546875
0.015,-0.790771484375,5.615478515625,-3.913818359375
0.0155,-0.150146484375,5.855712890625,-4.834716796875
0.016,0.770751953125,5.615478515625,-5.435302734375
0.0165,1.931884765625,4.734619140625,-5.875732421875
0.017,3.173095703125,3.533447265625,-6.196044921875
0.0175,4.214111328125,2.132080078125,-6.236083984375
0.018,4.894775390625,1.371337890625,-6.276123046875
0.0185,5.135009765625,0.690673828125,-6.156005859375
0.019,5.094970703125,-0.150146484375,-5.715576171875
0.0195,4.974853515625,-1.231201171875,-4.794677734375
0.02,4.854736328125,-2.512451171875,-3.553466796875
0.0205,4.734619140625,-3.713623046875,-2.512451171875
0.021,4.654541015625,-4.514404296875,-1.791748046875
0.0215,4.254150390625,-5.074951171875,-1.031005859375
0.022,3.533447265625,-5.435302734375,0.010009765625
0.0225,2.492431640625,-5.795654296875,1.291259765625
0.023,1.291259765625,-5.955810546875,2.692626953125
0.0235,0.490478515625,-6.276123046875,3.773681640625
0.024,-0.310302734375,-6.476318359375,4.654541015625
0.0245,-1.191162109375,-6.156005859375,5.295166015625
0.025,-2.432373046875,-5.195068359375,5.695556640625
0.0255,-3.753662109375,-3.993896484375,5.975830078125
0.026,-4.634521484375,-2.712646484375,5.975830078125
0.0265,-5.195068359375,-1.991943359375,6.135986328125
0.027,-5.355224609375,-1.311279296875,5.895751953125
0.0275,-5.315185546875,-0.510498046875,5.295166015625
0.028,-5.275146484375,0.690673828125,4.454345703125
0.0285,-5.114990234375,2.052001953125,3.213134765625
0.029,-5.034912109375,3.093017578125,2.292236328125
0.0295,-4.954833984375,3.893798828125,1.571533203125
0.03,-4.514404296875,4.374267578125,0.810791015625
0.0305,-3.633544921875,4.734619140625,-0.350341796875
0.031,-2.552490234375,5.094970703125,-1.751708984375
0.0315,-1.471435546875,5.335205078125,-2.992919921875
0.032,-0.790771484375,5.695556640625,-4.033935546875
0.0325,0.050048828125,5.695556640625,-4.834716796875
0.033,1.051025390625,5.135009765625,-5.435302734375
0.0335,2.252197265625,4.174072265625,-5.835693359375
0.034,3.533447265625,2.892822265625,-5.995849609375
0.0345,4.334228515625,1.931884765625,-6.115966796875
0.035,4.814697265625,1.251220703125,-6.156005859375
0.0355,4.934814453125,0.570556640625,-5.915771484375
0.036,4.854736328125,-0.510498046875,-5.195068359375
0.0365,4.854736328125,-1.711669921875,-4.194091796875
0.037,4.734619140625,-2.952880859375,-3.072998046875
0.0375,4.734619140625,-3.993896484375,-2.272216796875
0.038,4.534423828125,-4.674560546875,-1.591552734375
0.0385,3.973876953125,-5.155029296875,-0.670654296875
0.039,3.052978515625,-5.515380859375,0.610595703125
0.0395,1.851806640625,-5.835693359375,2.052001953125
0.04,0.970947265625,-6.156005859375,3.213134765625
0.0405,0.290283203125,-6.516357421875,4.214111328125
0.041,-0.710693359375,-6.356201171875,4.974853515625
0.0415,-1.871826171875,-5.595458984375,5.455322265625
0.042,-3.193115234375,-4.434326171875,5.855712890625
0.0425,-4.314208984375,-3.113037109375,5.975830078125
0.043,-5.034912109375,-2.232177734375,6.095947265625
0.0435,-5.315185546875,-1.591552734375,6.055908203125
0.044,-5.395263671875,-0.790771484375,5.575439453125
0.0445,-5.275146484375,0.330322265625,4.734619140625
0.045,-5.235107421875,1.691650390625,3.573486328125
0.0455,-5.074951171875,2.892822265625,2.492431640625
0.046,-5.034912109375,3.813720703125,1.731689453125
0.0465,-4.634521484375,4.334228515625,0.970947265625
0.047,-3.873779296875,4.694580078125,0.010009765625
0.0475,-2.832763671875,5.094970703125,-1.471435546875
0.048,-1.631591796875,5.295166015625,-2.872802734375
0.0485,-0.830810546875,5.615478515625,-3.913818359375
0.049,0.010009765625,5.735595703125,-4.834716796875
0.0495,0.850830078125,5.335205078125,-5.475341796875
0.05,2.092041015625,4.414306640625,-5.835693359375
0.0505,3.413330078125,3.093017578125,-6.115966796875
0.051,4.374267578125,1.891845703125,-6.115966796875
0.0515,4.894775390625,1.171142578125,-6.236083984375
0.052,5.014892578125,0.490478515625,-5.915771484375
0.0525,4.974853515625,-0.510498046875,-5.275146484375
0.053,4.854736328125,-1.631591796875,-4.314208984375
0.0535,4.774658203125,-2.952880859375,-3.113037109375
0.054,4.614501953125,-4.033935546875,-2.152099609375
0.0545,4.534423828125,-4.794677734375,-1.471435546875
0.055,4.013916015625,-5.235107421875,-0.670654296875
0.0555,3.133056640625,-5.555419921875,0.530517578125
0.056,1.931884765625,-5.915771484375,1.971923828125
0.0565,0.890869140625,-6.115966796875,3.213134765625
0.057,0.210205078125,-6.476318359375,4.254150390625
0.0575,-0.710693359375,-6.436279296875,5.054931640625
0.058,-1.791748046875,-5.755615234375,5.615478515625
0.0585,-3.072998046875,-4.634521484375,5.975830078125
0.059,-4.354248046875,-3.233154296875,6.095947265625
0.0595,-5.114990234375,-2.192138671875,6.135986328125
0.06,-5.475341796875,-1.511474609375,6.135986328125
0.0605,-5.555419921875,-0.790771484375,5.735595703125
0.061,-5.435302734375,0.330322265625,4.854736328125
0.0615,-5.355224609375,1.611572265625,3.813720703125
0.062,-5.155029296875,2.932861328125,2.532470703125
0.0625,-5.074951171875,3.853759765625,1.691650390625
0.063,-4.754638671875,4.494384765625,0.930908203125
0.0635,-4.073974609375,4.854736328125,0.050048828125
0.064,-2.992919921875,5.175048828125,-1.351318359375
0.0645,-1.711669921875,5.415283203125,-2.832763671875
0.065,-0.710693359375,5.575439453125,-3.993896484375
0.0655,0.010009765625,5.855712890625,-4.954833984375
0.066,0.890869140625,5.575439453125,-5.595458984375
0.0665,2.092041015625,4.614501953125,-6.035888671875
0.067,3.413330078125,3.373291015625,-6.316162109375
0.0675,4.494384765625,1.971923828125,-6.276123046875
0.068,5.094970703125,1.131103515625,-6.356201171875
0.0685,5.335205078125,0.410400390625,-6.156005859375
0.069,5.255126953125,-0.510498046875,-5.595458984375
0.0695,5.054931640625,-1.631591796875,-4.514404296875
0.07,4.934814453125,-3.072998046875,-3.233154296875
0.0705,4.734619140625,-4.194091796875,-2.112060546875
0.071,4.614501953125,-5.074951171875,-1.311279296875
0.0715,4.134033203125,-5.515380859375,-0.590576171875
0.072,3.213134765625,-5.755615234375,0.610595703125
0.0725,2.052001953125,-6.115966796875,2.052001953125
0.073,0.730712890625,-6.276123046875,3.493408203125
0.0735,-0.190185546875,-6.556396484375,4.494384765625
0.074,-0.870849609375,-6.596435546875,5.375244140625
0.0745,-1.911865234375,-6.035888671875,5.935791015625
0.075,-3.233154296875,-4.834716796875,6.296142578125
0.0755,-4.594482421875,-3.353271484375,6.496337890625
0.076,-5.475341796875,-2.031982421875,6.376220703125
0.0765,-5.915771484375,-1.271240234375,6.416259765625
0.077,-5.955810546875,-0.510498046875,5.935791015625
0.0775,-5.755615234375,0.610595703125,5.054931640625
0.078,-5.635498046875,1.931884765625,3.813720703125
0.0785,-5.395263671875,3.373291015625,2.412353515625
0.079,-5.155029296875,4.374267578125,1.371337890625
0.0795,-4.834716796875,5.054931640625,0.610595703125
0.08,-4.114013671875,5.375244140625,-0.390380859375
0.0805,-2.912841796875,5.575439453125,-1.751708984375
0.081,-1.511474609375,5.775634765625,-3.353271484375
0.0815,-0.350341796875,5.775634765625,-4.634521484375
0.082,0.490478515625,6.055908203125,-5.515380859375
0.0825,1.291259765625,5.775634765625,-6.196044921875
0.083,2.532470703125,4.814697265625,-6.596435546875
0.0835,3.893798828125,3.373291015625,-6.836669921875
0.084,5.094970703125,1.811767578125,-6.796630859375
0.0845,5.735595703125,0.650634765625,-6.636474609375
0.085,5.895751953125,-0.150146484375,-6.436279296875
0.0855,5.735595703125,-0.990966796875,-5.755615234375
0.086,5.455322265625,-2.232177734375,-4.514404296875
0.0865,5.215087890625,-3.633544921875,-3.113037109375
0.087,4.934814453125,-4.874755859375,-1.791748046875
0.0875,4.654541015625,-5.755615234375,-0.910888671875
0.088,4.134033203125,-6.156005859375,0.010009765625
0.0885,3.173095703125,-6.396240234375,1.010986328125
0.089,1.811767578125,-6.556396484375,2.492431640625
0.0895,0.290283203125,-6.676513671875,4.093994140625
0.09,-0.710693359375,-6.676513671875,5.135009765625
0.0905,-1.351318359375,-6.756591796875,5.935791015625
0.091,-2.352294921875,-6.156005859375,6.496337890625
0.0915,-3.673583984375,-4.914794921875,6.816650390625
0.092,-4.994873046875,-3.393310546875,6.936767578125
0.0925,-5.995849609375,-1.871826171875,6.736572265625
0.093,-6.396240234375,-0.950927734375,6.576416015625
0.0935,-6.436279296875,-0.190185546875,6.216064453125
0.094,-6.156005859375,0.850830078125,5.335205078125
0.0945,-5.875732421875,2.132080078125,3.973876953125
0.095,-5.595458984375,3.653564453125,2.492431640625
0.0955,-5.195068359375,4.734619140625,1.251220703125
0.096,-4.914794921875,5.415283203125,0.410400390625
0.0965,-4.234130859375,5.695556640625,-0.550537109375
0.097,-3.072998046875,5.815673828125,-1.751708984375
0.0975,-1.631591796875,6.015869140625,-3.353271484375
0.098,-0.190185546875,6.015869140625,-4.794677734375
0.0985,0.690673828125,6.095947265625,-5.715576171875
0.099,1.371337890625,6.015869140625,-6.396240234375
0.0995,2.412353515625,5.255126953125,-6.836669921875
0.1,3.813720703125,3.853759765625,-7.076904296875
0.1005,5.094970703125,2.252197265625,-7.076904296875
0.101,5.855712890625,0.850830078125,-6.796630859375
0.1015,6.135986328125,0.010009765625,-6.676513671875
0.102,6.055908203125,-0.910888671875,-6.115966796875
0.1025,5.735595703125,-1.951904296875,-5.074951171875
0.103,5.415283203125,-3.273193359375,-3.673583984375
0.1035,5.094970703125,-4.674560546875,-2.152099609375
0.104,4.774658203125,-5.635498046875,-1.031005859375
0.1045,4.454345703125,-6.276123046875,-0.310302734375
0.105,3.573486328125,-6.476318359375,0.690673828125
0.1055,2.292236328125,-6.636474609375,2.052001953125
0.106,0.770751953125,-6.716552734375,3.693603515625
0.1065,-0.510498046875,-6.716552734375,4.934814453125
0.107,-1.231201171875,-6.836669921875,5.815673828125
0.1075,-1.991943359375,-6.556396484375,6.456298828125
0.108,-3.193115234375,-5.515380859375,6.856689453125
0.1085,-4.594482421875,-4.033935546875,7.016845703125
0.109,-5.755615234375,-2.392333984375,6.936767578125
0.1095,-6.396240234375,-1.231201171875,6.696533203125
0.11,-6.556396484375,-0.470458984375,6.456298828125
0.1105,-6.356201171875,0.490478515625,5.735595703125
0.111,-6.075927734375,1.691650390625,4.534423828125
0.1115,-5.755615234375,3.173095703125,3.052978515625
0.112,-5.395263671875,4.414306640625,1.611572265625
0.1125,-5.074951171875,5.215087890625,0.650634765625
0.113,-4.554443359375,5.695556640625,-0.230224609375
0.1135,-3.593505859375,5.855712890625,-1.231201171875
0.114,-2.192138671875,6.055908203125,-2.712646484375
0.1145,-0.630615234375,6.095947265625,-4.354248046875
0.115,0.490478515625,6.095947265625,-5.435302734375
0.1155,1.131103515625,6.176025390625,-6.236083984375
0.116,2.011962890625,5.615478515625,-6.716552734375
0.1165,3.333251953125,4.374267578125,-6.996826171875
0.117,4.654541015625,2.852783203125,-7.116943359375
0.1175,5.655517578125,1.291259765625,-6.916748046875
0.118,6.095947265625,0.290283203125,-6.756591796875
0.1185,6.135986328125,-0.550537109375,-6.396240234375
0.119,5.895751953125,-1.471435546875,-5.595458984375
0.1195,5.575439453125,-2.752685546875,-4.194091796875
0.12,5.255126953125,-4.234130859375,-2.672607421875
0.1205,4.934814453125,-5.435302734375,-1.391357421875
0.121,4.614501953125,-6.156005859375,-0.590576171875
0.1215,3.893798828125,-6.476318359375,0.370361328125
0.122,2.852783203125,-6.596435546875,1.491455078125
0.1225,1.371337890625,-6.756591796875,3.133056640625
0.123,-0.190185546875,-6.716552734375,4.614501953125
0.1235,-1.031005859375,-6.756591796875,5.575439453125
0.124,-1.671630859375,-6.756591796875,6.336181640625
0.1245,-2.752685546875,-6.035888671875,6.776611328125
0.125,-4.154052734375,-4.594482421875,7.016845703125
0.1255,-5.435302734375,-3.032958984375,7.056884765625
0.126,-6.276123046875,-1.551513671875,6.776611328125
0.1265,-6.556396484375,-0.710693359375,6.656494140625
0.127,-6.476318359375,0.170166015625,6.055908203125
0.1275,-6.196044921875,1.211181640625,5.054931640625
0.128,-5.835693359375,2.572509765625,3.693603515625
0.1285,-5.515380859375,3.973876953125,2.092041015625
0.129,-5.155029296875,4.894775390625,0.970947265625
0.1295,-4.834716796875,5.495361328125,0.170166015625
0.13,-3.993896484375,5.775634765625,-0.790771484375
0.1305,-2.712646484375,5.895751953125,-2.112060546875
0.131,-1.231201171875,6.055908203125,-3.713623046875
0.1315,0.170166015625,5.975830078125,-4.994873046875
0.132,0.810791015625,6.095947265625,-5.795654296875
0.1325,1.571533203125,5.895751953125,-6.476318359375
0.133,2.692626953125,4.934814453125,-6.836669921875
0.1335,4.013916015625,3.493408203125,-6.996826171875
0.134,5.175048828125,1.891845703125,-6.916748046875
0.1345,5.815673828125,0.650634765625,-6.716552734375
0.135,6.015869140625,0.010009765625,-6.516357421875
0.1355,5.855712890625,-0.950927734375,-5.915771484375
0.136,5.495361328125,-1.991943359375,-4.754638671875
0.1365,5.255126953125,-3.393310546875,-3.393310546875
0.137,4.934814453125,-4.674560546875,-1.991943359375
0.1375,4.614501953125,-5.635498046875,-1.111083984375
0.138,4.254150390625,-6.075927734375,-0.310302734375
0.1385,3.453369140625,-6.276123046875,0.690673828125
0.139,2.212158203125,-6.436279296875,2.052001953125
0.1395,0.650634765625,-6.476318359375,3.653564453125
0.14,-0.470458984375,-6.556396484375,4.774658203125
0.1405,-1.111083984375,-6.756591796875,5.615478515625
0.141,-1.911865234375,-6.396240234375,6.216064453125
0.1415,-3.153076171875,-5.315185546875,6.536376953125
0.142,-4.434326171875,-3.913818359375,6.736572265625
0.1425,-5.515380859375,-2.392333984375,6.616455078125
0.143,-6.115966796875,-1.431396484375,6.536376953125
0.1435,-6.276123046875,-0.670654296875,6.296142578125
0.144,-6.115966796875,0.250244140625,5.655517578125
0.1445,-5.795654296875,1.371337890625,4.494384765625
0.145,-5.555419921875,2.852783203125,3.052978515625
0.1455,-5.275146484375,3.973876953125,1.771728515625
0.146,-5.074951171875,4.894775390625,0.930908203125
0.1465,-4.514404296875,5.295166015625,0.130126953125
0.147,-3.553466796875,5.535400390625,-1.031005859375
0.1475,-2.272216796875,5.735595703125,-2.472412109375
0.148,-0.790771484375,5.775634765625,-3.953857421875
0.1485,0.130126953125,5.935791015625,-4.994873046875
0.149,0.770751953125,6.015869140625,-5.795654296875
0.1495,1.731689453125,5.455322265625,-6.276123046875
0.15,3.012939453125,4.254150390625,-6.596435546875
0.1505,4.294189453125,2.812744140625,-6.716552734375
0.151,5.175048828125,1.411376953125,-6.556396484375
0.1515,5.655517578125,0.610595703125,-6.516357421875
0.152,5.655517578125,-0.190185546875,-6.115966796875
0.1525,5.415283203125,-1.151123046875,-5.315185546875
0.153,5.175048828125,-2.392333984375,-4.154052734375
0.1535,4.934814453125,-3.793701171875,-2.712646484375
0.154,4.734619140625,-4.754638671875,-1.631591796875
0.1545,4.494384765625,-5.475341796875,-0.990966796875
0.155,3.893798828125,-5.835693359375,0.010009765625
0.1555,2.892822265625,-6.075927734375,1.091064453125
0.156,1.571533203125,-6.276123046875,2.572509765625
0.1565,0.330322265625,-6.316162109375,3.853759765625
0.157,-0.470458984375,-6.556396484375,4.854736328125
0.1575,-1.191162109375,-6.556396484375,5.575439453125
0.158,-2.192138671875,-5.795654296875,6.055908203125
0.1585,-3.473388671875,-4.594482421875,6.336181640625
0.159,-4.714599609375,-3.153076171875,6.376220703125
0.1595,-5.475341796875,-1.951904296875,6.296142578125
0.16,-5.795654296875,-1.271240234375,6.256103515625
0.1605,-5.795654296875,-0.590576171875,5.815673828125
0.161,-5.635498046875,0.450439453125,4.974853515625
0.1615,-5.475341796875,1.731689453125,3.813720703125
0.162,-5.155029296875,3.052978515625,2.492431640625
0.1625,-5.034912109375,4.013916015625,1.571533203125
0.163,-4.794677734375,4.654541015625,0.890869140625
0.1635,-4.114013671875,5.014892578125,0.010009765625
0.164,-3.072998046875,5.255126953125,-1.311279296875
0.1645,-1.791748046875,5.455322265625,-2.752685546875
0.165,-0.710693359375,5.615478515625,-3.913818359375
0.1655,0.010009765625,5.895751953125,-4.874755859375
0.166,0.810791015625,5.695556640625,-5.555419921875
0.1665,1.891845703125,4.854736328125,-5.955810546875
0.167,3.173095703125,3.693603515625,-6.276123046875
0.1675,4.214111328125,2.292236328125,-6.276123046875
0.168,4.974853515625,1.331298828125,-6.276123046875
0.1685,5.255126953125,0.650634765625,-6.276123046875
0.169,5.215087890625,-0.190185546875,-5.755615234375
0.1695,5.014892578125,-1.191162109375,-4.874755859375
0.17,4.934814453125,-2.432373046875,-3.713623046875
0.1705,4.694580078125,-3.633544921875,-2.552490234375
0.171,4.654541015625,-4.554443359375,-1.791748046875
0.1715,4.334228515625,-5.155029296875,-1.031005859375
0.172,3.653564453125,-5.515380859375,0.010009765625
0.1725,2.572509765625,-5.835693359375,1.291259765625
0.173,1.291259765625,-5.955810546875,2.692626953125
0.1735,0.490478515625,-6.276123046875,3.773681640625
0.174,-0.310302734375,-6.516357421875,4.654541015625
0.1745,-1.151123046875,-6.196044921875,5.335205078125
0.175,-2.352294921875,-5.275146484375,5.735595703125
0.1755,-3.593505859375,-4.033935546875,6.015869140625
0.176,-4.594482421875,-2.712646484375,6.015869140625
0.1765,-5.195068359375,-2.031982421875,6.135986328125
0.177,-5.435302734375,-1.351318359375,5.935791015625
0.1775,-5.435302734375,-0.590576171875,5.415283203125
0.178,-5.275146484375,0.650634765625,4.494384765625
0.1785,-5.155029296875,1.971923828125,3.293212890625
0.179,-5.034912109375,3.052978515625,2.292236328125
0.1795,-4.994873046875,3.893798828125,1.571533203125
0.18,-4.514404296875,4.454345703125,0.810791015625
0.1805,-3.713623046875,4.774658203125,-0.310302734375
0.181,-2.672607421875,5.094970703125,-1.631591796875
0.1815,-1.511474609375,5.295166015625,-2.912841796875
0.182,-0.790771484375,5.695556640625,-3.993896484375
0.1825,0.010009765625,5.735595703125,-4.834716796875
0.183,0.970947265625,5.295166015625,-5.435302734375
0.1835,2.172119140625,4.334228515625,-5.795654296875
0.184,3.373291015625,3.052978515625,-5.955810546875
0.1845,4.294189453125,1.931884765625,-6.035888671875
0.185,4.814697265625,1.211181640625,-6.196044921875
0.1855,4.854736328125,0.530517578125,-5.915771484375
0.186,4.854736328125,-0.390380859375,-5.275146484375
0.1865,4.814697265625,-1.551513671875,-4.354248046875
0.187,4.694580078125,-2.792724609375,-3.193115234375
0.1875,4.654541015625,-3.833740234375,-2.312255859375
0.188,4.534423828125,-4.634521484375,-1.631591796875
