wavelength,x,y,z
0.0,7.897705078125,-1.431396484375,-6.436279296875
0.0005,7.217041015625,0.210205078125,-7.437255859375
0.001,6.216064453125,2.172119140625,-8.358154296875
0.0015,4.854736328125,3.813720703125,-8.678466796875
0.002,3.173095703125,5.054931640625,-8.238037109375
0.0025,1.771728515625,6.376220703125,-8.117919921875
0.003,0.290283203125,7.136962890625,-7.437255859375
0.0035,-1.391357421875,7.937744140625,-6.676513671875
0.004,-3.193115234375,8.818603515625,-5.835693359375
0.0045,-4.434326171875,8.498291015625,-4.354248046875
0.005,-5.715576171875,8.258056640625,-2.832763671875
0.0055,-6.556396484375,7.537353515625,-1.271240234375
0.006,-7.397216796875,6.816650390625,0.330322265625
0.0065,-8.318115234375,5.975830078125,2.132080078125
0.007,-8.918701171875,4.854736328125,3.813720703125
0.0075,-8.598388671875,3.333251953125,4.974853515625
0.008,-8.278076171875,1.651611328125,6.376220703125
0.0085,-7.437255859375,0.010009765625,7.096923828125
0.009,-6.556396484375,-1.831787109375,8.017822265625
0.0095,-5.315185546875,-3.873779296875,8.818603515625
0.01,-3.673583984375,-5.275146484375,8.658447265625
0.0105,-2.072021484375,-6.516357421875,8.338134765625
0.011,-0.590576171875,-7.557373046875,7.897705078125
0.0115,1.091064453125,-8.318115234375,7.096923828125
0.012,2.852783203125,-9.078857421875,6.135986328125
0.0125,4.614501953125,-9.639404296875,5.054931640625
0.013,5.735595703125,-9.038818359375,3.333251953125
0.0135,6.936767578125,-8.678466796875,1.771728515625
0.014,7.617431640625,-7.637451171875,0.050048828125
0.0145,8.418212890625,-6.756591796875,-1.671630859375
0.015,9.299072265625,-5.755615234375,-3.553466796875
0.0155,9.339111328125,-4.274169921875,-5.074951171875
0.016,8.818603515625,-2.632568359375,-6.196044921875
0.0165,8.177978515625,-0.990966796875,-7.277099609375
0.017,7.096923828125,0.850830078125,-7.997802734375
0.0175,6.015869140625,2.692626953125,-8.758544921875
0.018,4.734619140625,4.734619140625,-9.399169921875
0.0185,2.772705078125,5.895751953125,-8.678466796875
0.019,1.251220703125,7.056884765625,-8.318115234375
0.0195,-0.470458984375,7.817626953125,-7.517333984375
0.02,-2.072021484375,8.458251953125,-6.556396484375
0.0205,-3.833740234375,9.178955078125,-5.515380859375
0.021,-5.275146484375,9.178955078125,-4.154052734375
0.0215,-6.276123046875,8.458251953125,-2.432373046875
0.022,-7.277099609375,7.817626953125,-0.830810546875
0.0225,-7.797607421875,6.696533203125,0.850830078125
0.023,-8.518310546875,5.775634765625,2.492431640625
0.0235,-9.239013671875,4.734619140625,4.294189453125
0.024,-8.838623046875,3.133056640625,5.455322265625
0.0245,-8.358154296875,1.451416015625,6.616455078125
0.025,-7.557373046875,-0.230224609375,7.457275390625
0.0255,-6.516357421875,-1.951904296875,8.097900390625
0.026,-5.395263671875,-3.713623046875,8.818603515625
0.0265,-3.873779296875,-5.435302734375,9.018798828125
0.027,-2.192138671875,-6.396240234375,8.338134765625
0.0275,-0.750732421875,-7.557373046875,8.057861328125
0.028,0.890869140625,-8.197998046875,7.177001953125
0.0285,2.452392578125,-8.838623046875,6.336181640625
0.029,4.174072265625,-9.559326171875,5.335205078125
0.0295,5.295166015625,-9.118896484375,3.853759765625
0.03,6.416259765625,-8.678466796875,2.252197265625
0.0305,7.257080078125,-7.917724609375,0.690673828125
0.031,7.937744140625,-6.956787109375,-0.950927734375
0.0315,8.698486328125,-6.156005859375,-2.552490234375
0.032,9.259033203125,-5.034912109375,-4.194091796875
0.0325,8.738525390625,-3.513427734375,-5.275146484375
0.033,8.338134765625,-1.951904296875,-6.476318359375
0.0335,7.457275390625,-0.310302734375,-7.237060546875
0.034,6.576416015625,1.451416015625,-7.997802734375
0.0345,5.535400390625,3.253173828125,-8.798583984375
0.035,3.933837890625,4.734619140625,-8.678466796875
0.0355,2.372314453125,5.775634765625,-8.157958984375
0.036,0.930908203125,6.816650390625,-7.797607421875
0.0365,-0.670654296875,7.537353515625,-7.036865234375
0.037,-2.192138671875,8.298095703125,-6.356201171875
0.0375,-3.793701171875,8.818603515625,-5.275146484375
0.038,-4.834716796875,8.298095703125,-3.713623046875
0.0385,-6.035888671875,7.977783203125,-2.232177734375
0.039,-6.716552734375,7.177001953125,-0.750732421875
0.0395,-7.517333984375,6.416259765625,0.850830078125
0.04,-8.398193359375,5.735595703125,2.452392578125
0.0405,-8.678466796875,4.454345703125,3.973876953125
0.041,-8.238037109375,2.932861328125,4.974853515625
0.0415,-7.957763671875,1.331298828125,6.256103515625
0.042,-7.076904296875,-0.270263671875,7.016845703125
0.0425,-6.316162109375,-1.911865234375,7.937744140625
0.043,-5.155029296875,-3.713623046875,8.498291015625
0.0435,-3.553466796875,-4.994873046875,8.258056640625
0.044,-2.112060546875,-6.196044921875,8.057861328125
0.0445,-0.670654296875,-7.076904296875,7.617431640625
0.045,0.930908203125,-7.957763671875,6.896728515625
0.0455,2.492431640625,-8.798583984375,6.216064453125
0.046,4.013916015625,-8.998779296875,4.974853515625
0.0465,5.054931640625,-8.598388671875,3.533447265625
0.047,6.296142578125,-8.278076171875,1.971923828125
0.0475,7.016845703125,-7.437255859375,0.490478515625
0.048,7.937744140625,-6.716552734375,-1.231201171875
0.0485,8.778564453125,-5.995849609375,-2.872802734375
0.049,8.778564453125,-4.594482421875,-4.234130859375
0.0495,8.338134765625,-3.072998046875,-5.395263671875
0.05,7.857666015625,-1.391357421875,-6.476318359375
0.0505,7.056884765625,0.330322265625,-7.317138671875
0.051,6.256103515625,2.052001953125,-8.278076171875
0.0515,4.854736328125,3.813720703125,-8.678466796875
0.052,3.213134765625,4.974853515625,-8.197998046875
0.0525,1.771728515625,6.256103515625,-7.997802734375
0.053,0.290283203125,7.016845703125,-7.357177734375
0.0535,-1.351318359375,7.857666015625,-6.636474609375
0.054,-2.992919921875,8.618408203125,-5.835693359375
0.0545,-4.274169921875,8.458251953125,-4.394287109375
0.055,-5.435302734375,8.017822265625,-2.872802734375
0.0555,-6.476318359375,7.537353515625,-1.351318359375
0.056,-7.116943359375,6.656494140625,0.290283203125
0.0565,-8.077880859375,5.975830078125,1.851806640625
0.057,-8.678466796875,4.934814453125,3.493408203125
0.0575,-8.478271484375,3.453369140625,4.734619140625
0.058,-8.077880859375,1.851806640625,5.975830078125
0.0585,-7.397216796875,0.250244140625,6.856689453125
0.059,-6.476318359375,-1.551513671875,7.737548828125
0.0595,-5.515380859375,-3.353271484375,8.538330078125
0.06,-3.913818359375,-4.874755859375,8.498291015625
0.0605,-2.392333984375,-6.035888671875,8.137939453125
0.061,-0.910888671875,-7.197021484375,7.857666015625
0.0615,0.770751953125,-7.917724609375,7.056884765625
0.062,2.372314453125,-8.758544921875,6.296142578125
0.0625,4.013916015625,-9.319091796875,5.255126953125
0.063,5.175048828125,-8.878662109375,3.693603515625
0.0635,6.336181640625,-8.438232421875,2.172119140625
0.064,7.217041015625,-7.717529296875,0.570556640625
0.0645,7.937744140625,-6.796630859375,-1.231201171875
0.065,8.858642578125,-6.115966796875,-2.832763671875
0.0655,9.138916015625,-4.754638671875,-4.514404296875
0.066,8.618408203125,-3.072998046875,-5.555419921875
0.0665,8.177978515625,-1.431396484375,-6.756591796875
0.067,7.177001953125,0.370361328125,-7.517333984375
0.0675,6.216064453125,2.252197265625,-8.398193359375
0.068,5.054931640625,4.013916015625,-8.998779296875
0.0685,3.213134765625,5.375244140625,-8.558349609375
0.069,1.651611328125,6.496337890625,-8.197998046875
0.0695,0.130126953125,7.417236328125,-7.637451171875
0.07,-1.671630859375,8.137939453125,-6.596435546875
0.0705,-3.273193359375,8.858642578125,-5.755615234375
0.071,-4.834716796875,9.018798828125,-4.474365234375
0.0715,-5.835693359375,8.378173828125,-2.792724609375
0.072,-6.916748046875,7.817626953125,-1.191162109375
0.0725,-7.597412109375,6.736572265625,0.530517578125
0.073,-8.358154296875,5.775634765625,2.252197265625
0.0735,-9.038818359375,4.934814453125,3.853759765625
0.074,-8.958740234375,3.373291015625,5.295166015625
0.0745,-8.318115234375,1.731689453125,6.376220703125
0.075,-7.717529296875,0.010009765625,7.417236328125
0.0755,-6.436279296875,-1.951904296875,8.097900390625
0.076,-5.395263671875,-3.753662109375,8.858642578125
0.0765,-3.913818359375,-5.435302734375,9.058837890625
0.077,-2.192138671875,-6.516357421875,8.458251953125
0.0775,-0.630615234375,-7.637451171875,8.057861328125
0.078,1.091064453125,-8.398193359375,7.217041015625
0.0785,2.852783203125,-9.038818359375,6.095947265625
0.079,4.454345703125,-9.639404296875,5.175048828125
0.0795,5.775634765625,-9.439208984375,3.653564453125
0.08,6.776611328125,-8.718505859375,1.971923828125
0.0805,7.697509765625,-7.997802734375,0.330322265625
0.081,8.338134765625,-6.836669921875,-1.551513671875
0.0815,9.098876953125,-5.915771484375,-3.273193359375
0.082,9.539306640625,-4.714599609375,-4.794677734375
0.0825,9.018798828125,-3.032958984375,-6.035888671875
0.083,8.378173828125,-1.311279296875,-7.076904296875
0.0835,7.497314453125,0.490478515625,-7.917724609375
0.084,6.095947265625,2.492431640625,-8.598388671875
0.0845,5.094970703125,4.174072265625,-9.239013671875
0.085,3.333251953125,5.695556640625,-9.038818359375
0.0855,1.651611328125,6.696533203125,-8.358154296875
0.086,0.090087890625,7.697509765625,-7.837646484375
0.0865,-1.751708984375,8.338134765625,-6.756591796875
0.087,-3.433349609375,8.938720703125,-5.715576171875
0.0875,-4.874755859375,9.259033203125,-4.674560546875
0.088,-5.955810546875,8.698486328125,-3.032958984375
0.0885,-6.916748046875,7.977783203125,-1.351318359375
0.089,-7.717529296875,7.096923828125,0.330322265625
0.0895,-8.318115234375,5.855712890625,2.092041015625
0.09,-8.998779296875,5.094970703125,3.653564453125
0.0905,-9.158935546875,3.773681640625,5.135009765625
0.091,-8.478271484375,2.052001953125,6.176025390625
0.0915,-7.997802734375,0.410400390625,7.337158203125
0.092,-6.796630859375,-1.431396484375,7.977783203125
0.0925,-5.635498046875,-3.353271484375,8.658447265625
0.093,-4.474365234375,-4.914794921875,9.058837890625
0.0935,-2.712646484375,-6.236083984375,8.658447265625
0.094,-1.231201171875,-7.197021484375,8.177978515625
0.0945,0.490478515625,-8.157958984375,7.537353515625
0.095,2.252197265625,-8.798583984375,6.456298828125
0.0955,3.853759765625,-9.439208984375,5.615478515625
0.096,5.215087890625,-9.559326171875,4.334228515625
0.0965,6.256103515625,-8.918701171875,2.652587890625
0.097,7.217041015625,-8.318115234375,1.051025390625
0.0975,7.937744140625,-7.317138671875,-0.670654296875
0.098,8.658447265625,-6.196044921875,-2.432373046875
0.0985,9.299072265625,-5.395263671875,-3.913818359375
0.099,9.178955078125,-3.873779296875,-5.315185546875
0.0995,8.458251953125,-2.192138671875,-6.276123046875
0.1,7.897705078125,-0.510498046875,-7.397216796875
0.1005,6.656494140625,1.411376953125,-8.037841796875
0.101,5.655517578125,3.173095703125,-8.838623046875
0.1015,4.334228515625,4.734619140625,-8.998779296875
0.102,2.532470703125,5.895751953125,-8.478271484375
0.1025,1.051025390625,6.896728515625,-7.997802734375
0.103,-0.630615234375,7.737548828125,-7.237060546875
0.1035,-2.352294921875,8.418212890625,-6.236083984375
0.104,-3.833740234375,8.978759765625,-5.395263671875
0.1045,-5.114990234375,8.698486328125,-3.913818359375
0.105,-6.115966796875,8.137939453125,-2.352294921875
0.1055,-7.076904296875,7.497314453125,-0.790771484375
0.106,-7.677490234375,6.456298828125,0.970947265625
0.1065,-8.478271484375,5.655517578125,2.572509765625
0.107,-8.958740234375,4.694580078125,4.013916015625
0.1075,-8.678466796875,3.052978515625,5.375244140625
0.108,-8.157958984375,1.491455078125,6.416259765625
0.1085,-7.397216796875,-0.310302734375,7.377197265625
0.109,-6.236083984375,-2.192138671875,8.057861328125
0.1095,-5.195068359375,-3.833740234375,8.738525390625
0.11,-3.713623046875,-5.275146484375,8.698486328125
0.1105,-2.072021484375,-6.396240234375,8.218017578125
0.111,-0.630615234375,-7.437255859375,7.817626953125
0.1115,1.131103515625,-8.197998046875,6.976806640625
0.112,2.812744140625,-8.958740234375,6.095947265625
0.1125,4.214111328125,-9.359130859375,5.094970703125
0.113,5.415283203125,-8.998779296875,3.573486328125
0.1135,6.416259765625,-8.478271484375,2.052001953125
0.114,7.377197265625,-7.717529296875,0.370361328125
0.1145,8.057861328125,-6.676513671875,-1.431396484375
0.115,8.898681640625,-5.955810546875,-2.952880859375
0.1155,9.178955078125,-4.754638671875,-4.474365234375
0.116,8.618408203125,-3.032958984375,-5.635498046875
0.1165,8.137939453125,-1.431396484375,-6.716552734375
0.117,7.177001953125,0.370361328125,-7.557373046875
0.1175,6.135986328125,2.292236328125,-8.358154296875
0.118,5.054931640625,3.853759765625,-8.878662109375
0.1185,3.333251953125,5.255126953125,-8.598388671875
0.119,1.811767578125,6.336181640625,-8.157958984375
0.1195,0.250244140625,7.337158203125,-7.597412109375
0.12,-1.551513671875,7.977783203125,-6.596435546875
0.1205,-3.072998046875,8.658447265625,-5.875732421875
0.121,-4.474365234375,8.818603515625,-4.634521484375
0.1215,-5.595458984375,8.218017578125,-2.992919921875
0.122,-6.556396484375,7.777587890625,-1.471435546875
0.1225,-7.357177734375,6.896728515625,0.250244140625
0.123,-8.077880859375,5.895751953125,1.931884765625
0.1235,-8.798583984375,5.094970703125,3.373291015625
0.124,-8.838623046875,3.773681640625,4.814697265625
0.1245,-8.197998046875,2.052001953125,5.895751953125
0.125,-7.717529296875,0.450439453125,7.016845703125
0.1255,-6.556396484375,-1.471435546875,7.737548828125
0.126,-5.635498046875,-3.273193359375,8.578369140625
0.1265,-4.234130859375,-4.754638671875,8.698486328125
0.127,-2.592529296875,-6.035888671875,8.298095703125
0.1275,-1.191162109375,-7.036865234375,7.977783203125
0.128,0.490478515625,-7.957763671875,7.297119140625
0.1285,2.212158203125,-8.718505859375,6.376220703125
0.129,3.773681640625,-9.279052734375,5.455322265625
0.1295,4.974853515625,-9.319091796875,4.053955078125
0.13,6.055908203125,-8.558349609375,2.492431640625
0.1305,7.056884765625,-7.997802734375,0.970947265625
0.131,7.777587890625,-6.956787109375,-0.830810546875
0.1315,8.658447265625,-6.156005859375,-2.512451171875
0.132,9.098876953125,-5.195068359375,-3.913818359375
0.1325,8.898681640625,-3.593505859375,-5.315185546875
0.133,8.177978515625,-1.951904296875,-6.276123046875
0.1335,7.657470703125,-0.310302734375,-7.357177734375
0.134,6.416259765625,1.731689453125,-8.077880859375
0.1345,5.495361328125,3.413330078125,-8.838623046875
0.135,3.853759765625,4.854736328125,-8.718505859375
0.1355,2.252197265625,6.015869140625,-8.278076171875
0.136,0.770751953125,7.016845703125,-7.837646484375
0.1365,-0.950927734375,7.817626953125,-6.916748046875
0.137,-2.632568359375,8.458251953125,-6.115966796875
0.1375,-3.993896484375,8.818603515625,-5.155029296875
0.138,-5.275146484375,8.578369140625,-3.593505859375
0.1385,-6.236083984375,7.897705078125,-1.951904296875
0.139,-7.197021484375,7.297119140625,-0.390380859375
0.1395,-7.837646484375,6.135986328125,1.491455078125
0.14,-8.718505859375,5.455322265625,3.012939453125
0.1405,-8.918701171875,4.254150390625,4.414306640625
0.141,-8.478271484375,2.532470703125,5.655517578125
0.1415,-7.957763671875,0.970947265625,6.696533203125
0.142,-7.076904296875,-0.870849609375,7.617431640625
0.1425,-5.915771484375,-2.872802734375,8.418212890625
0.143,-4.754638671875,-4.434326171875,8.858642578125
0.1435,-3.072998046875,-5.755615234375,8.578369140625
0.144,-1.511474609375,-6.876708984375,8.137939453125
0.1445,0.010009765625,-7.997802734375,7.537353515625
0.145,1.931884765625,-8.638427734375,6.576416015625
0.1455,3.533447265625,-9.359130859375,5.735595703125
0.146,4.894775390625,-9.359130859375,4.494384765625
0.1465,6.055908203125,-8.958740234375,2.892822265625
0.147,6.976806640625,-8.197998046875,1.291259765625
0.1475,7.857666015625,-7.397216796875,-0.470458984375
0.148,8.658447265625,-6.276123046875,-2.432373046875
0.1485,9.259033203125,-5.395263671875,-3.873779296875
0.149,9.218994140625,-3.913818359375,-5.275146484375
0.1495,8.498291015625,-2.192138671875,-6.356201171875
0.15,7.977783203125,-0.590576171875,-7.437255859375
0.1505,6.696533203125,1.451416015625,-8.117919921875
0.151,5.615478515625,3.453369140625,-9.038818359375
0.1515,4.134033203125,4.934814453125,-8.998779296875
0.152,2.412353515625,6.256103515625,-8.678466796875
0.1525,0.810791015625,7.177001953125,-7.877685546875
0.153,-0.830810546875,7.977783203125,-7.357177734375
0.1535,-2.792724609375,8.658447265625,-6.115966796875
0.154,-4.274169921875,9.218994140625,-5.155029296875
0.1545,-5.555419921875,8.938720703125,-3.673583984375
0.155,-6.596435546875,8.298095703125,-1.991943359375
0.1555,-7.397216796875,7.497314453125,-0.390380859375
0.156,-8.117919921875,6.416259765625,1.411376953125
0.1565,-8.918701171875,5.335205078125,3.333251953125
0.157,-9.118896484375,4.214111328125,4.614501953125
0.1575,-8.918701171875,2.652587890625,6.015869140625
0.158,-8.077880859375,0.890869140625,6.976806640625
0.1585,-7.437255859375,-0.790771484375,7.937744140625
0.159,-5.915771484375,-2.912841796875,8.538330078125
0.1595,-4.794677734375,-4.714599609375,9.178955078125
0.16,-3.113037109375,-6.035888671875,8.818603515625
0.1605,-1.511474609375,-7.156982421875,8.458251953125
0.161,0.090087890625,-7.997802734375,7.697509765625
0.1615,1.771728515625,-8.798583984375,6.896728515625
0.162,3.733642578125,-9.479248046875,5.735595703125
0.1625,5.014892578125,-9.599365234375,4.534423828125
0.163,6.256103515625,-9.239013671875,2.972900390625
0.1635,7.096923828125,-8.438232421875,1.331298828125
0.164,7.937744140625,-7.677490234375,-0.310302734375
0.1645,8.538330078125,-6.396240234375,-2.192138671875
0.165,9.339111328125,-5.475341796875,-3.833740234375
0.1655,9.259033203125,-4.154052734375,-5.114990234375
0.166,8.818603515625,-2.472412109375,-6.316162109375
0.1665,7.977783203125,-0.870849609375,-7.116943359375
0.167,7.177001953125,0.890869140625,-7.997802734375
0.1675,5.735595703125,2.972900390625,-8.678466796875
0.168,4.614501953125,4.494384765625,-9.038818359375
0.1685,2.812744140625,5.775634765625,-8.598388671875
0.169,1.371337890625,6.696533203125,-8.077880859375
0.1695,-0.270263671875,7.497314453125,-7.437255859375
0.17,-1.871826171875,8.218017578125,-6.476318359375
0.1705,-3.553466796875,8.938720703125,-5.595458984375
0.171,-4.634521484375,8.698486328125,-4.354248046875
0.1715,-5.795654296875,8.338134765625,-2.832763671875
0.172,-6.596435546875,7.577392578125,-1.311279296875
0.1725,-7.397216796875,6.896728515625,0.290283203125
0.173,-7.997802734375,5.735595703125,2.011962890625
0.1735,-8.718505859375,5.094970703125,3.413330078125
0.174,-8.638427734375,3.773681640625,4.654541015625
0.1745,-8.157958984375,2.132080078125,5.735595703125
0.175,-7.597412109375,0.610595703125,6.696533203125
0.1755,-6.676513671875,-1.151123046875,7.537353515625
0.176,-5.635498046875,-2.952880859375,8.298095703125
0.1765,-4.514404296875,-4.274169921875,8.458251953125
0.177,-2.872802734375,-5.635498046875,8.177978515625
0.1775,-1.551513671875,-6.556396484375,7.817626953125
0.178,0.010009765625,-7.517333984375,7.377197265625
0.1785,1.571533203125,-8.197998046875,6.496337890625
0.179,3.052978515625,-8.958740234375,5.815673828125
0.1795,4.134033203125,-8.758544921875,4.574462890625
0.18,5.375244140625,-8.478271484375,3.093017578125
0.1805,6.296142578125,-7.877685546875,1.611572265625
0.181,7.177001953125,-7.237060546875,0.130126953125
0.1815,8.017822265625,-6.476318359375,-1.591552734375
0.182,8.658447265625,-5.755615234375,-2.872802734375
0.1825,8.578369140625,-4.354248046875,-4.274169921875
0.183,8.057861328125,-2.792724609375,-5.275146484375
0.1835,7.697509765625,-1.231201171875,-6.476318359375
0.184,6.776611328125,0.530517578125,-7.317138671875
0.1845,6.095947265625,2.212158203125,-8.278076171875
0.185,4.694580078125,3.493408203125,-8.197998046875
0.1855,3.173095703125,4.854736328125,-8.077880859375
0.186,1.851806640625,5.855712890625,-7.717529296875
0.1865,0.330322265625,6.896728515625,-7.277099609375
0.187,-1.311279296875,7.697509765625,-6.556396484375
0.1875,-2.632568359375,8.298095703125,-5.835693359375
0.188,-3.873779296875,8.097900390625,-4.514404296875
