wavelength,x,y,z
0.0,-21.450927734375,13.863525390625,6.656494140625
0.0005,-21.290771484375,10.380126953125,9.899658203125
0.001,-20.570068359375,5.735595703125,13.823486328125
0.0015,-19.729248046875,2.172119140625,16.586181640625
0.002,-17.967529296875,-2.272216796875,19.228759765625
0.0025,-16.085693359375,-5.915771484375,21.110595703125
0.003,-13.002685546875,-8.918701171875,21.070556640625
0.0035,-9.759521484375,-12.081787109375,21.190673828125
0.004,-4.834716796875,-15.885498046875,20.349853515625
0.0045,-0.150146484375,-18.568115234375,18.548095703125
0.005,3.813720703125,-20.369873046875,16.666259765625
0.0055,7.096923828125,-21.611083984375,14.744384765625
0.006,10.460205078125,-21.330810546875,11.381103515625
0.0065,13.903564453125,-20.690185546875,7.377197265625
0.007,16.906494140625,-19.849365234375,3.653564453125
0.0075,19.509033203125,-17.727294921875,-1.151123046875
0.008,20.990478515625,-15.685302734375,-4.514404296875
0.0085,21.190673828125,-12.842529296875,-7.637451171875
0.009,21.110595703125,-9.439208984375,-10.880615234375
0.0095,20.349853515625,-4.754638671875,-14.764404296875
0.01,19.068603515625,-0.790771484375,-17.447021484375
0.0105,17.146728515625,3.333251953125,-19.569091796875
0.011,15.304931640625,6.776611328125,-21.250732421875
0.0115,11.661376953125,9.939697265625,-20.930419921875
0.012,7.777587890625,13.383056640625,-20.690185546875
0.0125,3.493408203125,16.706298828125,-19.929443359375
0.013,-1.711669921875,19.348876953125,-17.727294921875
0.0135,-5.114990234375,20.790283203125,-15.965576171875
0.014,-8.318115234375,21.470947265625,-13.603271484375
0.0145,-11.601318359375,21.310791015625,-10.320068359375
0.015,-15.244873046875,20.229736328125,-5.755615234375
0.0155,-17.847412109375,18.988525390625,-1.951904296875
0.016,-20.049560546875,16.866455078125,2.372314453125
0.0165,-21.210693359375,14.704345703125,5.655517578125
0.017,-20.970458984375,11.220947265625,8.738525390625
0.0175,-20.690185546875,7.577392578125,12.141845703125
0.018,-19.969482421875,3.293212890625,15.665283203125
0.0185,-18.287841796875,-1.151123046875,18.387939453125
0.019,-16.325927734375,-4.674560546875,20.029541015625
0.0195,-14.243896484375,-7.837646484375,21.230712890625
0.02,-10.600341796875,-11.000732421875,20.910400390625
0.0205,-6.035888671875,-14.644287109375,20.149658203125
0.021,-2.031982421875,-17.366943359375,19.148681640625
0.0215,2.732666015625,-19.729248046875,16.986572265625
0.022,5.975830078125,-20.930419921875,15.184814453125
0.0225,9.138916015625,-21.010498046875,12.221923828125
0.023,12.261962890625,-20.850341796875,9.098876953125
0.0235,15.825439453125,-19.809326171875,4.614501953125
0.024,18.347900390625,-17.967529296875,0.330322265625
0.0245,19.989501953125,-16.165771484375,-3.193115234375
0.025,20.910400390625,-13.883544921875,-6.356201171875
0.0255,20.510009765625,-10.320068359375,-9.439208984375
0.026,19.989501953125,-6.196044921875,-12.962646484375
0.0265,19.348876953125,-2.552490234375,-15.965576171875
0.027,17.547119140625,1.931884765625,-18.568115234375
0.0275,15.545166015625,5.255126953125,-20.009521484375
0.028,12.782470703125,8.378173828125,-20.489990234375
0.0285,9.499267578125,11.501220703125,-20.489990234375
0.029,4.534423828125,15.304931640625,-19.529052734375
0.0295,0.330322265625,17.827392578125,-18.007568359375
0.03,-3.593505859375,19.789306640625,-16.325927734375
0.0305,-6.796630859375,20.830322265625,-14.444091796875
0.031,-10.119873046875,20.510009765625,-11.000732421875
0.0315,-13.162841796875,20.149658203125,-7.637451171875
0.032,-16.285888671875,19.228759765625,-3.713623046875
0.0325,-18.728271484375,16.946533203125,0.970947265625
0.033,-19.969482421875,15.104736328125,3.973876953125
0.0335,-20.489990234375,12.462158203125,7.056884765625
0.034,-20.129638671875,8.978759765625,10.219970703125
0.0345,-19.408935546875,4.614501953125,13.863525390625
0.035,-18.407958984375,0.930908203125,16.546142578125
0.0355,-16.726318359375,-3.153076171875,18.908447265625
0.036,-14.764404296875,-6.276123046875,20.189697265625
0.0365,-11.521240234375,-9.319091796875,20.109619140625
0.037,-8.117919921875,-12.522216796875,20.029541015625
0.0375,-3.553466796875,-15.925537109375,19.068603515625
0.038,1.251220703125,-18.287841796875,16.986572265625
0.0385,4.334228515625,-19.729248046875,15.545166015625
0.039,7.497314453125,-20.570068359375,13.423095703125
0.0395,10.740478515625,-20.209716796875,9.939697265625
0.04,13.983642578125,-19.448974609375,6.055908203125
0.0405,16.706298828125,-18.447998046875,2.372314453125
0.041,18.948486328125,-16.406005859375,-1.951904296875
0.0415,19.869384765625,-14.444091796875,-4.754638671875
0.042,19.909423828125,-11.361083984375,-7.797607421875
0.0425,19.669189453125,-7.877685546875,-10.920654296875
0.043,18.988525390625,-3.793701171875,-14.364013671875
0.0435,17.427001953125,0.370361328125,-16.966552734375
0.044,15.865478515625,3.773681640625,-18.848388671875
0.0445,13.783447265625,6.896728515625,-19.969482421875
0.045,10.179931640625,10.019775390625,-19.609130859375
0.0455,6.256103515625,13.383056640625,-19.248779296875
0.046,2.252197265625,16.345947265625,-18.407958984375
0.0465,-2.512451171875,18.668212890625,-16.245849609375
0.047,-5.235107421875,19.709228515625,-14.764404296875
0.0475,-8.358154296875,20.149658203125,-12.201904296875
0.048,-11.481201171875,19.829345703125,-8.958740234375
0.0485,-14.764404296875,18.868408203125,-4.834716796875
0.049,-17.206787109375,17.306884765625,-0.910888671875
0.0495,-19.048583984375,15.505126953125,2.692626953125
0.05,-19.729248046875,13.262939453125,5.615478515625
0.0505,-19.489013671875,9.859619140625,8.738525390625
0.051,-19.088623046875,6.216064453125,11.981689453125
0.0515,-18.488037109375,2.492431640625,15.064697265625
0.052,-16.686279296875,-1.871826171875,17.587158203125
0.0525,-15.084716796875,-4.794677734375,18.948486328125
0.053,-12.802490234375,-7.757568359375,19.749267578125
0.0535,-9.198974609375,-10.880615234375,19.388916015625
0.054,-4.914794921875,-14.243896484375,18.668212890625
0.0545,-0.830810546875,-16.846435546875,17.427001953125
0.055,3.173095703125,-18.848388671875,15.705322265625
0.0555,5.975830078125,-19.649169921875,13.903564453125
0.056,9.178955078125,-19.689208984375,10.900634765625
0.0565,12.221923828125,-19.408935546875,7.697509765625
0.057,15.264892578125,-18.488037109375,3.773681640625
0.0575,17.667236328125,-16.606201171875,-0.550537109375
0.058,19.028564453125,-14.884521484375,-3.393310546875
0.0585,19.509033203125,-12.442138671875,-6.356201171875
0.059,19.188720703125,-8.918701171875,-9.479248046875
0.0595,18.588134765625,-5.074951171875,-12.762451171875
0.06,17.827392578125,-1.471435546875,-15.565185546875
0.0605,16.145751953125,2.612548828125,-17.927490234375
0.061,14.223876953125,5.495361328125,-18.968505859375
0.0615,11.461181640625,8.498291015625,-19.328857421875
0.062,7.737548828125,11.821533203125,-19.168701171875
0.0625,3.533447265625,15.024658203125,-18.247802734375
0.063,-0.910888671875,17.427001953125,-16.526123046875
0.0635,-4.114013671875,19.068603515625,-15.204833984375
0.064,-7.076904296875,19.709228515625,-13.042724609375
0.0645,-10.239990234375,19.428955078125,-9.799560546875
0.065,-13.322998046875,18.868408203125,-6.316162109375
0.0655,-16.045654296875,17.827392578125,-2.512451171875
0.066,-18.287841796875,15.785400390625,1.771728515625
0.0665,-19.168701171875,13.903564453125,4.414306640625
0.067,-19.368896484375,11.060791015625,7.417236328125
0.0675,-18.968505859375,7.377197265625,10.740478515625
0.068,-18.327880859375,3.533447265625,13.863525390625
0.0685,-17.046630859375,-0.350341796875,16.466064453125
0.069,-15.565185546875,-3.833740234375,18.508056640625
0.0695,-13.403076171875,-6.676513671875,19.228759765625
0.07,-10.199951171875,-9.679443359375,19.188720703125
0.0705,-6.436279296875,-12.962646484375,18.908447265625
0.071,-2.152099609375,-15.885498046875,17.787353515625
0.0715,2.172119140625,-18.007568359375,15.865478515625
0.072,4.894775390625,-19.208740234375,14.504150390625
0.0725,7.937744140625,-19.729248046875,12.061767578125
0.073,11.140869140625,-19.288818359375,8.578369140625
0.0735,14.183837890625,-18.568115234375,5.014892578125
0.074,16.706298828125,-17.166748046875,1.091064453125
0.0745,18.708251953125,-15.364990234375,-2.712646484375
0.075,19.188720703125,-13.122802734375,-5.315185546875
0.0755,19.228759765625,-9.999755859375,-8.478271484375
0.076,18.828369140625,-6.276123046875,-11.721435546875
0.0765,18.187744140625,-2.632568359375,-14.764404296875
0.077,16.426025390625,1.491455078125,-17.086669921875
0.0775,14.984619140625,4.534423828125,-18.768310546875
0.078,12.462158203125,7.537353515625,-19.328857421875
0.0785,8.818603515625,10.740478515625,-19.048583984375
0.079,4.974853515625,13.943603515625,-18.568115234375
0.0795,0.650634765625,16.746337890625,-17.286865234375
0.08,-3.393310546875,18.748291015625,-15.525146484375
0.0805,-6.075927734375,19.468994140625,-13.803466796875
0.081,-9.239013671875,19.749267578125,-11.040771484375
0.0815,-12.562255859375,19.188720703125,-7.277099609375
0.082,-15.405029296875,18.267822265625,-3.673583984375
0.0825,-17.727294921875,16.506103515625,0.490478515625
0.083,-19.368896484375,14.744384765625,3.853759765625
0.0835,-19.529052734375,12.021728515625,6.656494140625
0.084,-19.368896484375,8.458251953125,9.979736328125
0.0845,-18.808349609375,4.694580078125,13.182861328125
0.085,-17.927490234375,0.810791015625,16.185791015625
0.0855,-16.045654296875,-3.193115234375,18.307861328125
0.086,-14.283935546875,-5.955810546875,19.428955078125
0.0865,-11.561279296875,-8.998779296875,19.829345703125
0.087,-7.357177734375,-12.522216796875,19.268798828125
0.0875,-3.433349609375,-15.405029296875,18.427978515625
0.088,1.010986328125,-17.807373046875,16.746337890625
0.0885,4.614501953125,-19.649169921875,15.184814453125
0.089,7.377197265625,-19.929443359375,12.822509765625
0.0895,10.540283203125,-19.889404296875,9.859619140625
0.09,13.943603515625,-19.248779296875,5.895751953125
0.0905,16.666259765625,-17.967529296875,1.971923828125
0.091,18.748291015625,-16.045654296875,-2.031982421875
0.0915,19.869384765625,-14.123779296875,-4.994873046875
0.092,19.909423828125,-11.160888671875,-7.997802734375
0.0925,19.509033203125,-7.156982421875,-11.561279296875
0.093,18.828369140625,-3.553466796875,-14.404052734375
0.0935,17.467041015625,0.570556640625,-17.166748046875
0.094,15.665283203125,4.334228515625,-19.208740234375
0.0945,13.262939453125,7.136962890625,-19.689208984375
0.095,10.300048828125,10.219970703125,-19.889404296875
0.0955,5.735595703125,13.943603515625,-19.288818359375
0.096,1.731689453125,16.666259765625,-18.247802734375
0.0965,-2.592529296875,18.708251953125,-16.285888671875
0.097,-5.795654296875,20.229736328125,-14.764404296875
0.0975,-8.838623046875,20.229736328125,-11.841552734375
0.098,-12.081787109375,19.909423828125,-8.478271484375
0.0985,-15.204833984375,19.188720703125,-4.714599609375
0.099,-17.887451171875,17.427001953125,-0.390380859375
0.0995,-19.609130859375,15.425048828125,3.333251953125
0.1,-20.209716796875,13.062744140625,6.256103515625
0.1005,-20.169677734375,9.859619140625,9.419189453125
0.101,-19.529052734375,5.455322265625,13.142822265625
0.1015,-18.688232421875,1.891845703125,15.865478515625
0.102,-16.966552734375,-2.272216796875,18.227783203125
0.1025,-15.324951171875,-5.715576171875,20.109619140625
0.103,-12.322021484375,-8.518310546875,20.109619140625
0.1035,-8.998779296875,-11.641357421875,19.989501953125
0.104,-4.674560546875,-15.244873046875,19.348876953125
0.1045,0.090087890625,-17.887451171875,17.627197265625
0.105,3.813720703125,-19.529052734375,15.945556640625
0.1055,6.856689453125,-20.530029296875,13.983642578125
0.106,10.059814453125,-20.489990234375,10.900634765625
0.1065,13.503173828125,-19.809326171875,6.856689453125
0.107,16.305908203125,-18.928466796875,3.333251953125
0.1075,18.788330078125,-17.006591796875,-1.151123046875
0.108,20.309814453125,-15.084716796875,-4.474365234375
0.1085,20.309814453125,-12.201904296875,-7.397216796875
0.109,20.229736328125,-8.838623046875,-10.600341796875
0.1095,19.509033203125,-4.514404296875,-14.203857421875
0.11,18.347900390625,-0.510498046875,-16.966552734375
0.1105,16.426025390625,3.333251953125,-18.928466796875
0.111,14.624267578125,6.656494140625,-20.489990234375
0.1115,11.220947265625,9.739501953125,-20.329833984375
0.112,7.096923828125,13.142822265625,-19.889404296875
0.1125,3.173095703125,16.225830078125,-19.208740234375
0.113,-1.831787109375,18.868408203125,-17.166748046875
0.1135,-5.195068359375,20.349853515625,-15.445068359375
0.114,-8.278076171875,20.790283203125,-13.002685546875
0.1145,-11.441162109375,20.790283203125,-9.959716796875
0.115,-15.084716796875,19.789306640625,-5.435302734375
0.1155,-17.647216796875,18.387939453125,-1.551513671875
0.116,-19.729248046875,16.385986328125,2.532470703125
0.1165,-20.930419921875,14.223876953125,5.775634765625
0.117,-20.610107421875,10.860595703125,8.858642578125
0.1175,-20.329833984375,7.016845703125,12.302001953125
0.118,-19.609130859375,3.012939453125,15.625244140625
0.1185,-17.967529296875,-1.471435546875,18.468017578125
0.119,-16.005615234375,-5.034912109375,20.029541015625
0.1195,-13.723388671875,-8.117919921875,20.990478515625
0.12,-10.239990234375,-11.281005859375,20.910400390625
0.1205,-5.435302734375,-15.084716796875,19.989501953125
0.121,-1.351318359375,-17.727294921875,18.788330078125
0.1215,3.213134765625,-19.929443359375,16.786376953125
0.122,6.536376953125,-21.170654296875,14.984619140625
0.1225,9.779541015625,-21.090576171875,11.701416015625
0.123,12.862548828125,-20.890380859375,8.578369140625
0.1235,16.385986328125,-19.889404296875,4.134033203125
0.124,19.068603515625,-17.887451171875,-0.510498046875
0.1245,20.630126953125,-15.965576171875,-3.913818359375
0.125,21.430908203125,-13.443115234375,-7.156982421875
0.1255,20.990478515625,-9.799560546875,-10.360107421875
0.126,20.349853515625,-5.475341796875,-14.043701171875
0.1265,19.509033203125,-1.791748046875,-16.846435546875
0.127,17.627197265625,2.852783203125,-19.529052734375
0.1275,15.505126953125,6.336181640625,-21.010498046875
0.128,12.302001953125,9.499267578125,-21.170654296875
0.1285,8.938720703125,12.702392578125,-21.170654296875
0.129,3.773681640625,16.546142578125,-20.129638671875
0.1295,-0.910888671875,19.148681640625,-18.247802734375
0.13,-4.754638671875,20.910400390625,-16.406005859375
0.1305,-8.077880859375,21.911376953125,-14.283935546875
0.131,-11.601318359375,21.510986328125,-10.520263671875
0.1315,-14.764404296875,20.830322265625,-6.796630859375
0.132,-17.887451171875,19.749267578125,-2.712646484375
0.1325,-20.489990234375,17.306884765625,2.332275390625
0.133,-21.531005859375,15.144775390625,5.455322265625
0.1335,-21.851318359375,12.101806640625,8.778564453125
0.134,-21.450927734375,8.298095703125,12.181884765625
0.1345,-20.489990234375,3.573486328125,15.905517578125
0.135,-19.088623046875,-0.510498046875,18.548095703125
0.1355,-17.166748046875,-4.634521484375,20.790283203125
0.136,-14.884521484375,-8.037841796875,21.991455078125
0.1365,-11.040771484375,-11.401123046875,21.631103515625
0.137,-7.197021484375,-14.724365234375,21.310791015625
0.1375,-2.352294921875,-18.047607421875,20.069580078125
0.138,2.852783203125,-20.489990234375,17.627197265625
0.1385,6.095947265625,-21.651123046875,15.865478515625
0.139,9.499267578125,-22.331787109375,13.262939453125
0.1395,13.022705078125,-21.771240234375,9.299072265625
0.14,16.385986328125,-20.690185546875,5.014892578125
0.1405,19.148681640625,-19.248779296875,0.930908203125
0.141,21.470947265625,-16.926513671875,-3.793701171875
0.1415,22.111572265625,-14.484130859375,-6.796630859375
0.142,22.031494140625,-10.880615234375,-10.280029296875
0.1425,21.470947265625,-7.036865234375,-13.563232421875
0.143,20.510009765625,-2.552490234375,-17.086669921875
0.1435,18.508056640625,2.132080078125,-19.689208984375
0.144,16.466064453125,5.735595703125,-21.330810546875
0.1445,13.903564453125,9.138916015625,-22.291748046875
0.145,9.619384765625,12.622314453125,-21.731201171875
0.1455,5.255126953125,16.065673828125,-21.010498046875
0.146,0.770751953125,19.068603515625,-19.689208984375
0.1465,-4.434326171875,21.390869140625,-17.166748046875
0.147,-7.397216796875,22.151611328125,-15.164794921875
0.1475,-10.920654296875,22.431884765625,-12.041748046875
0.148,-14.323974609375,21.791259765625,-8.197998046875
0.1485,-17.647216796875,20.469970703125,-3.673583984375
0.149,-20.209716796875,18.427978515625,0.970947265625
0.1495,-22.051513671875,16.185791015625,4.934814453125
0.15,-22.451904296875,13.343017578125,8.137939453125
0.1505,-22.051513671875,9.259033203125,11.821533203125
0.151,-21.250732421875,5.135009765625,15.104736328125
0.1515,-20.249755859375,0.930908203125,18.307861328125
0.152,-17.887451171875,-3.953857421875,20.790283203125
0.1525,-15.765380859375,-7.156982421875,21.911376953125
0.153,-12.842529296875,-10.480224609375,22.431884765625
0.1535,-8.438232421875,-13.963623046875,21.791259765625
0.154,-3.753662109375,-17.286865234375,20.630126953125
0.1545,0.970947265625,-19.889404296875,18.788330078125
0.155,5.415283203125,-21.851318359375,16.626220703125
0.1555,8.458251953125,-22.291748046875,14.223876953125
0.156,12.061767578125,-22.131591796875,10.620361328125
0.1565,15.385009765625,-21.450927734375,6.736572265625
0.157,18.508056640625,-20.049560546875,2.292236328125
0.1575,20.870361328125,-17.647216796875,-2.512451171875
0.158,22.151611328125,-15.525146484375,-5.795654296875
0.1585,22.431884765625,-12.442138671875,-9.078857421875
0.159,21.791259765625,-8.157958984375,-12.762451171875
0.1595,20.830322265625,-3.953857421875,-15.965576171875
0.16,19.509033203125,0.250244140625,-18.808349609375
0.1605,17.306884765625,4.774658203125,-21.170654296875
0.161,14.784423828125,7.857666015625,-21.891357421875
0.1615,11.421142578125,11.260986328125,-22.051513671875
0.162,6.976806640625,14.904541015625,-21.490966796875
0.1625,2.252197265625,18.067626953125,-20.169677734375
0.163,-2.592529296875,20.429931640625,-17.927490234375
0.1635,-6.276123046875,22.071533203125,-16.125732421875
0.164,-9.519287109375,22.351806640625,-13.322998046875
0.1645,-13.082763671875,21.831298828125,-9.479248046875
0.165,-16.325927734375,20.950439453125,-5.435302734375
0.1655,-19.208740234375,19.348876953125,-1.031005859375
0.166,-21.450927734375,16.866455078125,3.693603515625
0.1665,-22.131591796875,14.464111328125,6.696533203125
0.167,-22.251708984375,11.060791015625,10.219970703125
0.1675,-21.531005859375,6.576416015625,13.943603515625
0.168,-20.489990234375,2.412353515625,17.026611328125
0.1685,-18.728271484375,-1.991943359375,19.629150390625
0.169,-16.766357421875,-6.035888671875,21.751220703125
0.1695,-13.923583984375,-9.038818359375,22.071533203125
0.17,-10.199951171875,-12.442138671875,21.911376953125
0.1705,-5.755615234375,-16.005615234375,21.230712890625
0.171,-0.790771484375,-19.008544921875,19.589111328125
0.1715,3.893798828125,-21.090576171875,17.266845703125
0.172,7.096923828125,-22.171630859375,15.385009765625
0.1725,10.540283203125,-22.371826171875,12.302001953125
0.173,14.143798828125,-21.651123046875,8.057861328125
0.1735,17.306884765625,-20.650146484375,4.093994140625
0.174,20.029541015625,-18.688232421875,-0.630615234375
0.1745,22.031494140625,-16.406005859375,-4.794677734375
0.175,22.271728515625,-13.603271484375,-7.797607421875
0.1755,22.151611328125,-9.919677734375,-11.361083984375
0.176,21.350830078125,-5.435302734375,-15.084716796875
0.1765,20.229736328125,-1.311279296875,-18.087646484375
0.177,18.027587890625,3.173095703125,-20.369873046875
0.1775,16.105712890625,6.856689453125,-22.091552734375
0.178,12.742431640625,10.179931640625,-22.171630859375
0.1785,8.418212890625,13.783447265625,-21.691162109375
0.179,4.093994140625,17.106689453125,-20.890380859375
0.1795,-1.031005859375,19.989501953125,-19.008544921875
0.18,-5.355224609375,21.831298828125,-16.806396484375
0.1805,-8.438232421875,22.431884765625,-14.444091796875
0.181,-12.001708984375,22.471923828125,-11.160888671875
