wavelength,x,y,z
0.0,-20.2998046875,3.36328125,15.9755859375
0.0005,-18.4580078125,-1.0009765625,18.6181640625
0.001,-16.2158203125,-4.724609375,19.9794921875
0.0015,-13.8935546875,-8.0078125,21.0205078125
0.002,-10.5302734375,-11.130859375,20.8603515625
0.0025,-5.9658203125,-14.7744140625,20.1396484375
0.003,-1.681640625,-17.6572265625,18.9384765625
0.0035,3.2431640625,-19.8994140625,16.576171875
0.004,6.486328125,-20.66015625,14.2939453125
0.0045,9.849609375,-21.060546875,11.5712890625
0.005,12.8125,-21.0205078125,8.7685546875
0.0055,16.416015625,-19.8994140625,4.1640625
0.006,19.05859375,-18.017578125,-0.2802734375
0.0065,20.6201171875,-15.7353515625,-3.8837890625
0.007,21.220703125,-13.1728515625,-7.2470703125
0.0075,21.1005859375,-9.8896484375,-10.41015625
0.008,20.7001953125,-6.1259765625,-13.853515625
0.0085,19.8994140625,-2.2822265625,-16.9365234375
0.009,17.77734375,2.2421875,-19.37890625
0.0095,15.1748046875,5.7255859375,-20.259765625
0.01,12.572265625,9.0087890625,-20.9404296875
0.0105,9.0087890625,12.33203125,-20.8603515625
0.011,4.1240234375,15.935546875,-19.69921875
0.0115,-0.400390625,18.5380859375,-18.09765625
0.012,-4.6044921875,20.3798828125,-15.8955078125
0.0125,-7.767578125,20.9404296875,-13.533203125
0.013,-11.130859375,20.98046875,-10.4501953125
0.0135,-14.25390625,20.6201171875,-7.20703125
0.014,-17.45703125,19.458984375,-2.8828125
0.0145,-19.859375,17.13671875,1.841796875
0.015,-20.900390625,14.734375,5.1650390625
0.0155,-21.4208984375,12.091796875,8.3681640625
0.016,-21.220703125,8.6484375,11.5712890625
0.0165,-20.4599609375,4.3642578125,15.0947265625
0.017,-19.2587890625,0.48046875,17.8974609375
0.0175,-17.13671875,-3.8837890625,20.01953125
0.018,-14.4541015625,-7.0068359375,20.6201171875
0.0185,-11.53125,-10.169921875,20.9404296875
0.019,-7.767578125,-13.533203125,20.66015625
0.0195,-2.9228515625,-16.81640625,19.298828125
0.02,1.841796875,-19.0986328125,17.0966796875
0.0205,5.4052734375,-20.4599609375,15.0546875
0.021,8.6083984375,-20.98046875,12.65234375
0.0215,11.69140625,-20.7802734375,9.609375
0.022,15.0546875,-20.0595703125,5.7255859375
0.0225,17.9375,-18.7783203125,1.6015625
0.023,20.0595703125,-16.3759765625,-2.8828125
0.0235,20.6201171875,-13.93359375,-5.92578125
0.024,20.98046875,-11.0908203125,-9.12890625
0.0245,20.7802734375,-7.6474609375,-12.412109375
0.025,19.8994140625,-3.5634765625,-15.6953125
0.0255,18.2578125,0.6005859375,-18.1376953125
0.026,16.17578125,4.484375,-19.8994140625
0.0265,13.4130859375,7.6474609375,-20.3798828125
0.027,10.2099609375,10.810546875,-20.4599609375
0.0275,6.1259765625,14.25390625,-19.939453125
0.028,1.5615234375,17.296875,-18.658203125
0.0285,-3.0830078125,19.2587890625,-16.255859375
0.029,-6.166015625,20.1396484375,-14.2138671875
0.0295,-9.3291015625,20.6201171875,-11.771484375
0.03,-12.5322265625,20.33984375,-8.5283203125
0.0305,-15.7353515625,19.4189453125,-4.5244140625
0.031,-18.3779296875,17.7373046875,-0.3203125
0.0315,-20.2197265625,15.4150390625,3.84375
0.032,-20.5400390625,12.8125,6.7666015625
0.0325,-20.8203125,9.849609375,9.9296875
0.033,-20.4599609375,6.0458984375,13.4130859375
0.0335,-19.5390625,2.08203125,16.5361328125
0.034,-17.537109375,-2.1220703125,18.73828125
0.0345,-15.3349609375,-5.525390625,19.9794921875
0.035,-12.7724609375,-8.6484375,20.580078125
0.0355,-9.12890625,-11.8916015625,20.33984375
0.036,-5.0048828125,-15.1748046875,19.4990234375
0.0365,-0.2802734375,-17.9775390625,17.8974609375
0.037,4.1240234375,-19.859375,15.6552734375
0.0375,7.046875,-20.259765625,13.373046875
0.038,10.2900390625,-20.740234375,10.8505859375
0.0385,13.7333984375,-20.259765625,7.1669921875
0.039,16.6962890625,-19.21875,3.203125
0.0395,19.05859375,-17.1767578125,-1.1611328125
0.04,20.4599609375,-14.89453125,-4.7646484375
0.0405,20.7802734375,-12.2119140625,-7.8076171875
0.041,20.8203125,-8.96875,-11.1708984375
0.0415,20.1796875,-5.044921875,-14.4541015625
0.042,19.0986328125,-0.9609375,-17.45703125
0.0425,16.8564453125,3.283203125,-19.3388671875
0.043,14.333984375,6.40625,-20.01953125
0.0435,11.6513671875,9.609375,-20.66015625
0.044,7.3271484375,13.29296875,-20.1796875
0.0445,3.1630859375,16.255859375,-19.0986328125
0.045,-1.521484375,18.658203125,-17.13671875
0.0455,-5.4453125,20.2998046875,-15.0546875
0.046,-8.328125,20.4599609375,-12.5322265625
0.0465,-11.4111328125,20.66015625,-9.9296875
0.047,-14.9345703125,19.9794921875,-5.8056640625
0.0475,-17.77734375,18.5380859375,-1.6416015625
0.048,-19.7392578125,16.255859375,2.5625
0.0485,-20.7001953125,13.8134765625,5.8857421875
0.049,-20.98046875,11.0107421875,8.96875
0.0495,-20.7802734375,7.20703125,12.5322265625
0.05,-19.939453125,3.4833984375,15.4951171875
0.0505,-18.4580078125,-0.80078125,18.2978515625
0.051,-16.1357421875,-4.8447265625,20.01953125
0.0515,-13.453125,-7.7275390625,20.2998046875
0.052,-10.8505859375,-10.73046875,20.7802734375
0.0525,-6.0859375,-14.5341796875,20.01953125
0.053,-1.6416015625,-17.3369140625,18.5380859375
0.0535,2.7626953125,-19.2587890625,16.3759765625
0.054,6.326171875,-20.5400390625,14.3740234375
0.0545,9.3291015625,-20.7001953125,11.6513671875
0.055,12.4921875,-20.6201171875,8.6083984375
0.0555,15.85546875,-19.859375,4.724609375
0.056,18.6181640625,-18.0576171875,0.240234375
0.0565,20.33984375,-15.775390625,-3.8037109375
0.057,20.7802734375,-13.1728515625,-6.8466796875
0.0575,21.1005859375,-10.41015625,-9.9697265625
0.058,20.6201171875,-6.0859375,-13.8134765625
0.0585,19.69921875,-2.40234375,-16.576171875
0.059,17.8173828125,1.8017578125,-18.818359375
0.0595,15.4951171875,5.6455078125,-20.419921875
0.06,12.4521484375,8.6484375,-20.4599609375
0.0605,9.2490234375,11.8916015625,-20.66015625
0.061,4.724609375,15.4951171875,-19.8193359375
0.0615,-0.2001953125,18.337890625,-18.017578125
0.062,-4.2041015625,19.859375,-15.8154296875
0.0625,-7.4072265625,20.740234375,-13.693359375
0.063,-10.5703125,20.9404296875,-10.970703125
0.0635,-14.1337890625,20.33984375,-7.0068359375
0.064,-16.9765625,19.37890625,-3.36328125
0.0645,-19.4990234375,17.296875,1.2412109375
0.065,-20.9404296875,14.89453125,5.0849609375
0.0655,-21.0205078125,11.9716796875,8.0078125
0.066,-21.3408203125,9.0888671875,11.2509765625
0.0665,-20.6201171875,4.6044921875,15.0546875
0.067,-19.37890625,0.560546875,17.9375
0.0675,-17.13671875,-3.4833984375,19.6591796875
0.068,-14.8544921875,-6.9267578125,20.900390625
0.0685,-11.7314453125,-9.9697265625,20.9404296875
0.069,-7.6875,-13.5732421875,20.580078125
0.0695,-3.4833984375,-16.6162109375,19.5791015625
0.07,1.6015625,-19.2587890625,17.4169921875
0.0705,5.4453125,-20.66015625,15.21484375
0.071,8.6484375,-21.0205078125,12.65234375
0.0715,11.6513671875,-21.380859375,10.2099609375
0.072,15.5751953125,-20.4599609375,5.4853515625
0.0725,18.2578125,-19.0986328125,1.5615234375
0.073,20.2998046875,-16.896484375,-2.642578125
0.0735,21.4208984375,-14.4140625,-6.2861328125
0.074,21.3408203125,-11.1708984375,-9.3291015625
0.0745,21.3408203125,-7.7275390625,-12.8525390625
0.075,20.5400390625,-3.68359375,-16.095703125
0.0755,18.8583984375,0.880859375,-18.9384765625
0.076,16.2958984375,4.7646484375,-20.259765625
0.0765,13.693359375,8.0078125,-21.0205078125
0.077,10.73046875,11.1708984375,-21.30078125
0.0775,5.5654296875,15.21484375,-20.2197265625
0.078,1.4814453125,17.8173828125,-19.0986328125
0.0785,-3.203125,20.01953125,-16.81640625
0.079,-6.9267578125,21.140625,-14.57421875
0.0795,-10.08984375,21.1005859375,-11.53125
0.08,-13.0126953125,21.220703125,-8.9287109375
0.0805,-16.6962890625,20.1396484375,-4.32421875
0.081,-19.4189453125,18.09765625,0.3603515625
0.0815,-20.900390625,15.775390625,4.083984375
0.082,-21.701171875,13.2529296875,7.4873046875
0.0825,-21.62109375,10.08984375,10.5302734375
0.083,-21.140625,5.765625,14.4140625
0.0835,-20.2197265625,2.0419921875,17.2568359375
0.084,-18.2978515625,-2.4423828125,19.779296875
0.0845,-15.6552734375,-6.166015625,20.98046875
0.085,-12.732421875,-9.2490234375,21.140625
0.0855,-9.8095703125,-12.33203125,21.4609375
0.086,-4.4443359375,-16.2958984375,20.1796875
0.0865,0.2802734375,-18.8583984375,18.2978515625
0.087,4.32421875,-20.5,16.17578125
0.0875,7.767578125,-21.4609375,13.853515625
0.088,11.05078125,-21.30078125,10.6904296875
0.0885,14.333984375,-20.98046875,7.20703125
0.089,17.4970703125,-19.939453125,3.203125
0.0895,20.099609375,-17.697265625,-1.681640625
0.09,21.1005859375,-15.1748046875,-5.125
0.0905,21.541015625,-12.33203125,-8.3681640625
0.091,21.5810546875,-9.3291015625,-11.4111328125
0.0915,20.7802734375,-4.6845703125,-15.294921875
0.092,19.4990234375,-0.80078125,-17.9375
0.0925,17.4169921875,3.3232421875,-19.9794921875
0.093,14.8544921875,7.0068359375,-21.1005859375
0.0935,11.37109375,10.2099609375,-20.98046875
0.094,7.8876953125,13.61328125,-20.98046875
0.0945,3.123046875,17.0966796875,-19.8994140625
0.095,-2.0419921875,19.5791015625,-17.4970703125
0.0955,-5.60546875,20.7001953125,-15.455078125
0.096,-8.8486328125,21.4609375,-12.97265625
0.0965,-12.01171875,21.3408203125,-10.009765625
0.097,-15.53515625,20.4599609375,-5.60546875
0.0975,-18.4580078125,19.05859375,-1.6015625
0.098,-20.66015625,16.6962890625,2.962890625
0.0985,-21.4208984375,14.09375,6.326171875
0.099,-21.541015625,10.9306640625,9.609375
0.0995,-21.5009765625,7.7275390625,12.8125
0.1,-20.66015625,3.283203125,16.4560546875
0.1005,-18.8583984375,-1.201171875,19.05859375
0.101,-16.5361328125,-4.9248046875,20.5
0.1015,-14.0537109375,-8.2880859375,21.5009765625
0.102,-10.5302734375,-11.4912109375,21.2607421875
0.1025,-6.1259765625,-15.0947265625,20.580078125
0.103,-1.6416015625,-18.1376953125,19.3388671875
0.1035,3.4833984375,-20.419921875,16.81640625
0.104,6.7265625,-21.140625,14.5341796875
0.1045,10.1298828125,-21.6611328125,11.8115234375
0.105,13.2529296875,-21.5009765625,8.7685546875
0.1055,16.896484375,-20.3798828125,4.1640625
0.106,19.4990234375,-18.4580078125,-0.2802734375
0.1065,21.140625,-16.17578125,-4.2041015625
0.107,21.701171875,-13.453125,-7.447265625
0.1075,21.5810546875,-10.009765625,-10.73046875
0.108,21.140625,-6.24609375,-14.1337890625
0.1085,20.2998046875,-2.2021484375,-17.3369140625
0.109,18.09765625,2.4423828125,-19.7392578125
0.1095,15.4951171875,5.9658203125,-20.66015625
0.11,12.8125,9.2490234375,-21.4208984375
0.1105,9.12890625,12.65234375,-21.1806640625
0.111,4.2841796875,16.17578125,-20.0595703125
0.1115,-0.2802734375,18.8583984375,-18.5380859375
0.112,-4.64453125,20.740234375,-16.17578125
0.1125,-7.8076171875,21.1806640625,-13.8134765625
0.113,-11.1708984375,21.30078125,-10.7705078125
0.1135,-14.3740234375,20.9404296875,-7.4072265625
0.114,-17.6171875,19.7392578125,-3.04296875
0.1145,-20.01953125,17.4169921875,1.6416015625
0.115,-21.140625,15.0546875,5.125
0.1155,-21.6611328125,12.2919921875,8.2880859375
0.116,-21.4208984375,8.8486328125,11.5712890625
0.1165,-20.66015625,4.64453125,15.0546875
0.117,-19.5390625,0.640625,17.9775390625
0.1175,-17.376953125,-3.7236328125,20.1796875
0.118,-14.6943359375,-6.9267578125,20.7802734375
0.1185,-11.8515625,-10.1298828125,21.1806640625
0.119,-8.0478515625,-13.61328125,20.98046875
0.1195,-3.203125,-16.8564453125,19.619140625
0.12,1.5615234375,-19.21875,17.45703125
0.1205,5.3251953125,-20.7802734375,15.4150390625
0.121,8.48828125,-21.220703125,12.9326171875
0.1215,11.7314453125,-21.140625,9.849609375
0.122,15.0947265625,-20.4599609375,6.0458984375
0.1225,18.09765625,-19.0986328125,1.841796875
0.123,20.2197265625,-16.8564453125,-2.8427734375
0.1235,20.900390625,-14.2138671875,-5.845703125
0.124,21.3408203125,-11.4111328125,-9.12890625
0.1245,21.1005859375,-7.767578125,-12.5322265625
0.125,20.2197265625,-3.7236328125,-15.775390625
0.1255,18.658203125,0.48046875,-18.337890625
0.126,16.49609375,4.484375,-20.2197265625
0.1265,13.7333984375,7.6875,-20.7001953125
0.127,10.5302734375,10.9306640625,-20.900390625
0.1275,6.40625,14.57421875,-20.5
0.128,1.681640625,17.697265625,-19.1787109375
0.1285,-3.0830078125,19.779296875,-16.736328125
0.129,-6.3662109375,20.740234375,-14.6943359375
0.1295,-9.5693359375,21.220703125,-12.2119140625
0.13,-12.892578125,20.9404296875,-8.728515625
0.1305,-16.17578125,20.01953125,-4.6845703125
0.131,-18.9384765625,18.337890625,-0.3203125
0.1315,-20.900390625,15.935546875,4.0439453125
0.132,-21.220703125,13.1728515625,7.046875
0.1325,-21.541015625,10.169921875,10.3701171875
0.133,-21.1005859375,6.0859375,14.013671875
0.1335,-20.1796875,2.0419921875,17.216796875
0.134,-18.09765625,-2.2822265625,19.4189453125
0.1345,-15.8955078125,-5.92578125,20.8603515625
0.135,-13.0927734375,-9.048828125,21.30078125
0.1355,-9.3291015625,-12.5322265625,21.1005859375
0.136,-5.044921875,-15.775390625,20.259765625
0.1365,-0.16015625,-18.818359375,18.6181640625
0.137,4.404296875,-20.66015625,16.1357421875
0.1375,7.447265625,-21.140625,13.8134765625
0.138,10.73046875,-21.5009765625,11.2109375
0.1385,14.333984375,-20.8603515625,7.1669921875
0.139,17.296875,-19.7392578125,3.203125
0.1395,19.7392578125,-17.697265625,-1.28125
0.14,21.2607421875,-15.2548828125,-5.1650390625
0.1405,21.4609375,-12.33203125,-8.2080078125
0.141,21.4609375,-9.0087890625,-11.6513671875
0.1415,20.7802734375,-4.96484375,-14.974609375
0.142,19.5791015625,-0.80078125,-18.0576171875
0.1425,17.216796875,3.443359375,-19.8994140625
0.143,14.734375,6.6865234375,-20.740234375
0.1435,11.9716796875,9.9296875,-21.220703125
0.144,7.4873046875,13.693359375,-20.66015625
0.1445,3.3232421875,16.576171875,-19.619140625
0.145,-1.4814453125,19.138671875,-17.6171875
0.1455,-5.525390625,20.66015625,-15.4150390625
0.146,-8.408203125,20.7802734375,-12.8125
0.1465,-11.53125,21.1005859375,-10.2099609375
0.147,-15.1748046875,20.259765625,-5.92578125
0.1475,-17.9775390625,18.818359375,-1.76171875
0.148,-19.939453125,16.5361328125,2.482421875
0.1485,-21.0205078125,14.0537109375,5.8056640625
0.149,-21.140625,11.2109375,8.96875
0.1495,-20.9404296875,7.3671875,12.6123046875
0.15,-20.1796875,3.68359375,15.53515625
0.1505,-18.73828125,-0.640625,18.3779296875
0.151,-16.3759765625,-4.64453125,20.1396484375
0.1515,-13.7734375,-7.52734375,20.419921875
0.152,-11.1708984375,-10.5703125,20.98046875
0.1525,-6.40625,-14.4541015625,20.1396484375
0.153,-2.0419921875,-17.2568359375,18.7783203125
0.1535,2.40234375,-19.21875,16.65625
0.154,6.0458984375,-20.5400390625,14.654296875
0.1545,9.0087890625,-20.66015625,11.9716796875
0.155,12.171875,-20.6201171875,8.96875
0.1555,15.53515625,-19.8994140625,5.0849609375
0.156,18.2978515625,-18.2177734375,0.640625
0.1565,20.01953125,-15.8955078125,-3.36328125
0.157,20.580078125,-13.4130859375,-6.40625
0.1575,20.9404296875,-10.650390625,-9.4892578125
0.158,20.4599609375,-6.3662109375,-13.373046875
0.1585,19.6591796875,-2.802734375,-16.1357421875
0.159,17.9375,1.361328125,-18.5380859375
0.1595,15.6552734375,5.2451171875,-20.1796875
0.16,12.6923828125,8.16796875,-20.259765625
0.1605,9.7294921875,11.37109375,-20.5400390625
0.161,5.125,15.0546875,-19.859375
0.1615,0.4404296875,17.8974609375,-18.177734375
0.162,-3.603515625,19.4990234375,-16.015625
0.1625,-6.8466796875,20.4599609375,-13.93359375
0.163,-9.9697265625,20.7001953125,-11.291015625
0.1635,-13.453125,20.1796875,-7.4072265625
0.164,-16.3759765625,19.3388671875,-3.84375
0.1645,-18.978515625,17.376953125,0.6806640625
0.165,-20.5,15.0146484375,4.484375
0.1655,-20.66015625,12.251953125,7.4873046875
0.166,-21.060546875,9.44921875,10.650390625
0.1665,-20.419921875,4.96484375,14.5341796875
0.167,-19.2587890625,1.0009765625,17.376953125
0.1675,-17.216796875,-2.9228515625,19.21875
0.168,-15.0947265625,-6.40625,20.66015625
0.1685,-12.01171875,-9.529296875,20.66015625
0.169,-8.1279296875,-13.052734375,20.4599609375
0.1695,-3.923828125,-16.255859375,19.6591796875
0.17,1.12109375,-18.9384765625,17.537109375
0.1705,4.96484375,-20.33984375,15.375
0.171,8.16796875,-20.8603515625,12.97265625
0.1715,11.2109375,-21.1806640625,10.5302734375
0.172,15.0947265625,-20.2998046875,5.8857421875
0.1725,17.857421875,-19.05859375,1.9619140625
0.173,19.9794921875,-16.9765625,-2.2421875
0.1735,21.1005859375,-14.494140625,-5.8056640625
0.174,21.060546875,-11.4111328125,-8.8486328125
0.1745,21.1005859375,-8.0478515625,-12.251953125
0.175,20.4599609375,-3.923828125,-15.6953125
0.1755,18.8583984375,0.5205078125,-18.578125
0.176,16.3759765625,4.32421875,-20.01953125
0.1765,13.93359375,7.6474609375,-20.900390625
0.177,10.8505859375,10.7705078125,-21.140625
0.1775,5.92578125,14.7744140625,-20.259765625
0.178,1.921875,17.537109375,-19.1787109375
0.1785,-2.8828125,19.8193359375,-16.9765625
0.179,-6.486328125,20.900390625,-14.6943359375
0.1795,-9.6494140625,20.9404296875,-11.8515625
0.18,-12.572265625,21.1005859375,-9.2890625
0.1805,-16.2958984375,20.01953125,-4.6044921875
0.181,-18.978515625,18.1376953125,0.0
0.1815,-20.5,15.85546875,3.6435546875
0.182,-21.3408203125,13.373046875,7.046875
0.1825,-21.30078125,10.2099609375,10.08984375
0.183,-20.8203125,6.0859375,13.8134765625
0.1835,-20.01953125,2.40234375,16.6962890625
0.184,-18.2177734375,-2.08203125,19.3388671875
0.1845,-15.6552734375,-5.765625,20.4599609375
0.185,-12.8525390625,-8.80859375,20.8203125
0.1855,-9.9697265625,-11.8515625,21.140625
0.186,-4.7646484375,-15.6953125,19.859375
0.1865,-0.3203125,-18.2578125,18.2177734375
0.187,3.84375,-19.9794921875,16.0556640625
0.1875,7.20703125,-20.8603515625,13.853515625
0.188,10.490234375,-20.8203125,10.73046875
0.1885,13.4931640625,-20.5400390625,7.607421875
0.189,16.6962890625,-19.5791015625,3.603515625
0.1895,19.298828125,-17.376953125,-1.1611328125
0.19,20.3798828125,-15.0947265625,-4.5244140625
0.1905,20.98046875,-12.3720703125,-7.7275390625
0.191,20.9404296875,-9.5693359375,-10.6103515625
0.1915,20.2197265625,-5.044921875,-14.4541015625
0.192,19.138671875,-1.3212890625,-17.0966796875
0.1925,17.216796875,2.6826171875,-19.21875
0.193,14.6943359375,6.2861328125,-20.33984375
0.1935,11.53125,9.44921875,-20.2998046875
0.194,8.2880859375,12.6923828125,-20.4599609375
0.1945,3.5634765625,16.1357421875,-19.37890625
0.195,-1.4013671875,18.658203125,-17.216796875
0.1955,-4.8046875,19.859375,-15.2548828125
0.196,-8.0478515625,20.66015625,-13.0126953125
0.1965,-11.0908203125,20.6201171875,-10.169921875
0.197,-14.6142578125,19.8994140625,-6.0458984375
0.1975,-17.45703125,18.7783203125,-2.2021484375
0.198,-19.7392578125,16.5361328125,2.2421875
0.1985,-20.5,14.09375,5.4853515625
0.199,-20.8203125,11.1708984375,8.6484375
0.1995,-20.8203125,8.16796875,11.771484375
0.2,-20.1396484375,3.8037109375,15.4150390625
0.2005,-18.5380859375,-0.5205078125,18.0576171875
0.201,-16.49609375,-4.2041015625,19.69921875
0.2015,-14.1337890625,-7.447265625,20.7802734375
0.202,-10.7705078125,-10.5703125,20.6201171875
0.2025,-6.6865234375,-14.1337890625,20.1796875
0.203,-2.2822265625,-17.216796875,19.05859375
0.2035,2.6826171875,-19.5791015625,16.6962890625
0.204,5.92578125,-20.419921875,14.57421875
0.2045,9.2490234375,-20.98046875,12.0517578125
0.205,12.2919921875,-20.9404296875,9.1689453125
0.2055,15.8955078125,-19.8994140625,4.64453125
0.206,18.6181640625,-18.2578125,0.48046875
0.2065,20.419921875,-16.015625,-3.5634765625
0.207,21.0205078125,-13.453125,-6.7265625
0.2075,21.060546875,-10.25,-9.9697265625
0.208,20.7802734375,-6.6064453125,-13.4130859375
0.2085,20.01953125,-2.6826171875,-16.65625
0.209,17.9775390625,1.8818359375,-19.0986328125
0.2095,15.53515625,5.365234375,-20.1796875
0.21,13.0126953125,8.6884765625,-20.98046875
0.2105,9.44921875,11.9716796875,-20.8203125
0.211,4.6845703125,15.53515625,-19.8193359375
0.2115,0.2802734375,18.337890625,-18.337890625
0.212,-4.244140625,20.259765625,-16.095703125
0.2125,-7.3671875,20.7802734375,-13.8134765625
0.213,-10.6904296875,20.98046875,-10.890625
0.2135,-13.8134765625,20.740234375,-7.6875
0.214,-17.13671875,19.4990234375,-3.283203125
0.2145,-19.619140625,17.3369140625,1.3212890625
0.215,-20.8603515625,15.0146484375,4.9248046875
0.2155,-21.3408203125,12.2919921875,8.087890625
0.216,-21.1806640625,8.888671875,11.37109375
0.2165,-20.5,4.7646484375,14.7744140625
0.217,-19.5390625,0.8408203125,17.7373046875
0.2175,-17.3369140625,-3.5634765625,19.9794921875
0.218,-14.6142578125,-6.7666015625,20.5400390625
