wavelength,x,y,z
0.0,5.495361328125,-2.872802734375,-4.033935546875
0.0005,5.094970703125,-4.274169921875,-2.512451171875
0.001,4.774658203125,-5.315185546875,-1.311279296875
0.0015,4.454345703125,-6.035888671875,-0.510498046875
0.002,3.813720703125,-6.356201171875,0.450439453125
0.0025,2.652587890625,-6.436279296875,1.611572265625
0.003,1.171142578125,-6.476318359375,3.133056640625
0.0035,-0.350341796875,-6.436279296875,4.534423828125
0.004,-1.111083984375,-6.556396484375,5.415283203125
0.0045,-1.791748046875,-6.476318359375,6.216064453125
0.005,-2.832763671875,-5.795654296875,6.656494140625
0.0055,-4.154052734375,-4.394287109375,6.896728515625
0.006,-5.275146484375,-2.872802734375,6.736572265625
0.0065,-6.075927734375,-1.471435546875,6.536376953125
0.007,-6.396240234375,-0.710693359375,6.456298828125
0.0075,-6.356201171875,0.170166015625,5.975830078125
0.008,-6.115966796875,1.171142578125,4.974853515625
0.0085,-5.715576171875,2.452392578125,3.533447265625
0.009,-5.315185546875,3.813720703125,2.052001953125
0.0095,-5.074951171875,4.774658203125,0.970947265625
0.01,-4.714599609375,5.415283203125,0.210205078125
0.0105,-3.953857421875,5.655517578125,-0.790771484375
0.011,-2.672607421875,5.735595703125,-2.072021484375
0.0115,-1.191162109375,5.815673828125,-3.593505859375
0.012,0.130126953125,5.775634765625,-4.834716796875
0.0125,0.770751953125,5.975830078125,-5.755615234375
0.013,1.611572265625,5.735595703125,-6.436279296875
0.0135,2.692626953125,4.894775390625,-6.916748046875
0.014,4.093994140625,3.333251953125,-6.996826171875
0.0145,5.175048828125,1.771728515625,-6.876708984375
0.015,5.815673828125,0.610595703125,-6.676513671875
0.0155,6.095947265625,-0.270263671875,-6.516357421875
0.016,5.975830078125,-1.111083984375,-5.835693359375
0.0165,5.695556640625,-2.352294921875,-4.674560546875
0.017,5.255126953125,-3.713623046875,-3.153076171875
0.0175,4.934814453125,-4.954833984375,-1.751708984375
0.018,4.654541015625,-5.755615234375,-0.790771484375
0.0185,4.214111328125,-6.276123046875,0.090087890625
0.019,3.253173828125,-6.476318359375,1.091064453125
0.0195,1.771728515625,-6.556396484375,2.612548828125
0.02,0.170166015625,-6.516357421875,4.134033203125
0.0205,-0.870849609375,-6.556396484375,5.255126953125
0.021,-1.511474609375,-6.676513671875,6.095947265625
0.0215,-2.512451171875,-6.115966796875,6.656494140625
0.022,-3.833740234375,-4.874755859375,6.976806640625
0.0225,-5.074951171875,-3.353271484375,6.976806640625
0.023,-6.075927734375,-1.791748046875,6.736572265625
0.0235,-6.476318359375,-0.830810546875,6.576416015625
0.024,-6.556396484375,0.050048828125,6.256103515625
0.0245,-6.356201171875,0.970947265625,5.415283203125
0.025,-6.035888671875,2.292236328125,3.933837890625
0.0255,-5.515380859375,3.693603515625,2.372314453125
0.026,-5.155029296875,4.814697265625,1.091064453125
0.0265,-4.834716796875,5.535400390625,0.290283203125
0.027,-4.114013671875,5.815673828125,-0.710693359375
0.0275,-2.952880859375,5.935791015625,-1.911865234375
0.028,-1.391357421875,5.975830078125,-3.513427734375
0.0285,0.130126953125,5.895751953125,-4.874755859375
0.029,0.930908203125,5.935791015625,-5.755615234375
0.0295,1.571533203125,5.855712890625,-6.516357421875
0.03,2.652587890625,5.094970703125,-6.996826171875
0.0305,3.973876953125,3.653564453125,-7.156982421875
0.031,5.094970703125,2.052001953125,-6.996826171875
0.0315,5.895751953125,0.650634765625,-6.716552734375
0.032,6.135986328125,-0.270263671875,-6.556396484375
0.0325,6.055908203125,-1.031005859375,-6.035888671875
0.033,5.775634765625,-2.072021484375,-5.074951171875
0.0335,5.335205078125,-3.353271484375,-3.553466796875
0.034,4.894775390625,-4.634521484375,-2.072021484375
0.0345,4.614501953125,-5.555419921875,-0.990966796875
0.035,4.294189453125,-6.115966796875,-0.270263671875
0.0355,3.493408203125,-6.356201171875,0.690673828125
0.036,2.252197265625,-6.396240234375,1.971923828125
0.0365,0.730712890625,-6.396240234375,3.453369140625
0.037,-0.590576171875,-6.396240234375,4.694580078125
0.0375,-1.231201171875,-6.476318359375,5.535400390625
0.038,-1.911865234375,-6.356201171875,6.176025390625
0.0385,-2.912841796875,-5.595458984375,6.576416015625
0.039,-4.234130859375,-4.114013671875,6.696533203125
0.0395,-5.275146484375,-2.592529296875,6.536376953125
0.04,-5.955810546875,-1.431396484375,6.416259765625
0.0405,-6.196044921875,-0.790771484375,6.296142578125
0.041,-6.115966796875,0.090087890625,5.735595703125
0.0415,-5.835693359375,1.171142578125,4.694580078125
0.042,-5.475341796875,2.412353515625,3.333251953125
0.0425,-5.155029296875,3.693603515625,1.971923828125
0.043,-4.994873046875,4.534423828125,1.131103515625
0.0435,-4.634521484375,5.135009765625,0.330322265625
0.044,-3.913818359375,5.415283203125,-0.630615234375
0.0445,-2.592529296875,5.575439453125,-1.991943359375
0.045,-1.151123046875,5.615478515625,-3.473388671875
0.0455,0.010009765625,5.735595703125,-4.634521484375
0.046,0.570556640625,5.975830078125,-5.515380859375
0.0465,1.411376953125,5.615478515625,-6.156005859375
0.047,2.612548828125,4.614501953125,-6.556396484375
0.0475,3.893798828125,3.213134765625,-6.676513671875
0.048,4.934814453125,1.731689453125,-6.556396484375
0.0485,5.495361328125,0.770751953125,-6.516357421875
0.049,5.735595703125,0.010009765625,-6.356201171875
0.0495,5.615478515625,-0.830810546875,-5.755615234375
0.05,5.375244140625,-2.031982421875,-4.514404296875
0.0505,5.054931640625,-3.353271484375,-3.113037109375
0.051,4.774658203125,-4.514404296875,-1.911865234375
0.0515,4.614501953125,-5.315185546875,-1.111083984375
0.052,4.053955078125,-5.755615234375,-0.270263671875
0.0525,3.133056640625,-6.035888671875,0.810791015625
0.053,1.771728515625,-6.115966796875,2.252197265625
0.0535,0.450439453125,-6.115966796875,3.653564453125
0.054,-0.470458984375,-6.316162109375,4.654541015625
0.0545,-1.111083984375,-6.436279296875,5.455322265625
0.055,-2.031982421875,-5.915771484375,6.015869140625
0.0555,-3.273193359375,-4.754638671875,6.296142578125
0.056,-4.434326171875,-3.353271484375,6.336181640625
0.0565,-5.355224609375,-2.072021484375,6.216064453125
0.057,-5.755615234375,-1.311279296875,6.216064453125
0.0575,-5.835693359375,-0.590576171875,5.895751953125
0.058,-5.715576171875,0.370361328125,5.175048828125
0.0585,-5.435302734375,1.571533203125,3.973876953125
0.059,-5.114990234375,2.852783203125,2.572509765625
0.0595,-4.954833984375,3.853759765625,1.571533203125
0.06,-4.754638671875,4.614501953125,0.850830078125
0.0605,-4.194091796875,4.974853515625,0.050048828125
0.061,-3.153076171875,5.135009765625,-1.151123046875
0.0615,-1.911865234375,5.295166015625,-2.552490234375
0.062,-0.710693359375,5.415283203125,-3.793701171875
0.0625,0.010009765625,5.695556640625,-4.754638671875
0.063,0.730712890625,5.695556640625,-5.475341796875
0.0635,1.691650390625,5.094970703125,-6.035888671875
0.064,2.972900390625,3.853759765625,-6.276123046875
0.0645,4.093994140625,2.412353515625,-6.196044921875
0.065,4.854736328125,1.291259765625,-6.236083984375
0.0655,5.255126953125,0.650634765625,-6.236083984375
0.066,5.295166015625,-0.150146484375,-5.835693359375
0.0665,5.135009765625,-1.111083984375,-5.034912109375
0.067,4.894775390625,-2.272216796875,-3.833740234375
0.0675,4.654541015625,-3.513427734375,-2.632568359375
0.068,4.574462890625,-4.474365234375,-1.791748046875
0.0685,4.374267578125,-5.114990234375,-1.071044921875
0.069,3.813720703125,-5.475341796875,-0.270263671875
0.0695,2.692626953125,-5.715576171875,1.051025390625
0.07,1.371337890625,-5.795654296875,2.452392578125
0.0705,0.410400390625,-6.035888671875,3.613525390625
0.071,-0.310302734375,-6.316162109375,4.534423828125
0.0715,-1.111083984375,-6.156005859375,5.255126953125
0.072,-2.112060546875,-5.435302734375,5.695556640625
0.0725,-3.353271484375,-4.314208984375,5.895751953125
0.073,-4.394287109375,-2.952880859375,5.895751953125
0.0735,-5.114990234375,-2.031982421875,6.015869140625
0.074,-5.435302734375,-1.431396484375,6.015869140625
0.0745,-5.475341796875,-0.670654296875,5.615478515625
0.075,-5.315185546875,0.450439453125,4.694580078125
0.0755,-5.114990234375,1.611572265625,3.533447265625
0.076,-4.994873046875,2.812744140625,2.412353515625
0.0765,-4.914794921875,3.693603515625,1.691650390625
0.077,-4.594482421875,4.294189453125,0.970947265625
0.0775,-3.953857421875,4.654541015625,0.050048828125
0.078,-2.872802734375,4.934814453125,-1.311279296875
0.0785,-1.631591796875,5.094970703125,-2.632568359375
0.079,-0.870849609375,5.415283203125,-3.793701171875
0.0795,-0.190185546875,5.695556640625,-4.674560546875
0.08,0.770751953125,5.415283203125,-5.395263671875
0.0805,1.971923828125,4.454345703125,-5.795654296875
0.081,3.173095703125,3.173095703125,-5.955810546875
0.0815,4.134033203125,1.971923828125,-5.955810546875
0.082,4.774658203125,1.291259765625,-6.115966796875
0.0825,5.014892578125,0.610595703125,-5.955810546875
0.083,4.974853515625,-0.310302734375,-5.475341796875
0.0835,4.814697265625,-1.351318359375,-4.474365234375
0.084,4.654541015625,-2.592529296875,-3.273193359375
0.0845,4.574462890625,-3.713623046875,-2.312255859375
0.085,4.494384765625,-4.514404296875,-1.631591796875
0.0855,4.093994140625,-5.034912109375,-0.910888671875
0.086,3.213134765625,-5.355224609375,0.290283203125
0.0865,2.092041015625,-5.595458984375,1.571533203125
0.087,1.010986328125,-5.755615234375,2.852783203125
0.0875,0.330322265625,-6.115966796875,3.893798828125
0.088,-0.510498046875,-6.276123046875,4.734619140625
0.0885,-1.431396484375,-5.835693359375,5.335205078125
0.089,-2.632568359375,-4.754638671875,5.615478515625
0.0895,-3.833740234375,-3.433349609375,5.735595703125
0.09,-4.714599609375,-2.392333984375,5.855712890625
0.0905,-5.155029296875,-1.791748046875,5.975830078125
0.091,-5.315185546875,-1.111083984375,5.695556640625
0.0915,-5.235107421875,-0.190185546875,4.974853515625
0.092,-5.074951171875,1.051025390625,3.973876953125
0.0925,-4.954833984375,2.292236328125,2.812744140625
0.093,-4.914794921875,3.253173828125,1.971923828125
0.0935,-4.714599609375,3.973876953125,1.291259765625
0.094,-4.274169921875,4.454345703125,0.490478515625
0.0945,-3.233154296875,4.774658203125,-0.790771484375
0.095,-2.072021484375,5.014892578125,-2.192138671875
0.0955,-1.151123046875,5.255126953125,-3.353271484375
0.096,-0.550537109375,5.655517578125,-4.354248046875
0.0965,0.450439453125,5.495361328125,-5.114990234375
0.097,1.491455078125,4.814697265625,-5.595458984375
0.0975,2.732666015625,3.653564453125,-5.835693359375
0.098,3.853759765625,2.372314453125,-5.915771484375
0.0985,4.574462890625,1.491455078125,-6.075927734375
0.099,4.934814453125,0.810791015625,-6.035888671875
0.0995,5.014892578125,0.050048828125,-5.675537109375
0.1,4.894775390625,-1.071044921875,-4.794677734375
0.1005,4.734619140625,-2.312255859375,-3.593505859375
0.101,4.614501953125,-3.473388671875,-2.552490234375
0.1015,4.534423828125,-4.394287109375,-1.791748046875
0.102,4.214111328125,-4.954833984375,-1.031005859375
0.1025,3.493408203125,-5.275146484375,0.010009765625
0.103,2.412353515625,-5.595458984375,1.291259765625
0.1035,1.211181640625,-5.755615234375,2.612548828125
0.104,0.450439453125,-6.075927734375,3.693603515625
0.1045,-0.350341796875,-6.316162109375,4.614501953125
0.105,-1.271240234375,-5.995849609375,5.255126953125
0.1055,-2.432373046875,-4.994873046875,5.695556640625
0.106,-3.633544921875,-3.713623046875,5.815673828125
0.1065,-4.634521484375,-2.552490234375,5.855712890625
0.107,-5.155029296875,-1.791748046875,5.975830078125
0.1075,-5.395263671875,-1.151123046875,5.815673828125
0.108,-5.355224609375,-0.310302734375,5.215087890625
0.1085,-5.195068359375,0.930908203125,4.214111328125
0.109,-4.994873046875,2.172119140625,3.012939453125
0.1095,-4.914794921875,3.253173828125,2.052001953125
0.11,-4.834716796875,4.013916015625,1.331298828125
0.1105,-4.354248046875,4.494384765625,0.570556640625
0.111,-3.473388671875,4.814697265625,-0.630615234375
0.1115,-2.272216796875,5.054931640625,-1.951904296875
0.112,-1.231201171875,5.255126953125,-3.233154296875
0.1125,-0.510498046875,5.575439453125,-4.314208984375
0.113,0.330322265625,5.575439453125,-5.114990234375
0.1135,1.331298828125,5.094970703125,-5.715576171875
0.114,2.652587890625,3.893798828125,-6.035888671875
0.1145,3.853759765625,2.532470703125,-6.115966796875
0.115,4.654541015625,1.491455078125,-6.156005859375
0.1155,5.094970703125,0.810791015625,-6.156005859375
0.116,5.175048828125,0.050048828125,-5.755615234375
0.1165,5.094970703125,-1.031005859375,-4.994873046875
0.117,4.854736328125,-2.272216796875,-3.793701171875
0.1175,4.654541015625,-3.553466796875,-2.552490234375
0.118,4.574462890625,-4.514404296875,-1.711669921875
0.1185,4.334228515625,-5.114990234375,-0.990966796875
0.119,3.693603515625,-5.475341796875,0.010009765625
0.1195,2.532470703125,-5.755615234375,1.291259765625
0.12,1.251220703125,-5.915771484375,2.692626953125
0.1205,0.290283203125,-6.156005859375,3.853759765625
0.121,-0.510498046875,-6.436279296875,4.814697265625
0.1215,-1.351318359375,-6.115966796875,5.495361328125
0.122,-2.512451171875,-5.235107421875,5.895751953125
0.1225,-3.753662109375,-3.873779296875,6.095947265625
0.123,-4.834716796875,-2.512451171875,6.095947265625
0.1235,-5.475341796875,-1.591552734375,6.095947265625
0.124,-5.715576171875,-0.950927734375,5.935791015625
0.1245,-5.675537109375,0.010009765625,5.415283203125
0.125,-5.435302734375,1.131103515625,4.334228515625
0.1255,-5.195068359375,2.412353515625,3.012939453125
0.126,-4.994873046875,3.573486328125,1.851806640625
0.1265,-4.874755859375,4.414306640625,1.091064453125
0.127,-4.354248046875,4.814697265625,0.290283203125
0.1275,-3.513427734375,5.094970703125,-0.790771484375
0.128,-2.232177734375,5.335205078125,-2.272216796875
0.1285,-0.950927734375,5.415283203125,-3.713623046875
0.129,-0.150146484375,5.615478515625,-4.674560546875
0.1295,0.610595703125,5.735595703125,-5.475341796875
0.13,1.651611328125,5.215087890625,-6.115966796875
0.1305,2.972900390625,4.013916015625,-6.396240234375
0.131,4.174072265625,2.572509765625,-6.476318359375
0.1315,5.094970703125,1.291259765625,-6.396240234375
0.132,5.535400390625,0.490478515625,-6.396240234375
0.1325,5.615478515625,-0.390380859375,-5.955810546875
0.133,5.455322265625,-1.351318359375,-5.155029296875
0.1335,5.175048828125,-2.712646484375,-3.833740234375
0.134,4.894775390625,-3.993896484375,-2.432373046875
0.1345,4.694580078125,-4.994873046875,-1.391357421875
0.135,4.454345703125,-5.715576171875,-0.630615234375
0.1355,3.693603515625,-6.035888671875,0.330322265625
0.136,2.492431640625,-6.156005859375,1.611572265625
0.1365,1.010986328125,-6.316162109375,3.133056640625
0.137,-0.270263671875,-6.396240234375,4.454345703125
0.1375,-0.950927734375,-6.516357421875,5.335205078125
0.138,-1.751708984375,-6.276123046875,6.055908203125
0.1385,-2.872802734375,-5.475341796875,6.536376953125
0.139,-4.234130859375,-3.993896484375,6.696533203125
0.1395,-5.355224609375,-2.432373046875,6.576416015625
0.14,-6.035888671875,-1.271240234375,6.416259765625
0.1405,-6.276123046875,-0.590576171875,6.256103515625
0.141,-6.115966796875,0.370361328125,5.615478515625
0.1415,-5.835693359375,1.571533203125,4.414306640625
0.142,-5.515380859375,2.892822265625,2.972900390625
0.1425,-5.155029296875,4.134033203125,1.571533203125
0.143,-4.914794921875,4.974853515625,0.730712890625
0.1435,-4.434326171875,5.415283203125,-0.190185546875
0.144,-3.553466796875,5.655517578125,-1.151123046875
0.1445,-2.072021484375,5.735595703125,-2.632568359375
0.145,-0.670654296875,5.735595703125,-4.114013671875
0.1455,0.410400390625,5.815673828125,-5.235107421875
0.146,1.051025390625,5.895751953125,-6.035888671875
0.1465,2.011962890625,5.375244140625,-6.596435546875
0.147,3.333251953125,4.174072265625,-6.916748046875
0.1475,4.534423828125,2.692626953125,-6.916748046875
0.148,5.575439453125,1.131103515625,-6.756591796875
0.1485,6.015869140625,0.210205078125,-6.596435546875
0.149,6.095947265625,-0.630615234375,-6.276123046875
0.1495,5.895751953125,-1.591552734375,-5.435302734375
0.15,5.495361328125,-2.872802734375,-4.033935546875
0.1505,5.094970703125,-4.234130859375,-2.512451171875
0.151,4.774658203125,-5.355224609375,-1.271240234375
0.1515,4.494384765625,-6.075927734375,-0.470458984375
0.152,3.813720703125,-6.356201171875,0.490478515625
0.1525,2.652587890625,-6.556396484375,1.651611328125
0.153,1.131103515625,-6.556396484375,3.173095703125
0.1535,-0.430419921875,-6.476318359375,4.614501953125
0.154,-1.151123046875,-6.556396484375,5.535400390625
0.1545,-1.831787109375,-6.476318359375,6.256103515625
0.155,-2.872802734375,-5.755615234375,6.696533203125
0.1555,-4.194091796875,-4.354248046875,6.936767578125
0.156,-5.395263671875,-2.752685546875,6.816650390625
0.1565,-6.196044921875,-1.391357421875,6.576416015625
0.157,-6.476318359375,-0.590576171875,6.416259765625
0.1575,-6.396240234375,0.290283203125,5.895751953125
0.158,-6.156005859375,1.291259765625,4.934814453125
0.1585,-5.755615234375,2.652587890625,3.493408203125
0.159,-5.315185546875,3.973876953125,1.931884765625
0.1595,-4.994873046875,4.934814453125,0.890869140625
0.16,-4.674560546875,5.495361328125,0.090087890625
0.1605,-3.873779296875,5.655517578125,-0.910888671875
0.161,-2.552490234375,5.775634765625,-2.232177734375
0.1615,-1.071044921875,5.815673828125,-3.713623046875
0.162,0.250244140625,5.815673828125,-4.994873046875
0.1625,0.890869140625,5.935791015625,-5.795654296875
0.163,1.691650390625,5.735595703125,-6.476318359375
0.1635,2.772705078125,4.814697265625,-6.876708984375
0.164,4.134033203125,3.293212890625,-6.996826171875
0.1645,5.255126953125,1.691650390625,-6.836669921875
0.165,5.895751953125,0.530517578125,-6.676513671875
0.1655,6.095947265625,-0.310302734375,-6.436279296875
0.166,5.935791015625,-1.151123046875,-5.795654296875
0.1665,5.615478515625,-2.272216796875,-4.634521484375
0.167,5.215087890625,-3.633544921875,-3.153076171875
0.1675,4.854736328125,-4.874755859375,-1.751708984375
0.168,4.614501953125,-5.715576171875,-0.830810546875
0.1685,4.174072265625,-6.236083984375,0.010009765625
0.169,3.253173828125,-6.436279296875,0.970947265625
0.1695,1.891845703125,-6.476318359375,2.412353515625
0.17,0.290283203125,-6.436279296875,3.973876953125
0.1705,-0.790771484375,-6.516357421875,5.094970703125
0.171,-1.391357421875,-6.596435546875,5.895751953125
0.1715,-2.272216796875,-6.156005859375,6.456298828125
0.172,-3.513427734375,-5.074951171875,6.776611328125
0.1725,-4.794677734375,-3.553466796875,6.776611328125
0.173,-5.795654296875,-1.991943359375,6.656494140625
0.1735,-6.316162109375,-0.990966796875,6.536376953125
0.174,-6.396240234375,-0.310302734375,6.216064453125
0.1745,-6.236083984375,0.690673828125,5.455322265625
0.175,-5.915771484375,1.971923828125,4.134033203125
0.1755,-5.515380859375,3.373291015625,2.612548828125
0.176,-5.195068359375,4.534423828125,1.331298828125
0.1765,-4.954833984375,5.255126953125,0.490478515625
0.177,-4.354248046875,5.615478515625,-0.430419921875
0.1775,-3.233154296875,5.775634765625,-1.551513671875
0.178,-1.751708984375,5.895751953125,-3.153076171875
0.1785,-0.270263671875,5.895751953125,-4.554443359375
0.179,0.610595703125,5.975830078125,-5.595458984375
0.1795,1.291259765625,5.935791015625,-6.316162109375
0.18,2.372314453125,5.255126953125,-6.796630859375
0.1805,3.773681640625,3.853759765625,-7.076904296875
0.181,4.934814453125,2.252197265625,-6.996826171875
0.1815,5.775634765625,0.850830078125,-6.756591796875
0.182,6.135986328125,0.010009765625,-6.596435546875
0.1825,6.095947265625,-0.910888671875,-6.115966796875
0.183,5.815673828125,-1.951904296875,-5.114990234375
0.1835,5.415283203125,-3.273193359375,-3.633544921875
0.184,5.014892578125,-4.594482421875,-2.072021484375
0.1845,4.654541015625,-5.595458984375,-1.031005859375
0.185,4.334228515625,-6.196044921875,-0.270263671875
0.1855,3.533447265625,-6.356201171875,0.730712890625
0.186,2.252197265625,-6.436279296875,2.011962890625
0.1865,0.690673828125,-6.436279296875,3.573486328125
0.187,-0.630615234375,-6.396240234375,4.814697265625
0.1875,-1.271240234375,-6.516357421875,5.655517578125
0.188,-1.991943359375,-6.316162109375,6.296142578125
