wavelength,x,y,z
0.0,4.74462890625,-5.50537109375,-1.14111328125
0.0005,4.34423828125,-6.10595703125,-0.38037109375
0.001,3.50341796875,-6.22607421875,0.58056640625
0.0015,2.22216796875,-6.26611328125,1.78173828125
0.002,0.78076171875,-6.42626953125,3.46337890625
0.0025,-0.50048828125,-6.46630859375,4.74462890625
0.003,-1.14111328125,-6.66650390625,5.58544921875
0.0035,-1.78173828125,-6.42626953125,6.14599609375
0.004,-2.86279296875,-5.42529296875,6.42626953125
0.0045,-4.18408203125,-4.02392578125,6.58642578125
0.005,-5.42529296875,-2.54248046875,6.70654296875
0.0055,-6.10595703125,-1.46142578125,6.58642578125
0.006,-6.22607421875,-0.82080078125,6.42626953125
0.0065,-6.06591796875,0.02001953125,5.78564453125
0.007,-5.70556640625,1.14111328125,4.66455078125
0.0075,-5.50537109375,2.54248046875,3.30322265625
0.008,-5.26513671875,3.86376953125,1.98193359375
0.0085,-5.10498046875,4.66455078125,1.14111328125
0.009,-4.62451171875,5.14501953125,0.34033203125
0.0095,-3.78369140625,5.30517578125,-0.66064453125
0.01,-2.42236328125,5.50537109375,-2.06201171875
0.0105,-0.98095703125,5.74560546875,-3.74365234375
0.011,0.02001953125,5.90576171875,-4.82470703125
0.0115,0.62060546875,6.06591796875,-5.70556640625
0.012,1.50146484375,5.62548828125,-6.22607421875
0.0125,2.74267578125,4.46435546875,-6.42626953125
0.013,4.02392578125,3.06298828125,-6.70654296875
0.0135,5.14501953125,1.62158203125,-6.66650390625
0.014,5.66552734375,0.78076171875,-6.66650390625
0.0145,5.74560546875,0.06005859375,-6.38623046875
0.015,5.46533203125,-0.86083984375,-5.58544921875
0.0155,5.18505859375,-2.02197265625,-4.38427734375
0.016,5.02490234375,-3.54345703125,-2.94287109375
0.0165,4.82470703125,-4.66455078125,-1.86181640625
0.017,4.58447265625,-5.42529296875,-1.06103515625
0.0175,3.98388671875,-5.74560546875,-0.34033203125
0.018,2.98291015625,-5.82568359375,0.82080078125
0.0185,1.66162109375,-6.06591796875,2.30224609375
0.019,0.34033203125,-6.22607421875,3.82373046875
0.0195,-0.46044921875,-6.42626953125,4.78466796875
0.02,-1.10107421875,-6.46630859375,5.46533203125
0.0205,-1.98193359375,-5.82568359375,5.90576171875
0.021,-3.22314453125,-4.62451171875,6.10595703125
0.0215,-4.50439453125,-3.26318359375,6.34619140625
0.022,-5.38525390625,-2.10205078125,6.34619140625
0.0225,-5.74560546875,-1.42138671875,6.34619140625
0.023,-5.74560546875,-0.74072265625,5.94580078125
0.0235,-5.46533203125,0.26025390625,5.10498046875
0.024,-5.30517578125,1.38134765625,4.02392578125
0.0245,-5.14501953125,2.82275390625,2.66259765625
0.025,-5.02490234375,3.82373046875,1.70166015625
0.0255,-4.82470703125,4.46435546875,1.02099609375
0.026,-4.18408203125,4.82470703125,0.30029296875
0.0265,-3.14306640625,4.98486328125,-0.98095703125
0.027,-1.94189453125,5.30517578125,-2.46240234375
0.0275,-0.78076171875,5.50537109375,-3.78369140625
0.028,-0.14013671875,5.78564453125,-4.74462890625
0.0285,0.62060546875,5.74560546875,-5.42529296875
0.029,1.58154296875,5.02490234375,-5.78564453125
0.0295,2.86279296875,3.86376953125,-6.10595703125
0.03,4.14404296875,2.54248046875,-6.26611328125
0.0305,4.90478515625,1.54150390625,-6.34619140625
0.031,5.22509765625,0.90087890625,-6.34619140625
0.0315,5.18505859375,0.14013671875,-5.90576171875
0.032,4.98486328125,-0.90087890625,-5.02490234375
0.0325,4.86474609375,-2.22216796875,-3.86376953125
0.033,4.78466796875,-3.54345703125,-2.70263671875
0.0335,4.62451171875,-4.46435546875,-1.86181640625
0.034,4.42431640625,-5.02490234375,-1.22119140625
0.0345,3.70361328125,-5.30517578125,-0.30029296875
0.035,2.62255859375,-5.54541015625,0.98095703125
0.0355,1.38134765625,-5.82568359375,2.50244140625
0.036,0.50048828125,-6.10595703125,3.66357421875
0.0365,-0.18017578125,-6.42626953125,4.54443359375
0.037,-0.98095703125,-6.18603515625,5.18505859375
0.0375,-2.06201171875,-5.30517578125,5.50537109375
0.038,-3.34326171875,-4.18408203125,5.82568359375
0.0385,-4.50439453125,-2.90283203125,6.02587890625
0.039,-5.14501953125,-2.10205078125,6.10595703125
0.0395,-5.34521484375,-1.50146484375,6.06591796875
0.04,-5.26513671875,-0.78076171875,5.54541015625
0.0405,-5.14501953125,0.30029296875,4.62451171875
0.041,-5.10498046875,1.62158203125,3.50341796875
0.0415,-5.06494140625,2.82275390625,2.46240234375
0.042,-4.94482421875,3.70361328125,1.78173828125
0.0425,-4.54443359375,4.18408203125,1.10107421875
0.043,-3.82373046875,4.50439453125,0.14013671875
0.0435,-2.82275390625,4.86474609375,-1.26123046875
0.044,-1.62158203125,5.14501953125,-2.70263671875
0.0445,-0.90087890625,5.54541015625,-3.78369140625
0.045,-0.30029296875,5.74560546875,-4.62451171875
0.0455,0.70068359375,5.42529296875,-5.18505859375
0.046,1.86181640625,4.46435546875,-5.54541015625
0.0465,3.18310546875,3.26318359375,-5.90576171875
0.047,4.14404296875,2.14208984375,-6.10595703125
0.0475,4.74462890625,1.46142578125,-6.26611328125
0.048,4.86474609375,0.82080078125,-6.02587890625
0.0485,4.82470703125,0.02001953125,-5.42529296875
0.049,4.78466796875,-1.22119140625,-4.54443359375
0.0495,4.66455078125,-2.58251953125,-3.38330078125
0.05,4.66455078125,-3.58349609375,-2.50244140625
0.0505,4.62451171875,-4.42431640625,-1.86181640625
0.051,4.14404296875,-4.82470703125,-1.10107421875
0.0515,3.22314453125,-5.14501953125,0.10009765625
0.052,2.18212890625,-5.62548828125,1.50146484375
0.0525,1.14111328125,-5.90576171875,2.86279296875
0.053,0.46044921875,-6.26611328125,3.86376953125
0.0535,-0.34033203125,-6.34619140625,4.62451171875
0.054,-1.30126953125,-5.74560546875,5.14501953125
0.0545,-2.54248046875,-4.74462890625,5.54541015625
0.055,-3.86376953125,-3.50341796875,5.82568359375
0.0555,-4.70458984375,-2.54248046875,6.02587890625
0.056,-5.14501953125,-1.94189453125,6.10595703125
0.0565,-5.18505859375,-1.26123046875,5.74560546875
0.057,-5.06494140625,-0.34033203125,4.98486328125
0.0575,-5.10498046875,0.94091796875,4.02392578125
0.058,-5.06494140625,2.34228515625,2.86279296875
0.0585,-4.98486328125,3.30322265625,2.06201171875
0.059,-4.82470703125,3.98388671875,1.42138671875
0.0595,-4.18408203125,4.34423828125,0.58056640625
0.06,-3.18310546875,4.70458984375,-0.78076171875
0.0605,-2.06201171875,5.10498046875,-2.26220703125
0.061,-1.18115234375,5.42529296875,-3.46337890625
0.0615,-0.50048828125,5.74560546875,-4.46435546875
0.062,0.38037109375,5.58544921875,-5.10498046875
0.0625,1.54150390625,4.74462890625,-5.50537109375
0.063,2.86279296875,3.58349609375,-5.90576171875
0.0635,4.06396484375,2.30224609375,-6.10595703125
0.064,4.70458984375,1.46142578125,-6.22607421875
0.0645,4.98486328125,0.78076171875,-6.14599609375
0.065,4.94482421875,0.02001953125,-5.58544921875
0.0655,4.74462890625,-1.14111328125,-4.66455078125
0.066,4.74462890625,-2.50244140625,-3.50341796875
0.0665,4.74462890625,-3.70361328125,-2.46240234375
0.067,4.58447265625,-4.50439453125,-1.66162109375
0.0675,4.18408203125,-4.98486328125,-0.98095703125
0.068,3.34326171875,-5.26513671875,0.10009765625
0.0685,2.26220703125,-5.58544921875,1.42138671875
0.069,1.02099609375,-5.86572265625,2.90283203125
0.0695,0.30029296875,-6.22607421875,3.94384765625
0.07,-0.42041015625,-6.38623046875,4.82470703125
0.0705,-1.34130859375,-5.90576171875,5.30517578125
0.071,-2.58251953125,-4.82470703125,5.62548828125
0.0715,-3.86376953125,-3.54345703125,5.94580078125
0.072,-4.86474609375,-2.42236328125,6.10595703125
0.0725,-5.34521484375,-1.74169921875,6.10595703125
0.073,-5.42529296875,-1.14111328125,5.86572265625
0.0735,-5.30517578125,-0.26025390625,5.10498046875
0.074,-5.14501953125,1.06103515625,4.10400390625
0.0745,-5.10498046875,2.46240234375,2.86279296875
0.075,-4.98486328125,3.54345703125,1.94189453125
0.0755,-4.82470703125,4.22412109375,1.26123046875
0.076,-4.18408203125,4.54443359375,0.46044921875
0.0765,-3.18310546875,4.78466796875,-0.78076171875
0.077,-2.06201171875,5.22509765625,-2.26220703125
0.0775,-0.98095703125,5.42529296875,-3.62353515625
0.078,-0.34033203125,5.74560546875,-4.54443359375
0.0785,0.50048828125,5.74560546875,-5.30517578125
0.079,1.58154296875,4.98486328125,-5.74560546875
0.0795,2.90283203125,3.74365234375,-6.06591796875
0.08,4.18408203125,2.38232421875,-6.26611328125
0.0805,4.94482421875,1.34130859375,-6.38623046875
0.081,5.26513671875,0.66064453125,-6.30615234375
0.0815,5.14501953125,-0.18017578125,-5.78564453125
0.082,4.98486328125,-1.14111328125,-4.82470703125
0.0825,4.90478515625,-2.50244140625,-3.70361328125
0.083,4.78466796875,-3.82373046875,-2.42236328125
0.0835,4.62451171875,-4.70458984375,-1.58154296875
0.084,4.34423828125,-5.30517578125,-0.90087890625
0.0845,3.50341796875,-5.46533203125,0.10009765625
0.085,2.30224609375,-5.70556640625,1.42138671875
0.0855,1.02099609375,-6.02587890625,3.02294921875
0.086,0.14013671875,-6.26611328125,4.14404296875
0.0865,-0.62060546875,-6.46630859375,5.02490234375
0.087,-1.42138671875,-6.10595703125,5.58544921875
0.0875,-2.62255859375,-5.06494140625,5.90576171875
0.088,-3.98388671875,-3.78369140625,6.18603515625
0.0885,-5.10498046875,-2.46240234375,6.30615234375
0.089,-5.66552734375,-1.58154296875,6.34619140625
0.0895,-5.82568359375,-0.98095703125,6.10595703125
0.09,-5.58544921875,0.02001953125,5.34521484375
0.0905,-5.38525390625,1.14111328125,4.22412109375
0.091,-5.26513671875,2.62255859375,2.94287109375
0.0915,-5.10498046875,3.86376953125,1.78173828125
0.092,-4.94482421875,4.58447265625,1.02099609375
0.0925,-4.38427734375,4.98486328125,0.30029296875
0.093,-3.34326171875,5.14501953125,-0.90087890625
0.0935,-2.06201171875,5.42529296875,-2.42236328125
0.094,-0.78076171875,5.66552734375,-3.98388671875
0.0945,0.10009765625,5.90576171875,-5.02490234375
0.095,0.78076171875,5.90576171875,-5.74560546875
0.0955,1.82177734375,5.18505859375,-6.22607421875
0.096,3.18310546875,3.86376953125,-6.46630859375
0.0965,4.54443359375,2.38232421875,-6.66650390625
0.097,5.46533203125,1.10107421875,-6.66650390625
0.0975,5.74560546875,0.34033203125,-6.58642578125
0.098,5.74560546875,-0.50048828125,-6.10595703125
0.0985,5.42529296875,-1.50146484375,-5.02490234375
0.099,5.14501953125,-2.86279296875,-3.70361328125
0.0995,5.02490234375,-4.38427734375,-2.22216796875
0.1,4.78466796875,-5.34521484375,-1.22119140625
0.1005,4.42431640625,-5.90576171875,-0.50048828125
0.101,3.54345703125,-6.10595703125,0.50048828125
0.1015,2.22216796875,-6.14599609375,1.86181640625
0.102,0.78076171875,-6.38623046875,3.54345703125
0.1025,-0.50048828125,-6.46630859375,4.82470703125
0.103,-1.14111328125,-6.66650390625,5.70556640625
0.1035,-1.90185546875,-6.34619140625,6.26611328125
0.104,-3.06298828125,-5.22509765625,6.50634765625
0.1045,-4.42431640625,-3.82373046875,6.70654296875
0.105,-5.70556640625,-2.30224609375,6.74658203125
0.1055,-6.26611328125,-1.22119140625,6.58642578125
0.106,-6.34619140625,-0.50048828125,6.34619140625
0.1065,-6.10595703125,0.42041015625,5.62548828125
0.107,-5.70556640625,1.62158203125,4.30419921875
0.1075,-5.46533203125,3.02294921875,2.90283203125
0.108,-5.22509765625,4.34423828125,1.54150390625
0.1085,-4.94482421875,5.10498046875,0.66064453125
0.109,-4.42431640625,5.50537109375,-0.18017578125
0.1095,-3.38330078125,5.58544921875,-1.14111328125
0.11,-1.94189453125,5.70556640625,-2.62255859375
0.1105,-0.54052734375,5.90576171875,-4.30419921875
0.111,0.50048828125,5.94580078125,-5.38525390625
0.1115,1.14111328125,6.06591796875,-6.10595703125
0.112,1.98193359375,5.46533203125,-6.58642578125
0.1125,3.26318359375,4.14404296875,-6.78662109375
0.113,4.58447265625,2.66259765625,-6.94677734375
0.1135,5.66552734375,1.14111328125,-6.90673828125
0.114,6.10595703125,0.30029296875,-6.74658203125
0.1145,6.06591796875,-0.58056640625,-6.38623046875
0.115,5.74560546875,-1.42138671875,-5.46533203125
0.1155,5.34521484375,-2.70263671875,-4.06396484375
0.116,5.10498046875,-4.22412109375,-2.54248046875
0.1165,4.86474609375,-5.34521484375,-1.34130859375
0.117,4.50439453125,-5.98583984375,-0.58056640625
0.1175,3.86376953125,-6.26611328125,0.30029296875
0.118,2.66259765625,-6.26611328125,1.42138671875
0.1185,1.18115234375,-6.42626953125,3.06298828125
0.119,-0.34033203125,-6.54638671875,4.62451171875
0.1195,-1.06103515625,-6.66650390625,5.50537109375
0.12,-1.66162109375,-6.58642578125,6.14599609375
0.1205,-2.70263671875,-5.82568359375,6.54638671875
0.121,-4.02392578125,-4.38427734375,6.70654296875
0.1215,-5.34521484375,-2.90283203125,6.78662109375
0.122,-6.14599609375,-1.54150390625,6.70654296875
0.1225,-6.42626953125,-0.78076171875,6.58642578125
0.123,-6.30615234375,0.06005859375,6.02587890625
0.1235,-5.90576171875,1.10107421875,4.94482421875
0.124,-5.62548828125,2.38232421875,3.58349609375
0.1245,-5.42529296875,3.94384765625,2.06201171875
0.125,-5.14501953125,4.86474609375,1.02099609375
0.1255,-4.74462890625,5.42529296875,0.30029296875
0.126,-3.90380859375,5.62548828125,-0.66064453125
0.1265,-2.58251953125,5.62548828125,-1.98193359375
0.127,-1.14111328125,5.90576171875,-3.66357421875
0.1275,0.18017578125,5.94580078125,-5.02490234375
0.128,0.82080078125,6.10595703125,-5.90576171875
0.1285,1.58154296875,5.82568359375,-6.42626953125
0.129,2.70263671875,4.78466796875,-6.74658203125
0.1295,4.10400390625,3.26318359375,-6.98681640625
0.13,5.42529296875,1.74169921875,-7.02685546875
0.1305,6.02587890625,0.62060546875,-6.86669921875
0.131,6.14599609375,-0.22021484375,-6.66650390625
0.1315,5.94580078125,-1.06103515625,-5.90576171875
0.132,5.54541015625,-2.26220703125,-4.58447265625
0.1325,5.30517578125,-3.70361328125,-3.18310546875
0.133,5.06494140625,-5.10498046875,-1.74169921875
0.1335,4.74462890625,-5.90576171875,-0.78076171875
0.134,4.22412109375,-6.34619140625,0.06005859375
0.1345,3.18310546875,-6.38623046875,1.02099609375
0.135,1.66162109375,-6.46630859375,2.58251953125
0.1355,0.14013671875,-6.62646484375,4.30419921875
0.136,-0.94091796875,-6.70654296875,5.38525390625
0.1365,-1.54150390625,-6.78662109375,6.18603515625
0.137,-2.42236328125,-6.26611328125,6.62646484375
0.1375,-3.74365234375,-4.94482421875,6.78662109375
0.138,-5.06494140625,-3.34326171875,6.98681640625
0.1385,-6.14599609375,-1.82177734375,6.90673828125
0.139,-6.62646484375,-0.82080078125,6.70654296875
0.1395,-6.54638671875,-0.14013671875,6.34619140625
0.14,-6.26611328125,0.86083984375,5.42529296875
0.1405,-5.78564453125,2.18212890625,3.94384765625
0.141,-5.58544921875,3.74365234375,2.42236328125
0.1415,-5.26513671875,4.86474609375,1.18115234375
0.142,-4.90478515625,5.54541015625,0.34033203125
0.1425,-4.18408203125,5.78564453125,-0.58056640625
0.143,-2.98291015625,5.78564453125,-1.70166015625
0.1435,-1.42138671875,5.90576171875,-3.34326171875
0.144,0.10009765625,6.02587890625,-4.90478515625
0.1445,0.90087890625,6.10595703125,-5.82568359375
0.145,1.46142578125,6.02587890625,-6.50634765625
0.1455,2.46240234375,5.14501953125,-6.86669921875
0.146,3.86376953125,3.70361328125,-6.98681640625
0.1465,5.10498046875,2.18212890625,-7.06689453125
0.147,5.94580078125,0.82080078125,-6.90673828125
0.1475,6.22607421875,0.02001953125,-6.70654296875
0.148,6.06591796875,-0.82080078125,-6.14599609375
0.1485,5.70556640625,-1.78173828125,-5.14501953125
0.149,5.30517578125,-3.14306640625,-3.66357421875
0.1495,5.06494140625,-4.62451171875,-2.14208984375
0.15,4.74462890625,-5.62548828125,-1.06103515625
0.1505,4.42431640625,-6.10595703125,-0.34033203125
0.151,3.54345703125,-6.26611328125,0.58056640625
0.1515,2.26220703125,-6.26611328125,1.78173828125
0.152,0.82080078125,-6.42626953125,3.42333984375
0.1525,-0.58056640625,-6.54638671875,4.78466796875
0.153,-1.22119140625,-6.66650390625,5.62548828125
0.1535,-1.86181640625,-6.50634765625,6.14599609375
0.154,-2.86279296875,-5.50537109375,6.46630859375
0.1545,-4.14404296875,-4.10400390625,6.58642578125
0.155,-5.42529296875,-2.62255859375,6.70654296875
0.1555,-6.10595703125,-1.46142578125,6.58642578125
0.156,-6.26611328125,-0.82080078125,6.46630859375
0.1565,-6.10595703125,0.02001953125,5.82568359375
0.157,-5.70556640625,1.02099609375,4.74462890625
0.1575,-5.46533203125,2.38232421875,3.46337890625
0.158,-5.26513671875,3.82373046875,2.06201171875
0.1585,-5.06494140625,4.66455078125,1.14111328125
0.159,-4.66455078125,5.22509765625,0.42041015625
0.1595,-3.86376953125,5.42529296875,-0.58056640625
0.16,-2.54248046875,5.46533203125,-1.94189453125
0.1605,-1.14111328125,5.74560546875,-3.54345703125
0.161,0.02001953125,5.82568359375,-4.78466796875
0.1615,0.62060546875,6.06591796875,-5.70556640625
0.162,1.42138671875,5.74560546875,-6.18603515625
0.1625,2.54248046875,4.66455078125,-6.42626953125
0.163,3.90380859375,3.26318359375,-6.70654296875
0.1635,5.10498046875,1.78173828125,-6.70654296875
0.164,5.66552734375,0.86083984375,-6.66650390625
0.1645,5.78564453125,0.14013671875,-6.46630859375
0.165,5.58544921875,-0.78076171875,-5.70556640625
0.1655,5.22509765625,-1.90185546875,-4.50439453125
0.166,5.10498046875,-3.38330078125,-3.14306640625
0.1665,4.86474609375,-4.62451171875,-1.90185546875
0.167,4.62451171875,-5.42529296875,-1.10107421875
0.1675,4.14404296875,-5.78564453125,-0.34033203125
0.168,3.14306640625,-5.90576171875,0.78076171875
0.1685,1.78173828125,-6.10595703125,2.18212890625
0.169,0.38037109375,-6.30615234375,3.78369140625
0.1695,-0.50048828125,-6.46630859375,4.74462890625
0.17,-1.06103515625,-6.54638671875,5.50537109375
0.1705,-1.94189453125,-5.94580078125,5.90576171875
0.171,-3.18310546875,-4.74462890625,6.14599609375
0.1715,-4.50439453125,-3.38330078125,6.42626953125
0.172,-5.42529296875,-2.10205078125,6.38623046875
0.1725,-5.82568359375,-1.34130859375,6.38623046875
0.173,-5.82568359375,-0.70068359375,6.02587890625
0.1735,-5.58544921875,0.26025390625,5.18505859375
0.174,-5.30517578125,1.34130859375,4.06396484375
0.1745,-5.18505859375,2.82275390625,2.70263671875
0.175,-5.06494140625,3.86376953125,1.74169921875
0.1755,-4.82470703125,4.62451171875,0.98095703125
0.176,-4.22412109375,4.86474609375,0.26025390625
0.1765,-3.22314453125,4.98486328125,-0.90087890625
0.177,-1.98193359375,5.30517578125,-2.38232421875
0.1775,-0.78076171875,5.42529296875,-3.78369140625
0.178,0.02001953125,5.78564453125,-4.74462890625
0.1785,0.62060546875,5.82568359375,-5.46533203125
0.179,1.58154296875,5.14501953125,-5.82568359375
0.1795,2.82275390625,3.98388671875,-6.10595703125
0.18,4.10400390625,2.62255859375,-6.34619140625
0.1805,4.94482421875,1.54150390625,-6.38623046875
0.181,5.26513671875,0.86083984375,-6.38623046875
0.1815,5.26513671875,0.18017578125,-5.98583984375
0.182,5.06494140625,-0.82080078125,-5.14501953125
0.1825,4.90478515625,-2.06201171875,-3.98388671875
0.183,4.82470703125,-3.42333984375,-2.78271484375
0.1835,4.70458984375,-4.42431640625,-1.94189453125
0.184,4.50439453125,-5.06494140625,-1.26123046875
0.1845,3.78369140625,-5.38525390625,-0.38037109375
0.185,2.74267578125,-5.62548828125,0.86083984375
0.1855,1.46142578125,-5.94580078125,2.38232421875
0.186,0.50048828125,-6.10595703125,3.62353515625
0.1865,-0.22021484375,-6.42626953125,4.54443359375
0.187,-0.94091796875,-6.30615234375,5.18505859375
0.1875,-1.98193359375,-5.50537109375,5.58544921875
0.188,-3.22314453125,-4.34423828125,5.90576171875
0.1885,-4.46435546875,-3.06298828125,6.06591796875
0.189,-5.18505859375,-2.10205078125,6.22607421875
0.1895,-5.42529296875,-1.54150390625,6.14599609375
0.19,-5.38525390625,-0.82080078125,5.62548828125
0.1905,-5.18505859375,0.26025390625,4.78466796875
0.191,-5.14501953125,1.58154296875,3.62353515625
0.1915,-5.06494140625,2.86279296875,2.50244140625
0.192,-4.98486328125,3.70361328125,1.78173828125
0.1925,-4.62451171875,4.26416015625,1.06103515625
0.193,-3.90380859375,4.54443359375,0.14013671875
0.1935,-2.90283203125,4.86474609375,-1.26123046875
0.194,-1.66162109375,5.18505859375,-2.70263671875
0.1945,-0.86083984375,5.54541015625,-3.82373046875
0.195,-0.22021484375,5.78564453125,-4.74462890625
0.1955,0.70068359375,5.46533203125,-5.26513671875
0.196,1.90185546875,4.50439453125,-5.62548828125
0.1965,3.18310546875,3.34326171875,-5.98583984375
0.197,4.22412109375,2.14208984375,-6.10595703125
0.1975,4.82470703125,1.38134765625,-6.26611328125
0.198,5.02490234375,0.74072265625,-6.10595703125
0.1985,4.86474609375,-0.14013671875,-5.46533203125
0.199,4.78466796875,-1.22119140625,-4.54443359375
