wavelength,x,y,z
0.0,6.24609375,-22.3017578125,16.255859375
0.0005,9.5693359375,-22.822265625,13.61328125
0.001,12.97265625,-22.341796875,9.9296875
0.0015,17.0966796875,-21.140625,4.8046875
0.002,20.1396484375,-19.4990234375,0.2802734375
0.0025,22.2216796875,-17.3369140625,-3.923828125
0.003,22.90234375,-14.974609375,-7.046875
0.0035,22.7421875,-11.2509765625,-10.5703125
0.004,22.3818359375,-7.20703125,-14.25390625
0.0045,21.4609375,-2.482421875,-18.09765625
0.005,19.37890625,2.4423828125,-20.5
0.0055,17.296875,5.7255859375,-22.1015625
0.006,14.734375,8.9287109375,-22.90234375
0.0065,10.5703125,12.412109375,-22.341796875
0.007,5.3251953125,16.3759765625,-21.2607421875
0.0075,0.6806640625,19.6591796875,-19.7392578125
0.008,-4.1640625,21.6611328125,-17.5771484375
0.0085,-7.20703125,22.3818359375,-15.455078125
0.009,-10.650390625,22.421875,-12.2919921875
0.0095,-14.2138671875,21.861328125,-8.48828125
0.01,-18.09765625,20.6201171875,-3.5234375
0.0105,-20.8203125,18.5380859375,1.3212890625
0.011,-22.501953125,16.5361328125,4.9248046875
0.0115,-23.0625,13.8935546875,8.087890625
0.012,-22.7421875,9.9296875,11.69140625
0.0125,-21.9814453125,5.3251953125,15.6552734375
0.013,-21.0205078125,0.9609375,19.05859375
0.0135,-18.9384765625,-3.603515625,21.5009765625
0.014,-16.65625,-6.7666015625,22.4619140625
0.0145,-13.7333984375,-10.009765625,22.90234375
0.015,-9.2890625,-13.7734375,22.341796875
0.0155,-3.84375,-17.5771484375,20.8603515625
0.016,1.12109375,-20.259765625,18.9384765625
0.0165,5.125,-22.1416015625,17.0166015625
0.017,8.248046875,-22.6220703125,14.654296875
0.0175,11.69140625,-22.3818359375,11.0908203125
0.018,15.53515625,-21.5810546875,6.7265625
0.0185,19.0185546875,-20.1796875,1.9619140625
0.019,21.4609375,-17.9375,-2.6826171875
0.0195,22.5419921875,-15.85546875,-5.765625
0.02,22.8623046875,-12.8125,-9.12890625
0.0205,22.421875,-8.6884765625,-12.8525390625
0.021,21.4609375,-3.923828125,-16.65625
0.0215,20.099609375,0.4404296875,-19.5791015625
0.022,18.09765625,4.564453125,-21.8212890625
0.0225,15.4951171875,7.6474609375,-22.3818359375
0.023,12.1318359375,10.9306640625,-22.421875
0.0235,7.4072265625,14.89453125,-21.78125
0.024,2.2421875,18.41796875,-20.33984375
0.0245,-2.6025390625,20.580078125,-18.2978515625
0.025,-6.005859375,22.0615234375,-16.3759765625
0.0255,-9.2490234375,22.3818359375,-13.7333984375
0.026,-12.732421875,21.9013671875,-9.849609375
0.0265,-16.6162109375,20.98046875,-5.28515625
0.027,-19.7392578125,19.3388671875,-0.6005859375
0.0275,-21.9013671875,17.13671875,3.763671875
0.028,-22.501953125,14.734375,6.7265625
0.0285,-22.7421875,11.37109375,10.2099609375
0.029,-22.181640625,6.966796875,14.2138671875
0.0295,-21.1806640625,2.40234375,17.8173828125
0.03,-19.298828125,-1.9619140625,20.2197265625
0.0305,-17.4970703125,-5.6455078125,22.181640625
0.031,-14.654296875,-8.6884765625,22.421875
0.0315,-10.8505859375,-12.0517578125,22.1416015625
0.032,-5.92578125,-15.935546875,21.220703125
0.0325,-0.6806640625,-19.2587890625,19.5791015625
0.033,3.84375,-21.1806640625,17.296875
0.0335,6.7666015625,-22.0615234375,15.375
0.034,10.2099609375,-22.26171875,12.4521484375
0.0345,13.8935546875,-21.5009765625,8.248046875
0.035,17.376953125,-20.3798828125,3.8037109375
0.0355,20.1396484375,-18.4580078125,-0.80078125
0.036,21.9814453125,-16.4560546875,-4.64453125
0.0365,22.1416015625,-13.7333984375,-7.52734375
0.037,22.1416015625,-10.25,-11.0107421875
0.0375,21.4609375,-5.6455078125,-14.974609375
0.038,20.4599609375,-1.2412109375,-18.337890625
0.0385,18.3779296875,2.9228515625,-20.4599609375
0.039,16.4560546875,6.166015625,-21.78125
0.0395,13.4130859375,9.3291015625,-22.1015625
0.04,8.96875,13.052734375,-21.5009765625
0.0405,4.32421875,16.49609375,-20.4599609375
0.041,-0.640625,19.37890625,-18.6181640625
0.0415,-4.724609375,21.1806640625,-16.6962890625
0.042,-7.4873046875,21.541015625,-14.4541015625
0.0425,-10.7705078125,21.701171875,-11.5712890625
0.043,-14.8544921875,20.7802734375,-6.7666015625
0.0435,-18.0576171875,19.4990234375,-2.3623046875
0.044,-20.33984375,17.537109375,1.841796875
0.0445,-21.8212890625,15.615234375,5.205078125
0.045,-21.861328125,12.6123046875,8.2880859375
0.0455,-21.701171875,8.6484375,12.0517578125
0.046,-20.900390625,4.32421875,15.615234375
0.0465,-19.69921875,0.0,18.818359375
0.047,-17.6572265625,-4.0439453125,20.7802734375
0.0475,-15.53515625,-6.8466796875,21.4609375
0.048,-12.572265625,-10.0498046875,21.8212890625
0.0485,-7.4072265625,-14.1337890625,20.9404296875
0.049,-2.8427734375,-17.296875,19.6591796875
0.0495,1.6416015625,-19.619140625,17.77734375
0.05,5.2451171875,-21.1806640625,16.0556640625
0.0505,8.087890625,-21.220703125,13.4130859375
0.051,11.37109375,-21.1005859375,10.2900390625
0.0515,15.3349609375,-20.33984375,5.685546875
0.052,18.337890625,-18.73828125,1.12109375
0.0525,20.2998046875,-16.81640625,-2.6826171875
0.053,21.1806640625,-14.7744140625,-5.5654296875
0.0535,21.2607421875,-11.69140625,-8.728515625
0.054,20.8603515625,-7.20703125,-12.8125
0.0545,20.099609375,-3.283203125,-15.9755859375
0.055,18.6181640625,0.8408203125,-18.578125
0.0555,16.896484375,4.5244140625,-20.5400390625
0.056,14.1337890625,7.287109375,-20.7001953125
0.0565,11.1708984375,10.3701171875,-20.900390625
0.057,6.005859375,14.494140625,-20.0595703125
0.0575,1.28125,17.45703125,-18.578125
0.058,-2.5625,19.3388671875,-16.81640625
0.0585,-5.685546875,20.6201171875,-15.1748046875
0.059,-8.6083984375,20.5400390625,-12.4521484375
0.0595,-12.2919921875,20.1396484375,-8.48828125
0.06,-15.4150390625,19.458984375,-4.5244140625
0.0605,-18.4580078125,17.6572265625,-0.16015625
0.061,-20.2197265625,15.85546875,3.443359375
0.0615,-20.5400390625,13.4130859375,6.2060546875
0.062,-20.7802734375,10.490234375,9.3291015625
0.0625,-20.2197265625,5.7255859375,13.533203125
0.063,-19.298828125,1.76171875,16.6162109375
0.0635,-17.7373046875,-1.921875,18.6982421875
0.064,-16.17578125,-5.1650390625,20.4599609375
0.0645,-13.212890625,-8.0478515625,20.419921875
0.065,-9.4892578125,-11.4912109375,20.1796875
0.0655,-4.9248046875,-15.0947265625,19.37890625
0.066,0.0,-17.857421875,17.6171875
0.0665,3.4833984375,-19.4990234375,15.9755859375
0.067,6.2060546875,-20.099609375,14.1337890625
0.0675,9.1689453125,-20.33984375,11.53125
0.068,13.212890625,-19.4990234375,6.88671875
0.0685,16.1357421875,-18.498046875,3.0830078125
0.069,18.41796875,-16.9365234375,-0.720703125
0.0695,19.8994140625,-15.21484375,-3.8837890625
0.07,19.8994140625,-12.3720703125,-6.6865234375
0.0705,19.9794921875,-9.12890625,-10.009765625
0.071,19.458984375,-4.884765625,-13.7734375
0.0715,18.41796875,-0.80078125,-16.736328125
0.072,16.65625,2.5625,-18.4580078125
0.0725,14.974609375,5.365234375,-19.619140625
0.073,12.171875,8.2880859375,-19.859375
0.0735,7.447265625,12.171875,-19.1787109375
0.074,3.5634765625,15.21484375,-18.41796875
0.0745,-0.80078125,17.6171875,-16.736328125
0.075,-4.00390625,19.1787109375,-15.294921875
0.0755,-6.6064453125,19.2587890625,-12.97265625
0.076,-9.5693359375,19.4990234375,-10.4501953125
0.0765,-13.5732421875,18.6982421875,-5.8857421875
0.077,-16.3759765625,17.4169921875,-1.841796875
0.0775,-18.177734375,15.935546875,1.4013671875
0.078,-19.37890625,14.173828125,4.32421875
0.0785,-19.37890625,11.37109375,7.0869140625
0.079,-19.2587890625,7.447265625,10.890625
0.0795,-18.6982421875,4.00390625,14.173828125
0.08,-17.6572265625,-0.16015625,16.8564453125
0.0805,-16.015625,-3.4033203125,18.578125
0.081,-13.9736328125,-5.92578125,19.05859375
0.0815,-11.4111328125,-8.888671875,19.458984375
0.082,-6.24609375,-12.9326171875,18.578125
0.0825,-2.1220703125,-15.6953125,17.4169921875
0.083,1.44140625,-17.6572265625,15.9755859375
0.0835,4.484375,-19.05859375,14.654296875
0.084,7.2470703125,-18.978515625,12.01171875
0.0845,10.490234375,-18.8583984375,8.80859375
0.085,14.013671875,-18.2978515625,4.9248046875
0.0855,16.65625,-16.7763671875,0.8408203125
0.086,18.2177734375,-15.3349609375,-2.162109375
0.0865,18.818359375,-13.2529296875,-4.8046875
0.087,19.0986328125,-10.6103515625,-7.6875
0.0875,18.6982421875,-6.1259765625,-11.8115234375
0.088,18.0576171875,-2.6826171875,-14.734375
0.0885,16.9365234375,0.80078125,-16.9765625
0.089,15.4951171875,3.84375,-18.658203125
0.0895,12.732421875,6.6064453125,-18.658203125
0.09,9.609375,9.849609375,-18.8984375
0.0905,5.044921875,13.5732421875,-18.2578125
0.091,0.640625,16.2958984375,-16.6962890625
0.0915,-2.40234375,17.857421875,-15.455078125
0.092,-5.1650390625,18.8583984375,-13.93359375
0.0925,-8.0078125,18.8984375,-11.37109375
0.093,-11.8916015625,18.337890625,-7.0869140625
0.0935,-14.89453125,17.6572265625,-3.5634765625
0.094,-17.2568359375,16.17578125,0.240234375
0.0945,-18.658203125,14.654296875,3.123046875
0.095,-18.8583984375,12.1318359375,5.8056640625
0.0955,-19.0986328125,9.2490234375,8.96875
0.096,-18.73828125,4.8447265625,13.0927734375
0.0965,-17.697265625,1.041015625,15.8154296875
0.097,-16.416015625,-2.08203125,17.6171875
0.0975,-14.974609375,-4.884765625,19.05859375
0.098,-11.9716796875,-7.7275390625,18.9384765625
0.0985,-7.8076171875,-11.4111328125,18.5380859375
0.099,-3.68359375,-14.734375,17.8974609375
0.0995,0.6806640625,-17.0966796875,16.2158203125
0.1,3.5234375,-18.41796875,14.89453125
0.1005,6.24609375,-18.8984375,12.8525390625
0.101,9.0888671875,-18.978515625,10.25
0.1015,13.1328125,-18.2578125,5.7255859375
0.102,15.8955078125,-17.056640625,1.8818359375
0.1025,17.7373046875,-15.6953125,-1.3212890625
0.103,18.818359375,-13.9736328125,-4.083984375
0.1035,18.7783203125,-11.0908203125,-6.9267578125
0.104,18.818359375,-7.5673828125,-10.3701171875
0.1045,18.41796875,-3.84375,-13.93359375
0.105,17.13671875,0.16015625,-16.5361328125
0.1055,15.615234375,3.123046875,-18.017578125
0.106,13.693359375,5.845703125,-18.8984375
0.1065,10.810546875,8.7685546875,-18.978515625
0.107,5.845703125,12.7724609375,-18.1376953125
0.1075,1.921875,15.615234375,-17.2568359375
0.108,-1.8818359375,17.6171875,-15.7353515625
0.1085,-4.64453125,18.73828125,-14.2939453125
0.109,-7.5673828125,18.73828125,-11.611328125
0.1095,-10.650390625,18.6982421875,-8.6484375
0.11,-14.2939453125,17.9375,-4.4443359375
0.1105,-16.9365234375,16.3759765625,-0.3203125
0.111,-18.3779296875,14.974609375,2.5625
0.1115,-19.1787109375,12.9326171875,5.3251953125
0.112,-19.21875,9.8896484375,8.2880859375
0.1125,-18.6982421875,5.685546875,12.171875
0.113,-18.1376953125,2.0419921875,15.21484375
0.1135,-16.8564453125,-1.6015625,17.5771484375
0.114,-15.21484375,-4.4443359375,18.818359375
0.1145,-12.6123046875,-7.20703125,19.05859375
0.115,-9.6494140625,-10.5302734375,19.1787109375
0.1155,-4.4443359375,-14.2138671875,18.09765625
0.116,-0.16015625,-16.6962890625,16.576171875
0.1165,2.962890625,-18.2978515625,15.294921875
0.117,5.765625,-19.21875,13.5732421875
0.1175,8.6484375,-18.978515625,10.73046875
0.118,12.251953125,-18.578125,6.8466796875
0.1185,15.375,-17.697265625,3.0029296875
0.119,17.6572265625,-16.015625,-0.9609375
0.1195,18.6982421875,-14.494140625,-3.4833984375
0.12,19.138671875,-12.1318359375,-6.40625
0.1205,19.05859375,-8.96875,-9.369140625
0.121,18.5380859375,-4.6044921875,-13.212890625
0.1215,17.4970703125,-0.880859375,-15.935546875
0.122,16.255859375,2.5224609375,-17.857421875
0.1225,14.4541015625,5.1650390625,-18.9384765625
0.123,11.4111328125,8.0478515625,-18.9384765625
0.1235,7.52734375,11.6513671875,-18.658203125
0.124,3.1630859375,15.0546875,-17.8173828125
0.1245,-1.201171875,17.296875,-16.015625
0.125,-3.84375,18.4580078125,-14.7744140625
0.1255,-6.6064453125,19.05859375,-12.7724609375
0.126,-9.6494140625,18.8984375,-9.76953125
0.1265,-13.4130859375,18.177734375,-5.525390625
0.127,-16.2158203125,17.056640625,-1.6416015625
0.1275,-18.2578125,15.53515625,1.8818359375
0.128,-18.9384765625,13.7734375,4.404296875
0.1285,-19.138671875,10.810546875,7.447265625
0.129,-19.05859375,7.287109375,10.8505859375
0.1295,-18.578125,3.283203125,14.4541015625
0.13,-16.9765625,-0.6005859375,16.896484375
0.1305,-15.8154296875,-3.5634765625,18.498046875
0.131,-13.8134765625,-6.326171875,19.3388671875
0.1315,-10.41015625,-9.4091796875,19.0986328125
0.132,-5.9658203125,-13.0126953125,18.41796875
0.1325,-1.6416015625,-16.1357421875,17.4169921875
0.133,2.40234375,-18.1376953125,15.6552734375
0.1335,4.9248046875,-18.978515625,14.173828125
0.134,7.927734375,-19.298828125,11.69140625
0.1345,11.130859375,-19.2587890625,8.248046875
0.135,14.734375,-18.2177734375,4.1240234375
0.1355,17.296875,-16.6962890625,0.16015625
0.136,18.8583984375,-15.2548828125,-2.9228515625
0.1365,19.4990234375,-13.0126953125,-5.7255859375
0.137,19.3388671875,-9.8095703125,-8.8486328125
0.1375,19.0185546875,-5.8056640625,-12.4521484375
0.138,18.41796875,-1.9619140625,-15.6953125
0.1385,16.7763671875,1.921875,-17.9775390625
0.139,15.0546875,4.64453125,-19.05859375
0.1395,12.65234375,7.6474609375,-19.5791015625
0.14,8.728515625,11.0908203125,-19.2587890625
0.1405,4.1240234375,14.5341796875,-18.2978515625
0.141,-0.16015625,17.13671875,-16.8564453125
0.1415,-3.68359375,18.9384765625,-15.2548828125
0.142,-6.2861328125,19.4189453125,-13.453125
0.1425,-9.3291015625,19.458984375,-10.5703125
0.143,-13.0126953125,18.9384765625,-6.6865234375
0.1435,-16.2158203125,17.8974609375,-2.5224609375
0.144,-18.4580078125,16.0556640625,1.44140625
0.1445,-19.619140625,14.4541015625,4.244140625
0.145,-20.01953125,11.8515625,7.1669921875
0.1455,-19.8193359375,8.16796875,10.6904296875
0.146,-19.1787109375,4.1240234375,14.1337890625
0.1465,-18.1376953125,0.240234375,17.0166015625
0.147,-16.5361328125,-3.4833984375,19.0986328125
0.1475,-14.4541015625,-6.005859375,19.69921875
0.148,-11.69140625,-8.96875,19.8994140625
0.1485,-7.2470703125,-12.7724609375,19.37890625
0.149,-2.5625,-16.015625,18.1376953125
0.1495,1.76171875,-18.09765625,16.3359375
0.15,4.64453125,-19.5390625,14.974609375
0.1505,7.447265625,-19.8193359375,12.65234375
0.151,10.6103515625,-19.5390625,9.4091796875
0.1515,14.2138671875,-18.9384765625,5.365234375
0.152,17.13671875,-17.6572265625,1.12109375
0.1525,19.138671875,-15.8154296875,-2.6025390625
0.153,19.8193359375,-13.853515625,-5.125
0.1535,20.01953125,-10.970703125,-8.2880859375
0.154,19.69921875,-6.9267578125,-12.0517578125
0.1545,18.978515625,-2.962890625,-15.2548828125
0.155,17.537109375,0.880859375,-17.6572265625
0.1555,16.0556640625,4.244140625,-19.5390625
0.156,13.4931640625,7.0068359375,-19.8193359375
0.1565,10.25,10.1298828125,-19.7392578125
0.157,5.7255859375,13.853515625,-19.138671875
0.1575,1.0810546875,16.9365234375,-17.8173828125
0.158,-2.8427734375,18.7783203125,-16.015625
0.1585,-5.5654296875,19.779296875,-14.4541015625
0.159,-8.6083984375,19.9794921875,-11.8916015625
0.1595,-12.2119140625,19.458984375,-7.8876953125
0.16,-15.53515625,18.6181640625,-3.9638671875
0.1605,-18.2177734375,17.0166015625,0.2802734375
0.161,-20.01953125,15.3349609375,3.763671875
0.1615,-20.33984375,12.8525390625,6.4462890625
0.162,-20.5,9.7294921875,9.7294921875
0.1625,-19.9794921875,5.365234375,13.693359375
0.163,-19.0986328125,1.28125,16.896484375
0.1635,-17.3369140625,-2.482421875,18.8984375
0.164,-15.8154296875,-5.4853515625,20.419921875
0.1645,-12.892578125,-8.48828125,20.580078125
0.165,-8.6884765625,-12.091796875,20.099609375
0.1655,-4.244140625,-15.4951171875,19.21875
0.166,0.6005859375,-18.2978515625,17.537109375
0.1665,4.2841796875,-20.01953125,15.8154296875
0.167,6.966796875,-20.4599609375,13.7333984375
0.1675,10.0498046875,-20.66015625,11.05078125
0.168,14.2138671875,-19.859375,6.326171875
0.1685,17.2568359375,-18.6181640625,2.162109375
0.169,19.458984375,-16.9765625,-1.76171875
0.1695,20.9404296875,-15.0947265625,-5.0048828125
0.17,20.7802734375,-12.1318359375,-7.8876953125
0.1705,20.7802734375,-8.328125,-11.611328125
0.171,20.1396484375,-4.1640625,-15.2548828125
0.1715,18.8984375,0.2802734375,-18.2978515625
0.172,16.9365234375,3.923828125,-20.0595703125
0.1725,14.8544921875,6.7265625,-20.8203125
0.173,11.8916015625,9.9296875,-21.140625
0.1735,6.646484375,14.09375,-20.2197265625
0.174,2.2822265625,17.13671875,-19.0986328125
0.1745,-2.2021484375,19.4990234375,-17.2568359375
0.175,-5.7255859375,20.98046875,-15.53515625
0.1755,-8.6083984375,20.8603515625,-12.7724609375
0.176,-11.8115234375,20.8603515625,-9.689453125
0.1765,-15.8955078125,19.939453125,-4.884765625
0.177,-18.8583984375,18.2177734375,-0.2802734375
0.1775,-20.6201171875,16.3359375,3.3232421875
0.178,-21.62109375,14.1337890625,6.2861328125
0.1785,-21.5009765625,10.890625,9.609375
0.179,-21.1005859375,6.3662109375,13.7333984375
0.1795,-20.2197265625,2.40234375,16.896484375
0.18,-18.658203125,-1.9619140625,19.5791015625
0.1805,-16.6962890625,-5.525390625,21.2607421875
0.181,-13.8134765625,-8.328125,21.30078125
0.1815,-10.7705078125,-11.4912109375,21.5009765625
0.182,-5.0849609375,-15.775390625,20.2998046875
0.1825,-0.2802734375,-18.6181640625,18.5380859375
0.183,3.6435546875,-20.419921875,16.6962890625
0.1835,6.88671875,-21.5810546875,14.89453125
0.184,10.0498046875,-21.3408203125,11.6513671875
0.1845,13.5732421875,-20.7802734375,7.7275390625
0.185,17.0966796875,-19.859375,3.5234375
0.1855,19.859375,-17.77734375,-1.28125
0.186,21.1806640625,-15.85546875,-4.5244140625
0.1865,21.541015625,-13.1728515625,-7.4873046875
0.187,21.541015625,-10.08984375,-10.6103515625
0.1875,20.7802734375,-5.0048828125,-14.9345703125
0.188,19.6591796875,-1.0009765625,-17.8974609375
0.1885,17.8974609375,2.8828125,-19.939453125
0.189,16.015625,6.2861328125,-21.541015625
0.1895,12.3720703125,9.2490234375,-21.140625
0.19,8.888671875,12.7724609375,-21.0205078125
0.1905,3.8037109375,16.576171875,-20.01953125
0.191,-1.3212890625,19.298828125,-17.9375
0.1915,-4.64453125,20.66015625,-16.17578125
0.192,-7.7275390625,21.4609375,-14.09375
0.1925,-10.890625,21.2607421875,-10.970703125
0.193,-15.0146484375,20.2998046875,-6.166015625
0.1935,-18.09765625,19.138671875,-1.9619140625
0.194,-20.419921875,17.216796875,2.2822265625
0.1945,-21.6611328125,15.21484375,5.4453125
0.195,-21.541015625,11.9716796875,8.6083984375
0.1955,-21.5810546875,8.6083984375,11.9716796875
0.196,-20.8203125,3.8037109375,16.0556640625
0.1965,-19.298828125,-0.80078125,19.0185546875
0.197,-17.4169921875,-4.2041015625,20.66015625
0.1975,-15.4951171875,-7.2470703125,21.9814453125
0.198,-11.771484375,-10.5703125,21.5810546875
0.1985,-6.9267578125,-14.494140625,20.8203125
0.199,-2.2822265625,-17.857421875,19.69921875
0.1995,2.642578125,-20.259765625,17.5771484375
0.2,5.8857421875,-21.4609375,15.6552734375
0.2005,9.0888671875,-21.6611328125,12.97265625
0.201,12.251953125,-21.5009765625,9.849609375
0.2015,16.4560546875,-20.3798828125,4.6044921875
0.202,19.4189453125,-18.6181640625,0.0400390625
0.2025,21.220703125,-16.7763671875,-3.5634765625
0.203,22.0615234375,-14.57421875,-6.6865234375
0.2035,21.78125,-10.890625,-10.009765625
0.204,21.4609375,-6.7666015625,-13.8134765625
0.2045,20.7001953125,-2.5224609375,-17.376953125
0.205,18.818359375,2.1220703125,-20.1396484375
0.2055,16.736328125,5.4853515625,-21.4208984375
0.206,14.1337890625,8.6484375,-22.0615234375
0.2065,10.41015625,12.01171875,-21.8212890625
0.207,4.8046875,16.2158203125,-20.580078125
0.2075,0.2001953125,19.1787109375,-19.0986328125
0.208,-4.0439453125,21.1005859375,-17.216796875
0.2085,-7.20703125,22.021484375,-15.134765625
0.209,-10.650390625,21.78125,-11.69140625
0.2095,-14.173828125,21.4208984375,-8.0478515625
0.21,-17.9775390625,20.1796875,-3.1630859375
0.2105,-20.740234375,18.017578125,1.76171875
0.211,-22.0615234375,16.015625,5.044921875
0.2115,-22.7021484375,13.373046875,8.2880859375
0.212,-22.341796875,9.5693359375,11.771484375
0.2125,-21.541015625,4.6845703125,15.935546875
0.213,-20.5,0.560546875,19.0185546875
0.2135,-18.578125,-3.84375,21.4609375
0.214,-16.2958984375,-7.0068359375,22.421875
0.2145,-12.97265625,-10.2900390625,22.4619140625
0.215,-8.96875,-13.853515625,22.1416015625
0.2155,-3.203125,-17.8173828125,20.580078125
0.216,1.841796875,-20.419921875,18.41796875
0.2165,5.4453125,-21.94140625,16.6162109375
0.217,8.568359375,-22.58203125,14.2939453125
0.2175,12.091796875,-22.0615234375,10.5302734375
0.218,15.85546875,-21.220703125,6.0859375
