wavelength,x,y,z
0.0,7.337158203125,14.584228515625,-21.651123046875
0.0005,2.492431640625,17.587158203125,-19.849365234375
0.001,-1.751708984375,19.829345703125,-17.967529296875
0.0015,-5.755615234375,21.831298828125,-16.045654296875
0.002,-10.280029296875,22.431884765625,-12.201904296875
0.0025,-14.163818359375,21.951416015625,-7.917724609375
0.003,-17.166748046875,22.071533203125,-5.114990234375
0.0035,-19.809326171875,20.189697265625,-0.630615234375
0.004,-22.251708984375,18.668212890625,3.333251953125
0.0045,-22.371826171875,15.184814453125,6.896728515625
0.005,-23.052490234375,11.501220703125,11.220947265625
0.0055,-22.291748046875,7.697509765625,14.183837890625
0.006,-21.490966796875,3.773681640625,17.186767578125
0.0065,-19.529052734375,-0.590576171875,19.348876953125
0.007,-17.767333984375,-4.834716796875,21.711181640625
0.0075,-13.403076171875,-9.319091796875,21.791259765625
0.008,-9.279052734375,-13.723388671875,21.831298828125
0.0085,-6.236083984375,-16.406005859375,21.470947265625
0.009,-1.111083984375,-19.408935546875,19.348876953125
0.0095,3.052978515625,-21.651123046875,17.627197265625
0.01,7.537353515625,-22.852294921875,14.384033203125
0.0105,11.581298828125,-23.452880859375,11.060791015625
0.011,15.385009765625,-22.812255859375,6.696533203125
0.0115,18.227783203125,-22.291748046875,3.453369140625
0.012,20.550048828125,-20.449951171875,-0.830810546875
0.0125,22.952392578125,-18.568115234375,-4.994873046875
0.013,22.351806640625,-14.243896484375,-8.678466796875
0.0135,22.912353515625,-10.760498046875,-12.682373046875
0.014,22.151611328125,-7.277099609375,-15.324951171875
0.0145,20.790283203125,-2.912841796875,-18.207763671875
0.015,18.948486328125,1.251220703125,-20.289794921875
0.0155,16.105712890625,5.895751953125,-21.971435546875
0.016,12.141845703125,10.099853515625,-22.211669921875
0.0165,7.817626953125,14.263916015625,-21.931396484375
0.017,4.494384765625,16.666259765625,-20.970458984375
0.0175,-0.630615234375,19.589111328125,-18.808349609375
0.018,-4.754638671875,21.991455078125,-17.166748046875
0.0185,-9.399169921875,22.191650390625,-12.802490234375
0.019,-13.002685546875,22.872314453125,-9.919677734375
0.0195,-16.606201171875,22.151611328125,-5.755615234375
0.02,-19.288818359375,21.110595703125,-2.072021484375
0.0205,-21.410888671875,19.188720703125,1.971923828125
0.021,-23.372802734375,16.866455078125,6.216064453125
0.0215,-22.612060546875,12.382080078125,9.899658203125
0.022,-22.972412109375,8.898681640625,13.663330078125
0.0225,-22.091552734375,5.575439453125,15.985595703125
0.023,-20.409912109375,0.930908203125,18.868408203125
0.0235,-18.608154296875,-3.193115234375,20.990478515625
0.024,-14.684326171875,-8.117919921875,21.791259765625
0.0245,-11.240966796875,-12.001708984375,22.151611328125
0.025,-6.916748046875,-15.805419921875,21.510986328125
0.0255,-3.193115234375,-18.007568359375,20.109619140625
0.026,1.451416015625,-20.610107421875,18.187744140625
0.0265,5.895751953125,-23.052490234375,16.265869140625
0.027,10.219970703125,-22.732177734375,11.581298828125
0.0275,13.863525390625,-23.252685546875,8.658447265625
0.028,17.106689453125,-22.451904296875,4.694580078125
0.0285,19.829345703125,-21.170654296875,0.770751953125
0.029,21.711181640625,-19.248779296875,-3.072998046875
0.0295,22.912353515625,-16.045654296875,-7.437255859375
0.03,22.431884765625,-11.961669921875,-10.960693359375
0.0305,22.391845703125,-8.278076171875,-14.604248046875
0.031,21.270751953125,-4.954833984375,-16.646240234375
0.0315,19.709228515625,-0.350341796875,-19.529052734375
0.032,17.627197265625,3.973876953125,-21.611083984375
0.0325,13.102783203125,8.738525390625,-21.811279296875
0.033,9.939697265625,12.462158203125,-22.251708984375
0.0335,5.535400390625,15.945556640625,-21.290771484375
0.034,1.331298828125,18.427978515625,-19.529052734375
0.0345,-2.712646484375,20.670166015625,-17.887451171875
0.035,-7.717529296875,22.672119140625,-14.884521484375
0.0355,-11.601318359375,22.191650390625,-10.600341796875
0.036,-15.405029296875,22.592041015625,-7.397216796875
0.0365,-18.167724609375,21.430908203125,-3.553466796875
0.037,-20.850341796875,20.069580078125,0.570556640625
0.0375,-22.491943359375,18.027587890625,4.214111328125
0.038,-23.092529296875,14.023681640625,8.698486328125
0.0385,-22.852294921875,10.380126953125,12.061767578125
0.039,-22.451904296875,6.456298828125,15.545166015625
0.0395,-20.970458984375,2.772705078125,17.627197265625
0.04,-19.529052734375,-1.591552734375,20.269775390625
0.0405,-16.566162109375,-6.436279296875,22.031494140625
0.041,-12.001708984375,-10.880615234375,21.951416015625
0.0415,-8.958740234375,-14.484130859375,22.351806640625
0.042,-4.394287109375,-17.567138671875,20.830322265625
0.0425,0.290283203125,-20.249755859375,18.948486328125
0.043,3.853759765625,-22.171630859375,17.346923828125
0.0435,9.218994140625,-23.653076171875,13.543212890625
0.044,12.782470703125,-23.092529296875,9.539306640625
0.0445,16.626220703125,-23.372802734375,6.055908203125
0.045,19.228759765625,-21.731201171875,1.891845703125
0.0455,21.751220703125,-20.249755859375,-2.152099609375
0.046,22.872314453125,-17.647216796875,-5.835693359375
0.0465,23.072509765625,-13.202880859375,-10.400146484375
0.047,22.912353515625,-9.919677734375,-13.483154296875
0.0475,22.111572265625,-5.715576171875,-16.806396484375
0.048,20.349853515625,-1.631591796875,-19.048583984375
0.0485,18.908447265625,2.412353515625,-21.370849609375
0.049,15.064697265625,7.537353515625,-22.772216796875
0.0495,10.460205078125,11.861572265625,-22.211669921875
0.05,7.297119140625,15.385009765625,-22.451904296875
0.0505,2.292236328125,18.227783203125,-20.249755859375
0.051,-2.232177734375,20.950439453125,-18.568115234375
0.0515,-6.035888671875,22.431884765625,-16.365966796875
0.052,-11.080810546875,23.352783203125,-12.281982421875
0.0525,-14.604248046875,22.672119140625,-8.197998046875
0.053,-18.247802734375,22.552001953125,-4.554443359375
0.0535,-20.570068359375,20.630126953125,-0.310302734375
0.054,-22.972412109375,19.108642578125,3.613525390625
0.0545,-23.372802734375,15.625244140625,7.457275390625
0.055,-23.292724609375,11.180908203125,11.701416015625
0.0555,-23.132568359375,8.057861328125,14.664306640625
0.056,-21.731201171875,3.413330078125,17.747314453125
0.0565,-20.009521484375,-0.790771484375,20.029541015625
0.057,-18.047607421875,-4.834716796875,21.911376953125
0.0575,-13.883544921875,-9.879638671875,22.752197265625
0.058,-9.319091796875,-13.803466796875,22.031494140625
0.0585,-6.035888671875,-17.006591796875,21.911376953125
0.059,-1.031005859375,-19.569091796875,19.509033203125
0.0595,3.173095703125,-22.251708984375,18.067626953125
0.06,7.337158203125,-23.052490234375,14.784423828125
0.0605,11.981689453125,-23.773193359375,10.940673828125
0.061,15.385009765625,-23.292724609375,7.177001953125
0.0615,18.708251953125,-22.491943359375,3.133056640625
0.062,20.950439453125,-20.650146484375,-0.990966796875
0.0625,23.032470703125,-18.928466796875,-4.714599609375
0.063,23.032470703125,-14.884521484375,-8.718505859375
0.0635,22.752197265625,-10.560302734375,-12.682373046875
0.064,22.672119140625,-7.677490234375,-15.525146484375
0.0645,20.790283203125,-2.872802734375,-18.247802734375
0.065,19.388916015625,1.211181640625,-20.650146484375
0.0655,16.385986328125,5.415283203125,-21.771240234375
0.066,12.502197265625,10.300048828125,-22.732177734375
0.0665,8.097900390625,14.063720703125,-21.931396484375
0.067,4.294189453125,17.146728515625,-21.170654296875
0.0675,-0.590576171875,19.509033203125,-18.848388671875
0.068,-4.554443359375,22.271728515625,-17.607177734375
0.0685,-8.998779296875,22.391845703125,-13.403076171875
0.069,-13.122802734375,22.792236328125,-9.759521484375
0.0695,-16.365966796875,22.552001953125,-6.396240234375
0.07,-19.448974609375,21.190673828125,-1.991943359375
0.0705,-21.651123046875,19.348876953125,2.052001953125
0.071,-23.132568359375,17.226806640625,5.695556640625
0.0715,-23.252685546875,13.102783203125,9.819580078125
0.072,-22.692138671875,8.778564453125,13.423095703125
0.0725,-22.491943359375,5.735595703125,16.225830078125
0.073,-20.369873046875,0.850830078125,18.828369140625
0.0735,-19.128662109375,-3.193115234375,21.470947265625
0.074,-15.044677734375,-7.677490234375,21.751220703125
0.0745,-11.401123046875,-12.201904296875,22.552001953125
0.075,-7.357177734375,-15.565185546875,21.791259765625
0.0755,-2.992919921875,-18.568115234375,20.469970703125
0.076,1.571533203125,-20.810302734375,18.227783203125
0.0765,5.815673828125,-23.372802734375,16.586181640625
0.077,10.179931640625,-23.172607421875,12.181884765625
0.0775,14.103759765625,-23.212646484375,8.338134765625
0.078,17.026611328125,-22.932373046875,5.255126953125
0.0785,20.029541015625,-21.330810546875,0.690673828125
0.079,22.311767578125,-19.489013671875,-3.513427734375
0.0795,22.832275390625,-16.205810546875,-7.197021484375
0.08,23.112548828125,-12.482177734375,-11.240966796875
0.0805,22.271728515625,-8.278076171875,-14.524169921875
0.081,21.711181640625,-4.994873046875,-17.206787109375
0.0815,19.709228515625,-0.310302734375,-19.689208984375
0.082,18.067626953125,4.174072265625,-22.291748046875
0.0825,13.423095703125,8.618408203125,-21.971435546875
0.083,9.739501953125,12.862548828125,-22.451904296875
0.0835,6.015869140625,15.825439453125,-21.611083984375
0.084,1.131103515625,18.948486328125,-19.849365234375
0.0845,-3.113037109375,21.030517578125,-17.807373046875
0.085,-7.837646484375,22.872314453125,-15.004638671875
0.0855,-11.681396484375,22.792236328125,-11.200927734375
0.086,-15.645263671875,22.431884765625,-7.036865234375
0.0865,-18.167724609375,21.831298828125,-3.913818359375
0.087,-20.970458984375,20.109619140625,0.610595703125
0.0875,-23.212646484375,18.187744140625,4.734619140625
0.088,-22.892333984375,14.023681640625,8.538330078125
0.0885,-23.332763671875,10.620361328125,12.221923828125
0.089,-22.291748046875,6.536376953125,15.264892578125
0.0895,-21.210693359375,2.692626953125,17.947509765625
0.09,-19.328857421875,-1.631591796875,20.189697265625
0.0905,-16.726318359375,-6.476318359375,22.271728515625
0.091,-12.362060546875,-10.560302734375,21.911376953125
0.0915,-8.598388671875,-14.604248046875,22.071533203125
0.092,-4.994873046875,-17.006591796875,20.870361328125
0.0925,0.130126953125,-20.129638671875,18.948486328125
0.093,4.013916015625,-22.171630859375,17.226806640625
0.0935,8.938720703125,-23.132568359375,13.302978515625
0.094,12.422119140625,-23.252685546875,10.099853515625
0.0945,16.145751953125,-22.772216796875,5.895751953125
0.095,18.628173828125,-21.731201171875,2.492431640625
0.0955,21.030517578125,-20.009521484375,-1.631591796875
0.096,22.992431640625,-17.767333984375,-5.875732421875
0.0965,22.231689453125,-13.242919921875,-9.599365234375
0.097,22.672119140625,-10.119873046875,-13.162841796875
0.0975,21.591064453125,-6.276123046875,-15.725341796875
0.098,20.309814453125,-1.991943359375,-18.568115234375
0.0985,18.508056640625,1.971923828125,-20.570068359375
0.099,14.984619140625,7.096923828125,-22.051513671875
0.0995,11.060791015625,10.820556640625,-21.771240234375
0.1,7.096923828125,14.664306640625,-21.571044921875
0.1005,3.333251953125,16.866455078125,-19.969482421875
0.101,-1.311279296875,19.789306640625,-18.327880859375
0.1015,-5.435302734375,21.871337890625,-16.365966796875
0.102,-10.039794921875,22.031494140625,-12.001708984375
0.1025,-13.363037109375,22.311767578125,-9.038818359375
0.103,-16.646240234375,21.591064453125,-5.114990234375
0.1035,-19.248779296875,20.349853515625,-1.391357421875
0.104,-21.290771484375,18.708251953125,2.292236328125
0.1045,-22.812255859375,15.745361328125,6.696533203125
0.105,-22.051513671875,11.461181640625,10.219970703125
0.1055,-22.371826171875,8.298095703125,13.623291015625
0.106,-21.050537109375,4.614501953125,15.865478515625
0.1065,-19.849365234375,0.330322265625,18.908447265625
0.107,-17.807373046875,-3.833740234375,20.790283203125
0.1075,-13.803466796875,-8.718505859375,21.551025390625
0.108,-10.280029296875,-12.241943359375,21.551025390625
0.1085,-6.356201171875,-15.725341796875,20.990478515625
0.109,-2.312255859375,-17.967529296875,19.228759765625
0.1095,1.811767578125,-20.650146484375,17.867431640625
0.11,6.496337890625,-22.572021484375,15.144775390625
0.1105,10.580322265625,-22.371826171875,10.900634765625
0.111,14.023681640625,-22.772216796875,7.977783203125
0.1115,17.026611328125,-21.651123046875,3.893798828125
0.112,19.709228515625,-20.489990234375,0.170166015625
0.1125,21.470947265625,-18.728271484375,-3.353271484375
0.113,22.351806640625,-15.084716796875,-7.957763671875
0.1135,21.791259765625,-11.120849609375,-11.240966796875
0.114,21.831298828125,-7.757568359375,-14.524169921875
0.1145,20.269775390625,-3.993896484375,-16.606201171875
0.115,19.228759765625,0.170166015625,-19.529052734375
0.1155,16.466064453125,4.614501953125,-21.050537109375
0.116,12.302001953125,9.259033203125,-21.490966796875
0.1165,9.098876953125,12.782470703125,-21.651123046875
0.117,4.654541015625,15.945556640625,-20.369873046875
0.1175,0.370361328125,18.427978515625,-18.568115234375
0.118,-3.353271484375,20.750244140625,-17.366943359375
0.1185,-8.358154296875,22.071533203125,-13.763427734375
0.119,-12.041748046875,21.711181640625,-9.719482421875
0.1195,-15.525146484375,22.071533203125,-6.716552734375
0.12,-18.207763671875,20.469970703125,-2.552490234375
0.1205,-20.810302734375,19.228759765625,1.331298828125
0.121,-21.971435546875,17.026611328125,4.614501953125
0.1215,-22.531982421875,12.982666015625,9.178955078125
0.122,-22.091552734375,9.419189453125,12.302001953125
0.1225,-21.651123046875,5.695556640625,15.505126953125
0.123,-19.889404296875,1.731689453125,17.587158203125
0.1235,-18.768310546875,-2.272216796875,20.229736328125
0.124,-15.204833984375,-7.036865234375,21.270751953125
0.1245,-11.040771484375,-11.281005859375,21.270751953125
0.125,-7.997802734375,-14.484130859375,21.390869140625
0.1255,-3.393310546875,-17.326904296875,19.549072265625
0.126,0.970947265625,-19.849365234375,17.907470703125
0.1265,4.494384765625,-21.731201171875,16.345947265625
0.127,9.419189453125,-22.692138671875,12.422119140625
0.1275,12.862548828125,-22.091552734375,8.498291015625
0.128,16.225830078125,-22.251708984375,5.335205078125
0.1285,18.628173828125,-20.489990234375,1.291259765625
0.129,21.150634765625,-19.288818359375,-2.592529296875
0.1295,21.591064453125,-16.285888671875,-5.955810546875
0.13,21.911376953125,-12.201904296875,-10.239990234375
0.1305,21.631103515625,-9.038818359375,-13.082763671875
0.131,20.630126953125,-5.034912109375,-15.965576171875
0.1315,19.068603515625,-1.151123046875,-18.207763671875
0.132,17.667236328125,2.732666015625,-20.449951171875
0.1325,13.783447265625,7.537353515625,-21.290771484375
0.133,9.619384765625,11.461181640625,-20.890380859375
0.1335,6.576416015625,14.464111328125,-20.890380859375
0.134,1.891845703125,17.146728515625,-18.728271484375
0.1345,-2.112060546875,19.709228515625,-17.567138671875
0.135,-5.915771484375,20.790283203125,-14.884521484375
0.1355,-10.360107421875,21.711181640625,-11.401123046875
0.136,-13.683349609375,21.150634765625,-7.717529296875
0.1365,-16.686279296875,20.750244140625,-4.354248046875
0.137,-18.928466796875,19.148681640625,-0.550537109375
0.1375,-21.330810546875,17.947509765625,3.093017578125
0.138,-21.410888671875,14.343994140625,6.736572265625
0.1385,-21.531005859375,10.420166015625,10.660400390625
0.139,-21.490966796875,7.657470703125,13.423095703125
0.1395,-19.929443359375,3.333251953125,16.065673828125
0.14,-18.848388671875,-0.350341796875,18.468017578125
0.1405,-16.486083984375,-4.434326171875,19.989501953125
0.141,-12.882568359375,-9.038818359375,20.990478515625
0.1415,-8.838623046875,-12.682373046875,20.510009765625
0.142,-5.675537109375,-15.525146484375,20.109619140625
0.1425,-1.151123046875,-17.967529296875,18.027587890625
0.143,2.612548828125,-20.730224609375,17.146728515625
0.1435,6.776611328125,-21.130615234375,13.423095703125
0.144,10.860595703125,-21.931396484375,10.219970703125
0.1445,14.063720703125,-21.811279296875,7.016845703125
0.145,16.986572265625,-20.810302734375,3.093017578125
0.1455,19.188720703125,-19.208740234375,-0.630615234375
0.146,21.110595703125,-17.527099609375,-4.154052734375
0.1465,21.150634765625,-13.763427734375,-7.997802734375
0.147,20.990478515625,-9.959716796875,-11.561279296875
0.1475,20.950439453125,-7.197021484375,-14.163818359375
0.148,19.228759765625,-2.792724609375,-16.766357421875
0.1485,18.227783203125,0.970947265625,-19.368896484375
0.149,14.864501953125,5.255126953125,-20.169677734375
0.1495,11.501220703125,9.619384765625,-21.010498046875
0.15,7.697509765625,12.982666015625,-20.489990234375
0.1505,3.733642578125,15.825439453125,-19.368896484375
0.151,-0.510498046875,18.187744140625,-17.567138671875
0.1515,-4.514404296875,20.870361328125,-16.325927734375
0.152,-8.638427734375,20.790283203125,-12.241943359375
0.1525,-12.482177734375,21.150634765625,-8.838623046875
0.153,-15.284912109375,20.990478515625,-5.955810546875
0.1535,-18.207763671875,19.669189453125,-1.751708984375
0.154,-20.449951171875,18.187744140625,2.052001953125
0.1545,-21.450927734375,15.505126953125,5.655517578125
0.155,-21.771240234375,11.941650390625,9.459228515625
0.1555,-21.210693359375,8.137939453125,12.662353515625
0.156,-20.770263671875,5.054931640625,15.184814453125
0.1565,-19.048583984375,0.650634765625,17.787353515625
0.157,-17.767333984375,-3.553466796875,20.469970703125
0.1575,-13.603271484375,-7.717529296875,20.389892578125
0.158,-10.280029296875,-11.841552734375,21.070556640625
0.1585,-6.756591796875,-14.764404296875,20.429931640625
0.159,-2.272216796875,-17.647216796875,18.828369140625
0.1595,1.731689453125,-19.809326171875,17.146728515625
0.16,6.256103515625,-22.011474609375,14.784423828125
0.1605,9.939697265625,-21.931396484375,11.180908203125
0.161,13.743408203125,-21.971435546875,7.417236328125
0.1615,16.305908203125,-21.410888671875,4.414306640625
0.162,18.988525390625,-19.929443359375,0.370361328125
0.1625,21.390869140625,-18.287841796875,-3.713623046875
0.163,21.350830078125,-14.604248046875,-7.357177734375
0.1635,21.831298828125,-11.361083984375,-10.920654296875
0.164,21.110595703125,-7.637451171875,-13.883544921875
0.1645,20.109619140625,-4.073974609375,-16.406005859375
0.165,18.548095703125,0.130126953125,-18.768310546875
0.1655,16.385986328125,4.734619140625,-21.130615234375
0.166,12.181884765625,8.698486328125,-20.810302734375
0.1665,8.698486328125,12.662353515625,-21.210693359375
0.167,5.175048828125,15.144775390625,-20.089599609375
0.1675,0.410400390625,18.147705078125,-18.327880859375
0.168,-3.393310546875,20.229736328125,-16.806396484375
0.1685,-8.197998046875,21.470947265625,-13.282958984375
0.169,-11.521240234375,21.551025390625,-10.199951171875
0.1695,-15.164794921875,21.310791015625,-6.356201171875
0.17,-17.607177734375,20.309814453125,-2.952880859375
0.1705,-20.009521484375,18.828369140625,0.970947265625
0.171,-22.131591796875,16.866455078125,4.974853515625
0.1715,-21.611083984375,12.622314453125,8.658447265625
0.172,-22.091552734375,9.659423828125,12.021728515625
0.1725,-21.130615234375,6.015869140625,14.664306640625
0.173,-19.849365234375,1.931884765625,17.306884765625
0.1735,-18.287841796875,-2.031982421875,19.509033203125
0.174,-15.124755859375,-7.036865234375,21.230712890625
0.1745,-11.321044921875,-10.600341796875,20.990478515625
0.175,-7.717529296875,-14.404052734375,21.030517578125
0.1755,-4.114013671875,-16.526123046875,19.509033203125
0.176,0.650634765625,-19.489013671875,17.867431640625
0.1765,4.614501953125,-21.771240234375,16.225830078125
0.177,9.299072265625,-22.171630859375,11.941650390625
0.1775,12.542236328125,-22.371826171875,9.098876953125
0.178,15.945556640625,-21.851318359375,5.255126953125
0.1785,18.427978515625,-20.489990234375,1.491455078125
0.179,20.630126953125,-19.128662109375,-2.112060546875
0.1795,22.191650390625,-16.365966796875,-6.436279296875
0.18,21.510986328125,-12.121826171875,-9.959716796875
0.1805,21.831298828125,-9.118896484375,-13.202880859375
