wavelength,x,y,z
0.0,-1.78173828125,5.22509765625,-2.62255859375
0.0005,-0.94091796875,5.38525390625,-3.66357421875
0.001,-0.26025390625,5.50537109375,-4.50439453125
0.0015,0.70068359375,5.14501953125,-5.14501953125
0.002,1.90185546875,4.30419921875,-5.50537109375
0.0025,3.14306640625,3.26318359375,-5.90576171875
0.003,4.10400390625,2.10205078125,-6.02587890625
0.0035,4.70458984375,1.22119140625,-6.02587890625
0.004,4.94482421875,0.50048828125,-5.78564453125
0.0045,4.90478515625,-0.46044921875,-5.18505859375
0.005,4.82470703125,-1.54150390625,-4.34423828125
0.0055,4.82470703125,-2.82275390625,-3.26318359375
0.006,4.66455078125,-3.86376953125,-2.30224609375
0.0065,4.50439453125,-4.62451171875,-1.46142578125
0.007,3.98388671875,-5.10498046875,-0.70068359375
0.0075,3.10302734375,-5.38525390625,0.46044921875
0.008,2.10205078125,-5.74560546875,1.78173828125
0.0085,1.06103515625,-6.02587890625,3.02294921875
0.009,0.30029296875,-6.26611328125,3.98388671875
0.0095,-0.58056640625,-6.26611328125,4.78466796875
0.01,-1.54150390625,-5.62548828125,5.26513671875
0.0105,-2.86279296875,-4.58447265625,5.70556640625
0.011,-4.10400390625,-3.38330078125,6.02587890625
0.0115,-4.90478515625,-2.30224609375,6.06591796875
0.012,-5.34521484375,-1.50146484375,5.94580078125
0.0125,-5.46533203125,-0.70068359375,5.58544921875
0.013,-5.34521484375,0.38037109375,4.78466796875
0.0135,-5.30517578125,1.54150390625,3.78369140625
0.014,-5.26513671875,2.82275390625,2.70263671875
0.0145,-5.02490234375,3.78369140625,1.74169921875
0.015,-4.70458984375,4.38427734375,0.98095703125
0.0155,-3.98388671875,4.74462890625,0.10009765625
0.016,-2.90283203125,4.98486328125,-1.26123046875
0.0165,-1.86181640625,5.30517578125,-2.66259765625
0.017,-0.86083984375,5.42529296875,-3.78369140625
0.0175,-0.14013671875,5.62548828125,-4.70458984375
0.018,0.74072265625,5.42529296875,-5.30517578125
0.0185,1.90185546875,4.54443359375,-5.74560546875
0.019,3.18310546875,3.42333984375,-6.10595703125
0.0195,4.34423828125,2.18212890625,-6.26611328125
0.02,4.98486328125,1.14111328125,-6.18603515625
0.0205,5.26513671875,0.38037109375,-6.02587890625
0.021,5.18505859375,-0.58056640625,-5.42529296875
0.0215,5.06494140625,-1.66162109375,-4.42431640625
0.022,5.02490234375,-2.98291015625,-3.34326171875
0.0225,4.86474609375,-4.14404296875,-2.22216796875
0.023,4.62451171875,-4.98486328125,-1.34130859375
0.0235,4.14404296875,-5.50537109375,-0.54052734375
0.024,3.22314453125,-5.70556640625,0.58056640625
0.0245,2.06201171875,-6.02587890625,1.94189453125
0.025,0.86083984375,-6.26611328125,3.34326171875
0.0255,-0.14013671875,-6.38623046875,4.42431640625
0.026,-0.82080078125,-6.42626953125,5.18505859375
0.0265,-1.78173828125,-5.86572265625,5.74560546875
0.027,-3.14306640625,-4.66455078125,6.10595703125
0.0275,-4.42431640625,-3.46337890625,6.42626953125
0.028,-5.38525390625,-2.18212890625,6.42626953125
0.0285,-5.82568359375,-1.22119140625,6.26611328125
0.029,-5.94580078125,-0.42041015625,5.86572265625
0.0295,-5.78564453125,0.70068359375,4.98486328125
0.03,-5.62548828125,2.02197265625,3.78369140625
0.0305,-5.50537109375,3.38330078125,2.54248046875
0.031,-5.22509765625,4.42431640625,1.42138671875
0.0315,-4.82470703125,5.06494140625,0.58056640625
0.032,-4.02392578125,5.38525390625,-0.46044921875
0.0325,-2.82275390625,5.42529296875,-1.74169921875
0.033,-1.54150390625,5.74560546875,-3.18310546875
0.0335,-0.38037109375,5.78564453125,-4.54443359375
0.034,0.50048828125,5.82568359375,-5.38525390625
0.0345,1.26123046875,5.62548828125,-6.02587890625
0.035,2.38232421875,4.74462890625,-6.38623046875
0.0355,3.78369140625,3.34326171875,-6.62646484375
0.036,4.98486328125,1.98193359375,-6.78662109375
0.0365,5.66552734375,0.74072265625,-6.54638671875
0.037,5.86572265625,-0.18017578125,-6.30615234375
0.0375,5.74560546875,-1.06103515625,-5.62548828125
0.038,5.46533203125,-2.26220703125,-4.46435546875
0.0385,5.30517578125,-3.54345703125,-3.18310546875
0.039,5.10498046875,-4.82470703125,-1.94189453125
0.0395,4.66455078125,-5.62548828125,-0.94091796875
0.04,4.14404296875,-6.10595703125,0.02001953125
0.0405,3.22314453125,-6.34619140625,0.98095703125
0.041,1.78173828125,-6.42626953125,2.42236328125
0.0415,0.50048828125,-6.66650390625,3.90380859375
0.042,-0.62060546875,-6.54638671875,4.98486328125
0.0425,-1.30126953125,-6.54638671875,5.74560546875
0.043,-2.18212890625,-6.10595703125,6.26611328125
0.0435,-3.46337890625,-4.86474609375,6.54638671875
0.044,-4.78466796875,-3.50341796875,6.78662109375
0.0445,-5.78564453125,-2.10205078125,6.78662109375
0.045,-6.26611328125,-0.98095703125,6.50634765625
0.0455,-6.38623046875,-0.18017578125,6.10595703125
0.046,-6.18603515625,0.90087890625,5.30517578125
0.0465,-5.82568359375,2.14208984375,3.94384765625
0.047,-5.70556640625,3.50341796875,2.70263671875
0.0475,-5.34521484375,4.62451171875,1.42138671875
0.048,-4.94482421875,5.30517578125,0.50048828125
0.0485,-4.22412109375,5.62548828125,-0.50048828125
0.049,-3.10302734375,5.74560546875,-1.62158203125
0.0495,-1.74169921875,5.86572265625,-3.18310546875
0.05,-0.38037109375,6.02587890625,-4.54443359375
0.0505,0.66064453125,5.94580078125,-5.50537109375
0.051,1.26123046875,5.90576171875,-6.14599609375
0.0515,2.26220703125,5.14501953125,-6.58642578125
0.052,3.58349609375,3.82373046875,-6.74658203125
0.0525,4.82470703125,2.42236328125,-6.98681640625
0.053,5.74560546875,1.02099609375,-6.78662109375
0.0535,6.06591796875,0.06005859375,-6.54638671875
0.054,6.02587890625,-0.90087890625,-5.98583984375
0.0545,5.74560546875,-1.90185546875,-4.98486328125
0.055,5.46533203125,-3.18310546875,-3.70361328125
0.0555,5.26513671875,-4.54443359375,-2.38232421875
0.056,4.90478515625,-5.50537109375,-1.22119140625
0.0565,4.46435546875,-6.14599609375,-0.34033203125
0.057,3.58349609375,-6.38623046875,0.66064453125
0.0575,2.30224609375,-6.46630859375,1.94189453125
0.058,0.98095703125,-6.62646484375,3.50341796875
0.0585,-0.34033203125,-6.62646484375,4.78466796875
0.059,-1.10107421875,-6.66650390625,5.58544921875
0.0595,-1.82177734375,-6.38623046875,6.14599609375
0.06,-2.94287109375,-5.46533203125,6.50634765625
0.0605,-4.34423828125,-4.02392578125,6.70654296875
0.061,-5.46533203125,-2.66259765625,6.86669921875
0.0615,-6.18603515625,-1.34130859375,6.62646484375
0.062,-6.42626953125,-0.50048828125,6.34619140625
0.0625,-6.30615234375,0.50048828125,5.66552734375
0.063,-6.02587890625,1.66162109375,4.50439453125
0.0635,-5.78564453125,3.02294921875,3.18310546875
0.064,-5.50537109375,4.26416015625,1.94189453125
0.0645,-5.10498046875,5.06494140625,0.82080078125
0.065,-4.58447265625,5.54541015625,0.02001953125
0.0655,-3.66357421875,5.70556640625,-1.14111328125
0.066,-2.26220703125,5.82568359375,-2.54248046875
0.0665,-0.90087890625,6.06591796875,-4.06396484375
0.067,0.30029296875,5.94580078125,-5.14501953125
0.0675,0.98095703125,5.98583984375,-5.90576171875
0.068,1.82177734375,5.50537109375,-6.38623046875
0.0685,3.06298828125,4.34423828125,-6.66650390625
0.069,4.38427734375,2.94287109375,-6.90673828125
0.0695,5.42529296875,1.54150390625,-6.90673828125
0.07,5.98583984375,0.42041015625,-6.66650390625
0.0705,6.06591796875,-0.50048828125,-6.26611328125
0.071,5.90576171875,-1.42138671875,-5.46533203125
0.0715,5.58544921875,-2.70263671875,-4.18408203125
0.072,5.42529296875,-4.14404296875,-2.86279296875
0.0725,5.06494140625,-5.30517578125,-1.62158203125
0.073,4.62451171875,-6.02587890625,-0.62060546875
0.0735,3.98388671875,-6.38623046875,0.30029296875
0.074,2.90283203125,-6.42626953125,1.42138671875
0.0745,1.46142578125,-6.58642578125,2.94287109375
0.075,0.14013671875,-6.70654296875,4.42431640625
0.0755,-0.90087890625,-6.66650390625,5.34521484375
0.076,-1.58154296875,-6.54638671875,6.02587890625
0.0765,-2.58251953125,-5.82568359375,6.46630859375
0.077,-3.98388671875,-4.46435546875,6.70654296875
0.0775,-5.22509765625,-3.06298828125,6.90673828125
0.078,-6.06591796875,-1.74169921875,6.74658203125
0.0785,-6.38623046875,-0.78076171875,6.46630859375
0.079,-6.38623046875,0.18017578125,5.94580078125
0.0795,-6.10595703125,1.22119140625,4.94482421875
0.08,-5.82568359375,2.50244140625,3.62353515625
0.0805,-5.62548828125,3.86376953125,2.30224609375
0.081,-5.18505859375,4.82470703125,1.14111328125
0.0815,-4.78466796875,5.38525390625,0.26025390625
0.082,-3.94384765625,5.62548828125,-0.70068359375
0.0825,-2.70263671875,5.70556640625,-1.94189453125
0.083,-1.34130859375,5.90576171875,-3.46337890625
0.0835,-0.18017578125,5.90576171875,-4.74462890625
0.084,0.74072265625,5.86572265625,-5.54541015625
0.0845,1.42138671875,5.70556640625,-6.10595703125
0.085,2.42236328125,4.82470703125,-6.42626953125
0.0855,3.78369140625,3.42333984375,-6.66650390625
0.086,4.94482421875,2.10205078125,-6.78662109375
0.0865,5.58544921875,0.90087890625,-6.58642578125
0.087,5.82568359375,0.06005859375,-6.34619140625
0.0875,5.74560546875,-0.86083984375,-5.74560546875
0.088,5.42529296875,-1.94189453125,-4.70458984375
0.0885,5.26513671875,-3.22314453125,-3.50341796875
0.089,5.06494140625,-4.50439453125,-2.26220703125
0.0895,4.66455078125,-5.38525390625,-1.22119140625
0.09,4.30419921875,-5.90576171875,-0.42041015625
0.0905,3.42333984375,-6.10595703125,0.62060546875
0.091,2.22216796875,-6.22607421875,1.94189453125
0.0915,0.98095703125,-6.42626953125,3.38330078125
0.092,-0.26025390625,-6.42626953125,4.50439453125
0.0925,-0.98095703125,-6.50634765625,5.30517578125
0.093,-1.74169921875,-6.22607421875,5.90576171875
0.0935,-2.86279296875,-5.18505859375,6.22607421875
0.094,-4.18408203125,-3.90380859375,6.50634765625
0.0945,-5.26513671875,-2.58251953125,6.58642578125
0.095,-5.90576171875,-1.46142578125,6.42626953125
0.0955,-6.10595703125,-0.70068359375,6.14599609375
0.096,-5.94580078125,0.30029296875,5.42529296875
0.0965,-5.74560546875,1.42138671875,4.34423828125
0.097,-5.62548828125,2.74267578125,3.18310546875
0.0975,-5.38525390625,3.90380859375,1.94189453125
0.098,-4.98486328125,4.74462890625,0.98095703125
0.0985,-4.46435546875,5.18505859375,0.18017578125
0.099,-3.50341796875,5.38525390625,-0.98095703125
0.0995,-2.26220703125,5.54541015625,-2.34228515625
0.1,-0.98095703125,5.74560546875,-3.82373046875
0.1005,0.06005859375,5.74560546875,-4.78466796875
0.101,0.70068359375,5.78564453125,-5.46533203125
0.1015,1.58154296875,5.22509765625,-5.94580078125
0.102,2.86279296875,4.02392578125,-6.26611328125
0.1025,4.10400390625,2.82275390625,-6.50634765625
0.103,4.98486328125,1.58154296875,-6.42626953125
0.1035,5.42529296875,0.62060546875,-6.30615234375
0.104,5.50537109375,-0.26025390625,-5.90576171875
0.1045,5.30517578125,-1.14111328125,-5.10498046875
0.105,5.14501953125,-2.30224609375,-4.06396484375
0.1055,4.98486328125,-3.66357421875,-2.86279296875
0.106,4.74462890625,-4.62451171875,-1.78173828125
0.1065,4.46435546875,-5.30517578125,-0.98095703125
0.107,3.82373046875,-5.62548828125,-0.14013671875
0.1075,2.78271484375,-5.78564453125,1.06103515625
0.108,1.66162109375,-6.10595703125,2.38232421875
0.1085,0.50048828125,-6.18603515625,3.66357421875
0.109,-0.34033203125,-6.34619140625,4.54443359375
0.1095,-1.02099609375,-6.26611328125,5.26513671875
0.11,-1.98193359375,-5.62548828125,5.66552734375
0.1105,-3.22314453125,-4.50439453125,5.94580078125
0.111,-4.42431640625,-3.26318359375,6.22607421875
0.1115,-5.18505859375,-2.10205078125,6.14599609375
0.112,-5.62548828125,-1.30126953125,6.06591796875
0.1125,-5.62548828125,-0.62060546875,5.62548828125
0.113,-5.42529296875,0.46044921875,4.78466796875
0.1135,-5.42529296875,1.58154296875,3.82373046875
0.114,-5.26513671875,2.86279296875,2.70263671875
0.1145,-4.98486328125,3.78369140625,1.78173828125
0.115,-4.66455078125,4.46435546875,0.94091796875
0.1155,-4.02392578125,4.78466796875,0.14013671875
0.116,-3.02294921875,4.98486328125,-1.14111328125
0.1165,-1.94189453125,5.34521484375,-2.50244140625
0.117,-0.90087890625,5.42529296875,-3.62353515625
0.1175,-0.26025390625,5.62548828125,-4.54443359375
0.118,0.62060546875,5.46533203125,-5.14501953125
0.1185,1.66162109375,4.66455078125,-5.54541015625
0.119,2.86279296875,3.66357421875,-5.90576171875
0.1195,3.98388671875,2.50244140625,-6.10595703125
0.12,4.66455078125,1.50146484375,-6.10595703125
0.1205,5.02490234375,0.66064453125,-5.98583984375
0.121,5.02490234375,-0.22021484375,-5.50537109375
0.1215,4.86474609375,-1.18115234375,-4.66455078125
0.122,4.90478515625,-2.34228515625,-3.70361328125
0.1225,4.78466796875,-3.50341796875,-2.70263671875
0.123,4.62451171875,-4.34423828125,-1.86181640625
0.1235,4.22412109375,-4.94482421875,-1.10107421875
0.124,3.50341796875,-5.26513671875,0.02001953125
0.1245,2.54248046875,-5.58544921875,1.14111328125
0.125,1.46142578125,-5.86572265625,2.50244140625
0.1255,0.62060546875,-6.06591796875,3.50341796875
0.126,-0.18017578125,-6.26611328125,4.38427734375
0.1265,-1.02099609375,-5.90576171875,4.98486328125
0.127,-2.14208984375,-5.06494140625,5.38525390625
0.1275,-3.34326171875,-4.02392578125,5.78564453125
0.128,-4.34423828125,-2.86279296875,5.90576171875
0.1285,-4.98486328125,-2.06201171875,5.90576171875
0.129,-5.22509765625,-1.30126953125,5.74560546875
0.1295,-5.22509765625,-0.50048828125,5.10498046875
0.13,-5.14501953125,0.66064453125,4.34423828125
0.1305,-5.18505859375,1.90185546875,3.34326171875
0.131,-5.02490234375,2.94287109375,2.38232421875
0.1315,-4.82470703125,3.74365234375,1.58154296875
0.132,-4.38427734375,4.22412109375,0.86083984375
0.1325,-3.54345703125,4.50439453125,-0.30029296875
0.133,-2.66259765625,4.94482421875,-1.54150390625
0.1335,-1.58154296875,5.18505859375,-2.78271484375
0.134,-0.86083984375,5.42529296875,-3.70361328125
0.1345,-0.18017578125,5.50537109375,-4.50439453125
0.135,0.82080078125,5.02490234375,-5.06494140625
0.1355,2.02197265625,4.14404296875,-5.46533203125
0.136,3.18310546875,3.10302734375,-5.82568359375
0.1365,4.06396484375,1.98193359375,-5.90576171875
0.137,4.62451171875,1.26123046875,-5.94580078125
0.1375,4.74462890625,0.50048828125,-5.70556640625
0.138,4.74462890625,-0.46044921875,-5.02490234375
0.1385,4.78466796875,-1.54150390625,-4.22412109375
0.139,4.78466796875,-2.74267578125,-3.22314453125
0.1395,4.62451171875,-3.70361328125,-2.34228515625
0.14,4.46435546875,-4.50439453125,-1.58154296875
0.1405,3.90380859375,-4.90478515625,-0.78076171875
0.141,3.02294921875,-5.22509765625,0.46044921875
0.1415,2.14208984375,-5.70556640625,1.74169921875
0.142,1.14111328125,-5.90576171875,2.86279296875
0.1425,0.46044921875,-6.18603515625,3.86376953125
0.143,-0.50048828125,-6.10595703125,4.58447265625
0.1435,-1.54150390625,-5.42529296875,5.06494140625
0.144,-2.78271484375,-4.46435546875,5.54541015625
0.1445,-3.90380859375,-3.38330078125,5.82568359375
0.145,-4.66455078125,-2.42236328125,5.86572265625
0.1455,-5.10498046875,-1.66162109375,5.78564453125
0.146,-5.18505859375,-0.90087890625,5.42529296875
0.1465,-5.14501953125,0.22021484375,4.62451171875
0.147,-5.22509765625,1.42138671875,3.78369140625
0.1475,-5.10498046875,2.62255859375,2.74267578125
0.148,-4.94482421875,3.50341796875,1.90185546875
0.1485,-4.58447265625,4.10400390625,1.10107421875
0.149,-3.86376953125,4.46435546875,0.18017578125
0.1495,-2.94287109375,4.82470703125,-1.14111328125
0.15,-1.94189453125,5.14501953125,-2.46240234375
0.1505,-1.02099609375,5.34521484375,-3.54345703125
0.151,-0.34033203125,5.54541015625,-4.38427734375
0.1515,0.62060546875,5.18505859375,-4.98486328125
0.152,1.78173828125,4.34423828125,-5.42529296875
0.1525,3.02294921875,3.26318359375,-5.82568359375
0.153,4.02392578125,2.14208984375,-5.94580078125
0.1535,4.58447265625,1.26123046875,-6.02587890625
0.154,4.86474609375,0.58056640625,-5.74560546875
0.1545,4.82470703125,-0.38037109375,-5.14501953125
0.155,4.82470703125,-1.42138671875,-4.34423828125
0.1555,4.82470703125,-2.70263671875,-3.34326171875
0.156,4.66455078125,-3.74365234375,-2.34228515625
0.1565,4.50439453125,-4.54443359375,-1.54150390625
0.157,3.98388671875,-5.02490234375,-0.78076171875
0.1575,3.10302734375,-5.26513671875,0.42041015625
0.158,2.10205078125,-5.70556640625,1.74169921875
0.1585,1.10107421875,-5.94580078125,2.98291015625
0.159,0.30029296875,-6.14599609375,3.94384765625
0.1595,-0.50048828125,-6.18603515625,4.74462890625
0.16,-1.54150390625,-5.58544921875,5.22509765625
0.1605,-2.82275390625,-4.58447265625,5.62548828125
0.161,-4.02392578125,-3.46337890625,5.94580078125
0.1615,-4.86474609375,-2.38232421875,5.98583984375
0.162,-5.30517578125,-1.54150390625,5.94580078125
0.1625,-5.38525390625,-0.78076171875,5.58544921875
0.163,-5.26513671875,0.34033203125,4.74462890625
0.1635,-5.26513671875,1.54150390625,3.82373046875
0.164,-5.18505859375,2.78271484375,2.70263671875
0.1645,-4.98486328125,3.74365234375,1.74169921875
0.165,-4.66455078125,4.38427734375,0.94091796875
0.1655,-3.94384765625,4.70458984375,0.02001953125
0.166,-2.86279296875,4.98486328125,-1.30126953125
0.1665,-1.78173828125,5.34521484375,-2.70263671875
0.167,-0.82080078125,5.46533203125,-3.82373046875
0.1675,-0.14013671875,5.62548828125,-4.66455078125
0.168,0.78076171875,5.38525390625,-5.30517578125
0.1685,1.94189453125,4.42431640625,-5.70556640625
0.169,3.22314453125,3.30322265625,-6.10595703125
0.1695,4.30419921875,2.06201171875,-6.26611328125
0.17,4.94482421875,1.14111328125,-6.14599609375
0.1705,5.18505859375,0.34033203125,-5.94580078125
0.171,5.14501953125,-0.58056640625,-5.34521484375
0.1715,4.98486328125,-1.66162109375,-4.34423828125
0.172,4.98486328125,-2.98291015625,-3.26318359375
0.1725,4.78466796875,-4.10400390625,-2.18212890625
0.173,4.50439453125,-4.90478515625,-1.30126953125
0.1735,4.10400390625,-5.38525390625,-0.58056640625
0.174,3.14306640625,-5.62548828125,0.58056640625
0.1745,1.98193359375,-5.90576171875,1.94189453125
0.175,0.86083984375,-6.14599609375,3.30322265625
0.1755,0.02001953125,-6.26611328125,4.30419921875
0.176,-0.70068359375,-6.34619140625,5.06494140625
0.1765,-1.70166015625,-5.82568359375,5.62548828125
0.177,-2.98291015625,-4.70458984375,5.94580078125
0.1775,-4.30419921875,-3.50341796875,6.26611328125
0.178,-5.22509765625,-2.22216796875,6.26611328125
0.1785,-5.70556640625,-1.30126953125,6.14599609375
0.179,-5.78564453125,-0.58056640625,5.78564453125
0.1795,-5.62548828125,0.58056640625,4.94482421875
0.18,-5.50537109375,1.78173828125,3.86376953125
0.1805,-5.46533203125,3.14306640625,2.66259765625
0.181,-5.14501953125,4.14404296875,1.58154296875
0.1815,-4.82470703125,4.82470703125,0.74072265625
0.182,-4.10400390625,5.14501953125,-0.26025390625
0.1825,-2.90283203125,5.30517578125,-1.46142578125
0.183,-1.70166015625,5.62548828125,-2.98291015625
0.1835,-0.58056640625,5.74560546875,-4.22412109375
0.184,0.30029296875,5.78564453125,-5.14501953125
0.1845,1.06103515625,5.58544921875,-5.74560546875
0.185,2.18212890625,4.70458984375,-6.18603515625
0.1855,3.54345703125,3.38330078125,-6.46630859375
0.186,4.74462890625,2.10205078125,-6.66650390625
0.1865,5.42529296875,0.94091796875,-6.46630859375
0.187,5.70556640625,0.06005859375,-6.26611328125
0.1875,5.62548828125,-0.90087890625,-5.62548828125
0.188,5.38525390625,-2.02197265625,-4.50439453125
0.1885,5.26513671875,-3.38330078125,-3.26318359375
0.189,5.06494140625,-4.62451171875,-2.02197265625
0.1895,4.70458984375,-5.46533203125,-1.02099609375
0.19,4.18408203125,-5.94580078125,-0.26025390625
0.1905,3.26318359375,-6.14599609375,0.86083984375
0.191,1.86181640625,-6.30615234375,2.30224609375
0.1915,0.62060546875,-6.54638671875,3.82373046875
0.192,-0.50048828125,-6.50634765625,4.86474609375
0.1925,-1.18115234375,-6.58642578125,5.62548828125
0.193,-2.06201171875,-6.10595703125,6.14599609375
0.1935,-3.42333984375,-4.86474609375,6.42626953125
0.194,-4.74462890625,-3.46337890625,6.70654296875
0.1945,-5.74560546875,-2.06201171875,6.70654296875
0.195,-6.26611328125,-0.98095703125,6.42626953125
0.1955,-6.30615234375,-0.18017578125,6.06591796875
0.196,-6.10595703125,0.90087890625,5.18505859375
0.1965,-5.78564453125,2.22216796875,3.86376953125
0.197,-5.66552734375,3.58349609375,2.58251953125
0.1975,-5.30517578125,4.62451171875,1.34130859375
0.198,-4.86474609375,5.30517578125,0.46044921875
0.1985,-4.14404296875,5.62548828125,-0.50048828125
0.199,-3.02294921875,5.70556640625,-1.66162109375
