wavelength,x,y,z
0.0,2.092041015625,5.094970703125,-6.396240234375
0.0005,3.453369140625,3.693603515625,-6.636474609375
0.001,4.774658203125,2.252197265625,-6.796630859375
0.0015,5.575439453125,1.091064453125,-6.756591796875
0.002,5.895751953125,0.370361328125,-6.676513671875
0.0025,5.775634765625,-0.430419921875,-6.156005859375
0.003,5.455322265625,-1.431396484375,-5.114990234375
0.0035,5.215087890625,-2.832763671875,-3.753662109375
0.004,5.054931640625,-4.234130859375,-2.432373046875
0.0045,4.854736328125,-5.195068359375,-1.431396484375
0.005,4.534423828125,-5.795654296875,-0.710693359375
0.0055,3.693603515625,-5.955810546875,0.250244140625
0.006,2.412353515625,-6.035888671875,1.531494140625
0.0065,0.970947265625,-6.236083984375,3.133056640625
0.007,-0.190185546875,-6.396240234375,4.334228515625
0.0075,-0.790771484375,-6.556396484375,5.255126953125
0.008,-1.551513671875,-6.356201171875,5.815673828125
0.0085,-2.672607421875,-5.355224609375,6.095947265625
0.009,-3.993896484375,-4.033935546875,6.336181640625
0.0095,-5.155029296875,-2.672607421875,6.416259765625
0.01,-5.795654296875,-1.591552734375,6.416259765625
0.0105,-5.995849609375,-0.990966796875,6.296142578125
0.011,-5.795654296875,-0.270263671875,5.615478515625
0.0115,-5.475341796875,0.930908203125,4.534423828125
0.012,-5.395263671875,2.292236328125,3.253173828125
0.0125,-5.195068359375,3.533447265625,2.132080078125
0.013,-5.074951171875,4.414306640625,1.291259765625
0.0135,-4.634521484375,4.814697265625,0.610595703125
0.014,-3.713623046875,4.934814453125,-0.430419921875
0.0145,-2.512451171875,5.094970703125,-1.751708984375
0.015,-1.231201171875,5.375244140625,-3.193115234375
0.0155,-0.390380859375,5.615478515625,-4.354248046875
0.016,0.290283203125,5.855712890625,-5.155029296875
0.0165,1.131103515625,5.415283203125,-5.715576171875
0.017,2.252197265625,4.374267578125,-5.955810546875
0.0175,3.533447265625,3.052978515625,-6.276123046875
0.018,4.614501953125,1.931884765625,-6.356201171875
0.0185,5.215087890625,1.091064453125,-6.436279296875
0.019,5.375244140625,0.490478515625,-6.276123046875
0.0195,5.175048828125,-0.390380859375,-5.595458984375
0.02,4.974853515625,-1.511474609375,-4.514404296875
0.0205,4.934814453125,-2.912841796875,-3.353271484375
0.021,4.814697265625,-4.033935546875,-2.312255859375
0.0215,4.734619140625,-4.874755859375,-1.591552734375
0.022,4.214111328125,-5.275146484375,-0.830810546875
0.0225,3.213134765625,-5.435302734375,0.290283203125
0.023,2.052001953125,-5.755615234375,1.691650390625
0.0235,0.890869140625,-5.955810546875,3.093017578125
0.024,0.170166015625,-6.316162109375,4.134033203125
0.0245,-0.590576171875,-6.476318359375,4.934814453125
0.025,-1.471435546875,-5.915771484375,5.415283203125
0.0255,-2.712646484375,-4.874755859375,5.735595703125
0.026,-4.033935546875,-3.553466796875,6.015869140625
0.0265,-4.954833984375,-2.472412109375,6.135986328125
0.027,-5.435302734375,-1.791748046875,6.216064453125
0.0275,-5.475341796875,-1.151123046875,5.895751953125
0.028,-5.275146484375,-0.270263671875,5.094970703125
0.0285,-5.195068359375,1.010986328125,4.093994140625
0.029,-5.155029296875,2.372314453125,2.932861328125
0.0295,-5.114990234375,3.413330078125,2.052001953125
0.03,-4.994873046875,4.134033203125,1.411376953125
0.0305,-4.354248046875,4.454345703125,0.610595703125
0.031,-3.313232421875,4.654541015625,-0.590576171875
0.0315,-2.192138671875,5.014892578125,-2.072021484375
0.032,-1.231201171875,5.295166015625,-3.233154296875
0.0325,-0.590576171875,5.615478515625,-4.274169921875
0.033,0.250244140625,5.575439453125,-4.994873046875
0.0335,1.291259765625,4.814697265625,-5.435302734375
0.034,2.572509765625,3.813720703125,-5.755615234375
0.0345,3.813720703125,2.572509765625,-6.035888671875
0.035,4.534423828125,1.691650390625,-6.196044921875
0.0355,4.934814453125,1.091064453125,-6.276123046875
0.036,4.934814453125,0.370361328125,-5.795654296875
0.0365,4.814697265625,-0.670654296875,-4.994873046875
0.037,4.774658203125,-1.951904296875,-3.873779296875
0.0375,4.774658203125,-3.193115234375,-2.912841796875
0.038,4.654541015625,-4.154052734375,-2.112060546875
0.0385,4.494384765625,-4.754638671875,-1.471435546875
0.039,3.693603515625,-4.994873046875,-0.590576171875
0.0395,2.692626953125,-5.315185546875,0.730712890625
0.04,1.571533203125,-5.635498046875,2.172119140625
0.0405,0.770751953125,-6.075927734375,3.333251953125
0.041,0.130126953125,-6.396240234375,4.214111328125
0.0415,-0.790771484375,-6.156005859375,4.814697265625
0.042,-1.871826171875,-5.275146484375,5.255126953125
0.0425,-3.193115234375,-4.154052734375,5.615478515625
0.043,-4.234130859375,-3.032958984375,5.855712890625
0.0435,-4.954833984375,-2.272216796875,6.055908203125
0.044,-5.195068359375,-1.631591796875,5.975830078125
0.0445,-5.155029296875,-0.910888671875,5.415283203125
0.045,-5.074951171875,0.210205078125,4.574462890625
0.0455,-5.114990234375,1.571533203125,3.533447265625
0.046,-5.114990234375,2.692626953125,2.612548828125
0.0465,-5.074951171875,3.533447265625,1.931884765625
0.047,-4.634521484375,4.053955078125,1.211181640625
0.0475,-3.833740234375,4.334228515625,0.210205078125
0.048,-2.832763671875,4.774658203125,-1.231201171875
0.0485,-1.791748046875,5.094970703125,-2.552490234375
0.049,-1.071044921875,5.455322265625,-3.633544921875
0.0495,-0.470458984375,5.695556640625,-4.514404296875
0.05,0.650634765625,5.255126953125,-5.074951171875
0.0505,1.851806640625,4.334228515625,-5.475341796875
0.051,3.213134765625,3.093017578125,-5.835693359375
0.0515,4.174072265625,2.092041015625,-6.075927734375
0.052,4.774658203125,1.411376953125,-6.276123046875
0.0525,4.894775390625,0.730712890625,-6.035888671875
0.053,4.814697265625,-0.230224609375,-5.315185546875
0.0535,4.774658203125,-1.431396484375,-4.354248046875
0.054,4.774658203125,-2.752685546875,-3.273193359375
0.0545,4.774658203125,-3.833740234375,-2.392333984375
0.055,4.654541015625,-4.594482421875,-1.711669921875
0.0555,4.053955078125,-4.954833984375,-0.950927734375
0.056,3.052978515625,-5.195068359375,0.330322265625
0.0565,1.931884765625,-5.635498046875,1.771728515625
0.057,0.970947265625,-5.955810546875,3.052978515625
0.0575,0.290283203125,-6.356201171875,4.093994140625
0.058,-0.590576171875,-6.276123046875,4.814697265625
0.0585,-1.631591796875,-5.475341796875,5.255126953125
0.059,-2.912841796875,-4.394287109375,5.615478515625
0.0595,-4.194091796875,-3.193115234375,5.895751953125
0.06,-4.994873046875,-2.272216796875,6.095947265625
0.0605,-5.315185546875,-1.591552734375,6.055908203125
0.061,-5.315185546875,-0.910888671875,5.575439453125
0.0615,-5.114990234375,0.210205078125,4.694580078125
0.062,-5.114990234375,1.531494140625,3.573486328125
0.0625,-5.114990234375,2.772705078125,2.572509765625
0.063,-5.034912109375,3.693603515625,1.771728515625
0.0635,-4.754638671875,4.254150390625,1.091064453125
0.064,-3.913818359375,4.494384765625,0.170166015625
0.0645,-2.872802734375,4.734619140625,-1.191162109375
0.065,-1.671630859375,5.094970703125,-2.672607421875
0.0655,-0.910888671875,5.415283203125,-3.833740234375
0.066,-0.270263671875,5.735595703125,-4.714599609375
0.0665,0.730712890625,5.375244140625,-5.275146484375
0.067,1.931884765625,4.414306640625,-5.635498046875
0.0675,3.293212890625,3.173095703125,-6.035888671875
0.068,4.334228515625,1.931884765625,-6.236083984375
0.0685,4.974853515625,1.211181640625,-6.276123046875
0.069,5.135009765625,0.570556640625,-6.115966796875
0.0695,5.014892578125,-0.350341796875,-5.435302734375
0.07,4.854736328125,-1.471435546875,-4.434326171875
0.0705,4.814697265625,-2.912841796875,-3.193115234375
0.071,4.774658203125,-4.033935546875,-2.232177734375
0.0715,4.614501953125,-4.834716796875,-1.471435546875
0.072,4.093994140625,-5.235107421875,-0.750732421875
0.0725,3.052978515625,-5.435302734375,0.450439453125
0.073,1.931884765625,-5.755615234375,1.891845703125
0.0735,0.770751953125,-6.035888671875,3.213134765625
0.074,0.050048828125,-6.316162109375,4.294189453125
0.0745,-0.710693359375,-6.356201171875,5.054931640625
0.075,-1.671630859375,-5.755615234375,5.495361328125
0.0755,-2.992919921875,-4.554443359375,5.815673828125
0.076,-4.354248046875,-3.193115234375,6.095947265625
0.0765,-5.195068359375,-2.152099609375,6.176025390625
0.077,-5.635498046875,-1.471435546875,6.216064453125
0.0775,-5.595458984375,-0.790771484375,5.775634765625
0.078,-5.355224609375,0.290283203125,4.854736328125
0.0785,-5.275146484375,1.531494140625,3.773681640625
0.079,-5.195068359375,2.932861328125,2.572509765625
0.0795,-5.114990234375,3.853759765625,1.731689453125
0.08,-4.874755859375,4.534423828125,0.970947265625
0.0805,-4.114013671875,4.774658203125,0.170166015625
0.081,-2.912841796875,4.854736328125,-1.191162109375
0.0815,-1.671630859375,5.215087890625,-2.752685546875
0.082,-0.710693359375,5.535400390625,-3.953857421875
0.0825,0.010009765625,5.815673828125,-4.954833984375
0.083,0.810791015625,5.615478515625,-5.595458984375
0.0835,1.971923828125,4.654541015625,-5.915771484375
0.084,3.333251953125,3.373291015625,-6.276123046875
0.0845,4.614501953125,2.052001953125,-6.436279296875
0.085,5.255126953125,1.091064453125,-6.516357421875
0.0855,5.575439453125,0.410400390625,-6.396240234375
0.086,5.415283203125,-0.510498046875,-5.755615234375
0.0865,5.135009765625,-1.631591796875,-4.634521484375
0.087,5.094970703125,-3.193115234375,-3.273193359375
0.0875,4.974853515625,-4.434326171875,-2.112060546875
0.088,4.774658203125,-5.275146484375,-1.271240234375
0.0885,4.334228515625,-5.795654296875,-0.590576171875
0.089,3.253173828125,-5.915771484375,0.610595703125
0.0895,1.851806640625,-6.115966796875,2.092041015625
0.09,0.490478515625,-6.276123046875,3.733642578125
0.0905,-0.390380859375,-6.516357421875,4.814697265625
0.091,-1.111083984375,-6.596435546875,5.615478515625
0.0915,-2.072021484375,-5.995849609375,6.095947265625
0.092,-3.393310546875,-4.674560546875,6.376220703125
0.0925,-4.834716796875,-3.193115234375,6.576416015625
0.093,-5.795654296875,-1.911865234375,6.576416015625
0.0935,-6.236083984375,-1.031005859375,6.536376953125
0.094,-6.236083984375,-0.310302734375,6.095947265625
0.0945,-5.915771484375,0.770751953125,5.054931640625
0.095,-5.635498046875,2.172119140625,3.693603515625
0.0955,-5.475341796875,3.693603515625,2.252197265625
0.096,-5.235107421875,4.694580078125,1.251220703125
0.0965,-4.874755859375,5.255126953125,0.450439453125
0.097,-4.114013671875,5.455322265625,-0.510498046875
0.0975,-2.792724609375,5.415283203125,-1.791748046875
0.098,-1.311279296875,5.695556640625,-3.393310546875
0.0985,0.010009765625,5.815673828125,-4.754638671875
0.099,0.690673828125,5.975830078125,-5.635498046875
0.0995,1.411376953125,5.815673828125,-6.316162109375
0.1,2.532470703125,4.814697265625,-6.596435546875
0.1005,3.973876953125,3.293212890625,-6.796630859375
0.101,5.255126953125,1.771728515625,-6.916748046875
0.1015,5.935791015625,0.610595703125,-6.796630859375
0.102,6.135986328125,-0.230224609375,-6.636474609375
0.1025,5.935791015625,-0.990966796875,-5.955810546875
0.103,5.495361328125,-2.112060546875,-4.714599609375
0.1035,5.255126953125,-3.553466796875,-3.193115234375
0.104,5.054931640625,-4.914794921875,-1.911865234375
0.1045,4.774658203125,-5.795654296875,-0.910888671875
0.105,4.334228515625,-6.276123046875,-0.230224609375
0.1055,3.293212890625,-6.396240234375,0.810791015625
0.106,1.851806640625,-6.316162109375,2.292236328125
0.1065,0.330322265625,-6.476318359375,3.933837890625
0.107,-0.750732421875,-6.556396484375,5.094970703125
0.1075,-1.391357421875,-6.676513671875,5.895751953125
0.108,-2.192138671875,-6.276123046875,6.416259765625
0.1085,-3.393310546875,-5.034912109375,6.616455078125
0.109,-4.834716796875,-3.553466796875,6.776611328125
0.1095,-5.915771484375,-2.072021484375,6.816650390625
0.11,-6.476318359375,-1.031005859375,6.696533203125
0.1105,-6.556396484375,-0.350341796875,6.376220703125
0.111,-6.276123046875,0.610595703125,5.535400390625
0.1115,-5.835693359375,1.811767578125,4.174072265625
0.112,-5.635498046875,3.333251953125,2.692626953125
0.1125,-5.395263671875,4.494384765625,1.451416015625
0.113,-5.074951171875,5.255126953125,0.650634765625
0.1135,-4.514404296875,5.575439453125,-0.230224609375
0.114,-3.313232421875,5.615478515625,-1.271240234375
0.1145,-1.831787109375,5.735595703125,-2.872802734375
0.115,-0.390380859375,5.855712890625,-4.434326171875
0.1155,0.530517578125,6.015869140625,-5.435302734375
0.116,1.131103515625,6.095947265625,-6.196044921875
0.1165,2.052001953125,5.375244140625,-6.596435546875
0.117,3.453369140625,3.973876953125,-6.796630859375
0.1175,4.814697265625,2.412353515625,-6.996826171875
0.118,5.735595703125,1.091064453125,-6.916748046875
0.1185,6.176025390625,0.250244140625,-6.796630859375
0.119,6.135986328125,-0.630615234375,-6.396240234375
0.1195,5.775634765625,-1.591552734375,-5.355224609375
0.12,5.455322265625,-2.992919921875,-3.913818359375
0.1205,5.255126953125,-4.554443359375,-2.432373046875
0.121,4.974853515625,-5.635498046875,-1.311279296875
0.1215,4.614501953125,-6.276123046875,-0.550537109375
0.122,3.853759765625,-6.396240234375,0.450439453125
0.1225,2.492431640625,-6.356201171875,1.691650390625
0.123,0.930908203125,-6.516357421875,3.413330078125
0.1235,-0.470458984375,-6.596435546875,4.814697265625
0.124,-1.191162109375,-6.756591796875,5.735595703125
0.1245,-1.871826171875,-6.556396484375,6.376220703125
0.125,-2.992919921875,-5.635498046875,6.696533203125
0.1255,-4.434326171875,-4.073974609375,6.856689453125
0.126,-5.715576171875,-2.512451171875,6.936767578125
0.1265,-6.436279296875,-1.271240234375,6.776611328125
0.127,-6.636474609375,-0.550537109375,6.616455078125
0.1275,-6.436279296875,0.370361328125,5.895751953125
0.128,-6.035888671875,1.571533203125,4.614501953125
0.1285,-5.755615234375,2.972900390625,3.133056640625
0.129,-5.475341796875,4.334228515625,1.731689453125
0.1295,-5.275146484375,5.215087890625,0.770751953125
0.13,-4.754638671875,5.735595703125,0.010009765625
0.1305,-3.713623046875,5.775634765625,-1.031005859375
0.131,-2.232177734375,5.775634765625,-2.472412109375
0.1315,-0.670654296875,5.975830078125,-4.194091796875
0.132,0.490478515625,6.015869140625,-5.395263671875
0.1325,1.131103515625,6.135986328125,-6.196044921875
0.133,1.931884765625,5.695556640625,-6.716552734375
0.1335,3.173095703125,4.374267578125,-6.916748046875
0.134,4.614501953125,2.852783203125,-7.076904296875
0.1345,5.735595703125,1.331298828125,-7.076904296875
0.135,6.256103515625,0.330322265625,-6.916748046875
0.1355,6.336181640625,-0.510498046875,-6.596435546875
0.136,6.015869140625,-1.391357421875,-5.755615234375
0.1365,5.575439453125,-2.672607421875,-4.354248046875
0.137,5.295166015625,-4.234130859375,-2.752685546875
0.1375,5.014892578125,-5.435302734375,-1.511474609375
0.138,4.694580078125,-6.115966796875,-0.630615234375
0.1385,4.093994140625,-6.436279296875,0.250244140625
0.139,2.852783203125,-6.396240234375,1.331298828125
0.1395,1.331298828125,-6.436279296875,2.852783203125
0.14,-0.230224609375,-6.556396484375,4.454345703125
0.1405,-1.031005859375,-6.636474609375,5.415283203125
0.141,-1.631591796875,-6.676513671875,6.095947265625
0.1415,-2.512451171875,-5.995849609375,6.496337890625
0.142,-3.833740234375,-4.594482421875,6.656494140625
0.1425,-5.155029296875,-3.072998046875,6.776611328125
0.143,-6.075927734375,-1.751708984375,6.696533203125
0.1435,-6.476318359375,-0.910888671875,6.576416015625
0.144,-6.396240234375,-0.190185546875,6.135986328125
0.1445,-6.035888671875,0.770751953125,5.135009765625
0.145,-5.715576171875,1.971923828125,3.853759765625
0.1455,-5.475341796875,3.493408203125,2.412353515625
0.146,-5.275146484375,4.534423828125,1.371337890625
0.1465,-4.994873046875,5.215087890625,0.610595703125
0.147,-4.234130859375,5.415283203125,-0.270263671875
0.1475,-2.992919921875,5.415283203125,-1.391357421875
0.148,-1.631591796875,5.615478515625,-2.952880859375
0.1485,-0.390380859375,5.735595703125,-4.354248046875
0.149,0.450439453125,5.935791015625,-5.315185546875
0.1495,1.091064453125,5.895751953125,-5.995849609375
0.15,2.052001953125,5.135009765625,-6.356201171875
0.1505,3.333251953125,3.773681640625,-6.516357421875
0.151,4.694580078125,2.292236328125,-6.716552734375
0.1515,5.495361328125,1.171142578125,-6.716552734375
0.152,5.895751953125,0.410400390625,-6.676513671875
0.1525,5.775634765625,-0.470458984375,-6.156005859375
0.153,5.455322265625,-1.431396484375,-5.155029296875
0.1535,5.175048828125,-2.832763671875,-3.833740234375
0.154,5.094970703125,-4.154052734375,-2.512451171875
0.1545,4.894775390625,-5.155029296875,-1.551513671875
0.155,4.614501953125,-5.755615234375,-0.790771484375
0.1555,3.773681640625,-5.955810546875,0.170166015625
0.156,2.452392578125,-6.035888671875,1.451416015625
0.1565,1.010986328125,-6.276123046875,3.133056640625
0.157,0.010009765625,-6.396240234375,4.334228515625
0.1575,-0.790771484375,-6.596435546875,5.255126953125
0.158,-1.551513671875,-6.396240234375,5.895751953125
0.1585,-2.712646484375,-5.355224609375,6.135986328125
0.159,-4.033935546875,-3.993896484375,6.376220703125
0.1595,-5.235107421875,-2.592529296875,6.496337890625
0.16,-5.875732421875,-1.591552734375,6.456298828125
0.1605,-6.115966796875,-0.990966796875,6.336181640625
0.161,-5.915771484375,-0.150146484375,5.615478515625
0.1615,-5.595458984375,1.010986328125,4.494384765625
0.162,-5.435302734375,2.492431640625,3.173095703125
0.1625,-5.275146484375,3.693603515625,1.971923828125
0.163,-5.074951171875,4.534423828125,1.211181640625
0.1635,-4.634521484375,4.974853515625,0.490478515625
0.164,-3.633544921875,5.094970703125,-0.590576171875
0.1645,-2.392333984375,5.255126953125,-1.951904296875
0.165,-1.071044921875,5.455322265625,-3.513427734375
0.1655,-0.230224609375,5.695556640625,-4.554443359375
0.166,0.490478515625,5.895751953125,-5.395263671875
0.1665,1.331298828125,5.375244140625,-5.835693359375
0.167,2.532470703125,4.254150390625,-6.115966796875
0.1675,3.853759765625,2.932861328125,-6.356201171875
0.168,4.814697265625,1.731689453125,-6.436279296875
0.1685,5.375244140625,0.850830078125,-6.436279296875
0.169,5.455322265625,0.170166015625,-6.236083984375
0.1695,5.255126953125,-0.710693359375,-5.475341796875
0.17,5.014892578125,-1.831787109375,-4.354248046875
0.1705,4.894775390625,-3.193115234375,-3.072998046875
0.171,4.774658203125,-4.354248046875,-2.072021484375
0.1715,4.654541015625,-5.114990234375,-1.311279296875
0.172,4.093994140625,-5.475341796875,-0.590576171875
0.1725,3.052978515625,-5.595458984375,0.530517578125
0.173,1.891845703125,-5.835693359375,1.931884765625
0.1735,0.650634765625,-6.035888671875,3.333251953125
0.174,-0.150146484375,-6.356201171875,4.334228515625
0.1745,-0.790771484375,-6.436279296875,5.094970703125
0.175,-1.711669921875,-5.795654296875,5.575439453125
0.1755,-2.912841796875,-4.714599609375,5.815673828125
0.176,-4.194091796875,-3.393310546875,6.095947265625
0.1765,-5.114990234375,-2.392333984375,6.135986328125
0.177,-5.515380859375,-1.671630859375,6.256103515625
0.1775,-5.635498046875,-0.990966796875,5.895751953125
0.178,-5.355224609375,0.010009765625,5.094970703125
0.1785,-5.275146484375,1.171142578125,4.053955078125
0.179,-5.195068359375,2.532470703125,2.852783203125
0.1795,-5.114990234375,3.533447265625,2.011962890625
0.18,-4.954833984375,4.214111328125,1.291259765625
0.1805,-4.274169921875,4.534423828125,0.530517578125
0.181,-3.273193359375,4.774658203125,-0.710693359375
0.1815,-2.112060546875,5.094970703125,-2.152099609375
0.182,-1.151123046875,5.335205078125,-3.393310546875
0.1825,-0.510498046875,5.735595703125,-4.394287109375
0.183,0.370361328125,5.615478515625,-5.114990234375
0.1835,1.411376953125,4.854736328125,-5.475341796875
0.184,2.692626953125,3.773681640625,-5.835693359375
0.1845,3.853759765625,2.532470703125,-6.115966796875
0.185,4.614501953125,1.571533203125,-6.236083984375
0.1855,5.054931640625,0.970947265625,-6.316162109375
0.186,5.054931640625,0.290283203125,-5.835693359375
0.1865,4.854736328125,-0.750732421875,-4.994873046875
0.187,4.814697265625,-2.072021484375,-3.873779296875
0.1875,4.774658203125,-3.273193359375,-2.832763671875
0.188,4.694580078125,-4.234130859375,-2.031982421875
