wavelength,x,y,z
0.0,-5.155029296875,1.411376953125,3.733642578125
0.0005,-5.155029296875,2.772705078125,2.572509765625
0.001,-5.114990234375,3.773681640625,1.771728515625
0.0015,-4.834716796875,4.414306640625,1.131103515625
0.002,-4.033935546875,4.574462890625,0.250244140625
0.0025,-2.872802734375,4.774658203125,-1.111083984375
0.003,-1.631591796875,5.094970703125,-2.592529296875
0.0035,-0.830810546875,5.495361328125,-3.833740234375
0.004,-0.270263671875,5.775634765625,-4.714599609375
0.0045,0.610595703125,5.575439453125,-5.315185546875
0.005,1.771728515625,4.614501953125,-5.595458984375
0.0055,3.012939453125,3.413330078125,-5.915771484375
0.006,4.174072265625,2.252197265625,-6.156005859375
0.0065,4.894775390625,1.451416015625,-6.396240234375
0.007,5.094970703125,0.890869140625,-6.356201171875
0.0075,4.974853515625,0.130126953125,-5.715576171875
0.008,4.774658203125,-0.990966796875,-4.754638671875
0.0085,4.654541015625,-2.352294921875,-3.553466796875
0.009,4.734619140625,-3.593505859375,-2.592529296875
0.0095,4.734619140625,-4.474365234375,-1.911865234375
0.01,4.334228515625,-4.954833984375,-1.231201171875
0.0105,3.373291015625,-5.074951171875,-0.270263671875
0.011,2.252197265625,-5.395263671875,1.211181640625
0.0115,1.211181640625,-5.755615234375,2.612548828125
0.012,0.490478515625,-6.196044921875,3.733642578125
0.0125,-0.230224609375,-6.396240234375,4.534423828125
0.013,-1.031005859375,-5.995849609375,5.054931640625
0.0135,-2.232177734375,-4.994873046875,5.375244140625
0.014,-3.513427734375,-3.833740234375,5.695556640625
0.0145,-4.554443359375,-2.832763671875,6.015869140625
0.015,-5.114990234375,-2.112060546875,6.216064453125
0.0155,-5.275146484375,-1.551513671875,6.015869140625
0.016,-5.074951171875,-0.750732421875,5.255126953125
0.0165,-4.994873046875,0.450439453125,4.334228515625
0.017,-4.994873046875,1.771728515625,3.293212890625
0.0175,-5.114990234375,2.892822265625,2.412353515625
0.018,-5.074951171875,3.693603515625,1.811767578125
0.0185,-4.514404296875,4.134033203125,1.051025390625
0.019,-3.553466796875,4.334228515625,-0.150146484375
0.0195,-2.472412109375,4.774658203125,-1.551513671875
0.02,-1.551513671875,5.215087890625,-2.912841796875
0.0205,-0.910888671875,5.655517578125,-3.993896484375
0.021,-0.230224609375,5.735595703125,-4.754638671875
0.0215,0.890869140625,5.054931640625,-5.155029296875
0.022,2.172119140625,4.053955078125,-5.555419921875
0.0225,3.453369140625,2.852783203125,-5.915771484375
0.023,4.454345703125,1.931884765625,-6.276123046875
0.0235,4.854736328125,1.371337890625,-6.396240234375
0.024,4.934814453125,0.650634765625,-6.035888671875
0.0245,4.774658203125,-0.390380859375,-5.155029296875
0.025,4.694580078125,-1.671630859375,-4.114013671875
0.0255,4.694580078125,-3.072998046875,-3.072998046875
0.026,4.814697265625,-4.033935546875,-2.272216796875
0.0265,4.614501953125,-4.674560546875,-1.591552734375
0.027,3.813720703125,-4.994873046875,-0.670654296875
0.0275,2.692626953125,-5.235107421875,0.690673828125
0.028,1.571533203125,-5.595458984375,2.172119140625
0.0285,0.770751953125,-6.115966796875,3.453369140625
0.029,0.130126953125,-6.396240234375,4.374267578125
0.0295,-0.790771484375,-6.196044921875,5.014892578125
0.03,-1.911865234375,-5.235107421875,5.335205078125
0.0305,-3.193115234375,-4.114013671875,5.655517578125
0.031,-4.434326171875,-2.912841796875,6.015869140625
0.0315,-5.155029296875,-2.152099609375,6.216064453125
0.032,-5.395263671875,-1.551513671875,6.095947265625
0.0325,-5.195068359375,-0.790771484375,5.455322265625
0.033,-5.034912109375,0.370361328125,4.454345703125
0.0335,-5.074951171875,1.691650390625,3.333251953125
0.034,-5.114990234375,3.052978515625,2.372314453125
0.0345,-5.034912109375,3.853759765625,1.651611328125
0.035,-4.594482421875,4.334228515625,0.930908203125
0.0355,-3.593505859375,4.454345703125,-0.150146484375
0.036,-2.512451171875,4.774658203125,-1.551513671875
0.0365,-1.391357421875,5.135009765625,-2.992919921875
0.037,-0.710693359375,5.575439453125,-4.114013671875
0.0375,0.010009765625,5.735595703125,-4.874755859375
0.038,0.970947265625,5.215087890625,-5.395263671875
0.0385,2.212158203125,4.093994140625,-5.675537109375
0.039,3.533447265625,2.852783203125,-5.955810546875
0.0395,4.614501953125,1.771728515625,-6.276123046875
0.04,5.094970703125,1.131103515625,-6.436279296875
0.0405,5.135009765625,0.450439453125,-6.115966796875
0.041,4.854736328125,-0.550537109375,-5.235107421875
0.0415,4.734619140625,-1.751708984375,-4.154052734375
0.042,4.734619140625,-3.113037109375,-2.992919921875
0.0425,4.814697265625,-4.234130859375,-2.112060546875
0.043,4.614501953125,-4.954833984375,-1.431396484375
0.0435,3.893798828125,-5.235107421875,-0.630615234375
0.044,2.732666015625,-5.315185546875,0.690673828125
0.0445,1.531494140625,-5.675537109375,2.172119140625
0.045,0.610595703125,-6.115966796875,3.533447265625
0.0455,0.010009765625,-6.436279296875,4.534423828125
0.046,-0.870849609375,-6.356201171875,5.215087890625
0.0465,-1.951904296875,-5.435302734375,5.535400390625
0.047,-3.273193359375,-4.234130859375,5.855712890625
0.0475,-4.514404296875,-2.952880859375,6.095947265625
0.048,-5.395263671875,-2.031982421875,6.376220703125
0.0485,-5.675537109375,-1.431396484375,6.296142578125
0.049,-5.555419921875,-0.750732421875,5.735595703125
0.0495,-5.235107421875,0.450439453125,4.654541015625
0.05,-5.114990234375,1.771728515625,3.453369140625
0.0505,-5.155029296875,3.173095703125,2.332275390625
0.051,-5.114990234375,4.093994140625,1.531494140625
0.0515,-4.714599609375,4.574462890625,0.850830078125
0.052,-3.793701171875,4.734619140625,-0.230224609375
0.0525,-2.552490234375,4.934814453125,-1.551513671875
0.053,-1.311279296875,5.255126953125,-3.113037109375
0.0535,-0.510498046875,5.655517578125,-4.314208984375
0.054,0.170166015625,5.895751953125,-5.155029296875
0.0545,1.051025390625,5.455322265625,-5.715576171875
0.055,2.292236328125,4.334228515625,-5.955810546875
0.0555,3.653564453125,2.972900390625,-6.276123046875
0.056,4.814697265625,1.771728515625,-6.476318359375
0.0565,5.415283203125,0.930908203125,-6.596435546875
0.057,5.535400390625,0.250244140625,-6.396240234375
0.0575,5.255126953125,-0.710693359375,-5.595458984375
0.058,5.014892578125,-1.911865234375,-4.314208984375
0.0585,4.854736328125,-3.353271484375,-2.952880859375
0.059,4.934814453125,-4.634521484375,-1.951904296875
0.0595,4.734619140625,-5.435302734375,-1.151123046875
0.06,4.093994140625,-5.715576171875,-0.390380859375
0.0605,2.852783203125,-5.755615234375,0.930908203125
0.061,1.411376953125,-5.955810546875,2.492431640625
0.0615,0.250244140625,-6.276123046875,4.013916015625
0.062,-0.590576171875,-6.596435546875,5.094970703125
0.0625,-1.271240234375,-6.556396484375,5.815673828125
0.063,-2.312255859375,-5.715576171875,6.135986328125
0.0635,-3.753662109375,-4.274169921875,6.416259765625
0.064,-5.074951171875,-2.832763671875,6.536376953125
0.0645,-6.035888671875,-1.711669921875,6.696533203125
0.065,-6.316162109375,-0.990966796875,6.616455078125
0.0655,-6.236083984375,-0.270263671875,6.015869140625
0.066,-5.755615234375,1.010986328125,4.774658203125
0.0665,-5.435302734375,2.412353515625,3.333251953125
0.067,-5.315185546875,3.853759765625,1.971923828125
0.0675,-5.235107421875,4.854736328125,1.010986328125
0.068,-4.794677734375,5.415283203125,0.290283203125
0.0685,-3.793701171875,5.455322265625,-0.750732421875
0.069,-2.272216796875,5.455322265625,-2.192138671875
0.0695,-0.790771484375,5.615478515625,-3.873779296875
0.07,0.290283203125,5.895751953125,-5.155029296875
0.0705,0.890869140625,6.055908203125,-5.955810546875
0.071,1.731689453125,5.615478515625,-6.476318359375
0.0715,2.972900390625,4.334228515625,-6.676513671875
0.072,4.334228515625,2.812744140625,-6.836669921875
0.0725,5.495361328125,1.331298828125,-6.916748046875
0.073,6.135986328125,0.370361328125,-6.916748046875
0.0735,6.135986328125,-0.470458984375,-6.636474609375
0.074,5.815673828125,-1.231201171875,-5.755615234375
0.0745,5.375244140625,-2.472412109375,-4.314208984375
0.075,5.054931640625,-3.953857421875,-2.712646484375
0.0755,4.974853515625,-5.235107421875,-1.511474609375
0.076,4.694580078125,-6.075927734375,-0.670654296875
0.0765,4.134033203125,-6.356201171875,0.170166015625
0.077,2.852783203125,-6.276123046875,1.251220703125
0.0775,1.251220703125,-6.276123046875,2.852783203125
0.078,-0.310302734375,-6.396240234375,4.454345703125
0.0785,-1.031005859375,-6.716552734375,5.535400390625
0.079,-1.631591796875,-6.716552734375,6.216064453125
0.0795,-2.552490234375,-5.995849609375,6.576416015625
0.08,-3.913818359375,-4.514404296875,6.696533203125
0.0805,-5.195068359375,-3.072998046875,6.776611328125
0.081,-6.236083984375,-1.751708984375,6.856689453125
0.0815,-6.636474609375,-0.910888671875,6.736572265625
0.082,-6.516357421875,-0.190185546875,6.336181640625
0.0825,-6.075927734375,0.890869140625,5.175048828125
0.083,-5.635498046875,2.212158203125,3.733642578125
0.0835,-5.395263671875,3.653564453125,2.252197265625
0.084,-5.275146484375,4.854736328125,1.131103515625
0.0845,-4.994873046875,5.455322265625,0.410400390625
0.085,-4.154052734375,5.655517578125,-0.510498046875
0.0855,-2.752685546875,5.535400390625,-1.711669921875
0.086,-1.271240234375,5.695556640625,-3.353271484375
0.0865,0.090087890625,5.895751953125,-4.834716796875
0.087,0.770751953125,6.095947265625,-5.795654296875
0.0875,1.411376953125,6.015869140625,-6.436279296875
0.088,2.452392578125,5.014892578125,-6.716552734375
0.0885,3.853759765625,3.453369140625,-6.836669921875
0.089,5.135009765625,1.931884765625,-6.916748046875
0.0895,6.015869140625,0.770751953125,-7.036865234375
0.09,6.256103515625,0.130126953125,-6.876708984375
0.0905,6.055908203125,-0.790771484375,-6.276123046875
0.091,5.575439453125,-1.871826171875,-4.954833984375
0.0915,5.255126953125,-3.273193359375,-3.473388671875
0.092,5.094970703125,-4.754638671875,-2.031982421875
0.0925,4.934814453125,-5.755615234375,-1.071044921875
0.093,4.494384765625,-6.276123046875,-0.350341796875
0.0935,3.493408203125,-6.276123046875,0.650634765625
0.094,1.931884765625,-6.276123046875,2.132080078125
0.0945,0.410400390625,-6.396240234375,3.813720703125
0.095,-0.710693359375,-6.676513671875,5.135009765625
0.0955,-1.311279296875,-6.796630859375,6.015869140625
0.096,-2.112060546875,-6.396240234375,6.496337890625
0.0965,-3.353271484375,-5.155029296875,6.656494140625
0.097,-4.794677734375,-3.633544921875,6.776611328125
0.0975,-5.915771484375,-2.192138671875,6.856689453125
0.098,-6.596435546875,-1.151123046875,6.896728515625
0.0985,-6.636474609375,-0.470458984375,6.576416015625
0.099,-6.316162109375,0.490478515625,5.735595703125
0.0995,-5.835693359375,1.771728515625,4.294189453125
0.1,-5.515380859375,3.213134765625,2.732666015625
0.1005,-5.395263671875,4.574462890625,1.451416015625
0.101,-5.155029296875,5.415283203125,0.610595703125
0.1015,-4.514404296875,5.735595703125,-0.270263671875
0.102,-3.273193359375,5.615478515625,-1.311279296875
0.1025,-1.711669921875,5.735595703125,-2.912841796875
0.103,-0.270263671875,5.855712890625,-4.554443359375
0.1035,0.650634765625,6.095947265625,-5.755615234375
0.104,1.251220703125,6.135986328125,-6.396240234375
0.1045,2.212158203125,5.415283203125,-6.796630859375
0.105,3.573486328125,3.853759765625,-6.916748046875
0.1055,4.854736328125,2.332275390625,-7.036865234375
0.106,5.975830078125,1.010986328125,-7.076904296875
0.1065,6.376220703125,0.170166015625,-7.036865234375
0.107,6.256103515625,-0.630615234375,-6.516357421875
0.1075,5.815673828125,-1.631591796875,-5.395263671875
0.108,5.415283203125,-3.032958984375,-3.873779296875
0.1085,5.094970703125,-4.514404296875,-2.312255859375
0.109,5.014892578125,-5.755615234375,-1.231201171875
0.1095,4.654541015625,-6.276123046875,-0.430419921875
0.11,3.813720703125,-6.476318359375,0.490478515625
0.1105,2.332275390625,-6.356201171875,1.771728515625
0.111,0.770751953125,-6.436279296875,3.453369140625
0.1115,-0.630615234375,-6.596435546875,4.974853515625
0.112,-1.311279296875,-6.796630859375,5.895751953125
0.1125,-1.951904296875,-6.636474609375,6.416259765625
0.113,-3.032958984375,-5.635498046875,6.656494140625
0.1135,-4.394287109375,-4.114013671875,6.736572265625
0.114,-5.635498046875,-2.512451171875,6.856689453125
0.1145,-6.476318359375,-1.311279296875,6.896728515625
0.115,-6.676513671875,-0.630615234375,6.696533203125
0.1155,-6.396240234375,0.210205078125,6.055908203125
0.116,-5.875732421875,1.291259765625,4.734619140625
0.1165,-5.595458984375,2.652587890625,3.253173828125
0.117,-5.355224609375,4.093994140625,1.891845703125
0.1175,-5.195068359375,5.094970703125,0.930908203125
0.118,-4.754638671875,5.495361328125,0.210205078125
0.1185,-3.793701171875,5.575439453125,-0.790771484375
0.119,-2.312255859375,5.495361328125,-2.152099609375
0.1195,-0.830810546875,5.655517578125,-3.753662109375
0.12,0.290283203125,5.895751953125,-5.074951171875
0.1205,0.850830078125,6.055908203125,-5.915771484375
0.121,1.571533203125,5.735595703125,-6.396240234375
0.1215,2.692626953125,4.494384765625,-6.556396484375
0.122,4.093994140625,3.133056640625,-6.716552734375
0.1225,5.255126953125,1.651611328125,-6.836669921875
0.123,5.935791015625,0.730712890625,-6.916748046875
0.1235,6.055908203125,0.050048828125,-6.676513671875
0.124,5.775634765625,-0.790771484375,-5.955810546875
0.1245,5.335205078125,-1.951904296875,-4.634521484375
0.125,5.054931640625,-3.393310546875,-3.193115234375
0.1255,5.014892578125,-4.794677734375,-1.951904296875
0.126,4.814697265625,-5.635498046875,-1.111083984375
0.1265,4.334228515625,-6.075927734375,-0.390380859375
0.127,3.173095703125,-6.035888671875,0.730712890625
0.1275,1.771728515625,-6.115966796875,2.252197265625
0.128,0.290283203125,-6.276123046875,3.853759765625
0.1285,-0.630615234375,-6.676513671875,5.054931640625
0.129,-1.231201171875,-6.716552734375,5.775634765625
0.1295,-2.072021484375,-6.236083984375,6.216064453125
0.13,-3.353271484375,-4.834716796875,6.376220703125
0.1305,-4.634521484375,-3.393310546875,6.536376953125
0.131,-5.755615234375,-2.112060546875,6.696533203125
0.1315,-6.276123046875,-1.271240234375,6.696533203125
0.132,-6.236083984375,-0.630615234375,6.336181640625
0.1325,-5.795654296875,0.330322265625,5.335205078125
0.133,-5.475341796875,1.571533203125,4.013916015625
0.1335,-5.315185546875,3.012939453125,2.612548828125
0.134,-5.275146484375,4.294189453125,1.571533203125
0.1345,-4.994873046875,4.934814453125,0.850830078125
0.135,-4.354248046875,5.135009765625,0.090087890625
0.1355,-3.072998046875,5.094970703125,-1.151123046875
0.136,-1.671630859375,5.335205078125,-2.672607421875
0.1365,-0.510498046875,5.535400390625,-4.154052734375
0.137,0.290283203125,5.815673828125,-5.114990234375
0.1375,0.850830078125,5.775634765625,-5.795654296875
0.138,1.811767578125,5.054931640625,-6.115966796875
0.1385,3.093017578125,3.773681640625,-6.276123046875
0.139,4.334228515625,2.372314453125,-6.436279296875
0.1395,5.295166015625,1.291259765625,-6.596435546875
0.14,5.615478515625,0.650634765625,-6.596435546875
0.1405,5.535400390625,0.010009765625,-6.156005859375
0.141,5.135009765625,-1.031005859375,-5.114990234375
0.1415,4.894775390625,-2.312255859375,-3.873779296875
0.142,4.814697265625,-3.713623046875,-2.632568359375
0.1425,4.814697265625,-4.754638671875,-1.751708984375
0.143,4.574462890625,-5.395263671875,-1.111083984375
0.1435,3.773681640625,-5.515380859375,-0.310302734375
0.144,2.532470703125,-5.595458984375,1.010986328125
0.1445,1.251220703125,-5.835693359375,2.532470703125
0.145,0.250244140625,-6.236083984375,3.893798828125
0.1455,-0.470458984375,-6.556396484375,4.814697265625
0.146,-1.151123046875,-6.356201171875,5.415283203125
0.1465,-2.152099609375,-5.435302734375,5.695556640625
0.147,-3.473388671875,-4.194091796875,5.935791015625
0.1475,-4.634521484375,-2.952880859375,6.176025390625
0.148,-5.475341796875,-2.072021484375,6.376220703125
0.1485,-5.715576171875,-1.471435546875,6.336181640625
0.149,-5.555419921875,-0.790771484375,5.775634765625
0.1495,-5.275146484375,0.290283203125,4.774658203125
0.15,-5.155029296875,1.571533203125,3.653564453125
0.1505,-5.155029296875,2.932861328125,2.532470703125
0.151,-5.114990234375,3.893798828125,1.771728515625
0.1515,-4.834716796875,4.454345703125,1.091064453125
0.152,-3.913818359375,4.574462890625,0.170166015625
0.1525,-2.832763671875,4.774658203125,-1.231201171875
0.153,-1.591552734375,5.094970703125,-2.712646484375
0.1535,-0.830810546875,5.535400390625,-3.953857421875
0.154,-0.230224609375,5.815673828125,-4.834716796875
0.1545,0.690673828125,5.495361328125,-5.355224609375
0.155,1.851806640625,4.494384765625,-5.635498046875
0.1555,3.173095703125,3.333251953125,-5.915771484375
0.156,4.334228515625,2.172119140625,-6.276123046875
0.1565,4.974853515625,1.411376953125,-6.476318359375
0.157,5.175048828125,0.810791015625,-6.356201171875
0.1575,4.974853515625,0.050048828125,-5.635498046875
0.158,4.814697265625,-1.151123046875,-4.594482421875
0.1585,4.734619140625,-2.512451171875,-3.433349609375
0.159,4.814697265625,-3.793701171875,-2.512451171875
0.1595,4.774658203125,-4.594482421875,-1.791748046875
0.16,4.254150390625,-4.994873046875,-1.071044921875
0.1605,3.213134765625,-5.155029296875,0.090087890625
0.161,2.092041015625,-5.475341796875,1.411376953125
0.1615,0.970947265625,-5.915771484375,2.852783203125
0.162,0.330322265625,-6.276123046875,3.973876953125
0.1625,-0.390380859375,-6.356201171875,4.814697265625
0.163,-1.271240234375,-5.835693359375,5.175048828125
0.1635,-2.512451171875,-4.794677734375,5.455322265625
0.164,-3.793701171875,-3.553466796875,5.775634765625
0.1645,-4.834716796875,-2.552490234375,6.095947265625
0.165,-5.275146484375,-1.951904296875,6.216064453125
0.1655,-5.315185546875,-1.311279296875,5.935791015625
0.166,-5.114990234375,-0.510498046875,5.094970703125
0.1665,-4.994873046875,0.770751953125,4.093994140625
0.167,-4.994873046875,2.092041015625,3.012939453125
0.1675,-5.114990234375,3.253173828125,2.212158203125
0.168,-4.954833984375,3.933837890625,1.571533203125
0.1685,-4.314208984375,4.214111328125,0.770751953125
0.169,-3.273193359375,4.454345703125,-0.510498046875
0.1695,-2.232177734375,4.814697265625,-1.951904296875
0.17,-1.311279296875,5.295166015625,-3.193115234375
0.1705,-0.670654296875,5.695556640625,-4.194091796875
0.171,0.130126953125,5.615478515625,-4.914794921875
0.1715,1.131103515625,4.854736328125,-5.275146484375
0.172,2.412353515625,3.813720703125,-5.635498046875
0.1725,3.693603515625,2.612548828125,-5.955810546875
0.173,4.614501953125,1.771728515625,-6.276123046875
0.1735,4.934814453125,1.211181640625,-6.356201171875
0.174,4.934814453125,0.490478515625,-5.915771484375
0.1745,4.734619140625,-0.590576171875,-4.994873046875
0.175,4.654541015625,-1.871826171875,-3.913818359375
0.1755,4.774658203125,-3.193115234375,-2.872802734375
0.176,4.774658203125,-4.194091796875,-2.152099609375
0.1765,4.494384765625,-4.834716796875,-1.471435546875
0.177,3.693603515625,-5.034912109375,-0.590576171875
0.1775,2.532470703125,-5.355224609375,0.810791015625
0.178,1.411376953125,-5.635498046875,2.292236328125
0.1785,0.650634765625,-6.115966796875,3.573486328125
0.179,0.050048828125,-6.396240234375,4.454345703125
0.1795,-0.910888671875,-6.115966796875,5.014892578125
0.18,-2.031982421875,-5.155029296875,5.375244140625
0.1805,-3.353271484375,-3.953857421875,5.695556640625
0.181,-4.514404296875,-2.872802734375,6.015869140625
0.1815,-5.155029296875,-2.112060546875,6.256103515625
0.182,-5.395263671875,-1.511474609375,6.095947265625
0.1825,-5.155029296875,-0.710693359375,5.375244140625
0.183,-4.994873046875,0.490478515625,4.374267578125
0.1835,-4.994873046875,1.851806640625,3.253173828125
0.184,-5.114990234375,3.093017578125,2.332275390625
0.1845,-5.034912109375,3.813720703125,1.611572265625
0.185,-4.514404296875,4.214111328125,0.930908203125
0.1855,-3.553466796875,4.414306640625,-0.270263671875
0.186,-2.432373046875,4.774658203125,-1.591552734375
0.1865,-1.351318359375,5.175048828125,-3.072998046875
0.187,-0.710693359375,5.615478515625,-4.154052734375
0.1875,0.050048828125,5.735595703125,-4.914794921875
0.188,0.970947265625,5.094970703125,-5.315185546875
