wavelength,x,y,z
0.0,-0.2001953125,-6.326171875,4.32421875
0.0005,-0.880859375,-6.5263671875,5.205078125
0.001,-1.921875,-5.9658203125,5.8056640625
0.0015,-3.203125,-5.0048828125,6.166015625
0.002,-4.4443359375,-3.5634765625,6.4462890625
0.0025,-5.28515625,-2.2421875,6.3662109375
0.003,-5.8056640625,-1.4013671875,6.3662109375
0.0035,-5.845703125,-0.640625,5.9658203125
0.004,-5.765625,0.3203125,5.2451171875
0.0045,-5.4853515625,1.6416015625,3.923828125
0.005,-5.3251953125,3.0029296875,2.642578125
0.0055,-5.044921875,4.083984375,1.521484375
0.006,-4.8447265625,4.8046875,0.7607421875
0.0065,-4.083984375,5.0849609375,-0.240234375
0.007,-2.962890625,5.28515625,-1.4013671875
0.0075,-1.681640625,5.5654296875,-2.9228515625
0.008,-0.5205078125,5.6455078125,-4.244140625
0.0085,0.3603515625,5.8056640625,-5.205078125
0.009,1.12109375,5.685546875,-5.92578125
0.0095,2.2421875,4.9248046875,-6.486328125
0.01,3.68359375,3.5234375,-6.7265625
0.0105,4.8447265625,2.162109375,-6.8466796875
0.011,5.525390625,0.9609375,-6.6865234375
0.0115,5.845703125,0.240234375,-6.56640625
0.012,5.7255859375,-0.720703125,-5.92578125
0.0125,5.4853515625,-1.8017578125,-4.96484375
0.013,5.2451171875,-3.203125,-3.5634765625
0.0135,4.9248046875,-4.5244140625,-2.1220703125
0.014,4.6044921875,-5.4052734375,-1.12109375
0.0145,4.1640625,-5.9658203125,-0.3203125
0.015,3.283203125,-6.166015625,0.7607421875
0.0155,1.8818359375,-6.326171875,2.2421875
0.016,0.5205078125,-6.486328125,3.8037109375
0.0165,-0.640625,-6.5263671875,4.8447265625
0.017,-1.3212890625,-6.6865234375,5.765625
0.0175,-2.322265625,-6.166015625,6.3662109375
0.018,-3.4833984375,-5.125,6.7265625
0.0185,-4.8447265625,-3.603515625,6.88671875
0.019,-5.8056640625,-2.162109375,6.7666015625
0.0195,-6.326171875,-1.12109375,6.6064453125
0.02,-6.40625,-0.400390625,6.2861328125
0.0205,-6.166015625,0.640625,5.4453125
0.021,-5.845703125,1.921875,4.1240234375
0.0215,-5.60546875,3.283203125,2.7626953125
0.022,-5.1650390625,4.4443359375,1.4013671875
0.0225,-4.884765625,5.205078125,0.560546875
0.023,-4.1640625,5.525390625,-0.400390625
0.0235,-3.1630859375,5.685546875,-1.4814453125
0.024,-1.6416015625,5.8056640625,-3.123046875
0.0245,-0.3203125,5.8056640625,-4.5244140625
0.025,0.640625,5.8857421875,-5.4853515625
0.0255,1.28125,5.8857421875,-6.3662109375
0.026,2.482421875,5.1650390625,-6.806640625
0.0265,3.7236328125,3.8837890625,-7.0869140625
0.027,5.0048828125,2.4423828125,-7.20703125
0.0275,5.765625,0.9609375,-6.966796875
0.028,6.166015625,0.1201171875,-6.7666015625
0.0285,6.1259765625,-0.80078125,-6.2861328125
0.029,5.845703125,-1.76171875,-5.365234375
0.0295,5.4453125,-3.1630859375,-3.84375
0.03,5.125,-4.5244140625,-2.3623046875
0.0305,4.7646484375,-5.525390625,-1.1611328125
0.031,4.404296875,-6.166015625,-0.3603515625
0.0315,3.5234375,-6.40625,0.640625
0.032,2.2421875,-6.5263671875,1.921875
0.0325,0.7607421875,-6.6865234375,3.5634765625
0.033,-0.640625,-6.6064453125,4.8447265625
0.0335,-1.4013671875,-6.7265625,5.765625
0.034,-2.1220703125,-6.4462890625,6.40625
0.0345,-3.203125,-5.5654296875,6.88671875
0.035,-4.64453125,-4.0439453125,7.0068359375
0.0355,-5.7255859375,-2.5625,7.0068359375
0.036,-6.3662109375,-1.3212890625,6.7265625
0.0365,-6.56640625,-0.6005859375,6.5263671875
0.037,-6.40625,0.400390625,5.8056640625
0.0375,-6.1259765625,1.44140625,4.7646484375
0.038,-5.765625,2.8427734375,3.2431640625
0.0385,-5.3251953125,4.1240234375,1.841796875
0.039,-5.0048828125,5.044921875,0.7607421875
0.0395,-4.5244140625,5.5654296875,0.0
0.04,-3.603515625,5.7255859375,-1.0810546875
0.0405,-2.2021484375,5.765625,-2.5625
0.041,-0.80078125,5.92578125,-4.083984375
0.0415,0.3603515625,5.8857421875,-5.1650390625
0.042,1.0009765625,6.0859375,-6.0859375
0.0425,1.9619140625,5.60546875,-6.646484375
0.043,3.123046875,4.6044921875,-7.046875
0.0435,4.5244140625,3.04296875,-7.1669921875
0.044,5.5654296875,1.5615234375,-7.0869140625
0.0445,6.0859375,0.48046875,-6.88671875
0.045,6.2060546875,-0.3603515625,-6.6064453125
0.0455,5.9658203125,-1.28125,-5.765625
0.046,5.6455078125,-2.5625,-4.5244140625
0.0465,5.365234375,-3.9638671875,-3.04296875
0.047,4.96484375,-5.1650390625,-1.6416015625
0.0475,4.6044921875,-5.9658203125,-0.720703125
0.048,3.9638671875,-6.3662109375,0.240234375
0.0485,2.9228515625,-6.56640625,1.28125
0.049,1.4013671875,-6.6865234375,2.962890625
0.0495,-0.16015625,-6.6865234375,4.4443359375
0.05,-1.0810546875,-6.7265625,5.4453125
0.0505,-1.76171875,-6.7265625,6.24609375
0.051,-2.8828125,-5.9658203125,6.806640625
0.0515,-4.1640625,-4.6845703125,7.046875
0.052,-5.4453125,-3.203125,7.1669921875
0.0525,-6.2861328125,-1.7216796875,6.88671875
0.053,-6.646484375,-0.80078125,6.7265625
0.0535,-6.56640625,0.1201171875,6.2060546875
0.054,-6.2861328125,1.0810546875,5.2451171875
0.0545,-5.92578125,2.5224609375,3.68359375
0.055,-5.60546875,3.923828125,2.2421875
0.0555,-5.125,4.9248046875,0.9609375
0.056,-4.8046875,5.5654296875,0.16015625
0.0565,-3.8837890625,5.7255859375,-0.880859375
0.057,-2.642578125,5.8857421875,-2.1220703125
0.0575,-1.1611328125,6.005859375,-3.8037109375
0.058,0.2802734375,5.92578125,-5.044921875
0.0585,0.9609375,6.005859375,-5.92578125
0.059,1.76171875,5.8056640625,-6.6064453125
0.0595,2.8828125,4.9248046875,-7.046875
0.06,4.244140625,3.4033203125,-7.1669921875
0.0605,5.4052734375,1.921875,-7.1669921875
0.061,5.9658203125,0.640625,-6.88671875
0.0615,6.2060546875,-0.2001953125,-6.6865234375
0.062,6.0458984375,-1.041015625,-6.0458984375
0.0625,5.7255859375,-2.08203125,-5.0048828125
0.063,5.4052734375,-3.5234375,-3.4833984375
0.0635,4.96484375,-4.8046875,-1.9619140625
0.064,4.564453125,-5.6455078125,-0.9208984375
0.0645,4.1640625,-6.24609375,-0.16015625
0.065,3.283203125,-6.40625,0.880859375
0.0655,1.841796875,-6.5263671875,2.2822265625
0.066,0.4404296875,-6.5263671875,3.8037109375
0.0665,-0.7607421875,-6.486328125,4.9248046875
0.067,-1.361328125,-6.646484375,5.765625
0.0675,-2.2421875,-6.2861328125,6.3662109375
0.068,-3.283203125,-5.3251953125,6.6865234375
0.0685,-4.64453125,-3.8837890625,6.88671875
0.069,-5.6455078125,-2.40234375,6.7265625
0.0695,-6.166015625,-1.3212890625,6.56640625
0.07,-6.2861328125,-0.640625,6.3662109375
0.0705,-6.1259765625,0.2802734375,5.685546875
0.071,-5.765625,1.4013671875,4.484375
0.0715,-5.5654296875,2.72265625,3.1630859375
0.072,-5.1650390625,3.9638671875,1.841796875
0.0725,-4.96484375,4.7646484375,0.9208984375
0.073,-4.404296875,5.205078125,0.1201171875
0.0735,-3.6435546875,5.4052734375,-0.9609375
0.074,-2.2021484375,5.60546875,-2.40234375
0.0745,-0.8408203125,5.7255859375,-3.84375
0.075,0.16015625,5.8056640625,-4.884765625
0.0755,0.7607421875,6.0458984375,-5.765625
0.076,1.76171875,5.4453125,-6.2861328125
0.0765,3.0029296875,4.32421875,-6.6064453125
0.077,4.2041015625,3.04296875,-6.88671875
0.0775,5.125,1.6015625,-6.6865234375
0.078,5.6455078125,0.7607421875,-6.6865234375
0.0785,5.7255859375,0.0,-6.3662109375
0.079,5.60546875,-0.9208984375,-5.685546875
0.0795,5.28515625,-2.2021484375,-4.3642578125
0.08,5.044921875,-3.5634765625,-3.0029296875
0.0805,4.724609375,-4.6845703125,-1.841796875
0.081,4.5244140625,-5.4853515625,-1.0810546875
0.0815,3.84375,-5.8056640625,-0.2802734375
0.082,2.8427734375,-5.9658203125,1.0009765625
0.0825,1.5615234375,-6.166015625,2.482421875
0.083,0.2802734375,-6.2060546875,3.8037109375
0.0835,-0.6005859375,-6.4462890625,4.8046875
0.084,-1.2412109375,-6.4462890625,5.525390625
0.0845,-2.2822265625,-5.845703125,6.0458984375
0.085,-3.5634765625,-4.564453125,6.326171875
0.0855,-4.6845703125,-3.283203125,6.4462890625
0.086,-5.4453125,-2.08203125,6.326171875
0.0865,-5.8056640625,-1.4013671875,6.326171875
0.087,-5.765625,-0.640625,5.8857421875
0.0875,-5.6455078125,0.3203125,5.125
0.088,-5.4453125,1.5615234375,3.923828125
0.0885,-5.1650390625,2.8427734375,2.642578125
0.089,-4.96484375,3.8037109375,1.6416015625
0.0895,-4.6845703125,4.484375,0.880859375
0.09,-4.0439453125,4.8447265625,0.0400390625
0.0905,-2.962890625,5.0849609375,-1.28125
0.091,-1.8017578125,5.365234375,-2.642578125
0.0915,-0.720703125,5.4453125,-3.84375
0.092,0.0,5.765625,-4.8046875
0.0925,0.80078125,5.60546875,-5.525390625
0.093,1.8017578125,4.96484375,-6.0458984375
0.0935,3.123046875,3.763671875,-6.326171875
0.094,4.2041015625,2.4423828125,-6.40625
0.0945,4.9248046875,1.4013671875,-6.40625
0.095,5.2451171875,0.80078125,-6.40625
0.0955,5.2451171875,0.0400390625,-5.92578125
0.096,5.0849609375,-1.0810546875,-5.044921875
0.0965,4.96484375,-2.40234375,-3.8837890625
0.097,4.724609375,-3.603515625,-2.642578125
0.0975,4.564453125,-4.564453125,-1.841796875
0.098,4.2841796875,-5.125,-1.041015625
0.0985,3.603515625,-5.4853515625,-0.16015625
0.099,2.4423828125,-5.765625,1.28125
0.0995,1.201171875,-5.92578125,2.6826171875
0.1,0.2802734375,-6.166015625,3.8037109375
0.1005,-0.400390625,-6.4462890625,4.724609375
0.101,-1.3212890625,-6.1259765625,5.365234375
0.1015,-2.4423828125,-5.28515625,5.8056640625
0.102,-3.7236328125,-4.1240234375,6.1259765625
0.1025,-4.64453125,-2.8427734375,6.0859375
0.103,-5.28515625,-2.001953125,6.166015625
0.1035,-5.4853515625,-1.3212890625,6.005859375
0.104,-5.4453125,-0.6005859375,5.525390625
0.1045,-5.28515625,0.6005859375,4.484375
0.105,-5.1650390625,1.8818359375,3.36328125
0.1055,-5.0048828125,2.962890625,2.2421875
0.106,-4.884765625,3.84375,1.5615234375
0.1065,-4.404296875,4.32421875,0.7607421875
0.107,-3.6435546875,4.64453125,-0.3203125
0.1075,-2.6025390625,5.044921875,-1.6416015625
0.108,-1.44140625,5.205078125,-2.9228515625
0.1085,-0.720703125,5.4853515625,-3.9638671875
0.109,0.080078125,5.685546875,-4.8447265625
0.1095,1.0009765625,5.2451171875,-5.4453125
0.11,2.2421875,4.2041015625,-5.8056640625
0.1105,3.443359375,3.123046875,-6.1259765625
0.111,4.2841796875,1.9619140625,-6.1259765625
0.1115,4.7646484375,1.3212890625,-6.2861328125
0.112,4.96484375,0.640625,-6.005859375
0.1125,4.9248046875,-0.3203125,-5.4853515625
0.113,4.8447265625,-1.4814453125,-4.5244140625
0.1135,4.6044921875,-2.72265625,-3.3232421875
0.114,4.5244140625,-3.7236328125,-2.3623046875
0.1145,4.484375,-4.5244140625,-1.7216796875
0.115,3.9638671875,-4.96484375,-0.9208984375
0.1155,3.04296875,-5.3251953125,0.3603515625
0.116,1.9619140625,-5.685546875,1.7216796875
0.1165,0.9609375,-5.8857421875,2.8828125
0.117,0.3203125,-6.2861328125,3.923828125
0.1175,-0.6005859375,-6.24609375,4.724609375
0.118,-1.5615234375,-5.765625,5.3251953125
0.1185,-2.8828125,-4.6845703125,5.7255859375
0.119,-3.9638671875,-3.4833984375,5.8857421875
0.1195,-4.7646484375,-2.5224609375,6.005859375
0.12,-5.1650390625,-1.921875,6.0859375
0.1205,-5.28515625,-1.201171875,5.7255859375
0.121,-5.205078125,-0.2802734375,4.96484375
0.1215,-5.205078125,1.0810546875,4.00390625
0.122,-5.0048828125,2.322265625,2.8828125
0.1225,-4.96484375,3.2431640625,2.0419921875
0.123,-4.6845703125,3.923828125,1.3212890625
0.1235,-4.1640625,4.3642578125,0.48046875
0.124,-3.123046875,4.7646484375,-0.9609375
0.1245,-2.001953125,5.0849609375,-2.2822265625
0.125,-1.1611328125,5.365234375,-3.4033203125
0.1255,-0.5205078125,5.7255859375,-4.404296875
0.126,0.560546875,5.4052734375,-5.125
0.1265,1.681640625,4.64453125,-5.6455078125
0.127,2.9228515625,3.5634765625,-6.0458984375
0.1275,3.9638671875,2.3623046875,-6.1259765625
0.128,4.64453125,1.521484375,-6.2861328125
0.1285,4.9248046875,0.8408203125,-6.1259765625
0.129,4.96484375,0.0400390625,-5.7255859375
0.1295,4.8447265625,-1.2412109375,-4.7646484375
0.13,4.8046875,-2.4423828125,-3.603515625
0.1305,4.6044921875,-3.5634765625,-2.5625
0.131,4.5244140625,-4.4443359375,-1.8017578125
0.1315,4.083984375,-4.96484375,-1.0009765625
0.132,3.2431640625,-5.28515625,0.16015625
0.1325,2.2021484375,-5.685546875,1.521484375
0.133,1.041015625,-5.845703125,2.8427734375
0.1335,0.3203125,-6.166015625,3.8837890625
0.134,-0.5205078125,-6.326171875,4.7646484375
0.1345,-1.4814453125,-5.845703125,5.4052734375
0.135,-2.7626953125,-4.8447265625,5.7255859375
0.1355,-3.923828125,-3.603515625,6.0458984375
0.136,-4.8046875,-2.5224609375,6.0458984375
0.1365,-5.28515625,-1.8017578125,6.1259765625
0.137,-5.4052734375,-1.12109375,5.765625
0.1375,-5.4052734375,-0.2802734375,5.0849609375
0.138,-5.2451171875,1.12109375,4.083984375
0.1385,-5.0849609375,2.3623046875,2.8828125
0.139,-4.884765625,3.4033203125,1.921875
0.1395,-4.724609375,4.1240234375,1.2412109375
0.14,-4.1640625,4.5244140625,0.3603515625
0.1405,-3.1630859375,4.8046875,-0.9609375
0.141,-2.0419921875,5.205078125,-2.322265625
0.1415,-1.041015625,5.365234375,-3.5234375
0.142,-0.3603515625,5.7255859375,-4.5244140625
0.1425,0.6005859375,5.5654296875,-5.28515625
0.143,1.6416015625,4.9248046875,-5.8056640625
0.1435,3.0029296875,3.68359375,-6.166015625
0.144,4.1240234375,2.40234375,-6.2861328125
0.1445,4.8046875,1.4013671875,-6.326171875
0.145,5.125,0.720703125,-6.2861328125
0.1455,5.125,-0.2001953125,-5.8056640625
0.146,5.044921875,-1.1611328125,-4.884765625
0.1465,4.96484375,-2.5224609375,-3.763671875
0.147,4.724609375,-3.7236328125,-2.5224609375
0.1475,4.564453125,-4.64453125,-1.6416015625
0.148,4.2041015625,-5.205078125,-0.9208984375
0.1485,3.443359375,-5.525390625,0.1201171875
0.149,2.2421875,-5.8056640625,1.5615234375
0.1495,1.0009765625,-6.0458984375,3.0029296875
0.15,0.1201171875,-6.2861328125,4.083984375
0.1505,-0.640625,-6.4462890625,4.96484375
0.151,-1.6416015625,-6.0458984375,5.60546875
0.1515,-2.8427734375,-5.044921875,6.0458984375
0.152,-4.1240234375,-3.8037109375,6.3662109375
0.1525,-5.0849609375,-2.5224609375,6.2861328125
0.153,-5.6455078125,-1.6416015625,6.2861328125
0.1535,-5.765625,-1.0009765625,6.005859375
0.154,-5.6455078125,0.0,5.365234375
0.1545,-5.4052734375,1.28125,4.1240234375
0.155,-5.28515625,2.6025390625,2.9228515625
0.1555,-5.0048828125,3.68359375,1.76171875
0.156,-4.8447265625,4.484375,1.0009765625
0.1565,-4.2041015625,4.8447265625,0.16015625
0.157,-3.2431640625,5.0849609375,-1.0009765625
0.1575,-2.001953125,5.4052734375,-2.5625
0.158,-0.80078125,5.5654296875,-3.84375
0.1585,0.0400390625,5.765625,-4.884765625
0.159,0.80078125,5.765625,-5.685546875
0.1595,1.921875,5.0849609375,-6.24609375
0.16,3.3232421875,3.763671875,-6.56640625
0.1605,4.5244140625,2.40234375,-6.7666015625
0.161,5.28515625,1.201171875,-6.646484375
0.1615,5.60546875,0.4404296875,-6.6064453125
0.162,5.6455078125,-0.48046875,-6.0458984375
0.1625,5.4853515625,-1.4814453125,-5.1650390625
0.163,5.2451171875,-2.8828125,-3.8037109375
0.1635,4.96484375,-4.244140625,-2.3623046875
0.164,4.64453125,-5.1650390625,-1.3212890625
0.1645,4.32421875,-5.8056640625,-0.5205078125
0.165,3.443359375,-6.0859375,0.560546875
0.1655,2.0419921875,-6.2861328125,2.0419921875
0.166,0.6806640625,-6.4462890625,3.603515625
0.1665,-0.5205078125,-6.486328125,4.7646484375
0.167,-1.1611328125,-6.6865234375,5.6455078125
0.1675,-2.1220703125,-6.166015625,6.2861328125
0.168,-3.3232421875,-5.2451171875,6.6865234375
0.1685,-4.724609375,-3.7236328125,6.9267578125
0.169,-5.765625,-2.2822265625,6.7666015625
0.1695,-6.2861328125,-1.2412109375,6.56640625
0.17,-6.40625,-0.4404296875,6.326171875
0.1705,-6.166015625,0.6005859375,5.4853515625
0.171,-5.845703125,1.921875,4.1640625
0.1715,-5.60546875,3.283203125,2.7626953125
0.172,-5.1650390625,4.484375,1.4013671875
0.1725,-4.8447265625,5.1650390625,0.5205078125
0.173,-4.2041015625,5.5654296875,-0.4404296875
0.1735,-3.203125,5.685546875,-1.4814453125
0.174,-1.6416015625,5.8056640625,-3.1630859375
0.1745,-0.3203125,5.8857421875,-4.564453125
0.175,0.6806640625,5.8857421875,-5.525390625
0.1755,1.3212890625,5.92578125,-6.2861328125
0.176,2.4423828125,5.1650390625,-6.806640625
0.1765,3.68359375,3.8837890625,-7.0869140625
0.177,4.96484375,2.4423828125,-7.20703125
0.1775,5.7255859375,0.9609375,-6.9267578125
0.178,6.1259765625,0.1201171875,-6.7666015625
0.1785,6.0859375,-0.80078125,-6.2861328125
0.179,5.8056640625,-1.681640625,-5.365234375
0.1795,5.4453125,-3.123046875,-3.84375
0.18,5.125,-4.5244140625,-2.40234375
0.1805,4.724609375,-5.4853515625,-1.1611328125
0.181,4.404296875,-6.166015625,-0.3603515625
0.1815,3.5634765625,-6.40625,0.6005859375
0.182,2.3623046875,-6.486328125,1.8818359375
0.1825,0.880859375,-6.646484375,3.4833984375
0.183,-0.6005859375,-6.56640625,4.8046875
0.1835,-1.3212890625,-6.6865234375,5.7255859375
0.184,-2.08203125,-6.486328125,6.3662109375
0.1845,-3.203125,-5.6455078125,6.8466796875
0.185,-4.5244140625,-4.1640625,7.0068359375
0.1855,-5.7255859375,-2.72265625,7.046875
0.186,-6.326171875,-1.4013671875,6.7265625
0.1865,-6.56640625,-0.640625,6.56640625
0.187,-6.40625,0.3203125,5.8857421875
0.1875,-6.1259765625,1.361328125,4.8447265625
0.188,-5.765625,2.802734375,3.3232421875
0.1885,-5.4052734375,4.1240234375,1.921875
0.189,-5.0048828125,4.96484375,0.8408203125
0.1895,-4.564453125,5.4853515625,0.0400390625
0.19,-3.6435546875,5.685546875,-1.0009765625
0.1905,-2.2822265625,5.8056640625,-2.4423828125
0.191,-0.880859375,5.9658203125,-4.00390625
0.1915,0.3603515625,5.8857421875,-5.125
0.192,1.0009765625,6.0859375,-6.0458984375
0.1925,1.921875,5.5654296875,-6.646484375
0.193,3.0830078125,4.6044921875,-7.046875
0.1935,4.4443359375,3.04296875,-7.20703125
0.194,5.4853515625,1.5615234375,-7.0869140625
0.1945,6.0458984375,0.48046875,-6.8466796875
0.195,6.166015625,-0.3203125,-6.6064453125
0.1955,5.92578125,-1.2412109375,-5.8056640625
0.196,5.60546875,-2.482421875,-4.564453125
0.1965,5.365234375,-3.8837890625,-3.0830078125
0.197,4.9248046875,-5.125,-1.681640625
0.1975,4.6044921875,-5.92578125,-0.6806640625
0.198,3.9638671875,-6.3662109375,0.2001953125
0.1985,3.0029296875,-6.4462890625,1.28125
0.199,1.4013671875,-6.6064453125,2.8828125
0.1995,0.0,-6.6064453125,4.404296875
0.2,-1.0009765625,-6.6865234375,5.4052734375
0.2005,-1.681640625,-6.7666015625,6.2060546875
0.201,-2.802734375,-6.0458984375,6.6865234375
0.2015,-4.0439453125,-4.8447265625,7.0068359375
0.202,-5.3251953125,-3.2431640625,7.0869140625
0.2025,-6.166015625,-1.8017578125,6.88671875
0.203,-6.56640625,-0.880859375,6.6865234375
0.2035,-6.56640625,0.0400390625,6.2060546875
0.204,-6.2861328125,0.9609375,5.28515625
0.2045,-5.92578125,2.40234375,3.8037109375
0.205,-5.60546875,3.8037109375,2.3623046875
0.2055,-5.1650390625,4.8447265625,1.0810546875
0.206,-4.8447265625,5.4853515625,0.2802734375
0.2065,-4.00390625,5.7255859375,-0.7607421875
0.207,-2.802734375,5.845703125,-1.9619140625
0.2075,-1.28125,6.005859375,-3.603515625
0.208,0.16015625,5.92578125,-4.96484375
0.2085,0.9208984375,6.005859375,-5.845703125
0.209,1.6416015625,5.845703125,-6.5263671875
0.2095,2.802734375,4.9248046875,-7.046875
0.21,4.1240234375,3.5234375,-7.1669921875
0.2105,5.28515625,2.0419921875,-7.20703125
0.211,5.92578125,0.720703125,-6.9267578125
0.2115,6.2060546875,0.0,-6.7265625
0.212,6.0458984375,-1.0009765625,-6.0458984375
0.2125,5.765625,-2.001953125,-5.0849609375
0.213,5.4052734375,-3.443359375,-3.5634765625
0.2135,5.0048828125,-4.7646484375,-2.08203125
0.214,4.6044921875,-5.6455078125,-0.9609375
0.2145,4.2041015625,-6.166015625,-0.2001953125
0.215,3.3232421875,-6.3662109375,0.8408203125
0.2155,1.921875,-6.4462890625,2.2421875
0.216,0.5205078125,-6.56640625,3.8037109375
0.2165,-0.720703125,-6.5263671875,4.9248046875
0.217,-1.361328125,-6.6865234375,5.765625
0.2175,-2.2421875,-6.3662109375,6.326171875
0.218,-3.283203125,-5.365234375,6.7265625
0.2185,-4.64453125,-3.8837890625,6.88671875
0.219,-5.6455078125,-2.4423828125,6.7666015625
0.2195,-6.166015625,-1.3212890625,6.56640625
0.22,-6.326171875,-0.6806640625,6.40625
0.2205,-6.1259765625,0.2802734375,5.685546875
0.221,-5.8056640625,1.4013671875,4.5244140625
0.2215,-5.60546875,2.7626953125,3.1630859375
0.222,-5.1650390625,3.9638671875,1.8017578125
0.2225,-4.9248046875,4.8046875,0.9208984375
0.223,-4.404296875,5.2451171875,0.1201171875
0.2235,-3.5634765625,5.4453125,-0.9208984375
0.224,-2.2021484375,5.60546875,-2.4423828125
0.2245,-0.880859375,5.7255859375,-3.84375
0.225,0.2001953125,5.7255859375,-4.9248046875
0.2255,0.7607421875,5.9658203125,-5.765625
0.226,1.76171875,5.4453125,-6.3662109375
0.2265,3.0029296875,4.4443359375,-6.7265625
0.227,4.32421875,3.04296875,-6.9267578125
0.2275,5.205078125,1.6015625,-6.7666015625
