wavelength,x,y,z
0.0,5.125,1.4013671875,-6.6865234375
0.0005,5.365234375,0.6005859375,-6.4462890625
0.001,5.1650390625,-0.400390625,-5.6455078125
0.0015,4.9248046875,-1.521484375,-4.564453125
0.002,5.0048828125,-2.962890625,-3.4033203125
0.0025,5.0048828125,-4.244140625,-2.322265625
0.003,4.7646484375,-5.125,-1.44140625
0.0035,4.2041015625,-5.5654296875,-0.640625
0.004,3.123046875,-5.7255859375,0.6005859375
0.0045,1.921875,-6.0458984375,2.1220703125
0.005,0.7607421875,-6.4462890625,3.6435546875
0.0055,-0.16015625,-6.7265625,4.7646484375
0.006,-0.880859375,-6.7265625,5.4853515625
0.0065,-1.9619140625,-5.9658203125,5.92578125
0.007,-3.36328125,-4.6845703125,6.24609375
0.0075,-4.7646484375,-3.4033203125,6.6865234375
0.008,-5.7255859375,-2.2822265625,6.8466796875
0.0085,-6.0859375,-1.44140625,6.6865234375
0.009,-6.0458984375,-0.640625,6.0859375
0.0095,-5.765625,0.560546875,5.0048828125
0.01,-5.525390625,1.921875,3.763671875
0.0105,-5.525390625,3.443359375,2.482421875
0.011,-5.3251953125,4.5244140625,1.4013671875
0.0115,-4.9248046875,5.125,0.560546875
0.012,-4.00390625,5.365234375,-0.48046875
0.0125,-2.642578125,5.4052734375,-1.841796875
0.013,-1.4013671875,5.8056640625,-3.4833984375
0.0135,-0.3203125,6.0458984375,-4.8447265625
0.014,0.48046875,6.166015625,-5.7255859375
0.0145,1.28125,5.845703125,-6.2861328125
0.015,2.5224609375,4.724609375,-6.56640625
0.0155,3.8837890625,3.3232421875,-6.8466796875
0.016,5.1650390625,2.0419921875,-7.126953125
0.0165,5.8056640625,0.9609375,-7.046875
0.017,6.005859375,0.1201171875,-6.7265625
0.0175,5.7255859375,-0.880859375,-5.92578125
0.018,5.3251953125,-2.001953125,-4.564453125
0.0185,5.205078125,-3.4833984375,-3.2431640625
0.019,5.0849609375,-4.8046875,-2.0419921875
0.0195,4.8046875,-5.7255859375,-1.041015625
0.02,4.244140625,-6.1259765625,-0.2802734375
0.0205,3.1630859375,-6.2060546875,0.880859375
0.021,1.76171875,-6.2861328125,2.2822265625
0.0215,0.48046875,-6.6865234375,3.9638671875
0.022,-0.6005859375,-6.806640625,5.0849609375
0.0225,-1.2412109375,-6.88671875,5.8857421875
0.023,-2.1220703125,-6.2861328125,6.326171875
0.0235,-3.4833984375,-4.96484375,6.5263671875
0.024,-4.8447265625,-3.6435546875,6.88671875
0.0245,-5.8857421875,-2.4423828125,7.046875
0.025,-6.40625,-1.44140625,6.88671875
0.0255,-6.4462890625,-0.640625,6.4462890625
0.026,-6.1259765625,0.4404296875,5.4853515625
0.0265,-5.7255859375,1.7216796875,4.1240234375
0.027,-5.6455078125,3.2431640625,2.802734375
0.0275,-5.4853515625,4.484375,1.6416015625
0.028,-5.125,5.205078125,0.720703125
0.0285,-4.404296875,5.5654296875,-0.2802734375
0.029,-3.1630859375,5.5654296875,-1.44140625
0.0295,-1.8017578125,5.8056640625,-3.04296875
0.03,-0.5205078125,6.0859375,-4.564453125
0.0305,0.3603515625,6.24609375,-5.60546875
0.031,1.041015625,6.166015625,-6.2861328125
0.0315,2.1220703125,5.28515625,-6.6064453125
0.032,3.5234375,3.8837890625,-6.806640625
0.0325,4.8447265625,2.5625,-7.20703125
0.033,5.7255859375,1.361328125,-7.20703125
0.0335,6.0859375,0.4404296875,-7.0068359375
0.034,5.9658203125,-0.5205078125,-6.3662109375
0.0345,5.5654296875,-1.5615234375,-5.1650390625
0.035,5.3251953125,-2.8828125,-3.8837890625
0.0355,5.2451171875,-4.4443359375,-2.5224609375
0.036,5.044921875,-5.4853515625,-1.44140625
0.0365,4.6044921875,-6.1259765625,-0.6005859375
0.037,3.68359375,-6.2861328125,0.48046875
0.0375,2.2822265625,-6.2861328125,1.8017578125
0.038,0.9208984375,-6.646484375,3.5234375
0.0385,-0.2802734375,-6.8466796875,4.8447265625
0.039,-1.0009765625,-6.966796875,5.7255859375
0.0395,-1.8017578125,-6.6064453125,6.2861328125
0.04,-3.0029296875,-5.4853515625,6.5263671875
0.0405,-4.4443359375,-4.1640625,6.8466796875
0.041,-5.6455078125,-2.8427734375,7.0869140625
0.0415,-6.3662109375,-1.7216796875,7.046875
0.042,-6.5263671875,-0.880859375,6.7265625
0.0425,-6.24609375,0.1201171875,5.8857421875
0.043,-5.845703125,1.3212890625,4.6044921875
0.0435,-5.7255859375,2.8427734375,3.2431640625
0.044,-5.60546875,4.2041015625,1.921875
0.0445,-5.28515625,5.0849609375,0.9609375
0.045,-4.6845703125,5.5654296875,0.1201171875
0.0455,-3.5634765625,5.60546875,-1.0810546875
0.046,-2.2021484375,5.7255859375,-2.5625
0.0465,-0.8408203125,6.0859375,-4.244140625
0.047,0.2001953125,6.24609375,-5.4052734375
0.0475,0.880859375,6.2861328125,-6.166015625
0.048,1.8017578125,5.685546875,-6.56640625
0.0485,3.123046875,4.32421875,-6.806640625
0.049,4.5244140625,2.9228515625,-7.1669921875
0.0495,5.5654296875,1.6416015625,-7.3271484375
0.05,6.0859375,0.640625,-7.0869140625
0.0505,6.0859375,-0.240234375,-6.6865234375
0.051,5.7255859375,-1.2412109375,-5.6455078125
0.0515,5.4052734375,-2.4423828125,-4.2841796875
0.052,5.28515625,-4.00390625,-2.9228515625
0.0525,5.125,-5.205078125,-1.76171875
0.053,4.724609375,-5.9658203125,-0.80078125
0.0535,3.9638671875,-6.2861328125,0.16015625
0.054,2.72265625,-6.2861328125,1.3212890625
0.0545,1.3212890625,-6.486328125,2.9228515625
0.055,0.1201171875,-6.7265625,4.404296875
0.0555,-0.80078125,-6.88671875,5.4052734375
0.056,-1.44140625,-6.7666015625,6.0458984375
0.0565,-2.482421875,-5.9658203125,6.3662109375
0.057,-3.84375,-4.6044921875,6.6064453125
0.0575,-5.205078125,-3.3232421875,6.966796875
0.058,-6.0458984375,-2.1220703125,7.0068359375
0.0585,-6.3662109375,-1.2412109375,6.7666015625
0.059,-6.2861328125,-0.4404296875,6.2060546875
0.0595,-5.845703125,0.6806640625,5.0849609375
0.06,-5.6455078125,2.001953125,3.84375
0.0605,-5.525390625,3.443359375,2.5224609375
0.061,-5.3251953125,4.564453125,1.44140625
0.0615,-4.9248046875,5.125,0.6005859375
0.062,-4.0439453125,5.365234375,-0.400390625
0.0625,-2.8427734375,5.365234375,-1.6015625
0.063,-1.6015625,5.765625,-3.203125
0.0635,-0.5205078125,6.005859375,-4.5244140625
0.064,0.3603515625,6.166015625,-5.4853515625
0.0645,1.041015625,5.8857421875,-6.0458984375
0.065,2.162109375,4.9248046875,-6.3662109375
0.0655,3.443359375,3.68359375,-6.6865234375
0.066,4.724609375,2.482421875,-7.0068359375
0.0665,5.4853515625,1.361328125,-6.9267578125
0.067,5.7255859375,0.6005859375,-6.7666015625
0.0675,5.5654296875,-0.3603515625,-6.0859375
0.068,5.2451171875,-1.4013671875,-4.96484375
0.0685,5.1650390625,-2.7626953125,-3.8037109375
0.069,5.0849609375,-4.1640625,-2.5625
0.0695,4.9248046875,-5.125,-1.6015625
0.07,4.484375,-5.7255859375,-0.80078125
0.0705,3.5234375,-5.845703125,0.3203125
0.071,2.2822265625,-6.005859375,1.6015625
0.0715,1.0810546875,-6.4462890625,3.203125
0.072,0.080078125,-6.6865234375,4.484375
0.0725,-0.640625,-6.806640625,5.28515625
0.073,-1.5615234375,-6.40625,5.765625
0.0735,-2.7626953125,-5.28515625,6.0859375
0.074,-4.1240234375,-4.0439453125,6.5263671875
0.0745,-5.2451171875,-2.9228515625,6.7666015625
0.075,-5.845703125,-1.921875,6.6865234375
0.0755,-5.9658203125,-1.1611328125,6.40625
0.076,-5.765625,-0.2802734375,5.60546875
0.0765,-5.4853515625,0.9609375,4.4443359375
0.077,-5.4853515625,2.4423828125,3.2431640625
0.0775,-5.4052734375,3.68359375,2.1220703125
0.078,-5.125,4.5244140625,1.2412109375
0.0785,-4.5244140625,4.9248046875,0.400390625
0.079,-3.4833984375,5.044921875,-0.80078125
0.0795,-2.2822265625,5.365234375,-2.2021484375
0.08,-1.1611328125,5.7255859375,-3.68359375
0.0805,-0.3203125,5.8857421875,-4.7646484375
0.081,0.400390625,5.92578125,-5.4853515625
0.0815,1.3212890625,5.28515625,-5.845703125
0.082,2.6025390625,4.1640625,-6.1259765625
0.0825,3.9638671875,3.04296875,-6.56640625
0.083,4.8447265625,1.921875,-6.7265625
0.0835,5.3251953125,1.12109375,-6.646484375
0.084,5.365234375,0.3203125,-6.2060546875
0.0845,5.0849609375,-0.6806640625,-5.28515625
0.085,4.9248046875,-1.8017578125,-4.2841796875
0.0855,4.9248046875,-3.203125,-3.1630859375
0.086,4.8447265625,-4.3642578125,-2.1220703125
0.0865,4.6044921875,-5.0849609375,-1.3212890625
0.087,3.8837890625,-5.4052734375,-0.5205078125
0.0875,2.8427734375,-5.525390625,0.6806640625
0.088,1.76171875,-5.9658203125,2.162109375
0.0885,0.7607421875,-6.326171875,3.443359375
0.089,0.0400390625,-6.56640625,4.484375
0.0895,-0.80078125,-6.486328125,5.0849609375
0.09,-1.8017578125,-5.7255859375,5.4453125
0.0905,-3.0029296875,-4.6845703125,5.8857421875
0.091,-4.2841796875,-3.5634765625,6.326171875
0.0915,-5.0849609375,-2.6025390625,6.4462890625
0.092,-5.4453125,-1.8818359375,6.40625
0.0925,-5.4453125,-1.12109375,5.845703125
0.093,-5.2451171875,0.0,4.96484375
0.0935,-5.2451171875,1.201171875,4.00390625
0.094,-5.28515625,2.482421875,3.0029296875
0.0945,-5.1650390625,3.5234375,2.0419921875
0.095,-4.884765625,4.1640625,1.28125
0.0955,-4.1240234375,4.484375,0.3603515625
0.096,-3.1630859375,4.7646484375,-0.880859375
0.0965,-2.1220703125,5.205078125,-2.40234375
0.097,-1.2412109375,5.5654296875,-3.5634765625
0.0975,-0.6005859375,5.8056640625,-4.5244140625
0.098,0.3603515625,5.60546875,-5.0849609375
0.0985,1.4814453125,4.7646484375,-5.4853515625
0.099,2.72265625,3.84375,-5.9658203125
0.0995,3.84375,2.802734375,-6.3662109375
0.1,4.6044921875,1.8818359375,-6.4462890625
0.1005,4.9248046875,1.1611328125,-6.326171875
0.101,4.8447265625,0.3203125,-5.7255859375
0.1015,4.6845703125,-0.6806640625,-4.8447265625
0.102,4.8046875,-2.001953125,-3.923828125
0.1025,4.8046875,-3.203125,-2.962890625
0.103,4.724609375,-4.1640625,-2.1220703125
0.1035,4.32421875,-4.6845703125,-1.361328125
0.104,3.4833984375,-5.0048828125,-0.3603515625
0.1045,2.5625,-5.4853515625,0.9609375
0.105,1.6015625,-5.92578125,2.3623046875
0.1055,0.80078125,-6.326171875,3.443359375
0.106,0.16015625,-6.4462890625,4.32421875
0.1065,-0.8408203125,-6.0458984375,4.8046875
0.107,-1.9619140625,-5.1650390625,5.2451171875
0.1075,-3.283203125,-4.2041015625,5.8056640625
0.108,-4.32421875,-3.2431640625,6.1259765625
0.1085,-4.9248046875,-2.4423828125,6.24609375
0.109,-5.125,-1.76171875,5.9658203125
0.1095,-5.0048828125,-0.9208984375,5.28515625
0.11,-5.044921875,0.240234375,4.484375
0.1105,-5.125,1.5615234375,3.5634765625
0.111,-5.1650390625,2.6826171875,2.6826171875
0.1115,-5.0048828125,3.5234375,1.921875
0.112,-4.484375,3.9638671875,1.0810546875
0.1125,-3.603515625,4.244140625,0.0
0.113,-2.802734375,4.8447265625,-1.44140625
0.1135,-1.8818359375,5.28515625,-2.7626953125
0.114,-1.1611328125,5.685546875,-3.8037109375
0.1145,-0.3603515625,5.7255859375,-4.564453125
0.115,0.720703125,5.0849609375,-5.044921875
0.1155,1.921875,4.2841796875,-5.525390625
0.116,3.203125,3.283203125,-6.0859375
0.1165,4.1240234375,2.2822265625,-6.2861328125
0.117,4.6044921875,1.5615234375,-6.3662109375
0.1175,4.724609375,0.8408203125,-5.92578125
0.118,4.564453125,-0.2001953125,-5.125
0.1185,4.724609375,-1.3212890625,-4.3642578125
0.119,4.8046875,-2.642578125,-3.4033203125
0.1195,4.7646484375,-3.7236328125,-2.5224609375
0.12,4.5244140625,-4.4443359375,-1.8017578125
0.1205,3.84375,-4.8447265625,-0.8408203125
0.121,2.962890625,-5.1650390625,0.3603515625
0.1215,2.001953125,-5.765625,1.76171875
0.122,1.201171875,-6.1259765625,3.0029296875
0.1225,0.48046875,-6.4462890625,3.9638671875
0.123,-0.4404296875,-6.2060546875,4.64453125
0.1235,-1.5615234375,-5.4052734375,5.0849609375
0.124,-2.8828125,-4.5244140625,5.685546875
0.1245,-4.0439453125,-3.5234375,6.0859375
0.125,-4.8046875,-2.642578125,6.2060546875
0.1255,-5.125,-1.921875,6.0859375
0.126,-5.0849609375,-1.12109375,5.4853515625
0.1265,-5.0048828125,0.0,4.6845703125
0.127,-5.125,1.28125,3.8037109375
0.1275,-5.205078125,2.5224609375,2.8427734375
0.128,-5.0849609375,3.4833984375,1.9619140625
0.1285,-4.64453125,3.9638671875,1.201171875
0.129,-3.8037109375,4.2041015625,0.2001953125
0.1295,-2.962890625,4.724609375,-1.201171875
0.13,-1.9619140625,5.2451171875,-2.6025390625
0.1305,-1.1611328125,5.60546875,-3.7236328125
0.131,-0.48046875,5.765625,-4.564453125
0.1315,0.560546875,5.28515625,-5.125
0.132,1.76171875,4.404296875,-5.525390625
0.1325,3.123046875,3.36328125,-6.0859375
0.133,4.1240234375,2.3623046875,-6.3662109375
0.1335,4.724609375,1.521484375,-6.40625
0.134,4.8447265625,0.80078125,-6.0859375
0.1345,4.724609375,-0.2001953125,-5.28515625
0.135,4.6845703125,-1.28125,-4.4443359375
0.1355,4.8046875,-2.642578125,-3.4033203125
0.136,4.8046875,-3.8037109375,-2.5224609375
0.1365,4.6044921875,-4.64453125,-1.681640625
0.137,3.9638671875,-5.0048828125,-0.8408203125
0.1375,3.0029296875,-5.2451171875,0.3203125
0.138,2.0419921875,-5.765625,1.76171875
0.1385,1.12109375,-6.166015625,3.123046875
0.139,0.3603515625,-6.4462890625,4.1240234375
0.1395,-0.5205078125,-6.40625,4.8447265625
0.14,-1.6015625,-5.6455078125,5.28515625
0.1405,-2.9228515625,-4.6044921875,5.7255859375
0.141,-4.2041015625,-3.5634765625,6.2060546875
0.1415,-5.044921875,-2.5625,6.3662109375
0.142,-5.4453125,-1.8017578125,6.2861328125
0.1425,-5.4052734375,-1.0009765625,5.7255859375
0.143,-5.205078125,0.1201171875,4.8046875
0.1435,-5.205078125,1.44140625,3.763671875
0.144,-5.28515625,2.802734375,2.6826171875
0.1445,-5.125,3.763671875,1.76171875
0.145,-4.8046875,4.32421875,1.0009765625
0.1455,-3.923828125,4.564453125,0.0
0.146,-2.8427734375,4.9248046875,-1.3212890625
0.1465,-1.76171875,5.4052734375,-2.8828125
0.147,-0.9208984375,5.7255859375,-4.0439453125
0.1475,-0.2001953125,5.92578125,-4.96484375
0.148,0.7607421875,5.4853515625,-5.4853515625
0.1485,2.0419921875,4.484375,-5.845703125
0.149,3.4033203125,3.3232421875,-6.3662109375
0.1495,4.484375,2.2421875,-6.6064453125
0.15,5.125,1.28125,-6.6064453125
0.1505,5.28515625,0.560546875,-6.3662109375
0.151,5.0849609375,-0.400390625,-5.4853515625
0.1515,4.8447265625,-1.5615234375,-4.4443359375
0.152,4.96484375,-3.0029296875,-3.283203125
0.1525,4.9248046875,-4.32421875,-2.2822265625
0.153,4.64453125,-5.125,-1.4013671875
0.1535,4.083984375,-5.4853515625,-0.6005859375
0.154,3.0029296875,-5.60546875,0.6005859375
0.1545,1.841796875,-5.9658203125,2.1220703125
0.155,0.7607421875,-6.3662109375,3.5634765625
0.1555,0.0,-6.646484375,4.64453125
0.156,-0.8408203125,-6.646484375,5.4052734375
0.1565,-1.8818359375,-5.845703125,5.765625
0.157,-3.2431640625,-4.64453125,6.1259765625
0.1575,-4.64453125,-3.443359375,6.6064453125
0.158,-5.525390625,-2.3623046875,6.7265625
0.1585,-5.92578125,-1.4814453125,6.6064453125
0.159,-5.92578125,-0.6806640625,6.0458984375
0.1595,-5.6455078125,0.48046875,4.96484375
0.16,-5.4853515625,1.8017578125,3.763671875
0.1605,-5.4453125,3.2431640625,2.5224609375
0.161,-5.28515625,4.3642578125,1.521484375
0.1615,-4.9248046875,4.96484375,0.640625
0.162,-4.00390625,5.205078125,-0.400390625
0.1625,-2.72265625,5.28515625,-1.681640625
0.163,-1.4814453125,5.7255859375,-3.36328125
0.1635,-0.4404296875,6.005859375,-4.6845703125
0.164,0.3603515625,6.1259765625,-5.60546875
0.1645,1.201171875,5.8056640625,-6.1259765625
0.165,2.482421875,4.64453125,-6.40625
0.1655,3.84375,3.3232421875,-6.7666015625
0.166,5.0849609375,2.0419921875,-7.0869140625
0.1665,5.7255859375,0.9609375,-7.0068359375
0.167,5.8857421875,0.240234375,-6.6865234375
0.1675,5.6455078125,-0.80078125,-5.8056640625
0.168,5.2451171875,-2.001953125,-4.5244140625
0.1685,5.205078125,-3.5634765625,-3.203125
0.169,5.0849609375,-4.8447265625,-2.001953125
0.1695,4.7646484375,-5.7255859375,-1.041015625
0.17,4.2041015625,-6.1259765625,-0.240234375
0.1705,3.04296875,-6.166015625,0.9609375
0.171,1.6416015625,-6.326171875,2.4423828125
0.1715,0.3603515625,-6.646484375,4.1240234375
0.172,-0.640625,-6.806640625,5.1650390625
0.1725,-1.28125,-6.806640625,5.92578125
0.173,-2.2421875,-6.1259765625,6.3662109375
0.1735,-3.603515625,-4.7646484375,6.5263671875
0.174,-4.96484375,-3.443359375,6.9267578125
0.1745,-5.9658203125,-2.2421875,7.046875
0.175,-6.40625,-1.28125,6.88671875
0.1755,-6.40625,-0.48046875,6.3662109375
0.176,-6.0458984375,0.640625,5.28515625
0.1765,-5.7255859375,1.921875,3.9638671875
0.177,-5.6455078125,3.443359375,2.6025390625
0.1775,-5.4453125,4.6044921875,1.4013671875
0.178,-5.0048828125,5.3251953125,0.560546875
0.1785,-4.244140625,5.5654296875,-0.48046875
0.179,-2.8828125,5.5654296875,-1.681640625
0.1795,-1.5615234375,5.8857421875,-3.283203125
0.18,-0.3603515625,6.1259765625,-4.7646484375
0.1805,0.560546875,6.24609375,-5.7255859375
0.181,1.2412109375,6.0859375,-6.3662109375
0.1815,2.2822265625,5.0849609375,-6.646484375
0.182,3.68359375,3.7236328125,-6.8466796875
0.1825,5.0048828125,2.40234375,-7.20703125
0.183,5.8056640625,1.201171875,-7.1669921875
0.1835,6.0859375,0.3203125,-6.9267578125
0.184,5.8857421875,-0.640625,-6.24609375
0.1845,5.4853515625,-1.7216796875,-5.0048828125
0.185,5.28515625,-3.0830078125,-3.7236328125
0.1855,5.125,-4.564453125,-2.3623046875
0.186,4.96484375,-5.525390625,-1.3212890625
0.1865,4.484375,-6.1259765625,-0.48046875
0.187,3.5234375,-6.24609375,0.560546875
0.1875,2.2021484375,-6.24609375,1.8818359375
0.188,0.8408203125,-6.6064453125,3.5634765625
0.1885,-0.3203125,-6.7666015625,4.8046875
0.189,-1.0009765625,-6.9267578125,5.7255859375
0.1895,-1.8017578125,-6.56640625,6.2060546875
0.19,-3.04296875,-5.365234375,6.4462890625
0.1905,-4.404296875,-4.0439453125,6.7666015625
0.191,-5.6455078125,-2.7626953125,7.046875
0.1915,-6.24609375,-1.681640625,6.966796875
0.192,-6.40625,-0.880859375,6.646484375
0.1925,-6.166015625,0.080078125,5.8056640625
0.193,-5.765625,1.2412109375,4.5244140625
0.1935,-5.7255859375,2.72265625,3.203125
0.194,-5.525390625,4.1240234375,1.9619140625
0.1945,-5.2451171875,5.044921875,0.9609375
0.195,-4.6845703125,5.4453125,0.1201171875
0.1955,-3.5634765625,5.5654296875,-1.041015625
0.196,-2.2021484375,5.7255859375,-2.5224609375
0.1965,-0.9208984375,6.0859375,-4.2041015625
0.197,0.16015625,6.24609375,-5.3251953125
0.1975,0.8408203125,6.24609375,-6.1259765625
0.198,1.76171875,5.60546875,-6.5263671875
0.1985,3.123046875,4.2841796875,-6.7666015625
0.199,4.5244140625,2.962890625,-7.126953125
0.1995,5.5654296875,1.681640625,-7.2470703125
0.2,6.0458984375,0.6806640625,-7.0869140625
0.2005,6.0458984375,-0.3203125,-6.6064453125
0.201,5.7255859375,-1.28125,-5.5654296875
0.2015,5.365234375,-2.6025390625,-4.244140625
0.202,5.365234375,-4.1240234375,-2.8427734375
0.2025,5.125,-5.3251953125,-1.6416015625
0.203,4.7646484375,-6.0859375,-0.720703125
0.2035,3.9638671875,-6.326171875,0.2802734375
0.204,2.6025390625,-6.3662109375,1.521484375
0.2045,1.201171875,-6.6064453125,3.203125
0.205,0.0,-6.88671875,4.6845703125
0.2055,-0.9609375,-6.966796875,5.6455078125
0.206,-1.6416015625,-6.7666015625,6.2861328125
0.2065,-2.7626953125,-5.765625,6.56640625
0.207,-4.1640625,-4.3642578125,6.806640625
0.2075,-5.4853515625,-3.04296875,7.0869140625
0.208,-6.2861328125,-1.8818359375,7.0869140625
0.2085,-6.56640625,-1.0009765625,6.7666015625
0.209,-6.3662109375,0.0,6.0859375
0.2095,-5.9658203125,1.0810546875,4.8046875
0.21,-5.7255859375,2.5224609375,3.4833984375
0.2105,-5.5654296875,3.9638671875,2.162109375
0.211,-5.28515625,4.96484375,1.0810546875
0.2115,-4.8046875,5.4853515625,0.240234375
0.212,-3.8037109375,5.60546875,-0.80078125
0.2125,-2.4423828125,5.60546875,-2.1220703125
0.213,-1.1611328125,6.005859375,-3.84375
0.2135,0.0,6.1259765625,-5.0849609375
0.214,0.7607421875,6.2060546875,-5.92578125
0.2145,1.521484375,5.8056640625,-6.40625
0.215,2.6826171875,4.6845703125,-6.6064453125
0.2155,3.9638671875,3.36328125,-6.88671875
0.216,5.1650390625,2.08203125,-7.126953125
0.2165,5.765625,0.9609375,-7.0068359375
0.217,5.92578125,0.2001953125,-6.7265625
0.2175,5.6455078125,-0.80078125,-5.92578125
0.218,5.28515625,-1.841796875,-4.6845703125
0.2185,5.205078125,-3.2431640625,-3.443359375
0.219,5.0849609375,-4.564453125,-2.2421875
0.2195,4.8046875,-5.4453125,-1.28125
0.22,4.2841796875,-5.92578125,-0.48046875
0.2205,3.2431640625,-6.0458984375,0.640625
0.221,2.001953125,-6.166015625,1.9619140625
0.2215,0.7607421875,-6.5263671875,3.5634765625
0.222,-0.3203125,-6.7265625,4.724609375
0.2225,-0.9208984375,-6.806640625,5.5654296875
0.223,-1.8017578125,-6.2861328125,5.9658203125
0.2235,-3.04296875,-5.0849609375,6.24609375
0.224,-4.3642578125,-3.8837890625,6.646484375
0.2245,-5.4052734375,-2.7626953125,6.8466796875
0.225,-5.9658203125,-1.841796875,6.7265625
0.2255,-6.1259765625,-1.041015625,6.3662109375
0.226,-5.765625,0.0,5.525390625
0.2265,-5.525390625,1.12109375,4.3642578125
0.227,-5.525390625,2.6025390625,3.1630859375
0.2275,-5.4453125,3.84375,2.0419921875
0.228,-5.125,4.6044921875,1.1611328125
