wavelength,x,y,z
0.0,-3.673583984375,4.494384765625,-1.591552734375
0.0005,-4.194091796875,4.334228515625,-0.870849609375
0.001,-4.154052734375,3.573486328125,0.010009765625
0.0015,-4.354248046875,3.253173828125,0.610595703125
0.002,-4.314208984375,2.172119140625,1.771728515625
0.0025,-4.354248046875,1.651611328125,2.372314453125
0.003,-4.033935546875,0.810791015625,2.972900390625
0.0035,-3.833740234375,0.130126953125,3.453369140625
0.004,-3.193115234375,-0.670654296875,3.613525390625
0.0045,-2.712646484375,-1.431396484375,3.893798828125
0.005,-1.791748046875,-2.512451171875,4.053955078125
0.0055,-1.231201171875,-3.153076171875,4.053955078125
0.006,-0.350341796875,-3.833740234375,3.853759765625
0.0065,0.490478515625,-4.154052734375,3.373291015625
0.007,1.131103515625,-4.474365234375,3.052978515625
0.0075,1.931884765625,-4.674560546875,2.332275390625
0.008,2.652587890625,-4.914794921875,1.771728515625
0.0085,3.093017578125,-4.834716796875,1.131103515625
0.009,3.573486328125,-4.754638671875,0.450439453125
0.0095,3.693603515625,-3.993896484375,-0.470458984375
0.01,3.973876953125,-3.713623046875,-1.151123046875
0.0105,3.973876953125,-2.592529296875,-2.312255859375
0.011,4.093994140625,-2.152099609375,-2.952880859375
0.0115,3.813720703125,-1.231201171875,-3.673583984375
0.012,3.493408203125,-0.470458984375,-4.154052734375
0.0125,2.852783203125,0.490478515625,-4.434326171875
0.013,2.252197265625,1.411376953125,-4.794677734375
0.0135,1.331298828125,2.612548828125,-4.994873046875
0.014,0.570556640625,3.253173828125,-4.914794921875
0.0145,-0.510498046875,4.053955078125,-4.634521484375
0.015,-1.311279296875,4.374267578125,-4.073974609375
0.0155,-2.072021484375,4.654541015625,-3.593505859375
0.016,-3.072998046875,4.894775390625,-2.712646484375
0.0165,-3.873779296875,5.054931640625,-1.951904296875
0.017,-4.234130859375,4.614501953125,-1.071044921875
0.0175,-4.674560546875,4.454345703125,-0.350341796875
0.018,-4.634521484375,3.493408203125,0.610595703125
0.0185,-4.794677734375,2.892822265625,1.531494140625
0.019,-4.754638671875,1.691650390625,2.772705078125
0.0195,-4.554443359375,0.970947265625,3.333251953125
0.02,-4.114013671875,0.010009765625,3.853759765625
0.0205,-3.553466796875,-0.830810546875,4.174072265625
0.021,-2.832763671875,-1.671630859375,4.294189453125
0.0215,-1.991943359375,-2.632568359375,4.414306640625
0.022,-1.031005859375,-3.793701171875,4.534423828125
0.0225,0.010009765625,-4.194091796875,3.973876953125
0.023,0.770751953125,-4.794677734375,3.773681640625
0.0235,1.491455078125,-4.834716796875,3.012939453125
0.024,2.132080078125,-5.034912109375,2.492431640625
0.0245,3.133056640625,-5.155029296875,1.491455078125
0.025,3.693603515625,-5.155029296875,0.810791015625
0.0255,3.893798828125,-4.554443359375,0.010009765625
0.026,4.134033203125,-4.314208984375,-0.630615234375
0.0265,3.973876953125,-3.433349609375,-1.511474609375
0.027,4.093994140625,-2.832763671875,-2.272216796875
0.0275,4.093994140625,-1.791748046875,-3.353271484375
0.028,3.813720703125,-1.151123046875,-3.713623046875
0.0285,3.493408203125,-0.350341796875,-4.354248046875
0.029,2.812744140625,0.490478515625,-4.474365234375
0.0295,2.292236328125,1.291259765625,-4.754638671875
0.03,1.451416015625,2.252197265625,-4.834716796875
0.0305,0.730712890625,3.253173828125,-5.074951171875
0.031,-0.310302734375,3.693603515625,-4.514404296875
0.0315,-1.031005859375,4.334228515625,-4.394287109375
0.032,-1.831787109375,4.454345703125,-3.633544921875
0.0325,-2.512451171875,4.734619140625,-3.193115234375
0.033,-3.553466796875,4.934814453125,-2.312255859375
0.0335,-4.033935546875,4.894775390625,-1.631591796875
0.034,-4.394287109375,4.494384765625,-0.790771484375
0.0345,-4.674560546875,4.134033203125,0.010009765625
0.035,-4.674560546875,3.253173828125,0.970947265625
0.0355,-4.754638671875,2.532470703125,1.891845703125
0.036,-4.874755859375,1.571533203125,3.052978515625
0.0365,-4.394287109375,0.730712890625,3.453369140625
0.037,-4.114013671875,-0.230224609375,4.093994140625
0.0375,-3.353271484375,-1.111083984375,4.214111328125
0.038,-2.712646484375,-1.951904296875,4.494384765625
0.0385,-1.711669921875,-3.072998046875,4.534423828125
0.039,-0.790771484375,-4.073974609375,4.614501953125
0.0395,0.290283203125,-4.434326171875,3.853759765625
0.04,0.970947265625,-4.994873046875,3.733642578125
0.0405,1.931884765625,-5.114990234375,2.732666015625
0.041,2.572509765625,-5.275146484375,2.172119140625
0.0415,3.613525390625,-5.435302734375,1.251220703125
0.042,3.973876953125,-4.994873046875,0.370361328125
0.0425,4.134033203125,-4.514404296875,-0.470458984375
0.043,4.214111328125,-3.913818359375,-1.231201171875
0.0435,4.174072265625,-2.992919921875,-2.192138671875
0.044,4.134033203125,-2.192138671875,-2.952880859375
0.0445,4.134033203125,-1.271240234375,-3.993896484375
0.045,3.413330078125,-0.350341796875,-4.194091796875
0.0455,3.173095703125,0.370361328125,-4.674560546875
0.046,2.292236328125,1.211181640625,-4.634521484375
0.0465,1.771728515625,2.011962890625,-4.874755859375
0.047,0.770751953125,3.052978515625,-4.914794921875
0.0475,0.010009765625,3.733642578125,-4.754638671875
0.048,-1.031005859375,4.053955078125,-4.114013671875
0.0485,-1.591552734375,4.414306640625,-3.873779296875
0.049,-2.432373046875,4.494384765625,-3.072998046875
0.0495,-2.992919921875,4.614501953125,-2.592529296875
0.05,-3.913818359375,4.854736328125,-1.791748046875
0.0505,-4.114013671875,4.334228515625,-0.990966796875
0.051,-4.434326171875,4.134033203125,-0.350341796875
0.0515,-4.394287109375,3.373291015625,0.530517578125
0.052,-4.514404296875,2.732666015625,1.371337890625
0.0525,-4.514404296875,1.931884765625,2.252197265625
0.053,-4.514404296875,1.251220703125,3.052978515625
0.0535,-3.953857421875,0.330322265625,3.373291015625
0.054,-3.793701171875,-0.390380859375,3.893798828125
0.0545,-2.912841796875,-1.311279296875,3.973876953125
0.055,-2.432373046875,-2.112060546875,4.334228515625
0.0555,-1.431396484375,-3.233154296875,4.454345703125
0.056,-0.590576171875,-3.833740234375,4.134033203125
0.0565,0.370361328125,-4.434326171875,3.693603515625
0.057,1.010986328125,-4.794677734375,3.333251953125
0.0575,1.971923828125,-4.994873046875,2.532470703125
0.058,2.612548828125,-5.114990234375,2.052001953125
0.0585,3.533447265625,-5.275146484375,1.211181640625
0.059,3.693603515625,-4.634521484375,0.290283203125
0.0595,4.093994140625,-4.474365234375,-0.390380859375
0.06,4.093994140625,-3.513427734375,-1.471435546875
0.0605,4.174072265625,-2.792724609375,-2.312255859375
0.061,4.134033203125,-1.951904296875,-3.193115234375
0.0615,3.973876953125,-1.111083984375,-3.993896484375
0.062,3.253173828125,-0.190185546875,-4.234130859375
0.0625,2.932861328125,0.570556640625,-4.634521484375
0.063,1.931884765625,1.731689453125,-4.754638671875
0.0635,1.331298828125,2.492431640625,-4.874755859375
0.064,0.370361328125,3.493408203125,-4.874755859375
0.0645,-0.630615234375,3.853759765625,-4.394287109375
0.065,-1.351318359375,4.214111328125,-3.953857421875
0.0655,-2.152099609375,4.454345703125,-3.353271484375
0.066,-2.992919921875,4.614501953125,-2.552490234375
0.0665,-3.473388671875,4.614501953125,-1.951904296875
0.067,-4.154052734375,4.614501953125,-1.231201171875
0.0675,-4.154052734375,3.853759765625,-0.390380859375
0.068,-4.434326171875,3.693603515625,0.250244140625
0.0685,-4.354248046875,2.572509765625,1.331298828125
0.069,-4.354248046875,2.052001953125,1.971923828125
0.0695,-4.234130859375,1.251220703125,2.772705078125
0.07,-3.993896484375,0.530517578125,3.213134765625
0.0705,-3.473388671875,-0.310302734375,3.533447265625
0.071,-3.072998046875,-0.990966796875,3.853759765625
0.0715,-2.272216796875,-1.951904296875,3.973876953125
0.072,-1.671630859375,-2.672607421875,4.093994140625
0.0725,-0.790771484375,-3.593505859375,4.093994140625
0.073,0.090087890625,-3.913818359375,3.533447265625
0.0735,0.690673828125,-4.434326171875,3.333251953125
0.074,1.531494140625,-4.514404296875,2.692626953125
0.0745,2.212158203125,-4.794677734375,2.212158203125
0.075,2.812744140625,-4.874755859375,1.571533203125
0.0755,3.333251953125,-4.794677734375,0.850830078125
0.076,3.493408203125,-4.234130859375,0.090087890625
0.0765,3.813720703125,-3.993896484375,-0.630615234375
0.077,3.813720703125,-2.992919921875,-1.711669921875
0.0775,4.013916015625,-2.592529296875,-2.392333984375
0.078,3.893798828125,-1.671630859375,-3.273193359375
0.0785,3.573486328125,-0.950927734375,-3.753662109375
0.079,3.133056640625,-0.150146484375,-4.154052734375
0.0795,2.572509765625,0.810791015625,-4.474365234375
0.08,1.771728515625,1.851806640625,-4.714599609375
0.0805,1.091064453125,2.612548828125,-4.834716796875
0.081,0.170166015625,3.453369140625,-4.714599609375
0.0815,-0.790771484375,3.813720703125,-4.154052734375
0.082,-1.471435546875,4.294189453125,-3.873779296875
0.0825,-2.512451171875,4.494384765625,-2.952880859375
0.083,-3.113037109375,4.694580078125,-2.432373046875
0.0835,-3.713623046875,4.614501953125,-1.671630859375
0.084,-4.154052734375,4.334228515625,-0.950927734375
0.0845,-4.194091796875,3.693603515625,0.010009765625
0.085,-4.434326171875,3.213134765625,0.730712890625
0.0855,-4.394287109375,2.092041015625,1.931884765625
0.086,-4.354248046875,1.611572265625,2.412353515625
0.0865,-4.154052734375,0.730712890625,3.173095703125
0.087,-3.593505859375,0.010009765625,3.413330078125
0.0875,-3.193115234375,-0.790771484375,3.733642578125
0.088,-2.392333984375,-1.751708984375,3.853759765625
0.0885,-1.671630859375,-2.672607421875,4.053955078125
0.089,-0.910888671875,-3.273193359375,3.853759765625
0.0895,-0.150146484375,-3.913818359375,3.653564453125
0.09,0.650634765625,-4.033935546875,3.093017578125
0.0905,1.211181640625,-4.394287109375,2.852783203125
0.091,2.132080078125,-4.514404296875,1.931884765625
0.0915,2.532470703125,-4.634521484375,1.611572265625
0.092,3.052978515625,-4.514404296875,0.890869140625
0.0925,3.253173828125,-4.154052734375,0.290283203125
0.093,3.373291015625,-3.713623046875,-0.430419921875
0.0935,3.493408203125,-3.193115234375,-1.231201171875
0.094,3.573486328125,-2.432373046875,-2.072021484375
0.0945,3.573486328125,-1.951904296875,-2.592529296875
0.095,3.533447265625,-1.271240234375,-3.273193359375
0.0955,2.972900390625,-0.590576171875,-3.513427734375
0.096,2.812744140625,0.130126953125,-3.993896484375
0.0965,1.971923828125,1.091064453125,-4.194091796875
0.097,1.571533203125,1.851806640625,-4.554443359375
0.0975,0.690673828125,2.572509765625,-4.434326171875
0.098,0.010009765625,3.213134765625,-4.274169921875
0.0985,-0.830810546875,3.573486328125,-3.793701171875
0.099,-1.431396484375,4.013916015625,-3.553466796875
0.0995,-2.392333984375,4.294189453125,-2.832763671875
0.1,-2.872802734375,4.454345703125,-2.432373046875
0.1005,-3.513427734375,4.414306640625,-1.671630859375
0.101,-3.713623046875,3.973876953125,-0.950927734375
0.1015,-4.033935546875,3.573486328125,-0.190185546875
0.102,-4.154052734375,2.812744140625,0.890869140625
0.1025,-4.394287109375,2.252197265625,1.771728515625
0.103,-4.194091796875,1.531494140625,2.332275390625
0.1035,-4.114013671875,0.810791015625,3.052978515625
0.104,-3.473388671875,-0.150146484375,3.253173828125
0.1045,-3.153076171875,-0.990966796875,3.733642578125
0.105,-2.152099609375,-2.072021484375,3.853759765625
0.1055,-1.591552734375,-2.872802734375,4.093994140625
0.106,-0.630615234375,-3.473388671875,3.773681640625
0.1065,0.130126953125,-3.913818359375,3.493408203125
0.107,0.890869140625,-4.154052734375,2.932861328125
0.1075,1.571533203125,-4.474365234375,2.452392578125
0.108,2.532470703125,-4.674560546875,1.731689453125
0.1085,2.852783203125,-4.514404296875,1.131103515625
0.109,3.333251953125,-4.394287109375,0.450439453125
0.1095,3.333251953125,-3.793701171875,-0.350341796875
0.11,3.533447265625,-3.353271484375,-1.071044921875
0.1105,3.533447265625,-2.432373046875,-2.031982421875
0.111,3.653564453125,-1.951904296875,-2.712646484375
0.1115,3.293212890625,-1.191162109375,-3.193115234375
0.112,3.133056640625,-0.590576171875,-3.673583984375
0.1125,2.492431640625,0.210205078125,-3.833740234375
0.113,2.132080078125,0.890869140625,-4.194091796875
0.1135,1.291259765625,1.931884765625,-4.354248046875
0.114,0.730712890625,2.572509765625,-4.354248046875
0.1145,-0.190185546875,3.173095703125,-4.033935546875
0.115,-0.830810546875,3.493408203125,-3.713623046875
0.1155,-1.471435546875,3.813720703125,-3.353271484375
0.116,-2.192138671875,4.013916015625,-2.792724609375
0.1165,-2.872802734375,4.334228515625,-2.312255859375
0.117,-3.193115234375,4.093994140625,-1.671630859375
0.1175,-3.673583984375,4.053955078125,-1.111083984375
0.118,-3.713623046875,3.373291015625,-0.350341796875
0.1185,-4.033935546875,3.093017578125,0.490478515625
0.119,-4.073974609375,2.172119140625,1.491455078125
0.1195,-4.234130859375,1.811767578125,2.052001953125
0.12,-3.953857421875,1.010986328125,2.612548828125
0.1205,-3.713623046875,0.330322265625,3.052978515625
0.121,-3.193115234375,-0.590576171875,3.413330078125
0.1215,-2.632568359375,-1.431396484375,3.733642578125
0.122,-1.871826171875,-2.432373046875,4.013916015625
0.1225,-1.151123046875,-3.032958984375,3.853759765625
0.123,-0.310302734375,-3.713623046875,3.733642578125
0.1235,0.450439453125,-3.993896484375,3.213134765625
0.124,1.131103515625,-4.394287109375,2.852783203125
0.1245,2.052001953125,-4.634521484375,2.172119140625
0.125,2.772705078125,-4.874755859375,1.571533203125
0.1255,3.093017578125,-4.514404296875,0.770751953125
0.126,3.493408203125,-4.354248046875,0.170166015625
0.1265,3.533447265625,-3.553466796875,-0.790771484375
0.127,3.773681640625,-3.072998046875,-1.551513671875
0.1275,3.853759765625,-2.112060546875,-2.632568359375
0.128,3.693603515625,-1.551513671875,-3.193115234375
0.1285,3.373291015625,-0.750732421875,-3.793701171875
0.129,2.892822265625,0.010009765625,-3.993896484375
0.1295,2.332275390625,0.810791015625,-4.314208984375
0.13,1.571533203125,1.811767578125,-4.434326171875
0.1305,0.810791015625,2.852783203125,-4.714599609375
0.131,-0.190185546875,3.253173828125,-4.154052734375
0.1315,-0.870849609375,3.853759765625,-4.033935546875
0.132,-1.591552734375,3.933837890625,-3.353271484375
0.1325,-2.272216796875,4.214111328125,-2.912841796875
0.133,-3.072998046875,4.414306640625,-2.152099609375
0.1335,-3.633544921875,4.374267578125,-1.551513671875
0.134,-3.833740234375,3.893798828125,-0.790771484375
0.1345,-3.993896484375,3.653564453125,-0.270263671875
0.135,-3.993896484375,2.852783203125,0.690673828125
0.1355,-4.114013671875,2.252197265625,1.451416015625
0.136,-4.194091796875,1.491455078125,2.412353515625
0.1365,-3.873779296875,0.770751953125,2.732666015625
0.137,-3.673583984375,0.130126953125,3.293212890625
0.1375,-3.072998046875,-0.630615234375,3.373291015625
0.138,-2.632568359375,-1.351318359375,3.733642578125
0.1385,-1.831787109375,-2.272216796875,3.853759765625
0.139,-1.231201171875,-3.153076171875,4.013916015625
0.1395,-0.310302734375,-3.553466796875,3.533447265625
0.14,0.330322265625,-4.114013671875,3.493408203125
0.1405,1.091064453125,-4.194091796875,2.812744140625
0.141,1.731689453125,-4.554443359375,2.412353515625
0.1415,2.692626953125,-4.834716796875,1.651611328125
0.142,3.093017578125,-4.674560546875,1.051025390625
0.1425,3.453369140625,-4.434326171875,0.330322265625
0.143,3.573486328125,-3.993896484375,-0.390380859375
0.1435,3.773681640625,-3.273193359375,-1.311279296875
0.144,3.853759765625,-2.592529296875,-2.232177734375
0.1445,4.013916015625,-1.951904296875,-3.193115234375
0.145,3.533447265625,-1.111083984375,-3.593505859375
0.1455,3.373291015625,-0.390380859375,-4.194091796875
0.146,2.612548828125,0.610595703125,-4.314208984375
0.1465,2.092041015625,1.451416015625,-4.674560546875
0.147,1.171142578125,2.612548828125,-4.834716796875
0.1475,0.370361328125,3.413330078125,-4.834716796875
0.148,-0.670654296875,3.853759765625,-4.194091796875
0.1485,-1.311279296875,4.334228515625,-3.993896484375
0.149,-2.312255859375,4.494384765625,-3.072998046875
0.1495,-2.952880859375,4.614501953125,-2.552490234375
0.15,-3.873779296875,4.854736328125,-1.751708984375
0.1505,-4.154052734375,4.334228515625,-0.910888671875
0.151,-4.394287109375,3.973876953125,-0.230224609375
0.1515,-4.434326171875,3.213134765625,0.770751953125
0.152,-4.434326171875,2.372314453125,1.691650390625
0.1525,-4.354248046875,1.571533203125,2.452392578125
0.153,-4.354248046875,0.770751953125,3.253173828125
0.1535,-3.673583984375,-0.190185546875,3.453369140625
0.154,-3.433349609375,-0.710693359375,3.893798828125
0.1545,-2.432373046875,-1.711669921875,3.933837890625
0.155,-1.911865234375,-2.432373046875,4.093994140625
0.1555,-0.990966796875,-3.393310546875,4.134033203125
0.156,-0.230224609375,-3.913818359375,3.813720703125
0.1565,0.650634765625,-4.234130859375,3.333251953125
0.157,1.211181640625,-4.514404296875,2.932861328125
0.1575,2.092041015625,-4.634521484375,2.172119140625
0.158,2.572509765625,-4.754638671875,1.691650390625
0.1585,3.373291015625,-4.914794921875,0.970947265625
0.159,3.453369140625,-4.274169921875,0.170166015625
0.1595,3.773681640625,-4.154052734375,-0.390380859375
0.16,3.733642578125,-3.273193359375,-1.311279296875
0.1605,3.853759765625,-2.752685546875,-2.072021484375
0.161,3.853759765625,-1.991943359375,-2.912841796875
0.1615,3.773681640625,-1.351318359375,-3.633544921875
0.162,3.173095703125,-0.390380859375,-3.913818359375
0.1625,3.012939453125,0.290283203125,-4.394287109375
0.163,2.132080078125,1.291259765625,-4.514404296875
0.1635,1.611572265625,2.092041015625,-4.834716796875
0.164,0.690673828125,3.173095703125,-4.874755859375
0.1645,-0.310302734375,3.693603515625,-4.514404296875
0.165,-1.111083984375,4.134033203125,-4.154052734375
0.1655,-1.871826171875,4.494384765625,-3.633544921875
0.166,-2.792724609375,4.694580078125,-2.872802734375
0.1665,-3.393310546875,4.854736328125,-2.272216796875
0.167,-4.194091796875,4.894775390625,-1.431396484375
0.1675,-4.354248046875,4.174072265625,-0.510498046875
0.168,-4.674560546875,3.933837890625,0.250244140625
0.1685,-4.714599609375,2.772705078125,1.451416015625
0.169,-4.754638671875,2.092041015625,2.292236328125
0.1695,-4.634521484375,1.171142578125,3.093017578125
0.17,-4.354248046875,0.370361328125,3.813720703125
0.1705,-3.593505859375,-0.630615234375,3.973876953125
0.171,-3.193115234375,-1.431396484375,4.414306640625
0.1715,-1.991943359375,-2.712646484375,4.494384765625
0.172,-1.311279296875,-3.473388671875,4.494384765625
0.1725,-0.310302734375,-4.354248046875,4.334228515625
0.173,0.690673828125,-4.674560546875,3.693603515625
0.1735,1.411376953125,-4.954833984375,3.173095703125
0.174,2.332275390625,-5.155029296875,2.372314453125
0.1745,3.213134765625,-5.235107421875,1.531494140625
0.175,3.653564453125,-5.034912109375,0.810791015625
0.1755,4.134033203125,-4.874755859375,0.010009765625
0.176,4.093994140625,-3.993896484375,-0.910888671875
0.1765,4.214111328125,-3.673583984375,-1.511474609375
0.177,4.093994140625,-2.432373046875,-2.752685546875
0.1775,4.013916015625,-1.871826171875,-3.353271484375
0.178,3.733642578125,-0.910888671875,-3.993896484375
0.1785,3.333251953125,-0.150146484375,-4.434326171875
0.179,2.692626953125,0.730712890625,-4.514404296875
0.1795,2.172119140625,1.531494140625,-4.794677734375
0.18,1.171142578125,2.612548828125,-4.874755859375
0.1805,0.530517578125,3.213134765625,-4.834716796875
0.181,-0.470458984375,3.973876953125,-4.634521484375
0.1815,-1.311279296875,4.214111328125,-3.993896484375
0.182,-1.951904296875,4.534423828125,-3.673583984375
0.1825,-2.872802734375,4.734619140625,-2.832763671875
0.183,-3.513427734375,4.854736328125,-2.272216796875
0.1835,-3.953857421875,4.734619140625,-1.551513671875
0.184,-4.434326171875,4.534423828125,-0.790771484375
0.1845,-4.474365234375,3.773681640625,0.130126953125
0.185,-4.714599609375,3.373291015625,0.850830078125
0.1855,-4.674560546875,2.172119140625,2.052001953125
0.186,-4.714599609375,1.771728515625,2.652587890625
0.1865,-4.434326171875,0.770751953125,3.453369140625
0.187,-3.993896484375,0.010009765625,3.853759765625
0.1875,-3.393310546875,-0.990966796875,4.134033203125
0.188,-2.712646484375,-1.951904296875,4.414306640625
