wavelength,x,y,z
0.0,-4.00390625,1.0009765625,2.482421875
0.0005,-3.6435546875,0.0400390625,3.0029296875
0.001,-3.203125,-0.720703125,3.3232421875
0.0015,-2.642578125,-1.6416015625,3.603515625
0.002,-2.3623046875,-2.2021484375,3.8837890625
0.0025,-1.681640625,-2.8828125,3.923828125
0.003,-0.9208984375,-3.203125,3.4833984375
0.0035,-0.3203125,-3.8037109375,3.443359375
0.004,0.8408203125,-4.00390625,2.5224609375
0.0045,1.44140625,-4.4443359375,2.322265625
0.005,2.2021484375,-4.5244140625,1.6416015625
0.0055,2.642578125,-4.3642578125,1.12109375
0.006,2.9228515625,-3.9638671875,0.4404296875
0.0065,3.283203125,-3.8037109375,-0.1201171875
0.007,3.5234375,-3.04296875,-1.041015625
0.0075,3.763671875,-2.7626953125,-1.5615234375
0.008,3.8837890625,-2.0419921875,-2.3623046875
0.0085,3.4033203125,-1.2412109375,-2.72265625
0.009,3.1630859375,-0.4404296875,-3.283203125
0.0095,2.5224609375,0.48046875,-3.5634765625
0.01,2.2021484375,1.28125,-3.8837890625
0.0105,1.681640625,1.921875,-4.00390625
0.011,0.9609375,2.6025390625,-3.9638671875
0.0115,0.1201171875,2.9228515625,-3.443359375
0.012,-0.5205078125,3.4833984375,-3.3232421875
0.0125,-1.76171875,3.7236328125,-2.322265625
0.013,-2.2822265625,4.00390625,-2.1220703125
0.0135,-3.04296875,3.9638671875,-1.4013671875
0.014,-3.36328125,3.7236328125,-0.7607421875
0.0145,-3.7236328125,3.3232421875,-0.080078125
0.015,-3.9638671875,2.8828125,0.6005859375
0.0155,-4.2041015625,2.2822265625,1.44140625
0.016,-4.2841796875,1.841796875,1.921875
0.0165,-4.3642578125,1.0810546875,2.6826171875
0.017,-3.6435546875,0.080078125,3.0029296875
0.0175,-3.5234375,-0.6806640625,3.5234375
0.018,-2.6025390625,-1.76171875,3.7236328125
0.0185,-2.3623046875,-2.3623046875,4.083984375
0.019,-1.6015625,-2.962890625,3.923828125
0.0195,-0.9208984375,-3.5634765625,3.8037109375
0.02,-0.1201171875,-3.8037109375,3.2431640625
0.0205,0.6806640625,-4.2841796875,2.9228515625
0.021,1.8818359375,-4.5244140625,2.001953125
0.0215,2.322265625,-4.64453125,1.681640625
0.022,3.04296875,-4.564453125,0.9609375
0.0225,3.2431640625,-4.1240234375,0.2802734375
0.023,3.5634765625,-3.84375,-0.3603515625
0.0235,3.763671875,-3.0830078125,-1.28125
0.024,4.0439453125,-2.6025390625,-1.9619140625
0.0245,3.8837890625,-2.001953125,-2.482421875
0.025,3.8837890625,-1.2412109375,-3.203125
0.0255,3.04296875,-0.2001953125,-3.4033203125
0.026,2.8828125,0.560546875,-3.923828125
0.0265,1.921875,1.76171875,-4.0439453125
0.027,1.6416015625,2.2421875,-4.32421875
0.0275,0.7607421875,2.9228515625,-4.0439453125
0.028,0.0,3.443359375,-3.8037109375
0.0285,-0.8408203125,3.68359375,-3.203125
0.029,-1.8017578125,4.083984375,-2.642578125
0.0295,-2.8828125,4.32421875,-1.8017578125
0.03,-3.283203125,4.2041015625,-1.28125
0.0305,-3.9638671875,4.1240234375,-0.6005859375
0.031,-4.1240234375,3.4833984375,0.2001953125
0.0315,-4.4443359375,3.1630859375,0.80078125
0.032,-4.564453125,2.2021484375,1.8818359375
0.0325,-4.8046875,1.76171875,2.482421875
0.033,-4.4443359375,0.8408203125,3.0029296875
0.0335,-4.2841796875,0.0400390625,3.6435546875
0.034,-3.36328125,-1.041015625,3.8037109375
0.0345,-3.0830078125,-1.8017578125,4.2041015625
0.035,-2.001953125,-3.0029296875,4.404296875
0.0355,-1.6015625,-3.4033203125,4.32421875
0.036,-0.640625,-4.0439453125,4.00390625
0.0365,0.1201171875,-4.4443359375,3.603515625
0.037,0.9609375,-4.64453125,3.04296875
0.0375,2.08203125,-4.96484375,2.2421875
0.038,3.0830078125,-5.1650390625,1.44140625
0.0385,3.4033203125,-4.7646484375,0.7607421875
0.039,4.00390625,-4.64453125,0.0400390625
0.0395,4.00390625,-3.8037109375,-0.80078125
0.04,4.244140625,-3.4833984375,-1.361328125
0.0405,4.404296875,-2.482421875,-2.5224609375
0.041,4.484375,-1.9619140625,-3.0830078125
0.0415,3.9638671875,-1.0009765625,-3.603515625
0.042,3.68359375,-0.080078125,-4.083984375
0.0425,2.72265625,1.0009765625,-4.1640625
0.043,2.322265625,1.76171875,-4.484375
0.0435,1.361328125,2.962890625,-4.6845703125
0.044,0.7607421875,3.3232421875,-4.404296875
0.0445,-0.240234375,3.9638671875,-4.1240234375
0.045,-1.041015625,4.2041015625,-3.5234375
0.0455,-1.9619140625,4.484375,-2.8828125
0.046,-3.0830078125,4.6845703125,-2.001953125
0.0465,-4.0439453125,4.884765625,-1.2412109375
0.047,-4.32421875,4.2041015625,-0.3603515625
0.0475,-4.884765625,4.1240234375,0.3203125
0.048,-4.8447265625,3.1630859375,1.201171875
0.0485,-5.044921875,2.6826171875,1.841796875
0.049,-5.205078125,1.6416015625,3.04296875
0.0495,-5.0849609375,0.9609375,3.5234375
0.05,-4.484375,-0.16015625,4.083984375
0.0505,-4.0439453125,-1.041015625,4.484375
0.051,-3.04296875,-2.1220703125,4.5244140625
0.0515,-2.4423828125,-2.962890625,4.7646484375
0.052,-1.4814453125,-4.1640625,4.96484375
0.0525,-0.6005859375,-4.4443359375,4.32421875
0.053,0.240234375,-5.044921875,4.1240234375
0.0535,1.2412109375,-5.1650390625,3.2431640625
0.054,2.162109375,-5.365234375,2.5224609375
0.0545,3.283203125,-5.525390625,1.6015625
0.055,4.1240234375,-5.5654296875,0.80078125
0.0555,4.32421875,-4.724609375,-0.16015625
0.056,4.7646484375,-4.6044921875,-0.80078125
0.0565,4.64453125,-3.5234375,-1.8017578125
0.057,4.8046875,-2.962890625,-2.4423828125
0.0575,4.96484375,-1.9619140625,-3.6435546875
0.058,4.5244140625,-1.041015625,-4.00390625
0.0585,3.9638671875,0.1201171875,-4.5244140625
0.059,3.3232421875,0.9609375,-4.7646484375
0.0595,2.40234375,2.0419921875,-4.8046875
0.06,1.76171875,2.8427734375,-4.96484375
0.0605,0.80078125,3.9638671875,-5.125
0.061,-0.3203125,4.1640625,-4.244140625
0.0615,-1.0009765625,4.8046875,-4.1240234375
0.062,-2.2021484375,4.8447265625,-3.04296875
0.0625,-3.0830078125,5.044921875,-2.322265625
0.063,-4.1240234375,5.125,-1.4013671875
0.0635,-4.8447265625,5.0048828125,-0.6005859375
0.064,-5.0048828125,4.1240234375,0.4404296875
0.0645,-5.4453125,3.8837890625,1.0009765625
0.065,-5.4052734375,2.6826171875,2.162109375
0.0655,-5.4052734375,2.08203125,2.72265625
0.066,-5.60546875,1.1611328125,3.923828125
0.0665,-4.884765625,0.1201171875,4.2041015625
0.067,-4.404296875,-1.0009765625,4.724609375
0.0675,-3.603515625,-1.9619140625,4.9248046875
0.068,-2.6025390625,-3.0830078125,5.0048828125
0.0685,-1.921875,-3.84375,5.0849609375
0.069,-0.9208984375,-4.8447265625,5.044921875
0.0695,0.240234375,-5.0048828125,4.083984375
0.07,0.880859375,-5.525390625,3.923828125
0.0705,2.322265625,-5.6455078125,2.642578125
0.071,3.04296875,-5.7255859375,2.0419921875
0.0715,4.0439453125,-5.765625,1.0810546875
0.072,4.564453125,-5.4052734375,0.240234375
0.0725,4.724609375,-4.64453125,-0.7607421875
0.073,4.96484375,-4.244140625,-1.4013671875
0.0735,5.0048828125,-3.0029296875,-2.6025390625
0.074,4.96484375,-2.4423828125,-3.04296875
0.0745,5.044921875,-1.44140625,-4.1640625
0.075,4.1640625,-0.3203125,-4.3642578125
0.0755,3.7236328125,0.6806640625,-4.8447265625
0.076,2.7626953125,1.76171875,-4.9248046875
0.0765,1.921875,2.7626953125,-5.0849609375
0.077,1.28125,3.443359375,-5.0048828125
0.0775,0.240234375,4.32421875,-4.884765625
0.078,-0.8408203125,4.484375,-3.923828125
0.0785,-1.5615234375,4.96484375,-3.763671875
0.079,-3.0830078125,5.044921875,-2.3623046875
0.0795,-3.5634765625,5.0849609375,-1.921875
0.08,-4.5244140625,5.044921875,-0.9609375
0.0805,-4.9248046875,4.5244140625,0.0
0.081,-5.125,3.84375,0.7607421875
0.0815,-5.365234375,3.283203125,1.521484375
0.082,-5.4052734375,2.2421875,2.6826171875
0.0825,-5.28515625,1.7216796875,3.04296875
0.083,-5.3251953125,0.7607421875,4.083984375
0.0835,-4.3642578125,-0.5205078125,4.2041015625
0.084,-4.0439453125,-1.3212890625,4.7646484375
0.0845,-2.8828125,-2.5625,4.8046875
0.085,-2.2822265625,-3.36328125,4.96484375
0.0855,-1.44140625,-4.0439453125,4.8046875
0.086,-0.5205078125,-4.7646484375,4.5244140625
0.0865,0.5205078125,-4.884765625,3.68359375
0.087,1.28125,-5.365234375,3.4033203125
0.0875,2.72265625,-5.4453125,2.0419921875
0.088,3.123046875,-5.4453125,1.7216796875
0.0885,4.00390625,-5.4453125,0.6806640625
0.089,4.2841796875,-4.8046875,-0.1201171875
0.0895,4.484375,-4.3642578125,-0.8408203125
0.09,4.6044921875,-3.5634765625,-1.7216796875
0.0905,4.8046875,-2.6826171875,-2.642578125
0.091,4.6044921875,-2.08203125,-3.0830078125
0.0915,4.6044921875,-1.1611328125,-4.00390625
0.092,3.603515625,0.0400390625,-4.1240234375
0.0925,3.4033203125,0.80078125,-4.64453125
0.093,2.162109375,2.1220703125,-4.64453125
0.0935,1.841796875,2.72265625,-4.884765625
0.094,0.880859375,3.443359375,-4.64453125
0.0945,-0.080078125,4.0439453125,-4.32421875
0.095,-1.0009765625,4.244140625,-3.5634765625
0.0955,-1.921875,4.64453125,-3.1630859375
0.096,-3.203125,4.8046875,-1.9619140625
0.0965,-3.5234375,4.6845703125,-1.6015625
0.097,-4.3642578125,4.5244140625,-0.6806640625
0.0975,-4.5244140625,3.84375,0.1201171875
0.098,-4.8046875,3.5634765625,0.80078125
0.0985,-4.884765625,2.6025390625,1.8017578125
0.099,-5.125,2.08203125,2.5224609375
0.0995,-4.8447265625,1.28125,3.04296875
0.1,-4.724609375,0.48046875,3.763671875
0.1005,-3.7236328125,-0.7607421875,3.8837890625
0.101,-3.5634765625,-1.44140625,4.404296875
0.1015,-2.322265625,-2.7626953125,4.4443359375
0.102,-2.08203125,-3.1630859375,4.6044921875
0.1025,-1.12109375,-3.8837890625,4.32421875
0.103,-0.2802734375,-4.32421875,3.8837890625
0.1035,0.560546875,-4.564453125,3.3232421875
0.104,1.5615234375,-4.884765625,2.6826171875
0.1045,2.5224609375,-5.1650390625,1.921875
0.105,2.8828125,-5.0048828125,1.4013671875
0.1055,3.5634765625,-4.9248046875,0.640625
0.106,3.68359375,-4.1240234375,-0.16015625
0.1065,4.083984375,-3.9638671875,-0.6806640625
0.107,4.1240234375,-2.8828125,-1.8017578125
0.1075,4.3642578125,-2.642578125,-2.2822265625
0.108,4.083984375,-1.7216796875,-2.8828125
0.1085,3.8837890625,-1.0009765625,-3.443359375
0.109,3.123046875,0.1201171875,-3.68359375
0.1095,2.8427734375,0.8408203125,-4.1240234375
0.11,1.921875,1.921875,-4.2841796875
0.1105,1.7216796875,2.2822265625,-4.3642578125
0.111,0.720703125,3.0830078125,-4.1640625
0.1115,-0.1201171875,3.4033203125,-3.6435546875
0.112,-0.880859375,3.84375,-3.36328125
0.1125,-1.9619140625,4.0439453125,-2.5224609375
0.113,-2.6826171875,4.32421875,-2.08203125
0.1135,-3.1630859375,4.083984375,-1.44140625
0.114,-3.763671875,4.1240234375,-0.80078125
0.1145,-3.8837890625,3.36328125,0.0400390625
0.115,-4.2841796875,3.203125,0.6005859375
0.1155,-4.4443359375,2.2822265625,1.6416015625
0.116,-4.6044921875,2.0419921875,2.0419921875
0.1165,-4.404296875,1.12109375,2.7626953125
0.117,-4.00390625,0.2802734375,3.1630859375
0.1175,-3.4833984375,-0.720703125,3.603515625
0.118,-2.9228515625,-1.5615234375,3.8837890625
0.1185,-2.3623046875,-2.4423828125,4.1640625
0.119,-1.8818359375,-2.8427734375,4.00390625
0.1195,-1.0810546875,-3.5634765625,3.9638671875
0.12,-0.240234375,-3.8037109375,3.3232421875
0.1205,0.5205078125,-4.3642578125,3.123046875
0.121,1.6416015625,-4.5244140625,2.2021484375
0.1215,2.162109375,-4.8046875,1.921875
0.122,2.6826171875,-4.4443359375,1.12109375
0.1225,3.123046875,-4.3642578125,0.640625
0.123,3.283203125,-3.7236328125,-0.16015625
0.1235,3.603515625,-3.443359375,-0.80078125
0.124,3.84375,-2.7626953125,-1.6416015625
0.1245,3.84375,-2.40234375,-2.001953125
0.125,3.8037109375,-1.521484375,-2.7626953125
0.1255,3.1630859375,-0.6806640625,-3.04296875
0.126,2.8828125,0.240234375,-3.5634765625
0.1265,2.2421875,1.12109375,-3.763671875
0.127,1.9619140625,1.76171875,-4.1640625
0.1275,1.28125,2.2421875,-3.8837890625
0.128,0.6005859375,2.8828125,-3.84375
0.1285,-0.3203125,3.123046875,-3.2431640625
0.129,-1.0810546875,3.6435546875,-3.04296875
0.1295,-2.1220703125,3.84375,-2.2421875
0.13,-2.5625,4.083984375,-1.9619140625
0.1305,-3.1630859375,3.84375,-1.12109375
0.131,-3.4833984375,3.603515625,-0.6005859375
0.1315,-3.84375,3.1630859375,0.240234375
0.132,-4.00390625,2.642578125,0.9609375
0.1325,-4.404296875,2.2421875,1.7216796875
0.133,-4.1640625,1.5615234375,2.08203125
0.1335,-4.1640625,0.80078125,2.8427734375
0.134,-3.4033203125,-0.2001953125,3.0830078125
0.1345,-3.2431640625,-1.0009765625,3.603515625
0.135,-2.482421875,-1.9619140625,3.8037109375
0.1355,-2.2421875,-2.4423828125,4.0439453125
0.136,-1.361328125,-2.962890625,3.68359375
0.1365,-0.80078125,-3.5634765625,3.6435546875
0.137,0.1201171875,-3.84375,3.0029296875
0.1375,0.9609375,-4.2841796875,2.6025390625
0.138,1.921875,-4.5244140625,1.9619140625
0.1385,2.2421875,-4.404296875,1.521484375
0.139,2.8427734375,-4.3642578125,0.880859375
0.1395,3.04296875,-3.84375,0.240234375
0.14,3.4033203125,-3.5634765625,-0.4404296875
0.1405,3.5634765625,-2.8828125,-1.2412109375
0.141,3.8837890625,-2.6025390625,-1.841796875
0.1415,3.5234375,-1.8017578125,-2.2822265625
0.142,3.5234375,-1.1611328125,-2.9228515625
0.1425,2.72265625,0.0,-3.1630859375
0.143,2.6025390625,0.6005859375,-3.6435546875
0.1435,1.921875,1.5615234375,-3.8837890625
0.144,1.6416015625,1.9619140625,-4.00390625
0.1445,0.720703125,2.5625,-3.7236328125
0.145,0.0400390625,2.962890625,-3.4833984375
0.1455,-0.80078125,3.3232421875,-3.04296875
0.146,-1.681640625,3.7236328125,-2.4423828125
0.1465,-2.5625,4.083984375,-1.921875
0.147,-2.8828125,3.8037109375,-1.3212890625
0.1475,-3.5634765625,3.84375,-0.720703125
0.148,-3.6435546875,3.1630859375,0.0400390625
0.1485,-4.0439453125,2.9228515625,0.640625
0.149,-4.244140625,2.2021484375,1.5615234375
0.1495,-4.4443359375,1.8818359375,2.08203125
0.15,-4.00390625,0.880859375,2.642578125
0.1505,-3.84375,0.1201171875,3.1630859375
0.151,-3.0830078125,-0.9208984375,3.443359375
0.1515,-2.802734375,-1.6416015625,3.84375
0.152,-2.1220703125,-2.6025390625,4.1240234375
0.1525,-1.5615234375,-3.0029296875,3.84375
0.153,-0.80078125,-3.68359375,3.7236328125
0.1535,0.0,-3.923828125,3.1630859375
0.154,0.8408203125,-4.244140625,2.7626953125
0.1545,1.8818359375,-4.5244140625,2.0419921875
0.155,2.6025390625,-4.7646484375,1.521484375
0.1555,2.8828125,-4.2041015625,0.720703125
0.156,3.36328125,-4.244140625,0.240234375
0.1565,3.443359375,-3.4833984375,-0.6005859375
0.157,3.763671875,-3.123046875,-1.2412109375
0.1575,3.9638671875,-2.40234375,-2.162109375
0.158,3.8837890625,-1.8818359375,-2.5625
0.1585,3.5234375,-0.8408203125,-3.1630859375
0.159,3.0830078125,-0.080078125,-3.4833984375
0.1595,2.482421875,0.8408203125,-3.7236328125
0.16,2.0419921875,1.5615234375,-4.0439453125
0.1605,1.44140625,2.482421875,-4.3642578125
0.161,0.6005859375,2.7626953125,-3.8037109375
0.1615,0.0,3.4033203125,-3.84375
0.162,-1.0009765625,3.603515625,-3.0029296875
0.1625,-1.8017578125,3.9638671875,-2.6025390625
0.163,-2.8427734375,4.244140625,-1.8017578125
0.1635,-3.443359375,4.2841796875,-1.2412109375
0.164,-3.8037109375,3.7236328125,-0.400390625
0.1645,-4.1640625,3.603515625,0.1201171875
0.165,-4.2841796875,2.802734375,1.0009765625
0.1655,-4.5244140625,2.3623046875,1.6416015625
0.166,-4.8046875,1.6416015625,2.642578125
0.1665,-4.32421875,0.80078125,3.0029296875
0.167,-4.0439453125,-0.16015625,3.6435546875
0.1675,-3.36328125,-1.041015625,3.84375
0.168,-2.802734375,-1.9619140625,4.1240234375
0.1685,-2.2021484375,-2.8427734375,4.32421875
0.169,-1.44140625,-3.68359375,4.4443359375
0.1695,-0.48046875,-3.9638671875,3.68359375
0.17,0.1201171875,-4.5244140625,3.68359375
0.1705,1.28125,-4.64453125,2.6826171875
0.171,2.0419921875,-4.9248046875,2.2421875
0.1715,3.0830078125,-5.125,1.4013671875
0.172,3.5234375,-4.8447265625,0.6806640625
0.1725,3.84375,-4.32421875,-0.080078125
0.173,4.083984375,-3.9638671875,-0.720703125
0.1735,4.1640625,-3.04296875,-1.681640625
0.174,4.2841796875,-2.5625,-2.2822265625
0.1745,4.484375,-1.76171875,-3.2431640625
0.175,3.763671875,-0.720703125,-3.5634765625
0.1755,3.5234375,0.1201171875,-4.0439453125
0.176,2.6025390625,1.12109375,-4.1640625
0.1765,2.0419921875,1.921875,-4.4443359375
0.177,1.361328125,2.72265625,-4.564453125
0.1775,0.6005859375,3.4833984375,-4.484375
0.178,-0.400390625,3.763671875,-3.7236328125
0.1785,-1.0810546875,4.2841796875,-3.5634765625
0.179,-2.40234375,4.404296875,-2.40234375
0.1795,-2.962890625,4.564453125,-2.001953125
0.18,-3.9638671875,4.6845703125,-1.1611328125
0.1805,-4.2841796875,4.1640625,-0.3203125
0.181,-4.6044921875,3.8037109375,0.400390625
0.1815,-4.8447265625,3.1630859375,1.201171875
0.182,-4.96484375,2.322265625,2.2021484375
0.1825,-4.96484375,1.76171875,2.72265625
0.183,-5.125,0.9208984375,3.68359375
0.1835,-4.1640625,-0.2802734375,3.8837890625
0.184,-4.00390625,-1.041015625,4.4443359375
0.1845,-2.8427734375,-2.4423828125,4.484375
0.185,-2.322265625,-3.1630859375,4.7646484375
0.1855,-1.44140625,-3.9638671875,4.6044921875
0.186,-0.5205078125,-4.564453125,4.404296875
0.1865,0.4404296875,-4.8046875,3.68359375
0.187,1.28125,-5.28515625,3.3232421875
0.1875,2.6826171875,-5.4052734375,1.9619140625
0.188,3.1630859375,-5.4052734375,1.5615234375
0.1885,4.1240234375,-5.365234375,0.640625
0.189,4.32421875,-4.6845703125,-0.2001953125
0.1895,4.5244140625,-4.2041015625,-0.9208984375
0.19,4.724609375,-3.36328125,-1.921875
0.1905,4.8046875,-2.5224609375,-2.8427734375
0.191,4.6044921875,-1.8017578125,-3.3232421875
0.1915,4.6044921875,-0.9208984375,-4.1640625
0.192,3.5234375,0.3203125,-4.2841796875
0.1925,3.2431640625,1.0009765625,-4.7646484375
0.193,1.921875,2.4423828125,-4.8447265625
0.1935,1.5615234375,3.0029296875,-4.96484375
0.194,0.6005859375,3.8037109375,-4.6845703125
0.1945,-0.4404296875,4.3642578125,-4.32421875
0.195,-1.3212890625,4.484375,-3.5634765625
0.1955,-2.2822265625,4.96484375,-3.0029296875
0.196,-3.6435546875,5.044921875,-1.76171875
0.1965,-4.00390625,4.884765625,-1.28125
0.197,-4.8447265625,4.8046875,-0.3603515625
0.1975,-5.0048828125,4.00390625,0.560546875
0.198,-5.28515625,3.603515625,1.2412109375
0.1985,-5.4052734375,2.5224609375,2.40234375
0.199,-5.4853515625,1.841796875,3.1630859375
0.1995,-5.1650390625,0.9609375,3.68359375
0.2,-5.0048828125,0.0,4.484375
0.2005,-3.8837890625,-1.3212890625,4.5244140625
0.201,-3.5634765625,-2.1220703125,4.96484375
0.2015,-2.162109375,-3.603515625,5.044921875
0.202,-1.681640625,-4.0439453125,5.044921875
0.2025,-0.6005859375,-4.7646484375,4.64453125
0.203,0.400390625,-5.28515625,4.1640625
0.2035,1.28125,-5.4052734375,3.36328125
0.204,2.40234375,-5.765625,2.642578125
0.2045,3.68359375,-5.845703125,1.521484375
0.205,4.00390625,-5.4853515625,0.880859375
0.2055,4.7646484375,-5.28515625,-0.080078125
0.206,4.8046875,-4.3642578125,-1.0009765625
0.2065,5.0048828125,-3.8837890625,-1.681640625
0.207,5.044921875,-2.72265625,-2.9228515625
0.2075,5.0849609375,-2.0419921875,-3.603515625
0.208,4.5244140625,-1.041015625,-4.0439453125
0.2085,4.32421875,-0.1201171875,-4.7646484375
0.209,3.1630859375,1.12109375,-4.7646484375
0.2095,2.7626953125,1.8818359375,-5.125
0.21,1.44140625,3.3232421875,-5.125
0.2105,0.9609375,3.68359375,-5.0048828125
0.211,-0.2001953125,4.404296875,-4.5244140625
0.2115,-1.12109375,4.7646484375,-4.00390625
0.212,-2.001953125,4.8447265625,-3.203125
0.2125,-3.1630859375,5.125,-2.3623046875
0.213,-4.2841796875,5.2451171875,-1.361328125
0.2135,-4.5244140625,4.7646484375,-0.640625
0.214,-5.2451171875,4.6044921875,0.240234375
0.2145,-5.205078125,3.603515625,1.201171875
0.215,-5.4453125,3.1630859375,1.841796875
0.2155,-5.525390625,1.9619140625,3.04296875
0.216,-5.4853515625,1.4013671875,3.6435546875
0.2165,-4.8447265625,0.240234375,4.083984375
0.217,-4.564453125,-0.7607421875,4.6845703125
0.2175,-3.4033203125,-2.001953125,4.724609375
0.218,-2.962890625,-2.72265625,5.044921875
0.2185,-1.8017578125,-4.0439453125,5.125
0.219,-1.1611328125,-4.3642578125,4.8046875
0.2195,0.0,-5.0048828125,4.3642578125
0.22,0.880859375,-5.28515625,3.68359375
0.2205,1.76171875,-5.4453125,3.0029296875
0.221,2.9228515625,-5.6455078125,2.0419921875
0.2215,3.923828125,-5.765625,1.201171875
0.222,4.1240234375,-5.0849609375,0.3203125
0.2225,4.7646484375,-4.9248046875,-0.4404296875
0.223,4.64453125,-3.84375,-1.361328125
0.2235,4.8046875,-3.4033203125,-1.9619140625
0.224,4.9248046875,-2.2822265625,-3.1630859375
0.2245,4.8046875,-1.8017578125,-3.603515625
0.225,4.1240234375,-0.6005859375,-4.1240234375
0.2255,3.763671875,0.2802734375,-4.564453125
0.226,2.72265625,1.44140625,-4.564453125
0.2265,2.2421875,2.2421875,-4.8447265625
0.227,1.28125,3.36328125,-5.0048828125
0.2275,0.560546875,3.5634765625,-4.484375
0.228,-0.400390625,4.32421875,-4.244140625
