wavelength,x,y,z
0.0,-0.630615234375,-6.396240234375,5.054931640625
0.0005,-1.871826171875,-5.675537109375,5.495361328125
0.001,-3.193115234375,-4.554443359375,6.055908203125
0.0015,-4.434326171875,-3.353271484375,6.256103515625
0.002,-5.235107421875,-2.312255859375,6.376220703125
0.0025,-5.635498046875,-1.551513671875,6.336181640625
0.003,-5.635498046875,-0.790771484375,5.815673828125
0.0035,-5.515380859375,0.450439453125,4.894775390625
0.004,-5.515380859375,1.731689453125,3.853759765625
0.0045,-5.395263671875,3.052978515625,2.692626953125
0.005,-5.275146484375,4.013916015625,1.771728515625
0.0055,-4.834716796875,4.534423828125,0.970947265625
0.006,-3.993896484375,4.894775390625,0.010009765625
0.0065,-2.872802734375,5.175048828125,-1.471435546875
0.007,-1.671630859375,5.535400390625,-2.992919921875
0.0075,-0.750732421875,5.735595703125,-4.194091796875
0.008,0.050048828125,5.975830078125,-5.114990234375
0.0085,1.010986328125,5.455322265625,-5.715576171875
0.009,2.372314453125,4.414306640625,-6.115966796875
0.0095,3.653564453125,3.173095703125,-6.516357421875
0.01,4.774658203125,1.931884765625,-6.596435546875
0.0105,5.375244140625,1.051025390625,-6.596435546875
0.011,5.535400390625,0.290283203125,-6.356201171875
0.0115,5.375244140625,-0.750732421875,-5.475341796875
0.012,5.255126953125,-1.951904296875,-4.434326171875
0.0125,5.175048828125,-3.353271484375,-3.193115234375
0.013,5.014892578125,-4.514404296875,-2.112060546875
0.0135,4.814697265625,-5.315185546875,-1.271240234375
0.014,4.134033203125,-5.715576171875,-0.470458984375
0.0145,3.052978515625,-5.875732421875,0.850830078125
0.015,1.811767578125,-6.196044921875,2.332275390625
0.0155,0.610595703125,-6.396240234375,3.773681640625
0.016,-0.270263671875,-6.676513671875,4.814697265625
0.0165,-1.031005859375,-6.676513671875,5.615478515625
0.017,-2.232177734375,-5.835693359375,6.055908203125
0.0175,-3.673583984375,-4.554443359375,6.416259765625
0.018,-4.954833984375,-3.193115234375,6.696533203125
0.0185,-5.755615234375,-1.951904296875,6.696533203125
0.019,-6.196044921875,-1.151123046875,6.616455078125
0.0195,-6.156005859375,-0.350341796875,6.055908203125
0.02,-5.915771484375,0.890869140625,4.974853515625
0.0205,-5.755615234375,2.252197265625,3.773681640625
0.021,-5.635498046875,3.613525390625,2.492431640625
0.0215,-5.355224609375,4.614501953125,1.411376953125
0.022,-4.994873046875,5.215087890625,0.610595703125
0.0225,-4.033935546875,5.455322265625,-0.510498046875
0.023,-2.712646484375,5.615478515625,-1.911865234375
0.0235,-1.391357421875,5.895751953125,-3.513427734375
0.024,-0.270263671875,6.015869140625,-4.754638671875
0.0245,0.530517578125,6.135986328125,-5.715576171875
0.025,1.411376953125,5.775634765625,-6.356201171875
0.0255,2.732666015625,4.614501953125,-6.716552734375
0.026,4.134033203125,3.253173828125,-6.996826171875
0.0265,5.295166015625,1.891845703125,-7.076904296875
0.027,5.935791015625,0.730712890625,-6.916748046875
0.0275,6.095947265625,-0.150146484375,-6.676513671875
0.028,5.895751953125,-1.071044921875,-5.795654296875
0.0285,5.615478515625,-2.352294921875,-4.514404296875
0.029,5.455322265625,-3.793701171875,-3.193115234375
0.0295,5.175048828125,-5.034912109375,-1.951904296875
0.03,4.894775390625,-5.875732421875,-0.990966796875
0.0305,4.294189453125,-6.276123046875,0.010009765625
0.031,3.133056640625,-6.356201171875,1.091064453125
0.0315,1.691650390625,-6.516357421875,2.612548828125
0.032,0.370361328125,-6.676513671875,4.134033203125
0.0325,-0.670654296875,-6.836669921875,5.255126953125
0.033,-1.351318359375,-6.916748046875,6.055908203125
0.0335,-2.472412109375,-6.156005859375,6.536376953125
0.034,-3.873779296875,-4.754638671875,6.856689453125
0.0345,-5.195068359375,-3.353271484375,7.056884765625
0.035,-6.156005859375,-1.951904296875,7.016845703125
0.0355,-6.596435546875,-0.990966796875,6.856689453125
0.036,-6.596435546875,-0.190185546875,6.376220703125
0.0365,-6.276123046875,0.970947265625,5.335205078125
0.037,-6.035888671875,2.292236328125,3.973876953125
0.0375,-5.835693359375,3.733642578125,2.612548828125
0.038,-5.475341796875,4.854736328125,1.331298828125
0.0385,-5.114990234375,5.575439453125,0.490478515625
0.039,-4.274169921875,5.775634765625,-0.510498046875
0.0395,-2.952880859375,5.855712890625,-1.831787109375
0.04,-1.511474609375,6.095947265625,-3.473388671875
0.0405,-0.230224609375,6.095947265625,-4.874755859375
0.041,0.690673828125,6.216064453125,-5.835693359375
0.0415,1.411376953125,6.055908203125,-6.556396484375
0.042,2.612548828125,5.094970703125,-6.876708984375
0.0425,4.053955078125,3.613525390625,-7.116943359375
0.043,5.295166015625,2.212158203125,-7.317138671875
0.0435,6.055908203125,0.890869140625,-7.076904296875
0.044,6.376220703125,0.050048828125,-6.916748046875
0.0445,6.176025390625,-0.910888671875,-6.236083984375
0.045,5.815673828125,-2.072021484375,-4.994873046875
0.0455,5.575439453125,-3.473388671875,-3.673583984375
0.046,5.335205078125,-4.834716796875,-2.272216796875
0.0465,4.974853515625,-5.755615234375,-1.151123046875
0.047,4.534423828125,-6.356201171875,-0.350341796875
0.0475,3.573486328125,-6.476318359375,0.690673828125
0.048,2.172119140625,-6.516357421875,2.172119140625
0.0485,0.770751953125,-6.756591796875,3.733642578125
0.049,-0.510498046875,-6.796630859375,4.974853515625
0.0495,-1.231201171875,-6.996826171875,5.895751953125
0.05,-2.031982421875,-6.556396484375,6.456298828125
0.0505,-3.353271484375,-5.315185546875,6.776611328125
0.051,-4.754638671875,-3.913818359375,7.056884765625
0.0515,-5.875732421875,-2.472412109375,7.096923828125
0.052,-6.516357421875,-1.311279296875,6.896728515625
0.0525,-6.676513671875,-0.590576171875,6.696533203125
0.053,-6.436279296875,0.490478515625,5.815673828125
0.0535,-6.115966796875,1.731689453125,4.534423828125
0.054,-5.955810546875,3.133056640625,3.213134765625
0.0545,-5.635498046875,4.414306640625,1.891845703125
0.055,-5.315185546875,5.255126953125,0.890869140625
0.0555,-4.674560546875,5.695556640625,0.010009765625
0.056,-3.593505859375,5.815673828125,-1.151123046875
0.0565,-2.152099609375,5.935791015625,-2.712646484375
0.057,-0.790771484375,6.095947265625,-4.314208984375
0.0575,0.330322265625,6.135986328125,-5.435302734375
0.058,1.010986328125,6.336181640625,-6.236083984375
0.0585,2.052001953125,5.615478515625,-6.716552734375
0.059,3.453369140625,4.254150390625,-7.036865234375
0.0595,4.774658203125,2.852783203125,-7.237060546875
0.06,5.735595703125,1.411376953125,-7.197021484375
0.0605,6.256103515625,0.450439453125,-7.036865234375
0.061,6.296142578125,-0.510498046875,-6.596435546875
0.0615,6.015869140625,-1.511474609375,-5.595458984375
0.062,5.735595703125,-2.872802734375,-4.234130859375
0.0625,5.495361328125,-4.354248046875,-2.872802734375
0.063,5.175048828125,-5.435302734375,-1.591552734375
0.0635,4.854736328125,-6.196044921875,-0.710693359375
0.064,4.053955078125,-6.436279296875,0.290283203125
0.0645,2.772705078125,-6.556396484375,1.571533203125
0.065,1.291259765625,-6.716552734375,3.173095703125
0.0655,-0.150146484375,-6.836669921875,4.574462890625
0.066,-0.950927734375,-6.916748046875,5.575439453125
0.0665,-1.631591796875,-6.796630859375,6.256103515625
0.067,-2.872802734375,-5.795654296875,6.696533203125
0.0675,-4.314208984375,-4.354248046875,6.976806640625
0.068,-5.515380859375,-2.952880859375,7.096923828125
0.0685,-6.316162109375,-1.631591796875,6.936767578125
0.069,-6.676513671875,-0.830810546875,6.776611328125
0.0695,-6.516357421875,0.090087890625,6.135986328125
0.07,-6.156005859375,1.251220703125,4.974853515625
0.0705,-5.915771484375,2.572509765625,3.693603515625
0.071,-5.715576171875,3.933837890625,2.292236328125
0.0715,-5.315185546875,4.934814453125,1.211181640625
0.072,-4.914794921875,5.495361328125,0.370361328125
0.0725,-3.993896484375,5.655517578125,-0.670654296875
0.073,-2.632568359375,5.735595703125,-2.031982421875
0.0735,-1.311279296875,5.935791015625,-3.633544921875
0.074,0.010009765625,6.055908203125,-4.874755859375
0.0745,0.650634765625,6.216064453125,-5.755615234375
0.075,1.451416015625,5.895751953125,-6.396240234375
0.0755,2.692626953125,4.774658203125,-6.676513671875
0.076,4.053955078125,3.413330078125,-6.956787109375
0.0765,5.135009765625,2.052001953125,-7.036865234375
0.077,5.815673828125,0.930908203125,-6.916748046875
0.0775,6.055908203125,0.130126953125,-6.716552734375
0.078,5.815673828125,-0.790771484375,-5.955810546875
0.0785,5.575439453125,-1.951904296875,-4.834716796875
0.079,5.415283203125,-3.313232421875,-3.553466796875
0.0795,5.135009765625,-4.554443359375,-2.272216796875
0.08,4.934814453125,-5.435302734375,-1.311279296875
0.0805,4.494384765625,-5.995849609375,-0.550537109375
0.081,3.453369140625,-6.156005859375,0.610595703125
0.0815,2.172119140625,-6.356201171875,1.931884765625
0.082,0.890869140625,-6.476318359375,3.453369140625
0.0825,-0.230224609375,-6.676513671875,4.614501953125
0.083,-0.910888671875,-6.836669921875,5.535400390625
0.0835,-1.831787109375,-6.356201171875,6.055908203125
0.084,-3.153076171875,-5.155029296875,6.416259765625
0.0845,-4.514404296875,-3.873779296875,6.736572265625
0.085,-5.515380859375,-2.552490234375,6.736572265625
0.0855,-6.115966796875,-1.591552734375,6.696533203125
0.086,-6.236083984375,-0.870849609375,6.416259765625
0.0865,-6.035888671875,0.210205078125,5.615478515625
0.087,-5.795654296875,1.371337890625,4.494384765625
0.0875,-5.715576171875,2.772705078125,3.253173828125
0.088,-5.475341796875,3.973876953125,2.052001953125
0.0885,-5.235107421875,4.774658203125,1.171142578125
0.089,-4.594482421875,5.094970703125,0.290283203125
0.0895,-3.553466796875,5.295166015625,-0.950927734375
0.09,-2.272216796875,5.615478515625,-2.392333984375
0.0905,-1.031005859375,5.735595703125,-3.833740234375
0.091,-0.190185546875,6.015869140625,-4.874755859375
0.0915,0.610595703125,6.055908203125,-5.675537109375
0.092,1.651611328125,5.335205078125,-6.115966796875
0.0925,3.012939453125,4.134033203125,-6.476318359375
0.093,4.254150390625,2.852783203125,-6.716552734375
0.0935,5.135009765625,1.571533203125,-6.676513671875
0.094,5.615478515625,0.810791015625,-6.676513671875
0.0945,5.615478515625,0.050048828125,-6.196044921875
0.095,5.415283203125,-1.031005859375,-5.315185546875
0.0955,5.255126953125,-2.272216796875,-4.194091796875
0.096,5.094970703125,-3.593505859375,-2.992919921875
0.0965,4.894775390625,-4.634521484375,-1.951904296875
0.097,4.654541015625,-5.435302734375,-1.231201171875
0.0975,3.933837890625,-5.715576171875,-0.350341796875
0.098,2.852783203125,-5.835693359375,0.970947265625
0.0985,1.691650390625,-6.156005859375,2.412353515625
0.099,0.570556640625,-6.276123046875,3.653564453125
0.0995,-0.270263671875,-6.596435546875,4.654541015625
0.1,-0.990966796875,-6.476318359375,5.415283203125
0.1005,-2.152099609375,-5.635498046875,5.775634765625
0.101,-3.433349609375,-4.514404296875,6.176025390625
0.1015,-4.594482421875,-3.273193359375,6.416259765625
0.102,-5.395263671875,-2.232177734375,6.416259765625
0.1025,-5.755615234375,-1.511474609375,6.376220703125
0.103,-5.715576171875,-0.750732421875,5.895751953125
0.1035,-5.595458984375,0.370361328125,4.974853515625
0.104,-5.515380859375,1.611572265625,3.973876953125
0.1045,-5.395263671875,2.852783203125,2.812744140625
0.105,-5.275146484375,3.853759765625,1.891845703125
0.1055,-4.914794921875,4.454345703125,1.091064453125
0.106,-4.154052734375,4.814697265625,0.170166015625
0.1065,-3.072998046875,5.094970703125,-1.191162109375
0.107,-1.951904296875,5.415283203125,-2.592529296875
0.1075,-0.990966796875,5.655517578125,-3.833740234375
0.108,-0.310302734375,5.975830078125,-4.754638671875
0.1085,0.650634765625,5.615478515625,-5.395263671875
0.109,1.891845703125,4.734619140625,-5.795654296875
0.1095,3.133056640625,3.653564453125,-6.236083984375
0.11,4.214111328125,2.452392578125,-6.356201171875
0.1105,4.894775390625,1.571533203125,-6.436279296875
0.111,5.175048828125,0.850830078125,-6.316162109375
0.1115,5.094970703125,0.010009765625,-5.715576171875
0.112,5.054931640625,-1.151123046875,-4.834716796875
0.1125,5.054931640625,-2.432373046875,-3.833740234375
0.113,4.894775390625,-3.593505859375,-2.752685546875
0.1135,4.814697265625,-4.514404296875,-1.991943359375
0.114,4.414306640625,-4.994873046875,-1.231201171875
0.1145,3.533447265625,-5.315185546875,-0.190185546875
0.115,2.572509765625,-5.675537109375,1.171142578125
0.1155,1.451416015625,-5.955810546875,2.532470703125
0.116,0.690673828125,-6.276123046875,3.613525390625
0.1165,0.010009765625,-6.476318359375,4.494384765625
0.117,-1.071044921875,-6.035888671875,5.094970703125
0.1175,-2.312255859375,-5.114990234375,5.575439453125
0.118,-3.553466796875,-4.033935546875,5.935791015625
0.1185,-4.514404296875,-2.952880859375,6.095947265625
0.119,-5.155029296875,-2.232177734375,6.256103515625
0.1195,-5.355224609375,-1.551513671875,6.055908203125
0.12,-5.315185546875,-0.630615234375,5.375244140625
0.1205,-5.315185546875,0.490478515625,4.574462890625
0.121,-5.315185546875,1.771728515625,3.573486328125
0.1215,-5.235107421875,2.852783203125,2.612548828125
0.122,-5.114990234375,3.693603515625,1.931884765625
0.1225,-4.634521484375,4.214111328125,1.091064453125
0.123,-3.753662109375,4.574462890625,-0.150146484375
0.1235,-2.792724609375,5.094970703125,-1.471435546875
0.124,-1.791748046875,5.335205078125,-2.752685546875
0.1245,-1.071044921875,5.735595703125,-3.873779296875
0.125,-0.310302734375,5.775634765625,-4.674560546875
0.1255,0.930908203125,5.175048828125,-5.195068359375
0.126,2.172119140625,4.254150390625,-5.755615234375
0.1265,3.373291015625,3.173095703125,-6.075927734375
0.127,4.294189453125,2.172119140625,-6.236083984375
0.1275,4.814697265625,1.451416015625,-6.356201171875
0.128,4.934814453125,0.730712890625,-5.955810546875
0.1285,4.894775390625,-0.390380859375,-5.275146484375
0.129,4.974853515625,-1.591552734375,-4.434326171875
0.1295,4.894775390625,-2.832763671875,-3.433349609375
0.13,4.934814453125,-3.833740234375,-2.552490234375
0.1305,4.694580078125,-4.554443359375,-1.831787109375
0.131,4.013916015625,-4.994873046875,-0.910888671875
0.1315,3.133056640625,-5.395263671875,0.450439453125
0.132,2.052001953125,-5.795654296875,1.811767578125
0.1325,1.171142578125,-6.115966796875,3.052978515625
0.133,0.490478515625,-6.516357421875,4.053955078125
0.1335,-0.510498046875,-6.276123046875,4.814697265625
0.134,-1.751708984375,-5.435302734375,5.295166015625
0.1345,-3.072998046875,-4.474365234375,5.815673828125
0.135,-4.194091796875,-3.313232421875,6.055908203125
0.1355,-4.994873046875,-2.432373046875,6.216064453125
0.136,-5.315185546875,-1.751708984375,6.176025390625
0.1365,-5.315185546875,-0.950927734375,5.615478515625
0.137,-5.315185546875,0.250244140625,4.774658203125
0.1375,-5.435302734375,1.491455078125,3.853759765625
0.138,-5.275146484375,2.772705078125,2.772705078125
0.1385,-5.195068359375,3.693603515625,1.931884765625
0.139,-4.754638671875,4.214111328125,1.131103515625
0.1395,-3.873779296875,4.534423828125,0.090087890625
0.14,-2.912841796875,4.974853515625,-1.311279296875
0.1405,-1.791748046875,5.335205078125,-2.712646484375
0.141,-1.031005859375,5.655517578125,-3.833740234375
0.1415,-0.310302734375,5.815673828125,-4.754638671875
0.142,0.810791015625,5.335205078125,-5.315185546875
0.1425,2.132080078125,4.334228515625,-5.755615234375
0.143,3.413330078125,3.173095703125,-6.156005859375
0.1435,4.334228515625,2.052001953125,-6.276123046875
0.144,4.974853515625,1.291259765625,-6.396240234375
0.1445,5.094970703125,0.530517578125,-6.075927734375
0.145,4.974853515625,-0.510498046875,-5.315185546875
0.1455,4.974853515625,-1.671630859375,-4.434326171875
0.146,4.974853515625,-2.952880859375,-3.313232421875
0.1465,4.814697265625,-3.993896484375,-2.352294921875
0.147,4.694580078125,-4.794677734375,-1.591552734375
0.1475,4.093994140625,-5.155029296875,-0.710693359375
0.148,3.052978515625,-5.435302734375,0.530517578125
0.1485,1.971923828125,-5.875732421875,1.931884765625
0.149,0.970947265625,-6.115966796875,3.173095703125
0.1495,0.290283203125,-6.516357421875,4.214111328125
0.15,-0.630615234375,-6.396240234375,4.974853515625
0.1505,-1.831787109375,-5.635498046875,5.495361328125
0.151,-3.193115234375,-4.514404296875,5.935791015625
0.1515,-4.354248046875,-3.353271484375,6.216064453125
0.152,-5.155029296875,-2.312255859375,6.336181640625
0.1525,-5.555419921875,-1.631591796875,6.256103515625
0.153,-5.595458984375,-0.830810546875,5.775634765625
0.1535,-5.475341796875,0.290283203125,4.854736328125
0.154,-5.475341796875,1.611572265625,3.893798828125
0.1545,-5.355224609375,2.892822265625,2.732666015625
0.155,-5.235107421875,3.853759765625,1.891845703125
0.1555,-4.874755859375,4.494384765625,1.091064453125
0.156,-4.033935546875,4.774658203125,0.090087890625
0.1565,-2.952880859375,5.094970703125,-1.311279296875
0.157,-1.791748046875,5.455322265625,-2.832763671875
0.1575,-0.910888671875,5.695556640625,-3.953857421875
0.158,-0.190185546875,5.975830078125,-4.954833984375
0.1585,0.850830078125,5.575439453125,-5.555419921875
0.159,2.172119140625,4.534423828125,-5.955810546875
0.1595,3.493408203125,3.373291015625,-6.396240234375
0.16,4.574462890625,2.092041015625,-6.476318359375
0.1605,5.215087890625,1.211181640625,-6.556396484375
0.161,5.415283203125,0.450439453125,-6.356201171875
0.1615,5.255126953125,-0.630615234375,-5.635498046875
0.162,5.175048828125,-1.711669921875,-4.554443359375
0.1625,5.175048828125,-3.072998046875,-3.433349609375
0.163,4.974853515625,-4.234130859375,-2.272216796875
0.1635,4.814697265625,-5.114990234375,-1.471435546875
0.164,4.214111328125,-5.515380859375,-0.630615234375
0.1645,3.173095703125,-5.755615234375,0.610595703125
0.165,1.971923828125,-6.115966796875,2.052001953125
0.1655,0.810791015625,-6.316162109375,3.533447265625
0.166,0.010009765625,-6.596435546875,4.574462890625
0.1665,-0.830810546875,-6.636474609375,5.415283203125
0.167,-1.951904296875,-5.915771484375,5.895751953125
0.1675,-3.433349609375,-4.634521484375,6.376220703125
0.168,-4.754638671875,-3.353271484375,6.656494140625
0.1685,-5.635498046875,-2.192138671875,6.616455078125
0.169,-6.075927734375,-1.351318359375,6.656494140625
0.1695,-6.115966796875,-0.590576171875,6.095947265625
0.17,-5.835693359375,0.690673828125,5.094970703125
0.1705,-5.755615234375,2.052001953125,3.853759765625
0.171,-5.635498046875,3.453369140625,2.572509765625
0.1715,-5.355224609375,4.494384765625,1.531494140625
0.172,-4.994873046875,5.135009765625,0.650634765625
0.1725,-4.114013671875,5.415283203125,-0.430419921875
0.173,-2.752685546875,5.575439453125,-1.831787109375
0.1735,-1.471435546875,5.895751953125,-3.473388671875
0.174,-0.350341796875,5.975830078125,-4.714599609375
0.1745,0.450439453125,6.216064453125,-5.635498046875
0.175,1.331298828125,5.815673828125,-6.276123046875
0.1755,2.692626953125,4.654541015625,-6.636474609375
0.176,4.134033203125,3.253173828125,-6.916748046875
0.1765,5.255126953125,1.851806640625,-7.076904296875
0.177,5.895751953125,0.730712890625,-6.876708984375
0.1775,6.055908203125,-0.190185546875,-6.636474609375
0.178,5.815673828125,-1.071044921875,-5.755615234375
0.1785,5.575439453125,-2.352294921875,-4.514404296875
0.179,5.415283203125,-3.793701171875,-3.153076171875
0.1795,5.135009765625,-5.034912109375,-1.911865234375
0.18,4.814697265625,-5.835693359375,-0.950927734375
0.1805,4.214111328125,-6.236083984375,0.010009765625
0.181,3.133056640625,-6.356201171875,1.091064453125
0.1815,1.651611328125,-6.436279296875,2.612548828125
0.182,0.330322265625,-6.636474609375,4.134033203125
0.1825,-0.670654296875,-6.716552734375,5.215087890625
0.183,-1.311279296875,-6.796630859375,6.015869140625
0.1835,-2.392333984375,-6.115966796875,6.456298828125
0.184,-3.793701171875,-4.754638671875,6.776611328125
0.1845,-5.114990234375,-3.393310546875,7.016845703125
0.185,-6.075927734375,-1.991943359375,6.976806640625
0.1855,-6.556396484375,-1.071044921875,6.776611328125
0.186,-6.516357421875,-0.270263671875,6.376220703125
0.1865,-6.236083984375,0.890869140625,5.335205078125
0.187,-5.915771484375,2.172119140625,4.013916015625
0.1875,-5.755615234375,3.573486328125,2.692626953125
0.188,-5.435302734375,4.734619140625,1.451416015625
