wavelength,x,y,z
0.0,17.642211914062,-22.677124023438,5.1099853515625
0.0005,19.924438476562,-21.155639648438,1.3062744140625
0.001,21.886352539062,-18.793334960938,-3.1380615234375
0.0015,23.648071289062,-15.390014648438,-8.3431396484375
0.002,23.047485351562,-11.426147460938,-11.666381835938
0.0025,23.407836914062,-8.0228271484375,-15.430053710938
0.003,21.606079101562,-4.1390380859375,-17.512084960938
0.0035,19.884399414062,0.6256103515625,-20.555053710938
0.004,16.801391601562,5.3101806640625,-22.116577148438
0.0045,13.277954101562,10.395141601562,-23.718139648438
0.005,9.9947509765625,13.518188476562,-23.638061523438
0.0055,5.7105712890625,16.841430664062,-22.637084960938
0.006,1.7467041015625,18.723266601562,-20.635131835938
0.0065,-2.9378662109375,21.285766601562,-18.713256835938
0.007,-8.2230224609375,23.087524414062,-15.229858398438
0.0075,-11.986694335938,23.207641601562,-11.666381835938
0.008,-15.430053710938,23.648071289062,-8.6634521484375
0.0085,-18.072631835938,21.846313476562,-4.3392333984375
0.009,-20.314819335938,20.204711914062,-0.3353271484375
0.0095,-21.876342773438,17.562133789062,3.9088134765625
0.01,-23.397827148438,13.998657226562,9.1138916015625
0.0105,-22.837280273438,10.234985351562,12.276977539062
0.011,-22.757202148438,6.7916259765625,15.720336914062
0.0115,-20.835327148438,3.0279541015625,17.602172851562
0.012,-19.233764648438,-1.6966552734375,20.645141601562
0.0125,-15.750366210938,-6.5814208984375,22.086547851562
0.013,-12.507202148438,-10.945678710938,23.167602539062
0.0135,-9.1839599609375,-14.148803710938,23.167602539062
0.014,-4.5794677734375,-17.111694335938,21.526000976562
0.0145,-0.4554443359375,-19.193725585938,19.564086914062
0.015,3.9888916015625,-21.475952148438,17.562133789062
0.0155,9.2340087890625,-23.197631835938,14.078735351562
0.016,12.637329101562,-22.837280273438,10.315063476562
0.0165,16.040649414062,-23.357788085938,7.4322509765625
0.017,18.483032226562,-21.275756835938,2.9078369140625
0.0175,21.005493164062,-19.634155273438,-1.4163818359375
0.018,22.006469726562,-16.471069335938,-5.5404052734375
0.0185,23.367797851562,-13.187866210938,-10.224975585938
0.019,22.807250976562,-9.3841552734375,-13.508178710938
0.0195,22.206665039062,-5.6204833984375,-16.631225585938
0.02,20.204711914062,-1.6165771484375,-18.633178710938
0.0205,18.322875976562,3.2281494140625,-21.596069335938
0.021,14.559204101562,8.1929931640625,-22.797241210938
0.0215,11.075805664062,12.116821289062,-23.237670898438
0.022,7.9927978515625,15.199829101562,-23.357788085938
0.0225,2.9879150390625,17.962524414062,-21.115600585938
0.023,-1.2562255859375,20.204711914062,-19.273803710938
0.0235,-5.9407958984375,22.086547851562,-16.511108398438
0.024,-10.745483398438,23.688110351562,-13.388061523438
0.0245,-14.268920898438,22.807250976562,-9.0238037109375
0.025,-17.231811523438,22.927368164062,-6.2210693359375
0.0255,-19.433959960938,20.645141601562,-1.7767333984375
0.026,-22.036499023438,18.723266601562,2.9478759765625
0.0265,-22.436889648438,14.839477539062,7.2720947265625
0.027,-23.557983398438,11.716430664062,11.556274414062
0.0275,-22.957397460938,8.0328369140625,14.719360351562
0.028,-21.716186523438,3.7486572265625,17.722290039062
0.0285,-19.594116210938,-0.4954833984375,19.804321289062
0.029,-17.151733398438,-5.4603271484375,22.286743164062
0.0295,-13.588256835938,-10.104858398438,23.407836914062
0.03,-9.4642333984375,-13.868530273438,23.087524414062
0.0305,-6.5413818359375,-16.511108398438,22.807250976562
0.031,-1.0560302734375,-19.233764648438,20.204711914062
0.0315,3.3883056640625,-21.636108398438,18.282836914062
0.032,8.1929931640625,-22.677124023438,14.559204101562
0.0325,12.196899414062,-24.198608398438,12.036743164062
0.033,15.800415039062,-23.037475585938,7.3922119140625
0.0335,18.563110351562,-22.436889648438,3.9088134765625
0.034,20.605102539062,-20.034545898438,-0.4954833984375
0.0345,23.007446289062,-17.712280273438,-5.2601318359375
0.035,22.967407226562,-13.588256835938,-9.4241943359375
0.0355,23.608032226562,-10.224975585938,-13.428100585938
0.036,22.847290039062,-6.9818115234375,-15.990600585938
0.0365,21.005493164062,-2.0570068359375,-19.033569335938
0.037,18.883422851562,2.1871337890625,-21.075561523438
0.0375,15.480102539062,7.3521728515625,-22.797241210938
0.038,12.597290039062,11.356079101562,-24.038452148438
0.0385,7.8726806640625,15.079711914062,-23.037475585938
0.039,4.8697509765625,17.361938476562,-22.436889648438
0.0395,-0.4154052734375,19.884399414062,-19.794311523438
0.04,-5.0599365234375,22.486938476562,-17.792358398438
0.0405,-9.7445068359375,22.807250976562,-13.508178710938
0.041,-13.428100585938,24.008422851562,-11.065795898438
0.0415,-16.591186523438,22.927368164062,-6.9017333984375
0.042,-19.313842773438,21.726196289062,-2.8577880859375
0.0425,-21.075561523438,19.283813476562,1.3863525390625
0.043,-23.117553710938,16.441040039062,6.3511962890625
0.0435,-23.117553710938,12.677368164062,10.194946289062
0.044,-23.237670898438,8.6734619140625,14.278930664062
0.0445,-22.557006835938,5.9107666015625,16.401000976562
0.045,-20.394897460938,0.7857666015625,19.403930664062
0.0455,-18.192749023438,-3.7786865234375,21.686157226562
0.046,-14.348999023438,-8.7034912109375,22.767211914062
0.0465,-11.826538085938,-12.307006835938,23.928344726562
0.047,-6.9417724609375,-15.870483398438,22.607055664062
0.0475,-3.2181396484375,-18.232788085938,21.365844726562
0.048,1.5865478515625,-20.555053710938,18.963500976562
0.0485,6.7916259765625,-23.197631835938,16.441040039062
0.049,10.875610351562,-23.157592773438,12.317016601562
0.0495,14.799438476562,-23.958374023438,9.1939697265625
0.05,17.442016601562,-22.797241210938,5.5904541015625
0.0505,20.364868164062,-21.155639648438,0.9859619140625
0.051,22.006469726562,-18.673217773438,-3.2982177734375
0.0515,23.567993164062,-15.229858398438,-8.3431396484375
0.052,23.688110351562,-11.906616210938,-11.786499023438
0.0525,23.207641601562,-7.4222412109375,-15.830444335938
0.053,22.086547851562,-4.2991943359375,-17.832397460938
0.0535,19.884399414062,0.9058837890625,-20.795288085938
0.054,17.001586914062,5.9508056640625,-22.997436523438
0.0545,12.877563476562,10.635375976562,-23.557983398438
0.055,10.234985351562,14.118774414062,-24.478881835938
0.0555,5.4703369140625,17.241821289062,-22.837280273438
0.056,1.0660400390625,19.804321289062,-21.075561523438
0.0565,-3.4583740234375,21.766235351562,-18.713256835938
0.057,-9.1439208984375,24.168579101562,-15.430053710938
0.0575,-12.667358398438,23.728149414062,-11.666381835938
0.058,-16.751342773438,24.168579101562,-7.8626708984375
0.0585,-19.033569335938,22.567016601562,-3.9788818359375
0.059,-21.756225585938,20.685180664062,0.7056884765625
0.0595,-23.117553710938,17.562133789062,5.1900634765625
0.06,-24.278686523438,13.598266601562,10.355102539062
0.0605,-24.278686523438,10.315063476562,13.718383789062
0.061,-23.317749023438,5.7105712890625,17.321899414062
0.0615,-21.636108398438,1.9468994140625,19.403930664062
0.062,-19.433959960938,-3.0179443359375,22.126586914062
0.0625,-15.990600585938,-8.4232177734375,24.128540039062
0.063,-11.866577148438,-12.507202148438,24.128540039062
0.0635,-8.6634521484375,-16.150756835938,24.528930664062
0.064,-3.4984130859375,-18.913452148438,22.286743164062
0.0645,1.3062744140625,-21.596069335938,20.204711914062
0.065,5.7506103515625,-23.197631835938,17.482055664062
0.0655,11.356079101562,-25.079467773438,13.798461914062
0.066,14.599243164062,-24.278686523438,9.8746337890625
0.0665,18.563110351562,-24.278686523438,5.9107666015625
0.067,20.685180664062,-22.116577148438,1.5865478515625
0.0675,23.327758789062,-19.994506835938,-3.2181396484375
0.068,24.088500976562,-16.390991210938,-7.7025146484375
0.0685,24.689086914062,-12.387084960938,-12.347045898438
0.069,24.568969726562,-8.9837646484375,-15.630249023438
0.0695,23.007446289062,-4.1790771484375,-18.873413085938
0.07,20.965454101562,0.0250244140625,-20.995483398438
0.0705,18.362915039062,4.9097900390625,-23.317749023438
0.071,14.599243164062,10.315063476562,-24.959350585938
0.0715,10.355102539062,13.958618164062,-24.358764648438
0.072,7.0318603515625,17.361938476562,-24.478881835938
0.0725,1.8267822265625,19.844360351562,-21.836303710938
0.073,-2.9378662109375,22.446899414062,-19.874389648438
0.0735,-7.5423583984375,23.567993164062,-16.511108398438
0.074,-12.667358398438,25.129516601562,-12.947631835938
0.0745,-15.950561523438,24.208618164062,-8.8236083984375
0.075,-19.273803710938,23.688110351562,-4.8997802734375
0.0755,-21.155639648438,21.445922851562,-0.7357177734375
0.076,-23.638061523438,19.083618164062,4.1490478515625
0.0765,-24.118530273438,15.039672851562,8.7935791015625
0.077,-24.318725585938,11.155883789062,12.877563476562
0.0775,-24.278686523438,7.9127197265625,16.120727539062
0.078,-22.276733398438,2.9478759765625,19.083618164062
0.0785,-20.314819335938,-1.3763427734375,21.365844726562
0.079,-17.231811523438,-6.1810302734375,23.087524414062
0.0795,-13.788452148438,-11.225952148438,24.809204101562
0.08,-9.3040771484375,-14.709350585938,23.728149414062
0.0805,-5.8206787109375,-17.952514648438,23.527954101562
0.081,-0.6156005859375,-20.194702148438,20.725219726562
0.0815,4.0289306640625,-23.037475585938,18.883422851562
0.082,8.8336181640625,-23.557983398438,14.799438476562
0.0825,13.077758789062,-24.759155273438,11.836547851562
0.083,16.521118164062,-24.038452148438,7.7525634765625
0.0835,19.724243164062,-22.917358398438,3.3482666015625
0.084,21.566040039062,-20.635131835938,-0.8157958984375
0.0845,23.688110351562,-18.112670898438,-5.5404052734375
0.085,24.208618164062,-14.108764648438,-10.104858398438
0.0855,23.968383789062,-9.9447021484375,-14.028686523438
0.086,23.848266601562,-7.0218505859375,-16.911499023438
0.0865,21.405883789062,-1.7767333984375,-19.714233398438
0.087,19.524047851562,2.7076416015625,-22.276733398438
0.0875,15.680297851562,7.7125244140625,-23.357788085938
0.088,12.797485351562,12.196899414062,-25.039428710938
0.0885,7.9927978515625,15.680297851562,-23.758178710938
0.089,4.3092041015625,18.563110351562,-22.997436523438
0.0895,-0.7757568359375,20.725219726562,-20.274780273438
0.09,-5.7406005859375,23.648071289062,-18.312866210938
0.0905,-10.385131835938,23.808227539062,-13.828491210938
0.091,-14.389038085938,24.609008789062,-10.625366210938
0.0915,-17.391967773438,24.008422851562,-7.1820068359375
0.092,-20.474975585938,22.246704101562,-2.2171630859375
0.0925,-22.356811523438,19.844360351562,2.1070556640625
0.093,-23.958374023438,16.601196289062,7.0718994140625
0.0935,-24.598999023438,13.037719726562,11.276000976562
0.094,-23.838256835938,8.3131103515625,15.279907226562
0.0945,-23.477905273438,5.4302978515625,17.802368164062
0.095,-20.875366210938,0.0250244140625,20.645141601562
0.0955,-18.833374023438,-4.8597412109375,23.407836914062
0.096,-14.348999023438,-9.7445068359375,23.808227539062
0.0965,-11.626342773438,-13.788452148438,25.089477539062
0.097,-6.7816162109375,-17.071655273438,23.648071289062
0.0975,-2.2572021484375,-20.034545898438,22.086547851562
0.098,2.5875244140625,-21.996459960938,19.403930664062
0.0985,8.0728759765625,-24.639038085938,16.681274414062
0.099,12.196899414062,-24.518920898438,12.517211914062
0.0995,16.360961914062,-24.679077148438,8.4332275390625
0.1,18.883422851562,-23.918334960938,5.1900634765625
0.1005,21.966430664062,-21.756225585938,-0.1351318359375
0.101,23.808227539062,-19.073608398438,-4.7396240234375
0.1015,24.649047851562,-15.069702148438,-9.6243896484375
0.102,25.209594726562,-11.986694335938,-13.267944335938
0.1025,23.968383789062,-6.9017333984375,-17.111694335938
0.103,22.967407226562,-3.4984130859375,-19.514038085938
0.1035,20.324829101562,1.8668212890625,-22.156616210938
0.104,17.442016601562,7.2720947265625,-24.759155273438
0.1045,12.797485351562,11.716430664062,-24.598999023438
0.105,9.6744384765625,15.560180664062,-25.359741210938
0.1055,5.1900634765625,18.322875976562,-23.718139648438
0.106,0.1051025390625,21.285766601562,-21.636108398438
0.1065,-4.4993896484375,23.087524414062,-18.953491210938
0.107,-10.265014648438,25.209594726562,-15.390014648438
0.1075,-13.668334960938,24.929321289062,-11.786499023438
0.108,-17.952514648438,24.568969726562,-7.1019287109375
0.1085,-19.994506835938,23.287719726562,-3.7786865234375
0.109,-22.677124023438,20.965454101562,1.3062744140625
0.1095,-24.358764648438,17.882446289062,6.1910400390625
0.11,-24.639038085938,13.398071289062,10.955688476562
0.1105,-25.199584960938,10.435180664062,14.479125976562
0.111,-23.598022460938,5.5904541015625,17.762329101562
0.1115,-22.116577148438,1.6265869140625,20.204711914062
0.112,-19.554077148438,-3.1781005859375,22.446899414062
0.1125,-16.310913085938,-8.9437255859375,24.849243164062
0.113,-12.026733398438,-12.667358398438,24.368774414062
0.1135,-8.3031005859375,-16.631225585938,24.609008789062
0.114,-3.9388427734375,-18.833374023438,22.607055664062
0.1145,1.3463134765625,-21.796264648438,20.484985351562
0.115,5.8306884765625,-23.437866210938,17.682250976562
0.1155,11.356079101562,-24.959350585938,13.758422851562
0.116,14.399047851562,-24.759155273438,10.515258789062
0.1165,18.402954101562,-24.038452148438,5.7906494140625
0.117,20.484985351562,-22.436889648438,2.1070556640625
0.1175,22.887329101562,-20.194702148438,-2.6175537109375
0.118,24.488891601562,-16.871459960938,-7.6224365234375
0.1185,24.288696289062,-12.507202148438,-11.786499023438
0.119,24.729125976562,-9.3040771484375,-15.470092773438
0.1195,22.847290039062,-4.7396240234375,-18.192749023438
0.12,21.285766601562,-0.3753662109375,-20.955444335938
0.1205,18.523071289062,4.3092041015625,-22.837280273438
0.121,14.879516601562,9.9146728515625,-24.959350585938
0.1215,10.915649414062,13.277954101562,-24.318725585938
0.122,6.9117431640625,17.201782226562,-24.238647460938
0.1225,2.7076416015625,19.243774414062,-22.076538085938
0.123,-2.4173583984375,22.166625976562,-20.114624023438
0.1235,-7.2220458984375,23.688110351562,-16.831420898438
0.124,-12.226928710938,24.689086914062,-12.947631835938
0.1245,-15.550170898438,24.609008789062,-9.5843505859375
0.125,-18.953491210938,23.487915039062,-4.9798583984375
0.1255,-20.995483398438,21.726196289062,-1.2161865234375
0.126,-23.157592773438,19.243774414062,3.5484619140625
0.1265,-24.598999023438,15.520141601562,8.7935791015625
0.127,-24.078491210938,11.235961914062,12.557250976562
0.1275,-24.438842773438,7.9527587890625,16.280883789062
0.128,-22.356811523438,3.2281494140625,18.883422851562
0.1285,-20.675170898438,-1.4163818359375,21.806274414062
0.129,-17.391967773438,-6.1409912109375,23.247680664062
0.1295,-13.948608398438,-11.506225585938,25.089477539062
0.13,-9.6243896484375,-14.789428710938,24.288696289062
0.1305,-5.3402099609375,-18.473022460938,23.608032226562
0.131,-0.6556396484375,-20.474975585938,21.045532226562
0.1315,4.3492431640625,-23.397827148438,19.123657226562
0.132,9.3941650390625,-24.358764648438,15.119750976562
0.1325,13.758422851562,-24.999389648438,11.436157226562
0.133,17.161743164062,-24.839233398438,7.8326416015625
0.1335,20.525024414062,-23.077514648438,2.7076416015625
0.134,22.567016601562,-20.995483398438,-1.5364990234375
0.1345,24.248657226562,-18.152709960938,-6.1009521484375
0.135,25.369750976562,-14.228881835938,-11.225952148438
0.1355,24.488891601562,-9.6644287109375,-14.869506835938
0.136,24.368774414062,-6.3411865234375,-18.112670898438
0.1365,21.726196289062,-1.2562255859375,-20.635131835938
0.137,19.884399414062,3.5885009765625,-23.557983398438
0.1375,15.600219726562,8.5133056640625,-24.278686523438
0.138,12.437133789062,13.317993164062,-25.760131835938
0.1385,7.8726806640625,16.601196289062,-24.598999023438
0.139,3.1881103515625,19.884399414062,-23.237670898438
0.1395,-1.6165771484375,21.806274414062,-20.474975585938
0.14,-6.6214599609375,24.488891601562,-18.272827148438
0.1405,-11.506225585938,25.009399414062,-13.948608398438
0.141,-15.550170898438,25.009399414062,-9.9447021484375
0.1415,-18.513061523438,24.729125976562,-6.7415771484375
0.142,-21.475952148438,22.406860351562,-1.3363037109375
0.1425,-23.557983398438,20.124633789062,3.0679931640625
0.143,-24.478881835938,16.481079101562,7.7125244140625
0.1435,-25.519897460938,12.997680664062,12.236938476562
0.144,-24.238647460938,8.0328369140625,15.960571289062
0.1445,-23.678100585938,4.6295166015625,18.843383789062
0.145,-20.955444335938,-0.4954833984375,21.125610351562
0.1455,-19.033569335938,-5.4202880859375,24.048461914062
0.146,-14.389038085938,-10.104858398438,24.208618164062
0.1465,-11.105834960938,-14.268920898438,25.089477539062
0.147,-7.0218505859375,-17.191772460938,24.008422851562
0.1475,-1.7366943359375,-20.314819335938,21.926391601562
0.148,2.7476806640625,-22.156616210938,19.443969726562
0.1485,7.9927978515625,-24.398803710938,16.481079101562
0.149,12.196899414062,-24.919311523438,12.877563476562
0.1495,16.240844726562,-24.278686523438,8.1929931640625
0.15,18.763305664062,-23.998413085938,5.3902587890625
0.1505,21.526000976562,-21.515991210938,0.1451416015625
0.151,23.768188476562,-19.233764648438,-4.4993896484375
0.1515,23.968383789062,-15.069702148438,-8.8636474609375
0.152,25.009399414062,-12.146850585938,-12.867553710938
0.1525,23.648071289062,-7.5423583984375,-16.190795898438
0.153,22.607055664062,-3.5384521484375,-19.193725585938
0.1535,20.084594726562,1.1461181640625,-21.275756835938
0.154,17.482055664062,6.4312744140625,-23.998413085938
0.1545,13.358032226562,10.755493164062,-24.158569335938
0.155,9.5543212890625,14.759399414062,-24.478881835938
0.1555,6.2310791015625,17.241821289062,-23.638061523438
0.156,0.7056884765625,20.324829101562,-21.195678710938
0.1565,-3.6986083984375,22.366821289062,-19.033569335938
0.157,-8.9837646484375,23.888305664062,-15.309936523438
0.1575,-12.587280273438,24.729125976562,-12.627319335938
0.158,-16.591186523438,23.728149414062,-7.6224365234375
0.1585,-18.953491210938,23.047485351562,-4.4993896484375
0.159,-21.395874023438,20.645141601562,0.3052978515625
0.1595,-23.718139648438,18.122680664062,5.2701416015625
0.16,-23.517944335938,13.638305664062,9.6343994140625
0.1605,-24.518920898438,10.595336914062,13.598266601562
0.161,-23.197631835938,6.5513916015625,16.360961914062
0.1615,-21.796264648438,1.9869384765625,19.484008789062
0.162,-19.353881835938,-2.4974365234375,21.526000976562
0.1625,-16.270874023438,-8.0228271484375,23.968383789062
0.163,-12.667358398438,-11.706420898438,24.168579101562
0.1635,-8.1829833984375,-15.830444335938,23.768188476562
0.164,-4.7396240234375,-17.952514648438,22.567016601562
0.1645,0.8258056640625,-20.995483398438,20.204711914062
0.165,5.5103759765625,-23.197631835938,17.762329101562
0.1655,10.595336914062,-24.038452148438,13.518188476562
0.166,13.958618164062,-24.719116210938,10.955688476562
0.1665,17.602172851562,-23.557983398438,6.1109619140625
0.167,20.164672851562,-22.276733398438,2.2672119140625
0.1675,22.286743164062,-19.874389648438,-2.3372802734375
0.168,24.408813476562,-16.831420898438,-7.5423583984375
0.1685,23.808227539062,-12.547241210938,-11.346069335938
0.169,24.328735351562,-9.0638427734375,-15.390014648438
0.1695,22.727172851562,-5.2601318359375,-17.632202148438
0.17,21.005493164062,-0.2152099609375,-20.875366210938
0.1705,18.242797851562,4.5093994140625,-22.757202148438
0.171,14.399047851562,9.9947509765625,-24.438842773438
0.1715,11.195922851562,13.237915039062,-24.518920898438
0.172,6.4713134765625,17.081665039062,-23.678100585938
0.1725,2.7476806640625,19.083618164062,-21.996459960938
0.173,-2.4173583984375,21.806274414062,-19.714233398438
0.1735,-7.6224365234375,23.888305664062,-16.711303710938
0.174,-12.106811523438,24.048461914062,-12.427124023438
0.1745,-15.550170898438,24.528930664062,-9.4642333984375
0.175,-18.513061523438,23.047485351562,-5.0198974609375
0.1755,-20.995483398438,21.485961914062,-0.9359130859375
0.176,-22.637084960938,18.763305664062,3.5084228515625
0.1765,-24.358764648438,15.159790039062,8.8336181640625
0.177,-23.678100585938,11.235961914062,12.156860351562
0.1775,-23.758178710938,7.3922119140625,16.040649414062
0.178,-22.036499023438,3.7886962890625,18.002563476562
