wavelength,x,y,z
0.0,9.3341064453125,11.376098632812,-20.094604492188
0.0005,4.3292236328125,15.259887695312,-18.933471679688
0.001,-0.7957763671875,18.342895507812,-17.452026367188
0.0015,-4.1590576171875,20.144653320312,-16.090698242188
0.002,-6.5614013671875,20.705200195312,-14.449096679688
0.0025,-9.3240966796875,20.505004882812,-11.686401367188
0.003,-13.408081054688,19.423950195312,-6.6014404296875
0.0035,-16.931518554688,18.182739257812,-2.3572998046875
0.004,-19.574096679688,16.901489257812,1.8868408203125
0.0045,-21.215698242188,15.380004882812,4.8497314453125
0.005,-20.695190429688,12.617309570312,7.2921142578125
0.0055,-20.655151367188,9.1339111328125,10.495239257812
0.006,-19.734252929688,4.3292236328125,14.499145507812
0.0065,-18.453002929688,-0.2352294921875,17.862426757812
0.007,-17.251831054688,-3.5184326171875,19.904418945312
0.0075,-15.570190429688,-6.0809326171875,21.065551757812
0.008,-12.527221679688,-8.9237060546875,20.665161132812
0.0085,-7.4422607421875,-12.887573242188,19.744262695312
0.009,-2.7176513671875,-16.290893554688,18.503051757812
0.0095,1.9669189453125,-19.173706054688,16.941528320312
0.01,5.0899658203125,-20.615112304688,15.620239257812
0.0105,7.5323486328125,-20.494995117188,13.297973632812
0.011,10.134887695312,-20.334838867188,10.535278320312
0.0115,14.499145507812,-19.413940429688,5.0899658203125
0.012,17.862426757812,-17.652221679688,0.5655517578125
0.0125,19.904418945312,-16.651245117188,-2.9578857421875
0.013,20.985473632812,-14.689331054688,-5.4803466796875
0.0135,20.384887695312,-11.606323242188,-8.0028076171875
0.014,19.984497070312,-7.3621826171875,-11.766479492188
0.0145,19.103637695312,-3.1981201171875,-15.209838867188
0.015,17.862426757812,1.1661376953125,-18.332885742188
0.0155,16.461059570312,4.1290283203125,-20.254760742188
0.016,14.258911132812,6.7716064453125,-20.494995117188
0.0165,11.376098632812,9.4542236328125,-20.414916992188
0.017,5.4503173828125,13.938598632812,-18.933471679688
0.0175,0.9259033203125,16.941528320312,-17.652221679688
0.018,-3.0379638671875,19.263793945312,-16.330932617188
0.0185,-5.8006591796875,20.464965820312,-15.009643554688
0.019,-8.1629638671875,20.104614257812,-12.086791992188
0.0195,-11.526245117188,19.504028320312,-8.8035888671875
0.02,-15.410034179688,18.543090820312,-4.1590576171875
0.0205,-18.453002929688,17.141723632812,0.8458251953125
0.021,-20.214721679688,15.660278320312,3.7286376953125
0.0215,-20.815307617188,13.578247070312,6.2510986328125
0.022,-20.294799804688,10.615356445312,8.7735595703125
0.0225,-19.694213867188,5.4903564453125,13.097778320312
0.023,-18.733276367188,1.5665283203125,16.380981445312
0.0235,-17.652221679688,-2.3172607421875,19.183715820312
0.024,-16.170776367188,-5.2000732421875,20.625122070312
0.0245,-13.127807617188,-7.6824951171875,20.184692382812
0.025,-9.9246826171875,-10.885620117188,20.064575195312
0.0255,-4.3992919921875,-15.129760742188,18.703247070312
0.026,0.7657470703125,-18.092651367188,17.021606445312
0.0265,3.8087158203125,-19.814331054688,15.940551757812
0.027,6.4112548828125,-20.655151367188,14.459106445312
0.0275,9.1339111328125,-20.094604492188,11.296020507812
0.028,12.977661132812,-19.173706054688,6.6915283203125
0.0285,16.300903320312,-18.132690429688,2.5675048828125
0.029,19.263793945312,-16.651245117188,-1.7967529296875
0.0295,20.464965820312,-15.249877929688,-4.4393310546875
0.03,20.344848632812,-12.647338867188,-6.9217529296875
0.0305,19.984497070312,-9.3240966796875,-9.8045654296875
0.031,19.183715820312,-4.3592529296875,-13.928588867188
0.0315,17.982543945312,0.0050048828125,-17.171752929688
0.032,16.981567382812,3.0479736328125,-19.574096679688
0.0325,15.420043945312,5.8907470703125,-20.414916992188
0.033,12.016723632812,8.4532470703125,-19.894409179688
0.0335,7.8126220703125,12.216918945312,-19.373901367188
0.034,2.7276611328125,15.780395507812,-18.252807617188
0.0345,-2.0770263671875,18.623168945312,-16.611206054688
0.035,-4.6795654296875,19.904418945312,-15.289916992188
0.0355,-7.2420654296875,20.224731445312,-13.328002929688
0.036,-10.004760742188,19.864379882812,-10.204956054688
0.0365,-14.208862304688,18.783325195312,-5.0799560546875
0.037,-17.371948242188,17.421997070312,-0.8758544921875
0.0375,-19.854370117188,16.060668945312,2.8077392578125
0.038,-20.695190429688,14.459106445312,5.2100830078125
0.0385,-19.934448242188,11.376098632812,7.7725830078125
0.039,-19.734252929688,7.5723876953125,11.215942382812
0.0395,-18.933471679688,3.0079345703125,15.019653320312
0.04,-17.652221679688,-1.4764404296875,18.022583007812
0.0405,-16.370971679688,-4.2791748046875,19.664184570312
0.041,-14.609252929688,-6.6815185546875,20.344848632812
0.0415,-10.925659179688,-9.3641357421875,19.744262695312
0.042,-5.6405029296875,-13.408081054688,18.583129882812
0.0425,-1.1561279296875,-16.531127929688,17.421997070312
0.043,2.9278564453125,-19.053588867188,15.980590820312
0.0435,5.4102783203125,-19.934448242188,14.699340820312
0.044,7.9727783203125,-19.694213867188,12.016723632812
0.0445,10.815551757812,-19.494018554688,8.8135986328125
0.045,14.739379882812,-18.212768554688,3.9688720703125
0.0455,17.822387695312,-16.651245117188,-0.4754638671875
0.046,19.584106445312,-15.410034179688,-3.1981201171875
0.0465,19.864379882812,-13.648315429688,-5.5604248046875
0.047,19.463989257812,-10.485229492188,-8.1629638671875
0.0475,18.783325195312,-6.0008544921875,-12.046752929688
0.048,18.142700195312,-1.7567138671875,-15.129760742188
0.0485,16.941528320312,1.7667236328125,-18.092651367188
0.049,15.500122070312,4.3692626953125,-19.253784179688
0.0495,13.137817382812,6.8917236328125,-19.373901367188
0.05,9.5743408203125,9.8946533203125,-19.093627929688
0.0505,4.4893798828125,13.938598632812,-17.892456054688
0.051,-0.2352294921875,16.861450195312,-16.491088867188
0.0515,-3.2781982421875,18.703247070312,-15.530151367188
0.052,-5.6405029296875,19.504028320312,-13.888549804688
0.0525,-8.4432373046875,18.943481445312,-11.245971679688
0.053,-11.566284179688,18.503051757812,-7.2020263671875
0.0535,-15.169799804688,17.341918945312,-2.8778076171875
0.054,-18.172729492188,15.940551757812,1.2862548828125
0.0545,-19.333862304688,14.659301757812,3.5284423828125
0.055,-19.413940429688,12.497192382812,6.0909423828125
0.0555,-19.093627929688,9.3341064453125,8.8135986328125
0.056,-18.132690429688,4.7696533203125,12.857543945312
0.0565,-17.331909179688,0.6856689453125,15.900512695312
0.057,-16.491088867188,-2.5975341796875,18.302856445312
0.0575,-14.929565429688,-5.0799560546875,19.223754882812
0.058,-12.246948242188,-7.7225341796875,18.903442382812
0.0585,-8.2030029296875,-10.845581054688,18.703247070312
0.059,-3.1580810546875,-14.649291992188,17.301879882812
0.0595,1.3262939453125,-17.371948242188,15.860473632812
0.06,3.8087158203125,-18.893432617188,14.979614257812
0.0605,6.1710205078125,-19.213745117188,13.177856445312
0.061,9.0137939453125,-18.653198242188,10.214965820312
0.0615,12.657348632812,-17.892456054688,5.7305908203125
0.062,16.140747070312,-16.691284179688,1.6466064453125
0.0625,18.382934570312,-15.810424804688,-1.9969482421875
0.063,19.143676757812,-14.128784179688,-4.1990966796875
0.0635,18.983520507812,-11.446166992188,-6.7615966796875
0.064,18.743286132812,-7.6824951171875,-9.9647216796875
0.0645,17.942504882812,-3.5985107421875,-13.728393554688
0.065,16.981567382812,0.5255126953125,-16.611206054688
0.0655,15.860473632812,3.1680908203125,-18.533081054688
0.066,14.218872070312,5.8907470703125,-19.013549804688
0.0665,10.935668945312,8.3331298828125,-18.733276367188
0.067,6.2510986328125,12.256958007812,-18.052612304688
0.0675,1.5665283203125,15.700317382812,-16.971557617188
0.068,-2.5174560546875,18.102661132812,-15.770385742188
0.0685,-4.6395263671875,19.183715820312,-14.529174804688
0.069,-7.1619873046875,19.223754882812,-12.367065429688
0.0695,-10.325073242188,18.703247070312,-8.8436279296875
0.07,-14.248901367188,17.742309570312,-4.3592529296875
0.0705,-17.331909179688,16.501098632812,0.0450439453125
0.071,-19.413940429688,15.339965820312,3.2081298828125
0.0715,-19.814331054688,13.418090820312,5.4903564453125
0.072,-19.413940429688,10.455200195312,8.2930908203125
0.0725,-18.893432617188,6.0509033203125,12.016723632812
0.073,-18.332885742188,1.7667236328125,15.580200195312
0.0735,-16.811401367188,-2.2371826171875,18.222778320312
0.074,-15.730346679688,-4.8397216796875,19.584106445312
0.0745,-13.448120117188,-7.2821044921875,19.904418945312
0.075,-9.4041748046875,-10.565307617188,19.263793945312
0.0755,-4.4393310546875,-14.248901367188,18.142700195312
0.076,0.4053955078125,-17.251831054688,16.861450195312
0.0765,3.7686767578125,-19.534057617188,15.660278320312
0.077,6.2911376953125,-19.854370117188,13.978637695312
0.0775,8.9737548828125,-19.774291992188,11.215942382812
0.078,12.657348632812,-18.893432617188,7.0919189453125
0.0785,16.060668945312,-17.772338867188,2.4073486328125
0.079,18.823364257812,-16.411010742188,-1.6365966796875
0.0795,20.224731445312,-15.089721679688,-4.2391357421875
0.08,20.104614257812,-12.767456054688,-6.9217529296875
0.0805,19.704223632812,-8.9237060546875,-9.9246826171875
0.081,19.023559570312,-4.3192138671875,-13.608276367188
0.0815,17.942504882812,-0.4354248046875,-17.051635742188
0.082,16.701293945312,3.5284423828125,-19.173706054688
0.0825,14.859497070312,5.7706298828125,-19.934448242188
0.083,12.176879882812,8.4532470703125,-20.014526367188
0.0835,7.4522705078125,12.296997070312,-19.213745117188
0.084,2.5274658203125,15.660278320312,-17.812377929688
0.0845,-1.9969482421875,18.302856445312,-16.451049804688
0.085,-4.8397216796875,20.104614257812,-15.329956054688
0.0855,-7.3221435546875,19.944458007812,-13.207885742188
0.086,-10.204956054688,19.664184570312,-10.164916992188
0.0865,-14.048706054688,18.743286132812,-5.4403076171875
0.087,-17.371948242188,17.421997070312,-0.8358154296875
0.0875,-19.814331054688,15.980590820312,3.0079345703125
0.088,-20.414916992188,14.379028320312,5.3702392578125
0.0885,-20.454956054688,11.536254882812,8.2530517578125
0.089,-19.934448242188,7.2120361328125,11.856567382812
0.0895,-18.933471679688,2.6876220703125,15.019653320312
0.09,-17.772338867188,-1.2362060546875,18.102661132812
0.0905,-16.611206054688,-4.5594482421875,20.264770507812
0.091,-14.248901367188,-6.9217529296875,20.344848632812
0.0915,-11.165893554688,-9.6444091796875,20.184692382812
0.092,-5.9608154296875,-13.648315429688,19.143676757812
0.0925,-0.7156982421875,-16.971557617188,17.542114257812
0.093,2.8878173828125,-19.373901367188,16.140747070312
0.0935,5.6505126953125,-20.374877929688,14.979614257812
0.094,8.2930908203125,-20.254760742188,12.337036132812
0.0945,11.656372070312,-19.534057617188,8.3731689453125
0.095,15.179809570312,-18.533081054688,4.0489501953125
0.0955,18.382934570312,-17.171752929688,-0.5155029296875
0.096,20.585083007812,-15.690307617188,-3.9188232421875
0.0965,20.545043945312,-13.328002929688,-5.9207763671875
0.097,20.224731445312,-10.605346679688,-8.7635498046875
0.0975,19.504028320312,-5.8406982421875,-13.127807617188
0.098,18.543090820312,-1.5965576171875,-16.170776367188
0.0985,17.301879882812,2.1671142578125,-18.653198242188
0.099,16.100708007812,5.1300048828125,-20.494995117188
0.0995,13.257934570312,7.6524658203125,-20.134643554688
0.1,9.3741455078125,10.895629882812,-19.774291992188
0.1005,4.4893798828125,14.539184570312,-18.813354492188
0.101,-0.4754638671875,17.862426757812,-17.331909179688
0.1015,-4.1590576171875,19.704223632812,-16.010620117188
0.102,-6.4012451171875,20.424926757812,-14.248901367188
0.1025,-9.1639404296875,20.224731445312,-11.606323242188
0.103,-13.127807617188,19.223754882812,-6.8016357421875
0.1035,-16.411010742188,18.062622070312,-2.5174560546875
0.104,-19.173706054688,16.661254882812,1.5665283203125
0.1045,-20.935424804688,15.380004882812,4.8096923828125
0.105,-20.655151367188,12.497192382812,7.0518798828125
0.1055,-20.454956054688,9.1339111328125,10.455200195312
0.106,-19.574096679688,4.4093017578125,14.258911132812
0.1065,-18.493041992188,0.0050048828125,17.662231445312
0.107,-17.171752929688,-3.5584716796875,19.864379882812
0.1075,-15.650268554688,-6.1209716796875,20.825317382812
0.108,-12.567260742188,-8.9237060546875,20.785278320312
0.1085,-7.4422607421875,-12.647338867188,19.824340820312
0.109,-2.8377685546875,-16.090698242188,18.463012695312
0.1095,1.9669189453125,-18.933471679688,17.021606445312
0.11,5.2100830078125,-20.815307617188,15.660278320312
0.1105,7.6925048828125,-20.695190429688,13.338012695312
0.111,10.535278320312,-20.494995117188,10.535278320312
0.1115,14.779418945312,-19.373901367188,5.2901611328125
0.112,17.942504882812,-18.092651367188,0.6055908203125
0.1125,20.424926757812,-16.290893554688,-2.9178466796875
0.113,21.465942382812,-15.009643554688,-5.9207763671875
0.1135,20.945434570312,-11.686401367188,-8.4031982421875
0.114,20.424926757812,-7.4022216796875,-12.206909179688
0.1145,19.504028320312,-3.0379638671875,-15.650268554688
0.115,18.302856445312,1.4063720703125,-18.853393554688
0.1155,16.781372070312,4.8897705078125,-20.494995117188
0.116,14.459106445312,7.1719970703125,-21.015502929688
0.1165,11.536254882812,10.054809570312,-21.015502929688
0.117,5.4903564453125,14.579223632812,-19.213745117188
0.1175,0.7257080078125,17.582153320312,-17.932495117188
0.118,-3.2781982421875,19.944458007812,-16.651245117188
0.1185,-6.2811279296875,21.305786132812,-15.289916992188
0.119,-8.8836669921875,20.705200195312,-12.327026367188
0.1195,-12.086791992188,20.184692382812,-8.7235107421875
0.12,-16.010620117188,19.023559570312,-4.0389404296875
0.1205,-19.373901367188,17.421997070312,1.2862548828125
0.121,-21.135620117188,15.900512695312,4.0889892578125
0.1215,-21.656127929688,13.778442382812,6.8116455078125
0.122,-21.215698242188,10.695434570312,9.5343017578125
0.1225,-20.334838867188,5.4903564453125,13.858520507812
0.123,-19.213745117188,1.2862548828125,16.981567382812
0.1235,-18.092651367188,-2.5574951171875,19.904418945312
0.124,-16.571166992188,-5.8807373046875,21.546020507812
0.1245,-13.608276367188,-8.4832763671875,21.025512695312
0.125,-10.044799804688,-11.486206054688,20.785278320312
0.1255,-4.1990966796875,-15.690307617188,19.343872070312
0.126,1.0059814453125,-18.773315429688,17.582153320312
0.1265,4.3292236328125,-20.535034179688,16.220825195312
0.127,7.0518798828125,-21.335815429688,14.579223632812
0.1275,9.8546142578125,-20.775268554688,11.376098632812
0.128,13.658325195312,-19.894409179688,6.6514892578125
0.1285,17.061645507812,-18.733276367188,2.4874267578125
0.129,20.104614257812,-17.091674804688,-2.1170654296875
0.1295,21.305786132812,-15.530151367188,-4.9998779296875
0.13,21.185668945312,-12.767456054688,-7.5623779296875
0.1305,20.825317382812,-9.5643310546875,-10.445190429688
0.131,19.864379882812,-4.2391357421875,-14.769409179688
0.1315,18.583129882812,0.1651611328125,-18.012573242188
0.132,17.421997070312,3.6485595703125,-19.894409179688
0.1325,15.860473632812,6.2911376953125,-21.536010742188
0.133,12.256958007812,9.0938720703125,-20.535034179688
0.1335,7.8126220703125,12.777465820312,-20.054565429688
0.134,2.7677001953125,16.501098632812,-18.893432617188
0.1345,-2.3973388671875,19.463989257812,-17.011596679688
0.135,-5.2000732421875,20.785278320312,-15.650268554688
0.1355,-7.8426513671875,21.025512695312,-13.448120117188
0.136,-10.605346679688,20.545043945312,-10.685424804688
0.1365,-14.889526367188,19.263793945312,-5.4403076171875
0.137,-18.212768554688,17.982543945312,-0.6356201171875
0.1375,-20.695190429688,16.501098632812,3.2081298828125
0.138,-21.656127929688,14.779418945312,5.8907470703125
0.1385,-21.175659179688,11.536254882812,8.6534423828125
0.139,-20.775268554688,7.8126220703125,12.096801757812
0.1395,-19.854370117188,2.8477783203125,16.100708007812
0.14,-18.412963867188,-1.7967529296875,19.223754882812
0.1405,-16.971557617188,-4.6395263671875,21.065551757812
0.141,-15.049682617188,-7.5623779296875,21.746215820312
0.1415,-11.406127929688,-10.445190429688,21.105590820312
0.142,-5.8006591796875,-14.689331054688,19.864379882812
0.1425,-0.9959716796875,-17.972534179688,18.543090820312
0.143,3.6885986328125,-20.655151367188,16.821411132812
0.1435,6.4512939453125,-21.616088867188,15.380004882812
0.144,9.2540283203125,-21.536010742188,12.417114257812
0.1445,12.497192382812,-20.855346679688,9.0538330078125
0.145,16.621215820312,-19.494018554688,3.6485595703125
0.1455,19.824340820312,-17.852416992188,-1.2762451171875
0.146,21.666137695312,-16.330932617188,-4.4793701171875
0.1465,22.146606445312,-14.128784179688,-7.1219482421875
0.147,21.465942382812,-10.485229492188,-10.084838867188
0.1475,20.625122070312,-5.7205810546875,-13.848510742188
0.148,19.664184570312,-1.2762451171875,-17.652221679688
0.1485,18.222778320312,3.0479736328125,-20.695190429688
0.149,16.461059570312,6.0108642578125,-21.656127929688
0.1495,13.738403320312,8.7735595703125,-21.776245117188
0.15,9.6544189453125,12.176879882812,-21.135620117188
0.1505,3.7686767578125,16.260864257812,-19.614135742188
0.151,-1.2362060546875,19.383911132812,-17.932495117188
0.1515,-4.9197998046875,21.345825195312,-16.611206054688
0.152,-7.5623779296875,21.906372070312,-14.489135742188
0.1525,-10.565307617188,21.185668945312,-11.286010742188
0.153,-14.168823242188,20.384887695312,-6.9617919921875
0.1535,-17.932495117188,18.983520507812,-2.0369873046875
0.154,-20.895385742188,17.221801757812,2.8077392578125
0.1545,-22.096557617188,15.540161132812,5.5704345703125
0.155,-22.176635742188,12.897583007812,8.2930908203125
0.1555,-21.495971679688,9.0938720703125,11.536254882812
0.156,-20.374877929688,3.8887939453125,15.460083007812
0.1565,-19.213745117188,-0.4354248046875,18.623168945312
0.157,-17.892456054688,-4.3192138671875,21.265747070312
0.1575,-15.850463867188,-7.0018310546875,21.946411132812
0.158,-12.487182617188,-9.8446044921875,21.465942382812
0.1585,-8.0428466796875,-13.448120117188,20.825317382812
0.159,-2.3572998046875,-17.251831054688,19.143676757812
0.1595,2.5675048828125,-19.934448242188,17.261840820312
0.16,5.5704345703125,-21.295776367188,15.980590820312
0.1605,8.2930908203125,-21.656127929688,13.738403320312
0.161,11.255981445312,-20.815307617188,10.174926757812
0.1615,15.059692382812,-19.854370117188,5.3302001953125
0.162,18.463012695312,-18.372924804688,0.7257080078125
0.1625,21.105590820312,-16.731323242188,-3.5584716796875
0.163,21.666137695312,-14.849487304688,-5.9207763671875
0.1635,21.425903320312,-11.846557617188,-8.8035888671875
0.164,20.825317382812,-7.7225341796875,-12.166870117188
0.1645,19.744262695312,-2.9178466796875,-16.010620117188
0.165,18.342895507812,1.4063720703125,-18.933471679688
0.1655,17.141723632812,4.6094970703125,-20.975463867188
0.166,14.859497070312,7.2520751953125,-21.415893554688
0.1665,11.215942382812,10.214965820312,-20.775268554688
0.167,6.2510986328125,14.138793945312,-19.894409179688
0.1675,1.0860595703125,17.662231445312,-18.453002929688
0.168,-3.4783935546875,20.184692382812,-16.771362304688
0.1685,-5.9608154296875,21.065551757812,-15.329956054688
0.169,-8.7235107421875,21.065551757812,-12.847534179688
0.1695,-12.126831054688,20.304809570312,-8.9237060546875
0.17,-15.890502929688,19.143676757812,-4.0389404296875
0.1705,-19.133666992188,17.662231445312,0.6055908203125
0.171,-21.335815429688,16.180786132812,4.2091064453125
0.1715,-21.576049804688,14.018676757812,6.7716064453125
0.172,-21.175659179688,10.615356445312,9.6143798828125
0.1725,-20.454956054688,6.0509033203125,13.418090820312
0.173,-19.494018554688,1.5264892578125,17.101684570312
0.1735,-18.052612304688,-2.7176513671875,19.864379882812
0.174,-16.651245117188,-5.4803466796875,21.265747070312
0.1745,-14.088745117188,-8.2030029296875,21.505981445312
0.175,-9.7645263671875,-11.606323242188,20.665161132812
0.1755,-4.5594482421875,-15.369995117188,19.383911132812
0.176,0.4854736328125,-18.613159179688,17.902465820312
0.1765,4.4893798828125,-20.855346679688,16.380981445312
0.177,6.8917236328125,-21.255737304688,14.579223632812
0.1775,9.7344970703125,-21.095581054688,11.656372070312
0.178,13.578247070312,-20.134643554688,7.1719970703125
