wavelength,x,y,z
0.0,-4.58447265625,1.10107421875,3.06298828125
0.0005,-4.14404296875,0.14013671875,3.34326171875
0.001,-3.54345703125,-0.78076171875,3.74365234375
0.0015,-3.18310546875,-1.62158203125,4.06396484375
0.002,-2.42236328125,-2.46240234375,4.30419921875
0.0025,-2.06201171875,-2.82275390625,4.26416015625
0.003,-1.26123046875,-3.50341796875,4.10400390625
0.0035,-0.38037109375,-3.70361328125,3.42333984375
0.004,0.30029296875,-4.22412109375,3.30322265625
0.0045,1.42138671875,-4.42431640625,2.38232421875
0.005,1.98193359375,-4.74462890625,2.14208984375
0.0055,2.66259765625,-4.54443359375,1.34130859375
0.006,3.14306640625,-4.42431640625,0.70068359375
0.0065,3.38330078125,-3.82373046875,-0.14013671875
0.007,3.86376953125,-3.66357421875,-0.74072265625
0.0075,4.10400390625,-2.86279296875,-1.74169921875
0.008,4.22412109375,-2.58251953125,-2.14208984375
0.0085,4.14404296875,-1.82177734375,-2.90283203125
0.009,3.58349609375,-0.82080078125,-3.22314453125
0.0095,3.22314453125,0.18017578125,-3.74365234375
0.01,2.62255859375,1.10107421875,-4.10400390625
0.0105,2.26220703125,1.90185546875,-4.46435546875
0.011,1.58154296875,2.38232421875,-4.30419921875
0.0115,0.82080078125,3.02294921875,-4.14404296875
0.012,-0.14013671875,3.26318359375,-3.42333984375
0.0125,-0.86083984375,3.86376953125,-3.26318359375
0.013,-2.06201171875,3.98388671875,-2.26220703125
0.0135,-2.58251953125,4.22412109375,-1.98193359375
0.014,-3.22314453125,3.98388671875,-1.10107421875
0.0145,-3.62353515625,3.62353515625,-0.38037109375
0.015,-3.90380859375,3.14306640625,0.38037109375
0.0155,-4.18408203125,2.70263671875,1.10107421875
0.016,-4.50439453125,2.10205078125,1.94189453125
0.0165,-4.34423828125,1.58154296875,2.30224609375
0.017,-4.34423828125,0.78076171875,3.02294921875
0.0175,-3.50341796875,-0.26025390625,3.14306640625
0.018,-3.42333984375,-0.90087890625,3.78369140625
0.0185,-2.58251953125,-1.94189453125,3.90380859375
0.019,-2.42236328125,-2.42236328125,4.22412109375
0.0195,-1.58154296875,-2.90283203125,3.90380859375
0.02,-0.98095703125,-3.42333984375,3.70361328125
0.0205,-0.06005859375,-3.66357421875,3.14306640625
0.021,0.70068359375,-4.18408203125,2.86279296875
0.0215,1.74169921875,-4.42431640625,2.06201171875
0.022,2.14208984375,-4.50439453125,1.78173828125
0.0225,2.82275390625,-4.34423828125,0.98095703125
0.023,3.06298828125,-3.86376953125,0.26025390625
0.0235,3.54345703125,-3.66357421875,-0.46044921875
0.024,3.74365234375,-3.02294921875,-1.26123046875
0.0245,4.14404296875,-2.74267578125,-1.94189453125
0.025,3.86376953125,-2.02197265625,-2.42236328125
0.0255,3.82373046875,-1.34130859375,-3.10302734375
0.026,3.02294921875,-0.14013671875,-3.34326171875
0.0265,2.98291015625,0.54052734375,-3.90380859375
0.027,2.10205078125,1.58154296875,-4.10400390625
0.0275,1.98193359375,2.06201171875,-4.34423828125
0.028,1.02099609375,2.66259765625,-3.98388671875
0.0285,0.30029296875,3.10302734375,-3.66357421875
0.029,-0.62060546875,3.46337890625,-3.18310546875
0.0295,-1.50146484375,3.86376953125,-2.66259765625
0.03,-2.46240234375,4.14404296875,-1.98193359375
0.0305,-2.86279296875,3.90380859375,-1.42138671875
0.031,-3.54345703125,3.82373046875,-0.66064453125
0.0315,-3.70361328125,3.14306640625,0.14013671875
0.032,-4.10400390625,2.94287109375,0.78076171875
0.0325,-4.30419921875,2.10205078125,1.66162109375
0.033,-4.54443359375,1.86181640625,2.18212890625
0.0335,-4.14404296875,0.98095703125,2.66259765625
0.034,-3.94384765625,0.26025390625,3.18310546875
0.0345,-3.18310546875,-0.78076171875,3.46337890625
0.035,-3.06298828125,-1.42138671875,3.86376953125
0.0355,-2.26220703125,-2.42236328125,4.10400390625
0.036,-1.94189453125,-2.70263671875,3.98388671875
0.0365,-1.10107421875,-3.26318359375,3.78369140625
0.037,-0.34033203125,-3.58349609375,3.26318359375
0.0375,0.46044921875,-4.02392578125,2.94287109375
0.038,1.42138671875,-4.26416015625,2.26220703125
0.0385,2.22216796875,-4.58447265625,1.86181640625
0.039,2.54248046875,-4.22412109375,1.14111328125
0.0395,3.14306640625,-4.18408203125,0.50048828125
0.04,3.30322265625,-3.54345703125,-0.34033203125
0.0405,3.70361328125,-3.38330078125,-0.94091796875
0.041,3.98388671875,-2.70263671875,-1.90185546875
0.0415,4.10400390625,-2.30224609375,-2.30224609375
0.042,3.78369140625,-1.30126953125,-2.94287109375
0.0425,3.34326171875,-0.50048828125,-3.34326171875
0.043,2.82275390625,0.50048828125,-3.70361328125
0.0435,2.42236328125,1.26123046875,-4.06396484375
0.044,1.90185546875,2.18212890625,-4.42431640625
0.0445,1.26123046875,2.42236328125,-3.98388671875
0.045,0.46044921875,3.14306640625,-3.86376953125
0.0455,-0.50048828125,3.34326171875,-3.18310546875
0.046,-1.22119140625,3.82373046875,-2.90283203125
0.0465,-2.30224609375,4.02392578125,-2.06201171875
0.047,-2.98291015625,4.18408203125,-1.58154296875
0.0475,-3.34326171875,3.70361328125,-0.66064453125
0.048,-3.82373046875,3.54345703125,-0.10009765625
0.0485,-3.98388671875,2.82275390625,0.74072265625
0.049,-4.34423828125,2.50244140625,1.34130859375
0.0495,-4.62451171875,1.78173828125,2.30224609375
0.05,-4.34423828125,1.26123046875,2.66259765625
0.0505,-4.10400390625,0.30029296875,3.26318359375
0.051,-3.54345703125,-0.62060546875,3.58349609375
0.0515,-3.10302734375,-1.38134765625,3.90380859375
0.052,-2.50244140625,-2.26220703125,4.14404296875
0.0525,-1.94189453125,-3.02294921875,4.34423828125
0.053,-1.14111328125,-3.22314453125,3.78369140625
0.0535,-0.50048828125,-3.86376953125,3.70361328125
0.054,0.50048828125,-3.98388671875,2.90283203125
0.0545,1.22119140625,-4.46435546875,2.62255859375
0.055,2.34228515625,-4.66455078125,1.78173828125
0.0555,2.82275390625,-4.58447265625,1.22119140625
0.056,3.26318359375,-4.18408203125,0.34033203125
0.0565,3.58349609375,-3.90380859375,-0.30029296875
0.057,3.82373046875,-3.34326171875,-1.06103515625
0.0575,4.06396484375,-2.86279296875,-1.78173828125
0.058,4.42431640625,-2.26220703125,-2.66259765625
0.0585,3.86376953125,-1.34130859375,-2.98291015625
0.059,3.70361328125,-0.54052734375,-3.66357421875
0.0595,2.86279296875,0.54052734375,-3.82373046875
0.06,2.58251953125,1.30126953125,-4.18408203125
0.0605,1.86181640625,2.26220703125,-4.42431640625
0.061,1.30126953125,2.86279296875,-4.50439453125
0.0615,0.30029296875,3.18310546875,-3.78369140625
0.062,-0.34033203125,3.70361328125,-3.70361328125
0.0625,-1.42138671875,3.86376953125,-2.78271484375
0.063,-2.18212890625,4.22412109375,-2.42236328125
0.0635,-3.30322265625,4.50439453125,-1.50146484375
0.064,-3.70361328125,4.02392578125,-0.74072265625
0.0645,-4.14404296875,3.66357421875,0.06005859375
0.065,-4.34423828125,3.14306640625,0.78076171875
0.0655,-4.50439453125,2.50244140625,1.54150390625
0.066,-4.66455078125,1.94189453125,2.26220703125
0.0665,-4.90478515625,1.30126953125,3.14306640625
0.067,-4.10400390625,0.22021484375,3.38330078125
0.0675,-3.98388671875,-0.50048828125,3.98388671875
0.068,-3.06298828125,-1.58154296875,4.02392578125
0.0685,-2.70263671875,-2.26220703125,4.42431640625
0.069,-1.94189453125,-3.22314453125,4.50439453125
0.0695,-1.18115234375,-3.70361328125,4.26416015625
0.07,-0.30029296875,-3.98388671875,3.70361328125
0.0705,0.42041015625,-4.46435546875,3.42333984375
0.071,1.54150390625,-4.62451171875,2.50244140625
0.0715,2.18212890625,-4.86474609375,2.10205078125
0.072,3.26318359375,-5.06494140625,1.22119140625
0.0725,3.54345703125,-4.46435546875,0.34033203125
0.073,3.98388671875,-4.26416015625,-0.34033203125
0.0735,4.14404296875,-3.54345703125,-1.22119140625
0.074,4.42431640625,-2.98291015625,-1.94189453125
0.0745,4.50439453125,-2.26220703125,-2.70263671875
0.075,4.58447265625,-1.58154296875,-3.50341796875
0.0755,3.70361328125,-0.38037109375,-3.78369140625
0.076,3.54345703125,0.42041015625,-4.34423828125
0.0765,2.46240234375,1.66162109375,-4.46435546875
0.077,2.18212890625,2.26220703125,-4.74462890625
0.0775,1.30126953125,3.22314453125,-4.82470703125
0.078,0.34033203125,3.70361328125,-4.30419921875
0.0785,-0.54052734375,4.02392578125,-3.78369140625
0.079,-1.50146484375,4.42431640625,-3.22314453125
0.0795,-2.66259765625,4.58447265625,-2.26220703125
0.08,-3.30322265625,4.66455078125,-1.74169921875
0.0805,-4.30419921875,4.66455078125,-0.78076171875
0.081,-4.42431640625,3.82373046875,0.18017578125
0.0815,-4.82470703125,3.54345703125,0.82080078125
0.082,-4.98486328125,2.58251953125,1.98193359375
0.0825,-5.10498046875,2.06201171875,2.62255859375
0.083,-5.06494140625,1.26123046875,3.38330078125
0.0835,-4.86474609375,0.42041015625,3.98388671875
0.084,-3.90380859375,-0.78076171875,4.14404296875
0.0845,-3.66357421875,-1.54150390625,4.62451171875
0.085,-2.50244140625,-2.82275390625,4.62451171875
0.0855,-2.14208984375,-3.22314453125,4.78466796875
0.086,-1.14111328125,-4.14404296875,4.66455078125
0.0865,-0.22021484375,-4.42431640625,3.98388671875
0.087,0.58056640625,-4.74462890625,3.54345703125
0.0875,1.70166015625,-5.10498046875,2.74267578125
0.088,2.66259765625,-5.18505859375,1.94189453125
0.0885,3.22314453125,-5.18505859375,1.30126953125
0.089,4.02392578125,-5.14501953125,0.50048828125
0.0895,4.14404296875,-4.22412109375,-0.54052734375
0.09,4.58447265625,-3.98388671875,-1.14111328125
0.0905,4.74462890625,-2.86279296875,-2.34228515625
0.091,4.82470703125,-2.50244140625,-2.86279296875
0.0915,4.74462890625,-1.58154296875,-3.66357421875
0.092,4.38427734375,-0.62060546875,-4.18408203125
0.0925,3.46337890625,0.58056640625,-4.42431640625
0.093,3.06298828125,1.42138671875,-4.86474609375
0.0935,1.94189453125,2.74267578125,-4.98486328125
0.094,1.58154296875,3.14306640625,-4.98486328125
0.0945,0.50048828125,4.02392578125,-4.82470703125
0.095,-0.58056640625,4.26416015625,-3.98388671875
0.0955,-1.38134765625,4.62451171875,-3.54345703125
0.096,-2.70263671875,4.90478515625,-2.54248046875
0.0965,-3.58349609375,4.98486328125,-1.78173828125
0.097,-4.14404296875,4.66455078125,-0.98095703125
0.0975,-4.86474609375,4.50439453125,-0.06005859375
0.098,-4.86474609375,3.50341796875,0.98095703125
0.0985,-5.22509765625,3.18310546875,1.62158203125
0.099,-5.30517578125,1.94189453125,2.94287109375
0.0995,-5.26513671875,1.58154296875,3.30322265625
0.1,-4.98486328125,0.50048828125,4.02392578125
0.1005,-4.42431640625,-0.50048828125,4.42431640625
0.101,-3.58349609375,-1.58154296875,4.54443359375
0.1015,-3.02294921875,-2.42236328125,4.86474609375
0.102,-1.98193359375,-3.54345703125,4.94482421875
0.1025,-1.50146484375,-3.82373046875,4.66455078125
0.103,-0.50048828125,-4.54443359375,4.42431640625
0.1035,0.50048828125,-4.66455078125,3.54345703125
0.104,1.22119140625,-5.06494140625,3.22314453125
0.1045,2.54248046875,-5.26513671875,2.06201171875
0.105,3.18310546875,-5.42529296875,1.58154296875
0.1055,3.74365234375,-5.02490234375,0.66064453125
0.106,4.30419921875,-4.74462890625,-0.10009765625
0.1065,4.34423828125,-3.86376953125,-1.02099609375
0.107,4.70458984375,-3.54345703125,-1.66162109375
0.1075,4.86474609375,-2.50244140625,-2.90283203125
0.108,4.78466796875,-2.06201171875,-3.18310546875
0.1085,4.58447265625,-1.02099609375,-4.02392578125
0.109,3.82373046875,0.10009765625,-4.34423828125
0.1095,3.22314453125,1.10107421875,-4.66455078125
0.11,2.50244140625,2.10205078125,-4.94482421875
0.1105,1.74169921875,3.14306640625,-5.14501953125
0.111,1.02099609375,3.46337890625,-4.74462890625
0.1115,0.02001953125,4.22412109375,-4.50439453125
0.112,-1.10107421875,4.34423828125,-3.54345703125
0.1125,-1.86181640625,4.74462890625,-3.22314453125
0.113,-3.22314453125,4.86474609375,-1.98193359375
0.1135,-3.82373046875,4.86474609375,-1.46142578125
0.114,-4.38427734375,4.34423828125,-0.42041015625
0.1145,-4.82470703125,3.98388671875,0.46044921875
0.115,-4.86474609375,3.14306640625,1.34130859375
0.1155,-5.14501953125,2.62255859375,2.06201171875
0.116,-5.30517578125,1.70166015625,3.18310546875
0.1165,-4.94482421875,1.06103515625,3.42333984375
0.117,-4.66455078125,0.02001953125,4.14404296875
0.1175,-3.82373046875,-1.02099609375,4.30419921875
0.118,-3.30322265625,-1.86181640625,4.58447265625
0.1185,-2.42236328125,-2.86279296875,4.70458984375
0.119,-1.86181640625,-3.62353515625,4.82470703125
0.1195,-0.98095703125,-3.86376953125,4.18408203125
0.12,-0.18017578125,-4.50439453125,3.98388671875
0.1205,0.82080078125,-4.58447265625,3.06298828125
0.121,1.54150390625,-4.98486328125,2.78271484375
0.1215,2.78271484375,-5.14501953125,1.70166015625
0.122,3.14306640625,-4.98486328125,1.30126953125
0.1225,3.70361328125,-4.62451171875,0.34033203125
0.123,3.98388671875,-4.14404296875,-0.42041015625
0.1235,4.22412109375,-3.58349609375,-1.18115234375
0.124,4.42431640625,-2.94287109375,-1.94189453125
0.1245,4.74462890625,-2.38232421875,-2.82275390625
0.125,4.22412109375,-1.58154296875,-3.10302734375
0.1255,4.14404296875,-0.70068359375,-3.86376953125
0.126,3.14306640625,0.46044921875,-3.98388671875
0.1265,2.98291015625,1.18115234375,-4.50439453125
0.127,1.98193359375,2.26220703125,-4.62451171875
0.1275,1.70166015625,2.78271484375,-4.82470703125
0.128,0.62060546875,3.26318359375,-4.18408203125
0.1285,-0.18017578125,3.82373046875,-3.98388671875
0.129,-1.22119140625,3.98388671875,-3.18310546875
0.1295,-1.98193359375,4.38427734375,-2.78271484375
0.13,-3.22314453125,4.66455078125,-1.78173828125
0.1305,-3.54345703125,4.34423828125,-1.18115234375
0.131,-4.18408203125,4.06396484375,-0.26025390625
0.1315,-4.38427734375,3.42333984375,0.58056640625
0.132,-4.66455078125,2.94287109375,1.30126953125
0.1325,-4.82470703125,2.22216796875,2.18212890625
0.133,-5.06494140625,1.66162109375,2.94287109375
0.1335,-4.42431640625,0.70068359375,3.22314453125
0.134,-4.30419921875,-0.14013671875,3.90380859375
0.1345,-3.30322265625,-1.26123046875,3.98388671875
0.135,-3.06298828125,-1.86181640625,4.34423828125
0.1355,-2.18212890625,-2.94287109375,4.50439453125
0.136,-1.66162109375,-3.30322265625,4.34423828125
0.1365,-0.70068359375,-3.82373046875,3.82373046875
0.137,0.02001953125,-4.18408203125,3.46337890625
0.1375,0.94091796875,-4.42431640625,2.82275390625
0.138,1.78173828125,-4.62451171875,2.26220703125
0.1385,2.70263671875,-4.86474609375,1.58154296875
0.139,2.94287109375,-4.34423828125,0.86083984375
0.1395,3.54345703125,-4.26416015625,0.18017578125
0.14,3.62353515625,-3.54345703125,-0.62060546875
0.1405,3.98388671875,-3.30322265625,-1.22119140625
0.141,4.14404296875,-2.54248046875,-2.06201171875
0.1415,4.30419921875,-2.18212890625,-2.58251953125
0.142,3.74365234375,-1.14111328125,-3.06298828125
0.1425,3.54345703125,-0.46044921875,-3.54345703125
0.143,2.74267578125,0.62060546875,-3.82373046875
0.1435,2.58251953125,1.30126953125,-4.18408203125
0.144,1.90185546875,2.26220703125,-4.50439453125
0.1445,1.34130859375,2.46240234375,-4.14404296875
0.145,0.46044921875,3.14306640625,-3.90380859375
0.1455,-0.42041015625,3.42333984375,-3.38330078125
0.146,-1.22119140625,3.90380859375,-2.98291015625
0.1465,-2.22216796875,4.14404296875,-2.26220703125
0.147,-3.02294921875,4.34423828125,-1.70166015625
0.1475,-3.34326171875,3.78369140625,-0.82080078125
0.148,-3.90380859375,3.78369140625,-0.22021484375
0.1485,-4.06396484375,2.94287109375,0.70068359375
0.149,-4.46435546875,2.70263671875,1.30126953125
0.1495,-4.70458984375,1.98193359375,2.26220703125
0.15,-4.54443359375,1.42138671875,2.66259765625
0.1505,-4.10400390625,0.38037109375,3.22314453125
0.151,-3.70361328125,-0.46044921875,3.58349609375
0.1515,-3.10302734375,-1.30126953125,3.86376953125
0.152,-2.70263671875,-2.06201171875,4.14404296875
0.1525,-2.06201171875,-2.90283203125,4.34423828125
0.153,-1.26123046875,-3.14306640625,3.78369140625
0.1535,-0.62060546875,-3.78369140625,3.70361328125
0.154,0.34033203125,-3.86376953125,2.94287109375
0.1545,1.02099609375,-4.30419921875,2.66259765625
0.155,2.02197265625,-4.50439453125,1.94189453125
0.1555,2.58251953125,-4.50439453125,1.38134765625
0.156,2.94287109375,-4.02392578125,0.54052734375
0.1565,3.34326171875,-3.90380859375,0.02001953125
0.157,3.54345703125,-3.26318359375,-0.82080078125
0.1575,3.86376953125,-2.98291015625,-1.42138671875
0.158,4.14404296875,-2.38232421875,-2.26220703125
0.1585,3.78369140625,-1.66162109375,-2.58251953125
0.159,3.54345703125,-0.78076171875,-3.18310546875
0.1595,2.94287109375,0.14013671875,-3.50341796875
0.16,2.66259765625,0.90087890625,-3.90380859375
0.1605,2.10205078125,1.58154296875,-4.14404296875
0.161,1.62158203125,2.26220703125,-4.34423828125
0.1615,0.70068359375,2.54248046875,-3.70361328125
0.162,0.14013671875,3.26318359375,-3.70361328125
0.1625,-0.94091796875,3.46337890625,-2.86279296875
0.163,-1.62158203125,3.90380859375,-2.62255859375
0.1635,-2.70263671875,4.14404296875,-1.82177734375
0.164,-3.06298828125,3.90380859375,-1.26123046875
0.1645,-3.54345703125,3.54345703125,-0.38037109375
0.165,-3.86376953125,3.22314453125,0.26025390625
0.1655,-4.14404296875,2.70263671875,1.02099609375
0.166,-4.38427734375,2.26220703125,1.66162109375
0.1665,-4.62451171875,1.70166015625,2.54248046875
0.167,-4.02392578125,0.78076171875,2.78271484375
0.1675,-3.98388671875,0.02001953125,3.50341796875
0.168,-3.18310546875,-0.98095703125,3.58349609375
0.1685,-2.94287109375,-1.70166015625,4.02392578125
0.169,-2.26220703125,-2.54248046875,4.14404296875
0.1695,-1.66162109375,-3.10302734375,4.02392578125
0.17,-0.78076171875,-3.34326171875,3.54345703125
0.1705,-0.14013671875,-3.86376953125,3.38330078125
0.171,0.90087890625,-4.06396484375,2.58251953125
0.1715,1.54150390625,-4.46435546875,2.30224609375
0.172,2.50244140625,-4.62451171875,1.54150390625
0.1725,2.74267578125,-4.14404296875,0.86083984375
0.173,3.22314453125,-3.98388671875,0.22021484375
0.1735,3.46337890625,-3.46337890625,-0.50048828125
0.174,3.82373046875,-3.06298828125,-1.22119140625
0.1745,3.94384765625,-2.54248046875,-1.94189453125
0.175,4.10400390625,-1.98193359375,-2.58251953125
0.1755,3.38330078125,-0.94091796875,-2.90283203125
0.176,3.34326171875,-0.30029296875,-3.54345703125
0.1765,2.54248046875,0.74072265625,-3.70361328125
0.177,2.42236328125,1.34130859375,-4.14404296875
0.1775,1.66162109375,2.22216796875,-4.30419921875
0.178,0.98095703125,2.62255859375,-3.90380859375
0.1785,0.18017578125,3.10302734375,-3.58349609375
0.179,-0.62060546875,3.50341796875,-3.18310546875
0.1795,-1.58154296875,3.78369140625,-2.54248046875
0.18,-2.26220703125,4.06396484375,-2.10205078125
0.1805,-3.14306640625,4.14404296875,-1.38134765625
0.181,-3.38330078125,3.54345703125,-0.50048828125
0.1815,-3.94384765625,3.50341796875,0.06005859375
0.182,-4.06396484375,2.70263671875,0.94091796875
0.1825,-4.46435546875,2.42236328125,1.58154296875
0.183,-4.50439453125,1.74169921875,2.38232421875
0.1835,-4.42431640625,1.10107421875,2.86279296875
0.184,-3.74365234375,0.02001953125,3.26318359375
0.1845,-3.58349609375,-0.74072265625,3.78369140625
0.185,-2.74267578125,-1.78173828125,3.90380859375
0.1855,-2.54248046875,-2.34228515625,4.18408203125
0.186,-1.74169921875,-3.14306640625,4.22412109375
0.1865,-0.90087890625,-3.42333984375,3.70361328125
0.187,-0.26025390625,-3.86376953125,3.50341796875
0.1875,0.78076171875,-4.22412109375,2.82275390625
0.188,1.62158203125,-4.50439453125,2.26220703125
0.1885,2.30224609375,-4.62451171875,1.70166015625
0.189,3.02294921875,-4.58447265625,1.02099609375
0.1895,3.22314453125,-3.90380859375,0.14013671875
0.19,3.70361328125,-3.86376953125,-0.38037109375
0.1905,3.86376953125,-2.94287109375,-1.42138671875
0.191,4.14404296875,-2.70263671875,-1.90185546875
0.1915,4.22412109375,-1.94189453125,-2.70263671875
0.192,3.82373046875,-1.14111328125,-3.14306640625
0.1925,3.26318359375,-0.18017578125,-3.54345703125
0.193,2.86279296875,0.66064453125,-3.98388671875
0.1935,2.14208984375,1.66162109375,-4.22412109375
0.194,1.86181640625,2.22216796875,-4.34423828125
0.1945,1.02099609375,2.98291015625,-4.30419921875
0.195,0.10009765625,3.22314453125,-3.62353515625
0.1955,-0.58056640625,3.78369140625,-3.50341796875
0.196,-1.82177734375,3.98388671875,-2.54248046875
0.1965,-2.50244140625,4.26416015625,-2.10205078125
0.197,-3.26318359375,4.18408203125,-1.30126953125
0.1975,-3.82373046875,4.02392578125,-0.58056640625
0.198,-3.98388671875,3.34326171875,0.30029296875
0.1985,-4.46435546875,3.14306640625,0.94091796875
0.199,-4.58447265625,2.18212890625,1.98193359375
