wavelength,x,y,z
0.0,17.77734375,-19.8994140625,2.9228515625
0.0005,20.7001953125,-18.2177734375,-1.681640625
0.001,22.1416015625,-16.416015625,-4.9248046875
0.0015,22.26171875,-13.6533203125,-7.8076171875
0.002,21.30078125,-9.44921875,-11.0107421875
0.0025,20.4599609375,-4.884765625,-14.7744140625
0.003,19.4990234375,-0.80078125,-17.9775390625
0.0035,18.0576171875,3.04296875,-20.33984375
0.004,16.255859375,6.40625,-21.94140625
0.0045,12.33203125,9.3291015625,-21.0205078125
0.005,7.7275390625,12.892578125,-20.0595703125
0.0055,3.0830078125,16.6962890625,-19.4189453125
0.006,-1.9619140625,19.69921875,-17.6572265625
0.0065,-5.125,21.1806640625,-16.2158203125
0.007,-8.0478515625,21.8212890625,-14.173828125
0.0075,-11.37109375,20.8203125,-10.08984375
0.008,-14.974609375,19.779296875,-5.6455078125
0.0085,-18.2578125,18.8583984375,-1.5615234375
0.009,-20.66015625,17.216796875,2.40234375
0.0095,-21.78125,15.294921875,5.4853515625
0.01,-21.220703125,11.9716796875,8.2880859375
0.0105,-20.3798828125,7.84765625,11.53125
0.011,-19.859375,3.68359375,15.21484375
0.0115,-18.6181640625,-0.640625,18.2978515625
0.012,-17.13671875,-3.923828125,20.1796875
0.0125,-15.375,-6.8466796875,21.3408203125
0.013,-11.0107421875,-9.9296875,20.1396484375
0.0135,-6.326171875,-13.4931640625,19.1787109375
0.014,-1.9619140625,-17.0166015625,18.498046875
0.0145,2.482421875,-19.619140625,16.9365234375
0.015,5.4052734375,-20.900390625,15.5751953125
0.0155,8.2880859375,-20.8203125,12.8525390625
0.016,11.6513671875,-20.01953125,8.888671875
0.0165,15.294921875,-19.37890625,4.5244140625
0.017,18.41796875,-18.0576171875,0.3603515625
0.0175,20.33984375,-16.65625,-2.9228515625
0.018,21.220703125,-14.6142578125,-5.765625
0.0185,20.2197265625,-10.7705078125,-8.6884765625
0.019,19.4990234375,-6.7265625,-12.0517578125
0.0195,19.138671875,-2.8828125,-15.4951171875
0.02,17.9375,1.2412109375,-18.41796875
0.0205,16.3359375,4.32421875,-19.8994140625
0.021,13.853515625,7.046875,-20.259765625
0.0215,9.529296875,10.41015625,-19.3388671875
0.022,4.724609375,14.25390625,-18.578125
0.0225,0.3603515625,17.4169921875,-17.4970703125
0.023,-3.2431640625,19.5390625,-16.3359375
0.0235,-6.2060546875,20.7001953125,-14.7744140625
0.024,-9.1689453125,19.939453125,-11.2509765625
0.0245,-12.4521484375,19.3388671875,-7.4072265625
0.025,-16.015625,18.5380859375,-3.4033203125
0.0255,-18.8583984375,17.056640625,0.9208984375
0.026,-20.259765625,15.615234375,3.763671875
0.0265,-20.7001953125,13.2529296875,6.4462890625
0.027,-19.6591796875,9.12890625,9.5693359375
0.0275,-19.0185546875,5.0849609375,13.0126953125
0.028,-18.4580078125,1.28125,16.255859375
0.0285,-17.296875,-2.4423828125,18.8583984375
0.029,-15.6953125,-5.3251953125,20.1796875
0.0295,-12.2919921875,-8.0478515625,19.5791015625
0.03,-8.2080078125,-11.451171875,18.8984375
0.0305,-3.4033203125,-15.294921875,18.177734375
0.031,1.0810546875,-18.09765625,16.736328125
0.0315,3.9638671875,-19.7392578125,15.7353515625
0.032,6.7666015625,-20.5,13.93359375
0.0325,9.9296875,-19.5390625,9.8095703125
0.033,13.373046875,-18.8583984375,6.0458984375
0.0335,16.6962890625,-18.1376953125,2.1220703125
0.034,19.2587890625,-16.65625,-1.921875
0.0345,20.2197265625,-14.89453125,-4.5244140625
0.035,19.939453125,-11.8916015625,-7.287109375
0.0355,19.1787109375,-8.0078125,-10.41015625
0.036,18.6982421875,-4.00390625,-13.9736328125
0.0365,17.7373046875,-0.16015625,-16.8564453125
0.037,16.6162109375,3.0830078125,-18.978515625
0.0375,14.734375,5.92578125,-19.9794921875
0.038,10.4501953125,8.96875,-18.7783203125
0.0385,6.40625,12.33203125,-18.2578125
0.039,2.001953125,15.9755859375,-17.6572265625
0.0395,-2.2822265625,18.5380859375,-16.1357421875
0.04,-4.8447265625,19.69921875,-14.974609375
0.0405,-7.607421875,19.859375,-12.6923828125
0.041,-11.05078125,18.8984375,-8.48828125
0.0415,-14.4140625,18.2578125,-4.64453125
0.042,-17.3369140625,17.296875,-0.80078125
0.0425,-19.4990234375,15.8955078125,2.6826171875
0.043,-20.2197265625,13.9736328125,5.2451171875
0.0435,-19.37890625,10.2099609375,8.248046875
0.044,-18.7783203125,6.5263671875,11.3310546875
0.0445,-18.4580078125,2.6025390625,14.974609375
0.045,-17.296875,-1.361328125,17.697265625
0.0455,-15.9755859375,-4.1240234375,19.21875
0.046,-13.7333984375,-6.88671875,19.779296875
0.0465,-9.12890625,-10.1298828125,18.5380859375
0.047,-4.9248046875,-13.61328125,17.9375
0.0475,-0.6806640625,-16.81640625,17.0966796875
0.048,3.1630859375,-19.0986328125,15.85546875
0.0485,5.6455078125,-19.8994140625,14.4541015625
0.049,8.6484375,-19.5390625,11.130859375
0.0495,12.01171875,-18.8984375,7.3671875
0.05,15.4951171875,-18.1376953125,3.3232421875
0.0505,18.2177734375,-16.8564453125,-0.640625
0.051,19.779296875,-15.455078125,-3.5634765625
0.0515,20.1396484375,-13.0927734375,-6.2861328125
0.052,19.05859375,-8.80859375,-9.4892578125
0.0525,18.5380859375,-5.28515625,-12.572265625
0.053,18.0576171875,-1.44140625,-15.935546875
0.0535,16.81640625,2.40234375,-18.5380859375
0.054,15.0546875,5.044921875,-19.4990234375
0.0545,12.01171875,7.8876953125,-19.2587890625
0.055,7.52734375,11.4111328125,-18.41796875
0.0555,3.0830078125,15.0146484375,-17.697265625
0.056,-1.12109375,17.6572265625,-16.4560546875
0.0565,-4.32421875,19.458984375,-15.4150390625
0.057,-6.88671875,19.9794921875,-13.4931640625
0.0575,-10.1298828125,18.9384765625,-9.44921875
0.058,-13.2529296875,18.498046875,-6.0458984375
0.0585,-16.65625,17.6171875,-1.921875
0.059,-19.0986328125,16.1357421875,2.0419921875
0.0595,-20.01953125,14.4541015625,4.6044921875
0.06,-19.8994140625,11.53125,7.4072265625
0.0605,-18.9384765625,7.287109375,10.7705078125
0.061,-18.41796875,3.5234375,14.013671875
0.0615,-17.5771484375,-0.2001953125,16.8564453125
0.062,-16.416015625,-3.603515625,19.21875
0.0625,-14.4140625,-6.1259765625,19.69921875
0.063,-10.3701171875,-9.1689453125,18.73828125
0.0635,-6.3662109375,-12.5322265625,18.2177734375
0.064,-1.7216796875,-16.0556640625,17.296875
0.0645,2.2822265625,-18.4580078125,15.935546875
0.065,4.884765625,-19.7392578125,14.8544921875
0.0655,7.6875,-19.939453125,12.33203125
0.066,11.130859375,-18.6982421875,8.0078125
0.0665,14.2138671875,-18.2578125,4.6044921875
0.067,17.2568359375,-17.296875,0.7607421875
0.0675,19.4990234375,-15.85546875,-2.8828125
0.068,19.859375,-13.8134765625,-5.28515625
0.0685,19.21875,-10.25,-8.2880859375
0.069,18.578125,-6.40625,-11.4912109375
0.0695,18.1376953125,-2.6025390625,-14.8544921875
0.07,16.9365234375,1.12109375,-17.3369140625
0.0705,15.775390625,4.083984375,-19.138671875
0.071,13.29296875,6.7666015625,-19.37890625
0.0715,8.6484375,10.08984375,-18.1376953125
0.072,4.9248046875,13.373046875,-17.857421875
0.0725,0.4404296875,16.65625,-16.8564453125
0.073,-3.283203125,18.7783203125,-15.53515625
0.0735,-5.6455078125,19.69921875,-14.09375
0.074,-8.6484375,19.2587890625,-11.130859375
0.0745,-12.171875,18.4580078125,-6.966796875
0.075,-15.4150390625,17.77734375,-3.203125
0.0755,-17.9775390625,16.65625,0.48046875
0.076,-19.8193359375,15.21484375,3.68359375
0.0765,-19.859375,12.7724609375,6.2060546875
0.077,-18.9384765625,8.6083984375,9.44921875
0.0775,-18.578125,5.125,12.5322265625
0.078,-17.9775390625,1.12109375,15.9755859375
0.0785,-16.65625,-2.5625,18.2978515625
0.079,-15.21484375,-5.125,19.458984375
0.0795,-12.171875,-7.927734375,19.3388671875
0.08,-7.3671875,-11.53125,18.2177734375
0.0805,-3.36328125,-14.89453125,17.6572265625
0.081,0.880859375,-17.6572265625,16.4560546875
0.0815,4.2041015625,-19.619140625,15.4951171875
0.082,6.6865234375,-19.859375,13.29296875
0.0825,9.9296875,-19.0986328125,9.609375
0.083,13.4130859375,-18.658203125,5.8056640625
0.0835,16.6962890625,-17.697265625,1.76171875
0.084,18.9384765625,-16.3759765625,-1.8818359375
0.0845,20.1796875,-14.734375,-4.724609375
0.085,19.8994140625,-11.69140625,-7.447265625
0.0855,18.9384765625,-7.2470703125,-10.970703125
0.086,18.5380859375,-3.8037109375,-14.0537109375
0.0865,17.77734375,0.1201171875,-17.13671875
0.087,16.3759765625,3.68359375,-19.37890625
0.0875,14.09375,6.24609375,-19.69921875
0.088,10.41015625,9.2490234375,-19.0986328125
0.0885,5.765625,12.97265625,-18.3779296875
0.089,1.361328125,16.3359375,-17.45703125
0.0895,-2.482421875,18.498046875,-16.2158203125
0.09,-5.5654296875,20.259765625,-14.974609375
0.0905,-8.2080078125,19.9794921875,-12.2119140625
0.091,-11.69140625,18.978515625,-7.9677734375
0.0915,-15.0146484375,18.578125,-4.3642578125
0.092,-18.09765625,17.296875,-0.16015625
0.0925,-20.099609375,15.85546875,3.3232421875
0.093,-20.66015625,13.6533203125,6.005859375
0.0935,-19.9794921875,10.08984375,8.96875
0.094,-19.21875,5.685546875,12.6123046875
0.0945,-18.578125,1.921875,15.775390625
0.095,-17.4169921875,-1.8017578125,18.2978515625
0.0955,-16.095703125,-5.0849609375,20.33984375
0.096,-13.1328125,-7.6474609375,19.9794921875
0.0965,-8.80859375,-10.890625,19.0185546875
0.097,-4.484375,-14.57421875,18.4580078125
0.0975,0.3603515625,-17.697265625,17.056640625
0.098,3.68359375,-19.5791015625,15.85546875
0.0985,6.4462890625,-20.580078125,14.2939453125
0.099,9.44921875,-20.01953125,10.890625
0.0995,13.0927734375,-19.05859375,6.486328125
0.1,16.3759765625,-18.4580078125,2.7626953125
0.1005,19.05859375,-17.056640625,-1.2412109375
0.101,20.7001953125,-15.53515625,-4.404296875
0.1015,20.5400390625,-12.7724609375,-7.0068359375
0.102,19.69921875,-8.80859375,-10.169921875
0.1025,19.1787109375,-4.7646484375,-13.6533203125
0.103,18.2978515625,-0.720703125,-16.896484375
0.1035,16.9365234375,2.802734375,-18.978515625
0.104,15.375,5.8056640625,-20.5
0.1045,11.69140625,8.6083984375,-19.779296875
0.105,6.966796875,12.2119140625,-18.73828125
0.1055,2.8427734375,15.6953125,-18.2578125
0.106,-1.7216796875,18.6181640625,-16.81640625
0.1065,-4.884765625,20.2998046875,-15.53515625
0.107,-7.607421875,20.580078125,-13.4130859375
0.1075,-10.890625,19.859375,-9.609375
0.108,-14.5341796875,19.05859375,-5.28515625
0.1085,-17.77734375,17.9775390625,-1.1611328125
0.109,-19.939453125,16.576171875,2.4423828125
0.1095,-21.30078125,14.7744140625,5.4853515625
0.11,-20.580078125,11.3310546875,8.2880859375
0.1105,-19.7392578125,7.0869140625,11.69140625
0.111,-19.298828125,3.203125,15.1748046875
0.1115,-18.2177734375,-1.041015625,18.3779296875
0.112,-16.65625,-4.3642578125,20.1796875
0.1125,-14.6142578125,-7.1669921875,20.9404296875
0.113,-10.4501953125,-10.3701171875,19.9794921875
0.1135,-5.4453125,-14.173828125,18.8984375
0.114,-1.0810546875,-17.4169921875,18.0576171875
0.1145,3.04296875,-19.859375,16.65625
0.115,6.1259765625,-21.2607421875,15.2548828125
0.1155,9.0888671875,-20.8203125,12.0517578125
0.116,12.4921875,-19.9794921875,8.0078125
0.1165,16.1357421875,-19.2587890625,3.84375
0.117,19.298828125,-17.77734375,-0.80078125
0.1175,20.98046875,-16.17578125,-3.9638671875
0.118,21.7412109375,-13.9736328125,-6.9267578125
0.1185,20.6201171875,-9.8896484375,-9.9697265625
0.119,19.779296875,-5.525390625,-13.453125
0.1195,19.1787109375,-1.681640625,-16.736328125
0.12,17.8974609375,2.4423828125,-19.5390625
0.1205,16.0556640625,5.6455078125,-21.0205078125
0.121,12.97265625,8.4482421875,-20.7802734375
0.1215,8.6083984375,11.8115234375,-19.8994140625
0.122,3.603515625,15.7353515625,-18.9384765625
0.1225,-1.1611328125,18.73828125,-17.4970703125
0.123,-4.5244140625,20.580078125,-16.17578125
0.1235,-7.52734375,21.62109375,-14.4140625
0.124,-10.73046875,20.5,-10.41015625
0.1245,-14.0537109375,19.619140625,-6.3662109375
0.125,-17.4970703125,18.8583984375,-2.2822265625
0.1255,-20.259765625,17.0966796875,2.2421875
0.126,-21.4609375,15.3349609375,5.0849609375
0.1265,-21.5009765625,12.4921875,7.9677734375
0.127,-20.419921875,8.2880859375,11.130859375
0.1275,-19.619140625,3.9638671875,14.734375
0.128,-18.658203125,0.0,17.77734375
0.1285,-17.296875,-3.7236328125,20.099609375
0.129,-15.53515625,-6.7265625,21.3408203125
0.1295,-11.4912109375,-9.689453125,20.2197265625
0.13,-7.1669921875,-12.97265625,19.458984375
0.1305,-2.40234375,-16.736328125,18.658203125
0.131,2.3623046875,-19.5390625,16.9365234375
0.1315,5.2451171875,-20.8203125,15.6552734375
0.132,8.087890625,-21.3408203125,13.4931640625
0.1325,11.4912109375,-20.1796875,9.1689453125
0.133,14.9345703125,-19.3388671875,5.044921875
0.1335,18.177734375,-18.3779296875,1.0009765625
0.134,20.5400390625,-16.81640625,-2.962890625
0.1345,21.4208984375,-14.814453125,-5.765625
0.135,20.7802734375,-11.2509765625,-8.728515625
0.1355,19.8994140625,-7.2470703125,-11.8916015625
0.136,19.37890625,-3.123046875,-15.53515625
0.1365,18.0576171875,1.12109375,-18.4580078125
0.137,16.65625,4.244140625,-20.2197265625
0.1375,14.57421875,7.1669921875,-21.140625
0.138,9.849609375,10.5302734375,-19.7392578125
0.1385,5.4052734375,14.0537109375,-18.978515625
0.139,0.9609375,17.45703125,-18.177734375
0.1395,-3.4833984375,19.9794921875,-16.5361328125
0.14,-6.2060546875,20.98046875,-15.0546875
0.1405,-9.1689453125,20.8203125,-12.171875
0.141,-12.6923828125,19.859375,-7.927734375
0.1415,-16.17578125,19.05859375,-3.68359375
0.142,-19.1787109375,17.6572265625,0.6005859375
0.1425,-21.1005859375,16.1357421875,4.00390625
0.143,-21.7412109375,13.8935546875,6.88671875
0.1435,-20.6201171875,9.529296875,10.169921875
0.144,-19.8994140625,5.60546875,13.29296875
0.1445,-19.37890625,1.4814453125,16.9365234375
0.145,-17.8974609375,-2.8427734375,19.779296875
0.1455,-16.17578125,-5.765625,20.98046875
0.146,-13.453125,-8.6083984375,21.220703125
0.1465,-8.48828125,-12.2119140625,19.9794921875
0.147,-3.7236328125,-15.85546875,19.05859375
0.1475,0.80078125,-18.9384765625,17.8173828125
0.148,4.724609375,-21.140625,16.416015625
0.1485,7.4873046875,-21.78125,14.5341796875
0.149,10.8505859375,-20.98046875,10.5302734375
0.1495,14.3740234375,-20.2197265625,6.5263671875
0.15,18.017578125,-19.2587890625,2.0419921875
0.1505,20.740234375,-17.5771484375,-2.40234375
0.151,22.0615234375,-15.775390625,-5.4453125
0.1515,22.26171875,-12.9326171875,-8.48828125
0.152,20.98046875,-8.0478515625,-12.1318359375
0.1525,20.2197265625,-4.1240234375,-15.3349609375
0.153,19.3388671875,0.0400390625,-18.578125
0.1535,17.77734375,4.2041015625,-21.220703125
0.154,15.4150390625,7.1669921875,-21.9013671875
0.1545,11.5712890625,10.3701171875,-21.3408203125
0.155,6.646484375,14.1337890625,-20.33984375
0.1555,1.6015625,17.8974609375,-19.21875
0.156,-3.0029296875,20.5,-17.537109375
0.1565,-6.3662109375,22.26171875,-16.095703125
0.157,-9.369140625,22.4619140625,-13.61328125
0.1575,-13.0927734375,21.1005859375,-8.728515625
0.158,-16.416015625,20.33984375,-4.8447265625
0.1585,-19.939453125,19.0986328125,-0.16015625
0.159,-22.3818359375,17.13671875,4.1640625
0.1595,-23.0625,14.8544921875,7.0869140625
0.16,-22.6220703125,11.2109375,10.3701171875
0.1605,-21.4208984375,6.2861328125,14.09375
0.161,-20.5400390625,1.9619140625,17.5771484375
0.1615,-19.138671875,-2.2822265625,20.33984375
0.162,-17.537109375,-6.0458984375,22.58203125
0.1625,-14.734375,-8.9287109375,22.7421875
0.163,-9.76953125,-12.3720703125,21.380859375
0.1635,-5.205078125,-15.9755859375,20.5400390625
0.164,0.16015625,-19.5791015625,19.138671875
0.1645,4.5244140625,-21.8212890625,17.296875
0.165,7.52734375,-22.8623046875,15.4951171875
0.1655,10.7705078125,-22.7021484375,12.3720703125
0.166,14.6943359375,-21.1806640625,7.20703125
0.1665,18.0576171875,-20.33984375,3.123046875
0.167,21.140625,-18.7783203125,-1.4814453125
0.1675,23.1826171875,-16.8564453125,-5.4453125
0.168,23.2626953125,-14.09375,-8.328125
0.1685,22.3017578125,-9.7294921875,-11.771484375
0.169,21.3408203125,-5.28515625,-15.2548828125
0.1695,20.419921875,-0.80078125,-18.8583984375
0.17,18.5380859375,3.443359375,-21.1806640625
0.1705,16.81640625,6.7666015625,-22.822265625
0.171,13.373046875,9.8896484375,-22.58203125
0.1715,7.84765625,13.7333984375,-21.0205078125
0.172,3.5234375,17.13671875,-20.259765625
0.1725,-1.681640625,20.4599609375,-18.658203125
0.173,-5.765625,22.421875,-16.896484375
0.1735,-8.6083984375,22.8623046875,-14.6943359375
0.174,-12.0517578125,22.26171875,-10.890625
0.1745,-15.85546875,21.0205078125,-6.0458984375
0.175,-19.3388671875,19.859375,-1.521484375
0.1755,-21.861328125,18.09765625,2.802734375
0.176,-23.5830078125,16.1357421875,6.3662109375
0.1765,-23.22265625,12.8125,9.3291015625
0.177,-22.0615234375,7.84765625,13.1328125
0.1775,-21.2607421875,3.8037109375,16.4560546875
0.178,-20.1796875,-0.80078125,19.9794921875
0.1785,-18.2177734375,-4.9248046875,22.1416015625
0.179,-16.0556640625,-7.8876953125,23.0224609375
0.1795,-12.1318359375,-11.1708984375,22.4619140625
0.18,-6.486328125,-15.21484375,20.98046875
0.1805,-1.8017578125,-18.578125,19.8994140625
0.181,2.9228515625,-21.3408203125,18.2578125
0.1815,6.6865234375,-23.142578125,16.6162109375
0.182,9.6494140625,-22.982421875,13.6533203125
0.1825,13.4130859375,-21.9814453125,9.208984375
0.183,17.13671875,-21.1005859375,4.724609375
0.1835,20.66015625,-19.5791015625,-0.2802734375
0.184,22.7822265625,-17.697265625,-4.2041015625
0.1845,23.8232421875,-15.455078125,-7.447265625
0.185,23.0625,-11.611328125,-10.650390625
0.1855,21.9013671875,-6.486328125,-14.6142578125
0.186,21.1005859375,-2.4423828125,-17.857421875
0.1865,19.69921875,2.162109375,-20.98046875
0.187,17.7373046875,6.0859375,-23.0224609375
0.1875,14.734375,9.0087890625,-23.0224609375
0.188,10.2099609375,12.572265625,-22.1416015625
0.1885,4.7646484375,16.65625,-20.98046875
0.189,-0.48046875,20.01953125,-19.4189453125
0.1895,-4.6044921875,22.2216796875,-17.697265625
0.19,-8.0478515625,23.623046875,-15.8955078125
0.1905,-11.2509765625,22.90234375,-12.2119140625
0.191,-15.0947265625,21.62109375,-7.4072265625
0.1915,-18.6181640625,20.7802734375,-3.1630859375
0.192,-21.8212890625,18.8984375,1.921875
0.1925,-23.54296875,16.8564453125,5.60546875
0.193,-23.86328125,14.09375,8.6484375
0.1935,-22.90234375,9.7294921875,12.01171875
0.194,-21.8212890625,4.8046875,16.015625
0.1945,-20.66015625,0.48046875,19.21875
0.195,-19.0986328125,-3.763671875,21.78125
0.1955,-17.1767578125,-7.3671875,23.5830078125
0.196,-13.29296875,-10.330078125,22.7421875
0.1965,-8.408203125,-13.9736328125,21.62109375
0.197,-3.36328125,-17.857421875,20.7001953125
0.1975,2.0419921875,-21.0205078125,18.73828125
0.198,5.685546875,-22.6220703125,16.9765625
0.1985,8.80859375,-23.462890625,14.9345703125
0.199,12.2919921875,-22.4619140625,10.6904296875
0.1995,16.1357421875,-21.1806640625,5.765625
0.2,19.5390625,-20.1796875,1.44140625
0.2005,22.2216796875,-18.337890625,-3.0029296875
0.201,23.54296875,-16.3359375,-6.3662109375
0.2015,23.1025390625,-12.892578125,-9.3291015625
0.202,22.021484375,-8.408203125,-12.732421875
0.2025,21.1806640625,-3.8837890625,-16.4560546875
0.203,19.859375,0.6806640625,-19.6591796875
0.2035,18.017578125,4.4443359375,-21.6611328125
0.204,16.0556640625,7.6875,-22.982421875
0.2045,11.5712890625,10.890625,-21.78125
0.205,6.4462890625,14.6943359375,-20.580078125
0.2055,1.921875,18.2177734375,-19.8193359375
0.206,-3.123046875,21.060546875,-17.9375
0.2065,-6.40625,22.421875,-16.2158203125
0.207,-9.369140625,22.501953125,-13.61328125
0.2075,-12.892578125,21.541015625,-9.3291015625
0.208,-16.65625,20.4599609375,-4.6845703125
0.2085,-19.8994140625,19.0185546875,-0.16015625
0.209,-21.94140625,17.296875,3.6435546875
0.2095,-23.0625,15.21484375,6.7265625
0.21,-22.1015625,11.2509765625,9.8095703125
0.2105,-21.140625,6.8466796875,13.29296875
0.211,-20.5,2.642578125,16.896484375
0.2115,-19.0986328125,-1.8818359375,19.9794921875
0.212,-17.296875,-5.3251953125,21.62109375
0.2125,-14.974609375,-8.2080078125,22.3017578125
0.213,-10.330078125,-11.611328125,21.140625
0.2135,-5.0849609375,-15.53515625,19.9794921875
0.214,-0.48046875,-18.8583984375,18.8583984375
0.2145,3.8037109375,-21.220703125,17.3369140625
0.215,6.966796875,-22.4619140625,15.6552734375
0.2155,10.08984375,-21.8212890625,12.1318359375
0.216,13.5732421875,-21.0205078125,7.9677734375
0.2165,17.3369140625,-20.2197265625,3.5234375
0.217,20.4599609375,-18.498046875,-1.201171875
0.2175,22.0615234375,-16.81640625,-4.484375
0.218,22.7421875,-14.3740234375,-7.52734375
0.2185,21.541015625,-9.9296875,-10.7705078125
0.219,20.66015625,-5.4853515625,-14.4140625
