wavelength,x,y,z
0.0,0.490478515625,-6.236083984375,3.693603515625
0.0005,-0.310302734375,-6.476318359375,4.654541015625
0.001,-1.231201171875,-6.115966796875,5.175048828125
0.0015,-2.312255859375,-5.195068359375,5.535400390625
0.002,-3.473388671875,-4.354248046875,6.095947265625
0.0025,-4.434326171875,-3.233154296875,6.256103515625
0.003,-5.074951171875,-2.272216796875,6.216064453125
0.0035,-5.435302734375,-1.511474609375,6.095947265625
0.004,-5.315185546875,-0.590576171875,5.335205078125
0.0045,-5.235107421875,0.570556640625,4.494384765625
0.005,-5.275146484375,1.731689453125,3.693603515625
0.0055,-5.155029296875,2.852783203125,2.692626953125
0.006,-4.994873046875,3.773681640625,1.771728515625
0.0065,-4.474365234375,4.334228515625,0.850830078125
0.007,-3.593505859375,4.614501953125,-0.310302734375
0.0075,-2.712646484375,5.094970703125,-1.551513671875
0.008,-1.751708984375,5.375244140625,-2.832763671875
0.0085,-0.950927734375,5.575439453125,-3.793701171875
0.009,-0.230224609375,5.735595703125,-4.714599609375
0.0095,0.890869140625,5.135009765625,-5.275146484375
0.01,2.052001953125,4.294189453125,-5.635498046875
0.0105,3.173095703125,3.453369140625,-6.115966796875
0.011,4.093994140625,2.412353515625,-6.276123046875
0.0115,4.734619140625,1.571533203125,-6.316162109375
0.012,4.934814453125,0.690673828125,-5.955810546875
0.0125,4.814697265625,-0.310302734375,-5.275146484375
0.013,4.894775390625,-1.431396484375,-4.474365234375
0.0135,4.854736328125,-2.592529296875,-3.553466796875
0.014,4.734619140625,-3.593505859375,-2.592529296875
0.0145,4.574462890625,-4.514404296875,-1.751708984375
0.015,3.853759765625,-4.954833984375,-0.790771484375
0.0155,2.972900390625,-5.195068359375,0.410400390625
0.016,2.172119140625,-5.755615234375,1.611572265625
0.0165,1.171142578125,-6.035888671875,2.852783203125
0.017,0.450439453125,-6.276123046875,3.773681640625
0.0175,-0.470458984375,-6.236083984375,4.534423828125
0.018,-1.471435546875,-5.515380859375,5.014892578125
0.0185,-2.632568359375,-4.714599609375,5.575439453125
0.019,-3.673583984375,-3.833740234375,5.895751953125
0.0195,-4.434326171875,-2.872802734375,6.015869140625
0.02,-4.994873046875,-2.112060546875,6.055908203125
0.0205,-5.074951171875,-1.231201171875,5.535400390625
0.021,-4.954833984375,-0.310302734375,4.774658203125
0.0215,-5.114990234375,0.810791015625,4.134033203125
0.022,-5.114990234375,1.971923828125,3.253173828125
0.0225,-4.994873046875,2.932861328125,2.372314453125
0.023,-4.754638671875,3.773681640625,1.571533203125
0.0235,-3.993896484375,4.134033203125,0.570556640625
0.024,-3.193115234375,4.574462890625,-0.670654296875
0.0245,-2.432373046875,5.054931640625,-1.911865234375
0.025,-1.591552734375,5.335205078125,-2.952880859375
0.0255,-0.870849609375,5.615478515625,-3.993896484375
0.026,0.130126953125,5.415283203125,-4.634521484375
0.0265,1.211181640625,4.734619140625,-5.114990234375
0.027,2.412353515625,3.973876953125,-5.755615234375
0.0275,3.453369140625,3.012939453125,-6.075927734375
0.028,4.134033203125,2.092041015625,-6.156005859375
0.0285,4.614501953125,1.291259765625,-6.115966796875
0.029,4.654541015625,0.410400390625,-5.515380859375
0.0295,4.694580078125,-0.670654296875,-4.834716796875
0.03,4.814697265625,-1.831787109375,-4.114013671875
0.0305,4.774658203125,-2.912841796875,-3.193115234375
0.031,4.614501953125,-3.913818359375,-2.272216796875
0.0315,4.254150390625,-4.594482421875,-1.351318359375
0.032,3.413330078125,-4.914794921875,-0.350341796875
0.0325,2.612548828125,-5.515380859375,0.970947265625
0.033,1.651611328125,-5.835693359375,2.212158203125
0.0335,0.890869140625,-6.156005859375,3.253173828125
0.034,0.130126953125,-6.316162109375,4.214111328125
0.0345,-0.990966796875,-5.795654296875,4.814697265625
0.035,-2.112060546875,-4.994873046875,5.255126953125
0.0355,-3.273193359375,-4.194091796875,5.815673828125
0.036,-4.154052734375,-3.193115234375,6.015869140625
0.0365,-4.834716796875,-2.312255859375,6.095947265625
0.037,-5.114990234375,-1.511474609375,5.775634765625
0.0375,-5.034912109375,-0.590576171875,5.054931640625
0.038,-5.114990234375,0.610595703125,4.334228515625
0.0385,-5.155029296875,1.771728515625,3.453369140625
0.039,-5.034912109375,2.852783203125,2.532470703125
0.0395,-4.914794921875,3.773681640625,1.651611328125
0.04,-4.194091796875,4.134033203125,0.690673828125
0.0405,-3.353271484375,4.414306640625,-0.510498046875
0.041,-2.552490234375,5.014892578125,-1.791748046875
0.0415,-1.631591796875,5.255126953125,-2.952880859375
0.042,-0.830810546875,5.615478515625,-3.913818359375
0.0425,0.050048828125,5.575439453125,-4.754638671875
0.043,1.131103515625,4.854736328125,-5.195068359375
0.0435,2.412353515625,3.973876953125,-5.755615234375
0.044,3.493408203125,3.012939453125,-6.115966796875
0.0445,4.214111328125,2.052001953125,-6.196044921875
0.045,4.814697265625,1.291259765625,-6.236083984375
0.0455,4.854736328125,0.330322265625,-5.675537109375
0.046,4.734619140625,-0.710693359375,-4.834716796875
0.0465,4.854736328125,-1.951904296875,-4.073974609375
0.047,4.814697265625,-3.072998046875,-3.072998046875
0.0475,4.614501953125,-4.073974609375,-2.112060546875
0.048,4.414306640625,-4.834716796875,-1.311279296875
0.0485,3.493408203125,-5.155029296875,-0.270263671875
0.049,2.532470703125,-5.475341796875,1.051025390625
0.0495,1.571533203125,-5.955810546875,2.292236328125
0.05,0.730712890625,-6.115966796875,3.413330078125
0.0505,0.010009765625,-6.356201171875,4.374267578125
0.051,-0.990966796875,-5.995849609375,4.974853515625
0.0515,-2.112060546875,-5.114990234375,5.375244140625
0.052,-3.353271484375,-4.234130859375,5.935791015625
0.0525,-4.354248046875,-3.193115234375,6.135986328125
0.053,-4.994873046875,-2.272216796875,6.135986328125
0.0535,-5.315185546875,-1.471435546875,6.015869140625
0.054,-5.235107421875,-0.550537109375,5.255126953125
0.0545,-5.155029296875,0.610595703125,4.334228515625
0.055,-5.235107421875,1.811767578125,3.533447265625
0.0555,-5.155029296875,2.892822265625,2.532470703125
0.056,-4.914794921875,3.853759765625,1.611572265625
0.0565,-4.434326171875,4.334228515625,0.730712890625
0.057,-3.473388671875,4.574462890625,-0.430419921875
0.0575,-2.592529296875,5.094970703125,-1.791748046875
0.058,-1.551513671875,5.415283203125,-3.032958984375
0.0585,-0.790771484375,5.655517578125,-3.993896484375
0.059,0.050048828125,5.775634765625,-4.914794921875
0.0595,1.131103515625,5.094970703125,-5.435302734375
0.06,2.372314453125,4.093994140625,-5.795654296875
0.0605,3.533447265625,3.173095703125,-6.356201171875
0.061,4.454345703125,2.092041015625,-6.396240234375
0.0615,5.014892578125,1.211181640625,-6.396240234375
0.062,5.135009765625,0.330322265625,-5.955810546875
0.0625,5.014892578125,-0.790771484375,-5.114990234375
0.063,5.014892578125,-1.991943359375,-4.154052734375
0.0635,4.974853515625,-3.233154296875,-3.153076171875
0.064,4.774658203125,-4.234130859375,-2.152099609375
0.0645,4.534423828125,-5.114990234375,-1.271240234375
0.065,3.733642578125,-5.475341796875,-0.270263671875
0.0655,2.572509765625,-5.635498046875,1.010986328125
0.066,1.611572265625,-6.115966796875,2.532470703125
0.0665,0.570556640625,-6.316162109375,3.733642578125
0.067,-0.310302734375,-6.476318359375,4.654541015625
0.0675,-1.111083984375,-6.316162109375,5.375244140625
0.068,-2.312255859375,-5.395263671875,5.775634765625
0.0685,-3.633544921875,-4.234130859375,6.256103515625
0.069,-4.674560546875,-3.193115234375,6.536376953125
0.0695,-5.395263671875,-2.112060546875,6.456298828125
0.07,-5.795654296875,-1.271240234375,6.376220703125
0.0705,-5.755615234375,-0.270263671875,5.575439453125
0.071,-5.435302734375,0.970947265625,4.414306640625
0.0715,-5.555419921875,2.292236328125,3.453369140625
0.072,-5.395263671875,3.533447265625,2.252197265625
0.0725,-5.074951171875,4.414306640625,1.291259765625
0.073,-4.634521484375,4.974853515625,0.410400390625
0.0735,-3.553466796875,5.175048828125,-0.870849609375
0.074,-2.272216796875,5.455322265625,-2.312255859375
0.0745,-1.231201171875,5.815673828125,-3.713623046875
0.075,-0.270263671875,5.895751953125,-4.754638671875
0.0755,0.570556640625,6.015869140625,-5.635498046875
0.076,1.571533203125,5.375244140625,-6.115966796875
0.0765,2.932861328125,4.134033203125,-6.396240234375
0.077,4.214111328125,3.012939453125,-6.876708984375
0.0775,5.135009765625,1.771728515625,-6.916748046875
0.078,5.615478515625,0.770751953125,-6.676513671875
0.0785,5.815673828125,-0.190185546875,-6.356201171875
0.079,5.575439453125,-1.311279296875,-5.275146484375
0.0795,5.255126953125,-2.592529296875,-3.993896484375
0.08,5.215087890625,-3.953857421875,-2.872802734375
0.0805,4.974853515625,-5.034912109375,-1.791748046875
0.081,4.534423828125,-5.795654296875,-0.790771484375
0.0815,3.773681640625,-6.196044921875,0.290283203125
0.082,2.532470703125,-6.156005859375,1.531494140625
0.0825,1.251220703125,-6.516357421875,3.093017578125
0.083,0.050048828125,-6.596435546875,4.414306640625
0.0835,-0.790771484375,-6.676513671875,5.255126953125
0.084,-1.551513671875,-6.596435546875,6.015869140625
0.0845,-2.712646484375,-5.595458984375,6.336181640625
0.085,-4.033935546875,-4.234130859375,6.576416015625
0.0855,-5.114990234375,-3.193115234375,6.896728515625
0.086,-5.835693359375,-1.991943359375,6.856689453125
0.0865,-6.276123046875,-0.990966796875,6.536376953125
0.087,-6.196044921875,0.010009765625,5.935791015625
0.0875,-5.835693359375,1.131103515625,4.814697265625
0.088,-5.715576171875,2.452392578125,3.533447265625
0.0885,-5.515380859375,3.693603515625,2.372314453125
0.089,-5.195068359375,4.614501953125,1.291259765625
0.0895,-4.834716796875,5.335205078125,0.330322265625
0.09,-3.793701171875,5.535400390625,-0.790771484375
0.0905,-2.432373046875,5.615478515625,-2.072021484375
0.091,-1.311279296875,6.015869140625,-3.593505859375
0.0915,-0.190185546875,6.055908203125,-4.834716796875
0.092,0.610595703125,6.095947265625,-5.635498046875
0.0925,1.411376953125,5.815673828125,-6.276123046875
0.093,2.692626953125,4.654541015625,-6.596435546875
0.0935,4.053955078125,3.373291015625,-6.956787109375
0.094,5.094970703125,2.212158203125,-7.076904296875
0.0945,5.695556640625,1.091064453125,-6.916748046875
0.095,6.015869140625,0.170166015625,-6.716552734375
0.0955,5.815673828125,-0.990966796875,-5.835693359375
0.096,5.495361328125,-2.112060546875,-4.594482421875
0.0965,5.415283203125,-3.553466796875,-3.473388671875
0.097,5.175048828125,-4.794677734375,-2.192138671875
0.0975,4.774658203125,-5.675537109375,-1.151123046875
0.098,4.294189453125,-6.236083984375,-0.270263671875
0.0985,3.093017578125,-6.276123046875,1.051025390625
0.099,1.731689453125,-6.476318359375,2.532470703125
0.0995,0.530517578125,-6.716552734375,4.013916015625
0.1,-0.550537109375,-6.716552734375,5.054931640625
0.1005,-1.271240234375,-6.756591796875,5.895751953125
0.101,-2.272216796875,-6.115966796875,6.336181640625
0.1015,-3.553466796875,-4.834716796875,6.536376953125
0.102,-4.834716796875,-3.673583984375,6.976806640625
0.1025,-5.715576171875,-2.432373046875,6.976806640625
0.103,-6.236083984375,-1.351318359375,6.736572265625
0.1035,-6.396240234375,-0.510498046875,6.376220703125
0.104,-6.115966796875,0.690673828125,5.255126953125
0.1045,-5.755615234375,1.931884765625,3.973876953125
0.105,-5.715576171875,3.293212890625,2.852783203125
0.1055,-5.395263671875,4.374267578125,1.611572265625
0.106,-4.994873046875,5.255126953125,0.650634765625
0.1065,-4.234130859375,5.615478515625,-0.430419921875
0.107,-2.992919921875,5.695556640625,-1.631591796875
0.1075,-1.671630859375,6.015869140625,-3.233154296875
0.108,-0.510498046875,6.095947265625,-4.554443359375
0.1085,0.490478515625,6.135986328125,-5.475341796875
0.109,1.211181640625,6.095947265625,-6.276123046875
0.1095,2.372314453125,5.094970703125,-6.636474609375
0.11,3.693603515625,3.773681640625,-6.876708984375
0.1105,4.894775390625,2.612548828125,-7.197021484375
0.111,5.615478515625,1.411376953125,-7.116943359375
0.1115,6.055908203125,0.370361328125,-6.876708984375
0.112,6.055908203125,-0.670654296875,-6.276123046875
0.1125,5.735595703125,-1.871826171875,-5.074951171875
0.113,5.495361328125,-3.273193359375,-3.793701171875
0.1135,5.295166015625,-4.554443359375,-2.552490234375
0.114,4.934814453125,-5.475341796875,-1.351318359375
0.1145,4.534423828125,-6.236083984375,-0.430419921875
0.115,3.493408203125,-6.396240234375,0.770751953125
0.1155,2.132080078125,-6.436279296875,2.092041015625
0.116,0.850830078125,-6.796630859375,3.693603515625
0.1165,-0.430419921875,-6.756591796875,4.894775390625
0.117,-1.191162109375,-6.756591796875,5.735595703125
0.1175,-1.951904296875,-6.436279296875,6.336181640625
0.118,-3.233154296875,-5.275146484375,6.616455078125
0.1185,-4.554443359375,-3.993896484375,6.896728515625
0.119,-5.515380859375,-2.832763671875,7.056884765625
0.1195,-6.115966796875,-1.671630859375,6.856689453125
0.12,-6.396240234375,-0.790771484375,6.576416015625
0.1205,-6.156005859375,0.330322265625,5.655517578125
0.121,-5.795654296875,1.411376953125,4.454345703125
0.1215,-5.755615234375,2.772705078125,3.253173828125
0.122,-5.435302734375,3.973876953125,2.052001953125
0.1225,-5.074951171875,4.854736328125,1.010986328125
0.123,-4.554443359375,5.455322265625,0.130126953125
0.1235,-3.433349609375,5.535400390625,-1.111083984375
0.124,-2.112060546875,5.735595703125,-2.512451171875
0.1245,-1.031005859375,6.015869140625,-3.873779296875
0.125,0.050048828125,5.975830078125,-4.954833984375
0.1255,0.730712890625,6.095947265625,-5.755615234375
0.126,1.651611328125,5.495361328125,-6.236083984375
0.1265,2.892822265625,4.334228515625,-6.516357421875
0.127,4.134033203125,3.213134765625,-6.916748046875
0.1275,5.054931640625,2.052001953125,-6.956787109375
0.128,5.575439453125,0.970947265625,-6.756591796875
0.1285,5.815673828125,0.130126953125,-6.476318359375
0.129,5.575439453125,-0.990966796875,-5.555419921875
0.1295,5.295166015625,-2.192138671875,-4.434326171875
0.13,5.255126953125,-3.393310546875,-3.353271484375
0.1305,4.974853515625,-4.554443359375,-2.192138671875
0.131,4.654541015625,-5.395263671875,-1.231201171875
0.1315,4.093994140625,-5.915771484375,-0.270263671875
0.132,2.932861328125,-5.995849609375,0.970947265625
0.1325,1.771728515625,-6.356201171875,2.412353515625
0.133,0.610595703125,-6.516357421875,3.773681640625
0.1335,-0.350341796875,-6.596435546875,4.734619140625
0.134,-1.071044921875,-6.676513671875,5.575439453125
0.1345,-2.112060546875,-5.915771484375,5.975830078125
0.135,-3.353271484375,-4.754638671875,6.256103515625
0.1355,-4.514404296875,-3.713623046875,6.696533203125
0.136,-5.315185546875,-2.592529296875,6.696533203125
0.1365,-5.835693359375,-1.631591796875,6.536376953125
0.137,-5.955810546875,-0.710693359375,6.095947265625
0.1375,-5.755615234375,0.370361328125,5.094970703125
0.138,-5.635498046875,1.651611328125,4.053955078125
0.1385,-5.475341796875,2.932861328125,2.892822265625
0.139,-5.235107421875,3.933837890625,1.931884765625
0.1395,-4.954833984375,4.774658203125,0.970947265625
0.14,-4.114013671875,5.094970703125,-0.150146484375
0.1405,-2.952880859375,5.215087890625,-1.311279296875
0.141,-1.951904296875,5.695556640625,-2.792724609375
0.1415,-0.790771484375,5.735595703125,-3.993896484375
0.142,0.050048828125,5.935791015625,-4.914794921875
0.1425,0.810791015625,5.815673828125,-5.635498046875
0.143,1.971923828125,4.854736328125,-6.035888671875
0.1435,3.213134765625,3.773681640625,-6.436279296875
0.144,4.294189453125,2.692626953125,-6.676513671875
0.1445,4.974853515625,1.611572265625,-6.596435546875
0.145,5.455322265625,0.730712890625,-6.516357421875
0.1455,5.415283203125,-0.350341796875,-5.875732421875
0.146,5.094970703125,-1.311279296875,-4.834716796875
0.1465,5.135009765625,-2.592529296875,-3.873779296875
0.147,4.974853515625,-3.753662109375,-2.752685546875
0.1475,4.654541015625,-4.674560546875,-1.751708984375
0.148,4.374267578125,-5.395263671875,-0.910888671875
0.1485,3.373291015625,-5.635498046875,0.290283203125
0.149,2.292236328125,-5.835693359375,1.491455078125
0.1495,1.291259765625,-6.196044921875,2.852783203125
0.15,0.330322265625,-6.276123046875,3.893798828125
0.1505,-0.510498046875,-6.476318359375,4.814697265625
0.151,-1.311279296875,-6.115966796875,5.415283203125
0.1515,-2.432373046875,-5.155029296875,5.735595703125
0.152,-3.593505859375,-4.274169921875,6.216064453125
0.1525,-4.554443359375,-3.233154296875,6.376220703125
0.153,-5.195068359375,-2.232177734375,6.256103515625
0.1535,-5.555419921875,-1.471435546875,6.135986328125
0.154,-5.475341796875,-0.470458984375,5.415283203125
0.1545,-5.275146484375,0.650634765625,4.494384765625
0.155,-5.315185546875,1.851806640625,3.613525390625
0.1555,-5.155029296875,2.932861328125,2.612548828125
0.156,-4.954833984375,3.853759765625,1.651611328125
0.1565,-4.514404296875,4.454345703125,0.770751953125
0.157,-3.593505859375,4.654541015625,-0.310302734375
0.1575,-2.712646484375,5.094970703125,-1.591552734375
0.158,-1.711669921875,5.415283203125,-2.832763671875
0.1585,-0.910888671875,5.615478515625,-3.793701171875
0.159,-0.190185546875,5.815673828125,-4.754638671875
0.1595,0.930908203125,5.255126953125,-5.275146484375
0.16,2.052001953125,4.374267578125,-5.675537109375
0.1605,3.173095703125,3.533447265625,-6.156005859375
0.161,4.093994140625,2.492431640625,-6.356201171875
0.1615,4.734619140625,1.531494140625,-6.356201171875
0.162,5.014892578125,0.770751953125,-6.115966796875
0.1625,4.934814453125,-0.270263671875,-5.355224609375
0.163,4.934814453125,-1.311279296875,-4.554443359375
0.1635,4.854736328125,-2.512451171875,-3.633544921875
0.164,4.774658203125,-3.553466796875,-2.712646484375
0.1645,4.614501953125,-4.514404296875,-1.831787109375
0.165,3.973876953125,-4.954833984375,-0.830810546875
0.1655,3.093017578125,-5.195068359375,0.290283203125
0.166,2.252197265625,-5.755615234375,1.531494140625
0.1665,1.251220703125,-5.955810546875,2.732666015625
0.167,0.490478515625,-6.196044921875,3.733642578125
0.1675,-0.350341796875,-6.276123046875,4.534423828125
0.168,-1.391357421875,-5.635498046875,5.054931640625
0.1685,-2.552490234375,-4.834716796875,5.575439453125
0.169,-3.593505859375,-3.953857421875,5.935791015625
0.1695,-4.434326171875,-3.032958984375,6.015869140625
0.17,-4.994873046875,-2.192138671875,6.095947265625
0.1705,-5.114990234375,-1.271240234375,5.615478515625
0.171,-4.994873046875,-0.390380859375,4.854736328125
0.1715,-5.155029296875,0.770751953125,4.254150390625
0.172,-5.114990234375,1.931884765625,3.293212890625
0.1725,-4.954833984375,2.892822265625,2.412353515625
0.173,-4.834716796875,3.773681640625,1.571533203125
0.1735,-4.033935546875,4.134033203125,0.610595703125
0.174,-3.193115234375,4.494384765625,-0.630615234375
0.1745,-2.512451171875,5.054931640625,-1.791748046875
0.175,-1.591552734375,5.295166015625,-2.872802734375
0.1755,-0.910888671875,5.615478515625,-3.873779296875
0.176,0.050048828125,5.455322265625,-4.634521484375
0.1765,1.131103515625,4.774658203125,-5.114990234375
0.177,2.292236328125,3.973876953125,-5.715576171875
0.1775,3.333251953125,3.052978515625,-6.035888671875
0.178,4.093994140625,2.172119140625,-6.115966796875
0.1785,4.614501953125,1.411376953125,-6.156005859375
0.179,4.694580078125,0.490478515625,-5.595458984375
0.1795,4.654541015625,-0.590576171875,-4.874755859375
0.18,4.814697265625,-1.671630859375,-4.154052734375
0.1805,4.774658203125,-2.832763671875,-3.233154296875
0.181,4.614501953125,-3.833740234375,-2.312255859375
0.1815,4.334228515625,-4.554443359375,-1.471435546875
0.182,3.533447265625,-4.874755859375,-0.470458984375
0.1825,2.732666015625,-5.435302734375,0.850830078125
0.183,1.771728515625,-5.755615234375,2.092041015625
0.1835,1.010986328125,-6.075927734375,3.133056640625
0.184,0.290283203125,-6.356201171875,4.093994140625
0.1845,-0.790771484375,-5.915771484375,4.734619140625
0.185,-1.911865234375,-5.155029296875,5.135009765625
0.1855,-3.072998046875,-4.394287109375,5.735595703125
0.186,-4.033935546875,-3.353271484375,5.935791015625
0.1865,-4.714599609375,-2.472412109375,6.015869140625
0.187,-5.074951171875,-1.671630859375,5.855712890625
0.1875,-5.034912109375,-0.710693359375,5.135009765625
0.188,-5.074951171875,0.410400390625,4.414306640625
