wavelength,x,y,z
0.0,-7.9677734375,11.2509765625,-3.923828125
0.0005,-6.1259765625,11.37109375,-6.005859375
0.001,-3.1630859375,10.9306640625,-8.48828125
0.0015,-1.0009765625,9.9697265625,-9.689453125
0.002,1.3212890625,9.8896484375,-11.69140625
0.0025,3.443359375,8.0478515625,-11.931640625
0.003,4.8046875,6.56640625,-11.8515625
0.0035,7.7275390625,3.9638671875,-12.171875
0.004,9.7294921875,1.28125,-11.4111328125
0.0045,11.05078125,-0.9208984375,-10.6103515625
0.005,12.732421875,-2.7626953125,-10.3701171875
0.0055,12.4921875,-4.884765625,-8.0078125
0.006,12.4521484375,-6.3662109375,-6.4462890625
0.0065,12.572265625,-9.12890625,-3.763671875
0.007,11.3310546875,-10.2099609375,-1.44140625
0.0075,10.970703125,-11.53125,0.3603515625
0.008,9.609375,-12.2119140625,2.5224609375
0.0085,7.1669921875,-11.4912109375,4.1240234375
0.009,5.2451171875,-11.53125,6.1259765625
0.0095,2.322265625,-11.1708984375,8.6083984375
0.01,0.16015625,-9.8896484375,9.609375
0.0105,-1.8017578125,-9.76953125,11.291015625
0.011,-4.1240234375,-7.7275390625,11.53125
0.0115,-5.765625,-5.845703125,11.2509765625
0.012,-8.6083984375,-3.283203125,11.53125
0.0125,-10.490234375,-0.5205078125,10.6103515625
0.013,-11.451171875,1.44140625,9.6494140625
0.0135,-12.8525390625,3.123046875,9.44921875
0.014,-12.5322265625,5.4052734375,6.7666015625
0.0145,-12.251953125,7.046875,4.8447265625
0.015,-12.4921875,9.76953125,2.2822265625
0.0155,-10.970703125,10.6103515625,-0.2001953125
0.016,-10.5703125,11.611328125,-1.6416015625
0.0165,-9.0888671875,12.1318359375,-3.763671875
0.017,-6.40625,11.2509765625,-5.60546875
0.0175,-4.3642578125,11.2109375,-7.6474609375
0.018,-1.4814453125,10.8505859375,-10.009765625
0.0185,0.80078125,9.4091796875,-10.73046875
0.019,2.3623046875,9.2890625,-12.1318359375
0.0195,4.7646484375,7.0869140625,-12.2919921875
0.02,6.646484375,4.8046875,-11.8916015625
0.0205,9.4892578125,2.2421875,-12.1318359375
0.021,11.291015625,-0.6806640625,-11.05078125
0.0215,11.8916015625,-2.2822265625,-10.0498046875
0.022,13.052734375,-3.7236328125,-9.7294921875
0.0225,12.732421875,-6.166015625,-6.9267578125
0.023,12.33203125,-8.0078125,-4.6845703125
0.0235,12.6123046875,-10.7705078125,-2.162109375
0.024,10.810546875,-11.291015625,0.3603515625
0.0245,10.330078125,-12.0517578125,1.521484375
0.025,8.6484375,-12.3720703125,3.5634765625
0.0255,5.685546875,-11.5712890625,5.7255859375
0.026,3.4833984375,-11.37109375,7.8076171875
0.0265,0.6005859375,-10.9306640625,10.25
0.027,-1.6416015625,-9.2890625,10.6904296875
0.0275,-2.8427734375,-9.208984375,11.771484375
0.028,-5.4052734375,-6.806640625,11.8916015625
0.0285,-7.52734375,-4.1640625,11.37109375
0.029,-10.41015625,-1.44140625,11.4912109375
0.0295,-12.0517578125,1.4013671875,10.330078125
0.03,-12.251953125,2.72265625,9.208984375
0.0305,-13.212890625,4.244140625,8.6083984375
0.031,-12.8125,6.966796875,5.525390625
0.0315,-12.251953125,8.80859375,3.04296875
0.032,-12.412109375,11.4912109375,0.48046875
0.0325,-10.4501953125,11.771484375,-1.9619140625
0.033,-9.8095703125,12.01171875,-2.8427734375
0.0335,-8.0078125,12.171875,-5.0048828125
0.034,-4.7646484375,11.37109375,-7.2470703125
0.0345,-2.322265625,11.05078125,-9.369140625
0.035,0.5205078125,10.5703125,-11.6513671875
0.0355,2.4423828125,8.80859375,-11.69140625
0.036,3.4833984375,8.5283203125,-12.412109375
0.0365,6.24609375,5.845703125,-12.5322265625
0.037,8.248046875,3.1630859375,-11.8515625
0.0375,11.0107421875,0.3603515625,-11.8115234375
0.038,12.412109375,-2.2021484375,-10.650390625
0.0385,12.33203125,-3.36328125,-9.4091796875
0.039,13.0927734375,-5.0048828125,-8.48828125
0.0395,12.732421875,-7.6875,-5.4052734375
0.04,12.01171875,-9.2890625,-3.0830078125
0.0405,12.01171875,-11.771484375,-0.6005859375
0.041,10.08984375,-11.8515625,1.5615234375
0.0415,9.2490234375,-11.8916015625,2.3623046875
0.042,7.1669921875,-11.8916015625,4.64453125
0.0425,4.1640625,-11.0908203125,6.7666015625
0.043,1.76171875,-10.7705078125,8.9287109375
0.0435,-0.9208984375,-10.169921875,10.8505859375
0.044,-2.482421875,-8.568359375,10.7705078125
0.0445,-3.5634765625,-8.0078125,11.291015625
0.045,-6.4462890625,-5.2451171875,11.37109375
0.0455,-8.2080078125,-2.8828125,10.73046875
0.046,-10.810546875,-0.240234375,10.6904296875
0.0465,-11.8515625,2.0419921875,9.44921875
0.047,-11.8115234375,3.1630859375,8.2880859375
0.0475,-12.3720703125,5.0048828125,7.0068359375
0.048,-11.9716796875,7.447265625,4.1240234375
0.0485,-11.4111328125,8.9287109375,2.0419921875
0.049,-11.291015625,11.05078125,-0.400390625
0.0495,-9.4892578125,10.9306640625,-2.2021484375
0.05,-8.6884765625,11.0107421875,-2.9228515625
0.0505,-6.326171875,11.05078125,-5.4052734375
0.051,-3.7236328125,10.3701171875,-7.287109375
0.0515,-1.3212890625,10.1298828125,-9.44921875
0.052,1.0810546875,9.4091796875,-10.970703125
0.0525,2.40234375,8.0078125,-10.890625
0.053,3.68359375,7.20703125,-11.3310546875
0.0535,6.56640625,4.484375,-11.4111328125
0.054,8.248046875,2.2021484375,-10.810546875
0.0545,10.6103515625,-0.240234375,-10.8505859375
0.055,11.4111328125,-2.2421875,-9.6494140625
0.0555,11.451171875,-3.36328125,-8.48828125
0.056,11.8916015625,-5.4453125,-6.8466796875
0.0565,11.611328125,-7.6875,-4.3642578125
0.057,11.05078125,-9.048828125,-2.3623046875
0.0575,10.8505859375,-10.970703125,-0.2802734375
0.058,9.0087890625,-10.6904296875,1.521484375
0.0585,8.1279296875,-10.73046875,2.5224609375
0.059,5.5654296875,-10.810546875,5.1650390625
0.0595,3.203125,-10.169921875,6.88671875
0.06,0.9609375,-9.9697265625,8.888671875
0.0605,-1.3212890625,-9.1689453125,10.2099609375
0.061,-2.6025390625,-7.767578125,10.08984375
0.0615,-4.2841796875,-6.5263671875,10.5302734375
0.062,-7.126953125,-3.84375,10.650390625
0.0625,-8.6484375,-1.6015625,9.8896484375
0.063,-10.650390625,0.48046875,9.9296875
0.0635,-11.4111328125,2.5224609375,8.568359375
0.064,-11.3310546875,3.84375,7.1669921875
0.0645,-11.69140625,6.0458984375,5.2451171875
0.065,-11.4111328125,8.087890625,2.8427734375
0.0655,-10.650390625,9.12890625,1.0009765625
0.066,-10.490234375,10.8505859375,-1.0009765625
0.0665,-8.408203125,10.5302734375,-2.802734375
0.067,-7.126953125,10.490234375,-4.00390625
0.0675,-4.564453125,10.6103515625,-6.6865234375
0.068,-2.2822265625,9.8896484375,-8.2080078125
0.0685,-0.2802734375,9.529296875,-9.849609375
0.069,1.921875,8.6884765625,-11.05078125
0.0695,3.4833984375,7.0068359375,-10.890625
0.07,5.4052734375,5.3251953125,-11.1708984375
0.0705,8.16796875,2.6826171875,-11.2509765625
0.071,9.4091796875,0.4404296875,-10.169921875
0.0715,11.130859375,-1.28125,-10.2900390625
0.072,11.6513671875,-3.36328125,-8.7685546875
0.0725,11.4912109375,-4.8447265625,-7.0869140625
0.073,11.771484375,-7.126953125,-5.0849609375
0.0735,11.37109375,-9.0888671875,-2.72265625
0.074,10.3701171875,-9.76953125,-0.9208984375
0.0745,10.2099609375,-11.2509765625,0.880859375
0.075,7.8076171875,-10.810546875,2.8828125
0.0755,6.24609375,-10.5703125,4.2041015625
0.076,3.763671875,-10.7705078125,6.88671875
0.0765,1.3212890625,-9.8095703125,8.328125
0.077,-0.48046875,-9.44921875,9.609375
0.0775,-2.482421875,-8.48828125,10.6904296875
0.078,-4.244140625,-6.486328125,10.4501953125
0.0785,-6.40625,-4.5244140625,10.5703125
0.079,-9.048828125,-1.9619140625,10.6904296875
0.0795,-10.009765625,0.4404296875,9.2890625
0.08,-11.451171875,1.7216796875,9.44921875
0.0805,-11.8515625,3.84375,7.6474609375
0.081,-11.4912109375,5.525390625,5.60546875
0.0815,-11.7314453125,7.8076171875,3.4833984375
0.082,-11.2509765625,9.7294921875,1.0810546875
0.0825,-10.0498046875,10.1298828125,-0.640625
0.083,-9.76953125,11.3310546875,-2.162109375
0.0835,-7.1669921875,10.810546875,-4.2841796875
0.084,-5.28515625,10.4501953125,-5.8056640625
0.0845,-2.8427734375,10.650390625,-8.4482421875
0.085,-0.3203125,9.44921875,-9.7294921875
0.0855,1.2412109375,8.96875,-10.73046875
0.086,3.203125,7.927734375,-11.5712890625
0.0865,5.205078125,5.685546875,-11.2509765625
0.087,7.4873046875,3.36328125,-11.2509765625
0.0875,10.08984375,0.7607421875,-11.2509765625
0.088,10.6904296875,-1.44140625,-9.689453125
0.0885,11.8515625,-2.4423828125,-9.8896484375
0.089,12.091796875,-4.7646484375,-7.84765625
0.0895,11.6513671875,-6.6064453125,-5.5654296875
0.09,11.8515625,-8.9287109375,-3.3232421875
0.0905,11.130859375,-10.5302734375,-0.880859375
0.091,9.8095703125,-10.650390625,0.720703125
0.0915,9.44921875,-11.5712890625,2.0419921875
0.092,6.56640625,-11.0107421875,4.3642578125
0.0925,4.404296875,-10.6103515625,6.0859375
0.093,1.9619140625,-10.7705078125,8.6884765625
0.0935,-0.6005859375,-9.3291015625,9.7294921875
0.094,-1.8017578125,-8.9287109375,10.41015625
0.0945,-3.763671875,-7.6474609375,11.0908203125
0.095,-5.92578125,-5.125,10.73046875
0.0955,-8.328125,-2.6826171875,10.650390625
0.096,-10.810546875,0.080078125,10.4501953125
0.0965,-11.0908203125,1.8818359375,8.888671875
0.097,-11.9716796875,2.72265625,8.8486328125
0.0975,-12.171875,5.2451171875,6.4462890625
0.098,-11.5712890625,7.1669921875,4.083984375
0.0985,-11.7314453125,9.5693359375,1.76171875
0.099,-10.7705078125,10.8505859375,-0.6806640625
0.0995,-9.44921875,10.7705078125,-1.921875
0.1,-8.8486328125,11.4111328125,-3.203125
0.1005,-5.8056640625,10.8505859375,-5.6455078125
0.101,-3.5234375,10.330078125,-7.4873046875
0.1015,-1.041015625,10.41015625,-9.9697265625
0.102,1.361328125,8.888671875,-10.73046875
0.1025,2.2421875,8.4482421875,-11.1708984375
0.103,4.32421875,6.88671875,-11.6513671875
0.1035,6.56640625,4.2841796875,-11.291015625
0.104,8.96875,1.7216796875,-11.05078125
0.1045,11.2109375,-0.880859375,-10.8505859375
0.105,11.291015625,-2.482421875,-9.2890625
0.1055,12.01171875,-3.4833984375,-9.048828125
0.106,12.1318359375,-6.1259765625,-6.4462890625
0.1065,11.53125,-7.7275390625,-4.1640625
0.107,11.611328125,-10.1298828125,-1.8017578125
0.1075,10.5302734375,-11.2109375,0.48046875
0.108,9.208984375,-10.8505859375,1.5615234375
0.1085,8.248046875,-11.3310546875,3.04296875
0.109,5.1650390625,-10.810546875,5.525390625
0.1095,2.8828125,-10.330078125,7.3671875
0.11,0.4404296875,-10.330078125,9.7294921875
0.1105,-1.7216796875,-8.80859375,10.2099609375
0.111,-2.5625,-8.248046875,10.5302734375
0.1115,-4.96484375,-6.326171875,11.0107421875
0.112,-7.126953125,-3.8037109375,10.5703125
0.1125,-9.3291015625,-1.361328125,10.2900390625
0.113,-11.37109375,1.0810546875,9.9697265625
0.1135,-11.4111328125,2.642578125,8.2880859375
0.114,-11.8916015625,3.84375,7.7275390625
0.1145,-12.01171875,6.6865234375,4.96484375
0.115,-11.4111328125,8.087890625,2.8828125
0.1155,-11.291015625,10.2900390625,0.6005859375
0.116,-10.2099609375,11.2109375,-1.6015625
0.1165,-8.728515625,10.7705078125,-2.642578125
0.117,-7.4072265625,11.130859375,-4.3642578125
0.1175,-4.3642578125,10.6103515625,-6.9267578125
0.118,-2.1220703125,10.08984375,-8.6083984375
0.1185,0.3203125,9.9296875,-10.810546875
0.119,2.2822265625,8.3681640625,-11.130859375
0.1195,3.2431640625,7.5673828125,-11.2509765625
0.12,6.005859375,5.2451171875,-11.69140625
0.1205,8.0078125,2.6826171875,-11.1708984375
0.121,9.9296875,0.3603515625,-10.7705078125
0.1215,11.7314453125,-1.8017578125,-10.4501953125
0.122,11.6513671875,-3.4833984375,-8.6083984375
0.1225,12.01171875,-4.7646484375,-7.6474609375
0.123,12.1318359375,-7.607421875,-4.8447265625
0.1235,11.3310546875,-8.8486328125,-2.802734375
0.124,11.2109375,-10.73046875,-0.720703125
0.1245,9.9296875,-11.4111328125,1.4013671875
0.125,8.16796875,-10.890625,2.642578125
0.1255,6.486328125,-11.1708984375,4.564453125
0.126,3.603515625,-10.73046875,7.0068359375
0.1265,1.4814453125,-10.009765625,8.3681640625
0.127,-0.8408203125,-9.8095703125,10.41015625
0.1275,-2.7626953125,-8.16796875,10.650390625
0.128,-3.9638671875,-7.0068359375,10.650390625
0.1285,-6.88671875,-4.5244140625,11.0107421875
0.129,-8.728515625,-2.08203125,10.3701171875
0.1295,-10.2900390625,0.1201171875,9.76953125
0.13,-11.8515625,2.08203125,9.44921875
0.1305,-11.69140625,3.9638671875,7.3671875
0.131,-11.8115234375,5.4052734375,6.0458984375
0.1315,-11.8916015625,8.1279296875,3.4033203125
0.132,-10.890625,9.12890625,1.3212890625
0.1325,-10.73046875,10.650390625,-0.5205078125
0.133,-9.3291015625,11.2109375,-2.5224609375
0.1335,-7.4072265625,10.5703125,-3.84375
0.134,-5.4853515625,10.73046875,-5.92578125
0.1345,-2.802734375,10.2900390625,-8.1279296875
0.135,-0.80078125,9.4892578125,-9.2890625
0.1355,1.28125,9.2490234375,-11.05078125
0.136,3.2431640625,7.4873046875,-11.1708984375
0.1365,4.6044921875,6.0458984375,-11.05078125
0.137,7.4873046875,3.4833984375,-11.4111328125
0.1375,9.12890625,0.880859375,-10.650390625
0.138,10.4501953125,-0.880859375,-10.0498046875
0.1385,11.771484375,-2.5625,-9.6494140625
0.139,11.53125,-4.3642578125,-7.4873046875
0.1395,11.53125,-6.005859375,-5.92578125
0.14,11.6513671875,-8.48828125,-3.5234375
0.1405,10.5302734375,-9.2890625,-1.4814453125
0.141,10.3701171875,-10.650390625,0.1201171875
0.1415,8.7685546875,-10.970703125,2.08203125
0.142,6.7666015625,-10.330078125,3.443359375
0.1425,4.8046875,-10.5302734375,5.60546875
0.143,2.2421875,-10.08984375,7.6875
0.1435,0.400390625,-9.2490234375,8.6484375
0.144,-1.44140625,-9.0087890625,10.2099609375
0.1445,-3.36328125,-7.1669921875,10.169921875
0.145,-5.0048828125,-5.4853515625,10.1298828125
0.1455,-7.8076171875,-3.0830078125,10.490234375
0.146,-9.2890625,-0.6005859375,9.529296875
0.1465,-10.41015625,0.9609375,9.12890625
0.147,-11.451171875,2.642578125,8.48828125
0.1475,-11.130859375,4.5244140625,6.2861328125
0.148,-11.2109375,6.326171875,4.484375
0.1485,-11.291015625,8.6884765625,2.2021484375
0.149,-10.009765625,9.2490234375,0.2802734375
0.1495,-9.9697265625,10.490234375,-1.0810546875
0.15,-8.1279296875,10.6103515625,-3.0830078125
0.1505,-6.0859375,10.009765625,-4.564453125
0.151,-4.0439453125,10.2099609375,-6.806640625
0.1515,-1.521484375,9.6494140625,-8.728515625
0.152,0.2802734375,8.7685546875,-9.529296875
0.1525,1.841796875,8.4482421875,-10.7705078125
0.153,3.9638671875,6.40625,-10.8505859375
0.1535,5.8056640625,4.4443359375,-10.6904296875
0.154,8.568359375,2.0419921875,-10.970703125
0.1545,9.76953125,-0.3603515625,-9.8095703125
0.155,10.73046875,-1.5615234375,-9.609375
0.1555,11.53125,-3.2431640625,-8.728515625
0.156,11.2109375,-5.205078125,-6.3662109375
0.1565,11.2109375,-7.1669921875,-4.404296875
0.157,11.2509765625,-9.4892578125,-2.08203125
0.1575,9.76953125,-9.76953125,-0.2802734375
0.158,9.689453125,-10.73046875,0.880859375
0.1585,7.607421875,-10.6904296875,2.962890625
0.159,5.28515625,-10.08984375,4.724609375
0.1595,3.2431640625,-10.330078125,6.966796875
0.16,0.720703125,-9.5693359375,8.728515625
0.1605,-0.9208984375,-8.6884765625,9.2890625
0.161,-2.322265625,-8.328125,10.2900390625
0.1615,-4.5244140625,-6.1259765625,10.2099609375
0.162,-6.56640625,-3.84375,10.0498046875
0.1625,-9.3291015625,-1.3212890625,10.2900390625
0.163,-10.2099609375,0.9609375,8.96875
0.1635,-10.890625,1.921875,8.7685546875
0.164,-11.53125,3.7236328125,7.4873046875
0.1645,-11.130859375,5.8056640625,4.96484375
0.165,-11.0908203125,7.8076171875,2.8828125
0.1655,-10.9306640625,9.8896484375,0.6005859375
0.166,-9.369140625,9.8896484375,-1.1611328125
0.1665,-9.208984375,10.650390625,-2.0419921875
0.167,-6.88671875,10.4501953125,-4.2041015625
0.1675,-4.4443359375,9.849609375,-6.0458984375
0.168,-2.2822265625,10.08984375,-8.328125
0.1685,0.240234375,9.0888671875,-9.8095703125
0.169,1.44140625,8.2080078125,-10.2099609375
0.1695,2.8828125,7.52734375,-10.9306640625
0.17,5.205078125,5.1650390625,-10.8505859375
0.1705,7.287109375,2.8828125,-10.5703125
0.171,9.8896484375,0.400390625,-10.650390625
0.1715,10.41015625,-1.5615234375,-9.3291015625
0.172,11.0107421875,-2.322265625,-9.0888671875
0.1725,11.4912109375,-4.4443359375,-7.447265625
0.173,11.05078125,-6.3662109375,-5.044921875
0.1735,11.0107421875,-8.48828125,-2.8828125
0.174,10.650390625,-10.25,-0.6806640625
0.1745,9.0888671875,-10.009765625,0.7607421875
0.175,8.7685546875,-10.6103515625,1.7216796875
0.1755,6.2060546875,-10.3701171875,4.0439453125
0.176,3.8837890625,-9.8095703125,5.845703125
0.1765,1.6416015625,-9.9697265625,8.16796875
0.177,-0.640625,-8.9287109375,9.2490234375
0.1775,-1.6416015625,-8.2880859375,9.529296875
0.178,-3.203125,-7.20703125,10.169921875
0.1785,-5.6455078125,-4.724609375,10.0498046875
0.179,-7.6474609375,-2.5224609375,9.76953125
0.1795,-10.0498046875,0.0,9.8095703125
0.18,-10.41015625,1.7216796875,8.408203125
0.1805,-10.9306640625,2.5625,8.0478515625
0.181,-11.291015625,4.9248046875,6.0458984375
0.1815,-10.8505859375,6.6865234375,3.8037109375
0.182,-10.810546875,8.6884765625,1.681640625
0.1825,-10.25,10.2099609375,-0.5205078125
0.183,-8.80859375,9.8896484375,-1.681640625
0.1835,-8.2080078125,10.330078125,-2.7626953125
0.184,-5.4453125,10.08984375,-5.28515625
0.1845,-3.203125,9.609375,-7.0068359375
0.185,-0.9208984375,9.609375,-9.3291015625
0.1855,1.201171875,8.4482421875,-10.169921875
0.186,2.0419921875,7.8076171875,-10.2900390625
0.1865,4.0439453125,6.326171875,-10.8505859375
0.187,6.4462890625,3.84375,-10.650390625
0.1875,8.248046875,1.6015625,-10.25
0.188,10.4501953125,-0.640625,-10.2900390625
0.1885,10.73046875,-2.322265625,-8.8486328125
0.189,11.130859375,-3.3232421875,-8.2080078125
0.1895,11.451171875,-5.92578125,-5.92578125
0.19,10.9306640625,-7.447265625,-3.8037109375
0.1905,10.810546875,-9.2890625,-1.8017578125
0.191,10.1298828125,-10.5703125,0.3203125
0.1915,8.48828125,-10.2099609375,1.5615234375
0.192,7.447265625,-10.5302734375,2.962890625
0.1925,4.6845703125,-10.330078125,5.5654296875
0.193,2.5625,-9.8095703125,7.046875
0.1935,0.3203125,-9.8095703125,9.2490234375
0.194,-1.76171875,-8.568359375,9.9296875
0.1945,-2.802734375,-7.52734375,10.009765625
0.195,-5.205078125,-5.6455078125,10.490234375
0.1955,-7.52734375,-3.123046875,10.25
0.196,-9.0888671875,-0.9208984375,9.609375
0.1965,-11.05078125,1.0810546875,9.6494140625
0.197,-11.2509765625,3.04296875,7.8876953125
0.1975,-11.4111328125,4.2841796875,6.806640625
0.198,-11.69140625,6.966796875,4.404296875
0.1985,-11.0107421875,8.408203125,2.162109375
0.199,-10.6103515625,9.8095703125,0.3603515625
0.1995,-9.9296875,11.0107421875,-1.681640625
0.2,-7.84765625,10.490234375,-3.2431640625
0.2005,-6.4462890625,10.6103515625,-4.8046875
0.201,-3.68359375,10.41015625,-7.447265625
0.2015,-1.521484375,9.529296875,-8.6884765625
0.202,0.6005859375,9.44921875,-10.5703125
0.2025,2.642578125,8.087890625,-11.2109375
0.203,4.00390625,6.56640625,-11.05078125
0.2035,6.56640625,4.404296875,-11.4111328125
0.204,8.8486328125,1.8017578125,-11.05078125
0.2045,10.009765625,-0.400390625,-10.08984375
0.205,11.7314453125,-2.001953125,-10.169921875
0.2055,11.8115234375,-4.1240234375,-8.1279296875
0.206,11.69140625,-5.4853515625,-6.56640625
0.2065,11.9716796875,-8.087890625,-4.2041015625
0.207,11.05078125,-9.4892578125,-1.8818359375
0.2075,10.4501953125,-10.4501953125,-0.2802734375
0.208,9.6494140625,-11.53125,1.76171875
0.2085,7.2470703125,-10.8505859375,3.5234375
0.209,5.5654296875,-10.8505859375,5.125
0.2095,2.8427734375,-10.7705078125,7.7275390625
0.21,0.6005859375,-9.609375,8.80859375
0.2105,-1.1611328125,-9.4892578125,10.3701171875
0.211,-3.283203125,-7.8876953125,10.890625
0.2115,-4.9248046875,-6.005859375,10.6103515625
0.212,-7.52734375,-3.68359375,10.8505859375
0.2125,-9.689453125,-1.041015625,10.3701171875
0.213,-10.5302734375,1.041015625,9.208984375
0.2135,-12.01171875,2.40234375,9.2490234375
0.214,-11.931640625,4.6044921875,6.966796875
0.2145,-11.6513671875,6.24609375,5.0048828125
0.215,-11.931640625,8.80859375,2.72265625
0.2155,-10.7705078125,9.9296875,0.3203125
0.216,-10.1298828125,10.6904296875,-1.1611328125
0.2165,-9.208984375,11.53125,-2.962890625
0.217,-6.56640625,10.73046875,-4.884765625
0.2175,-4.64453125,10.5703125,-6.646484375
0.218,-2.001953125,10.5302734375,-9.2490234375
0.2185,0.3603515625,9.12890625,-10.009765625
0.219,1.76171875,9.048828125,-11.291015625
0.2195,3.9638671875,7.3271484375,-11.7314453125
0.22,5.8056640625,5.125,-11.37109375
0.2205,8.4482421875,2.6826171875,-11.53125
0.221,10.5302734375,0.0,-10.890625
0.2215,11.05078125,-1.8017578125,-9.689453125
0.222,12.2919921875,-3.04296875,-9.689453125
