wavelength,x,y,z
0.0,-1.62158203125,5.74560546875,-3.14306640625
0.0005,-0.38037109375,5.74560546875,-4.46435546875
0.001,0.50048828125,5.74560546875,-5.26513671875
0.0015,1.18115234375,5.62548828125,-5.94580078125
0.002,2.30224609375,4.94482421875,-6.46630859375
0.0025,3.70361328125,3.58349609375,-6.78662109375
0.003,4.90478515625,2.18212890625,-6.90673828125
0.0035,5.62548828125,0.94091796875,-6.66650390625
0.004,5.82568359375,0.14013671875,-6.42626953125
0.0045,5.82568359375,-0.82080078125,-5.90576171875
0.005,5.70556640625,-1.94189453125,-4.90478515625
0.0055,5.42529296875,-3.34326171875,-3.54345703125
0.006,5.10498046875,-4.62451171875,-2.18212890625
0.0065,4.74462890625,-5.42529296875,-1.14111328125
0.007,4.30419921875,-6.02587890625,-0.34033203125
0.0075,3.46337890625,-6.26611328125,0.78076171875
0.008,2.06201171875,-6.38623046875,2.18212890625
0.0085,0.74072265625,-6.58642578125,3.70361328125
0.009,-0.50048828125,-6.50634765625,4.82470703125
0.0095,-1.22119140625,-6.54638671875,5.54541015625
0.01,-2.02197265625,-6.18603515625,6.22607421875
0.0105,-3.22314453125,-5.26513671875,6.70654296875
0.011,-4.62451171875,-3.82373046875,6.90673828125
0.0115,-5.66552734375,-2.38232421875,6.86669921875
0.012,-6.18603515625,-1.22119140625,6.54638671875
0.0125,-6.34619140625,-0.46044921875,6.26611328125
0.013,-6.22607421875,0.58056640625,5.58544921875
0.0135,-5.98583984375,1.86181640625,4.34423828125
0.014,-5.74560546875,3.18310546875,3.02294921875
0.0145,-5.38525390625,4.34423828125,1.70166015625
0.015,-4.98486328125,5.06494140625,0.78076171875
0.0155,-4.38427734375,5.46533203125,-0.18017578125
0.016,-3.46337890625,5.74560546875,-1.22119140625
0.0165,-1.98193359375,5.78564453125,-2.74267578125
0.017,-0.62060546875,5.86572265625,-4.22412109375
0.0175,0.42041015625,5.78564453125,-5.18505859375
0.018,1.10107421875,5.82568359375,-5.90576171875
0.0185,2.06201171875,5.30517578125,-6.46630859375
0.019,3.34326171875,4.14404296875,-6.82666015625
0.0195,4.62451171875,2.74267578125,-7.02685546875
0.02,5.50537109375,1.34130859375,-6.86669921875
0.0205,5.90576171875,0.38037109375,-6.58642578125
0.021,5.98583984375,-0.50048828125,-6.22607421875
0.0215,5.86572265625,-1.46142578125,-5.46533203125
0.022,5.62548828125,-2.82275390625,-4.14404296875
0.0225,5.34521484375,-4.22412109375,-2.70263671875
0.023,4.98486328125,-5.18505859375,-1.54150390625
0.0235,4.54443359375,-5.86572265625,-0.66064453125
0.024,3.86376953125,-6.22607421875,0.34033203125
0.0245,2.70263671875,-6.50634765625,1.58154296875
0.025,1.26123046875,-6.66650390625,3.18310546875
0.0255,-0.26025390625,-6.62646484375,4.50439453125
0.026,-0.98095703125,-6.54638671875,5.38525390625
0.0265,-1.66162109375,-6.42626953125,6.06591796875
0.027,-2.78271484375,-5.74560546875,6.62646484375
0.0275,-4.18408203125,-4.34423828125,6.90673828125
0.028,-5.38525390625,-2.90283203125,7.02685546875
0.0285,-6.10595703125,-1.58154296875,6.74658203125
0.029,-6.38623046875,-0.70068359375,6.46630859375
0.0295,-6.38623046875,0.26025390625,5.90576171875
0.03,-6.18603515625,1.34130859375,4.90478515625
0.0305,-5.90576171875,2.74267578125,3.54345703125
0.031,-5.62548828125,4.10400390625,2.14208984375
0.0315,-5.18505859375,4.94482421875,1.06103515625
0.032,-4.66455078125,5.46533203125,0.18017578125
0.0325,-3.82373046875,5.70556640625,-0.94091796875
0.033,-2.50244140625,5.82568359375,-2.30224609375
0.0335,-1.10107421875,5.98583984375,-3.94384765625
0.034,0.26025390625,5.90576171875,-5.06494140625
0.0345,0.94091796875,5.94580078125,-5.82568359375
0.035,1.74169921875,5.62548828125,-6.42626953125
0.0355,2.94287109375,4.70458984375,-6.90673828125
0.036,4.34423828125,3.22314453125,-7.14697265625
0.0365,5.46533203125,1.70166015625,-7.06689453125
0.037,6.02587890625,0.58056640625,-6.78662109375
0.0375,6.14599609375,-0.34033203125,-6.46630859375
0.038,6.06591796875,-1.30126953125,-5.78564453125
0.0385,5.82568359375,-2.62255859375,-4.50439453125
0.039,5.50537109375,-4.02392578125,-3.06298828125
0.0395,5.14501953125,-5.14501953125,-1.78173828125
0.04,4.66455078125,-5.90576171875,-0.78076171875
0.0405,4.10400390625,-6.38623046875,0.18017578125
0.041,3.06298828125,-6.58642578125,1.26123046875
0.0415,1.58154296875,-6.70654296875,2.82275390625
0.042,0.14013671875,-6.66650390625,4.42431640625
0.0425,-0.94091796875,-6.58642578125,5.30517578125
0.043,-1.58154296875,-6.54638671875,6.02587890625
0.0435,-2.54248046875,-5.98583984375,6.54638671875
0.044,-3.86376953125,-4.74462890625,6.90673828125
0.0445,-5.14501953125,-3.30322265625,7.06689453125
0.045,-6.02587890625,-1.90185546875,6.86669921875
0.0455,-6.38623046875,-0.90087890625,6.54638671875
0.046,-6.38623046875,0.02001953125,6.10595703125
0.0465,-6.22607421875,0.94091796875,5.30517578125
0.047,-5.94580078125,2.26220703125,3.98388671875
0.0475,-5.66552734375,3.58349609375,2.58251953125
0.048,-5.26513671875,4.58447265625,1.42138671875
0.0485,-4.82470703125,5.14501953125,0.50048828125
0.049,-4.14404296875,5.46533203125,-0.46044921875
0.0495,-3.06298828125,5.62548828125,-1.62158203125
0.05,-1.66162109375,5.82568359375,-3.06298828125
0.0505,-0.30029296875,5.82568359375,-4.46435546875
0.051,0.58056640625,5.78564453125,-5.26513671875
0.0515,1.22119140625,5.74560546875,-5.90576171875
0.052,2.22216796875,5.10498046875,-6.46630859375
0.0525,3.50341796875,3.86376953125,-6.74658203125
0.053,4.70458984375,2.50244140625,-6.90673828125
0.0535,5.42529296875,1.26123046875,-6.70654296875
0.054,5.74560546875,0.38037109375,-6.50634765625
0.0545,5.78564453125,-0.50048828125,-6.10595703125
0.055,5.70556640625,-1.46142578125,-5.22509765625
0.0555,5.42529296875,-2.78271484375,-3.98388671875
0.056,5.18505859375,-4.10400390625,-2.70263671875
0.0565,4.82470703125,-5.02490234375,-1.62158203125
0.057,4.46435546875,-5.70556640625,-0.78076171875
0.0575,3.74365234375,-6.10595703125,0.26025390625
0.058,2.58251953125,-6.22607421875,1.54150390625
0.0585,1.30126953125,-6.42626953125,3.06298828125
0.059,0.06005859375,-6.38623046875,4.22412109375
0.0595,-0.78076171875,-6.46630859375,5.10498046875
0.06,-1.54150390625,-6.34619140625,5.82568359375
0.0605,-2.58251953125,-5.62548828125,6.34619140625
0.061,-3.98388671875,-4.30419921875,6.62646484375
0.0615,-5.10498046875,-2.90283203125,6.66650390625
0.062,-5.74560546875,-1.78173828125,6.46630859375
0.0625,-6.02587890625,-0.98095703125,6.26611328125
0.063,-6.02587890625,0.02001953125,5.70556640625
0.0635,-5.78564453125,1.14111328125,4.70458984375
0.064,-5.66552734375,2.42236328125,3.50341796875
0.0645,-5.38525390625,3.54345703125,2.26220703125
0.065,-5.02490234375,4.34423828125,1.30126953125
0.0655,-4.62451171875,4.86474609375,0.50048828125
0.066,-3.82373046875,5.26513671875,-0.54052734375
0.0665,-2.58251953125,5.42529296875,-1.94189453125
0.067,-1.30126953125,5.62548828125,-3.34326171875
0.0675,-0.30029296875,5.58544921875,-4.34423828125
0.068,0.46044921875,5.74560546875,-5.14501953125
0.0685,1.30126953125,5.42529296875,-5.78564453125
0.069,2.50244140625,4.46435546875,-6.22607421875
0.0695,3.70361328125,3.22314453125,-6.46630859375
0.07,4.70458984375,1.94189453125,-6.42626953125
0.0705,5.18505859375,0.98095703125,-6.34619140625
0.071,5.42529296875,0.26025390625,-6.10595703125
0.0715,5.42529296875,-0.66064453125,-5.62548828125
0.072,5.22509765625,-1.82177734375,-4.54443359375
0.0725,5.10498046875,-3.14306640625,-3.38330078125
0.073,4.82470703125,-4.14404296875,-2.26220703125
0.0735,4.50439453125,-4.98486328125,-1.46142578125
0.074,4.10400390625,-5.42529296875,-0.62060546875
0.0745,3.22314453125,-5.74560546875,0.58056640625
0.075,2.10205078125,-5.98583984375,1.90185546875
0.0755,0.82080078125,-6.10595703125,3.22314453125
0.076,0.06005859375,-6.22607421875,4.14404296875
0.0765,-0.70068359375,-6.26611328125,4.94482421875
0.077,-1.62158203125,-5.90576171875,5.58544921875
0.0775,-2.86279296875,-4.90478515625,6.02587890625
0.078,-4.02392578125,-3.74365234375,6.26611328125
0.0785,-4.90478515625,-2.50244140625,6.18603515625
0.079,-5.42529296875,-1.70166015625,6.14599609375
0.0795,-5.58544921875,-0.98095703125,5.82568359375
0.08,-5.54541015625,0.06005859375,5.26513671875
0.0805,-5.46533203125,1.14111328125,4.26416015625
0.081,-5.30517578125,2.42236328125,3.10302734375
0.0815,-5.10498046875,3.34326171875,2.14208984375
0.082,-4.82470703125,4.14404296875,1.34130859375
0.0825,-4.34423828125,4.58447265625,0.50048828125
0.083,-3.34326171875,4.90478515625,-0.74072265625
0.0835,-2.30224609375,5.22509765625,-2.06201171875
0.084,-1.18115234375,5.30517578125,-3.26318359375
0.0845,-0.50048828125,5.50537109375,-4.18408203125
0.085,0.38037109375,5.54541015625,-4.98486328125
0.0855,1.30126953125,5.06494140625,-5.62548828125
0.086,2.58251953125,4.02392578125,-6.02587890625
0.0865,3.78369140625,2.82275390625,-6.18603515625
0.087,4.50439453125,1.78173828125,-6.14599609375
0.0875,4.94482421875,1.02099609375,-6.10595703125
0.088,5.10498046875,0.26025390625,-5.78564453125
0.0885,5.06494140625,-0.90087890625,-5.06494140625
0.089,4.98486328125,-2.06201171875,-4.10400390625
0.0895,4.82470703125,-3.22314453125,-3.06298828125
0.09,4.62451171875,-4.06396484375,-2.10205078125
0.0905,4.42431640625,-4.82470703125,-1.30126953125
0.091,3.82373046875,-5.26513671875,-0.46044921875
0.0915,2.78271484375,-5.54541015625,0.90087890625
0.092,1.62158203125,-5.82568359375,2.26220703125
0.0925,0.70068359375,-5.98583984375,3.34326171875
0.093,0.06005859375,-6.18603515625,4.22412109375
0.0935,-0.90087890625,-6.06591796875,4.98486328125
0.094,-1.98193359375,-5.34521484375,5.50537109375
0.0945,-3.18310546875,-4.34423828125,5.90576171875
0.095,-4.22412109375,-3.14306640625,5.98583984375
0.0955,-4.86474609375,-2.18212890625,5.94580078125
0.096,-5.18505859375,-1.50146484375,5.90576171875
0.0965,-5.30517578125,-0.70068359375,5.42529296875
0.097,-5.26513671875,0.42041015625,4.62451171875
0.0975,-5.26513671875,1.58154296875,3.66357421875
0.098,-5.06494140625,2.70263671875,2.66259765625
0.0985,-4.90478515625,3.50341796875,1.86181640625
0.099,-4.50439453125,4.14404296875,1.06103515625
0.0995,-3.82373046875,4.50439453125,0.06005859375
0.1,-2.86279296875,4.90478515625,-1.26123046875
0.1005,-1.78173828125,5.10498046875,-2.54248046875
0.101,-0.98095703125,5.30517578125,-3.54345703125
0.1015,-0.30029296875,5.50537109375,-4.38427734375
0.102,0.70068359375,5.26513671875,-5.10498046875
0.1025,1.90185546875,4.46435546875,-5.62548828125
0.103,3.06298828125,3.38330078125,-5.94580078125
0.1035,3.98388671875,2.26220703125,-6.02587890625
0.104,4.54443359375,1.50146484375,-6.06591796875
0.1045,4.86474609375,0.70068359375,-5.90576171875
0.105,4.98486328125,-0.26025390625,-5.42529296875
0.1055,4.90478515625,-1.34130859375,-4.54443359375
0.106,4.82470703125,-2.54248046875,-3.54345703125
0.1065,4.70458984375,-3.54345703125,-2.58251953125
0.107,4.50439453125,-4.34423828125,-1.78173828125
0.1075,4.10400390625,-4.86474609375,-0.98095703125
0.108,3.22314453125,-5.26513671875,0.26025390625
0.1085,2.26220703125,-5.70556640625,1.58154296875
0.109,1.22119140625,-5.82568359375,2.74267578125
0.1095,0.50048828125,-6.10595703125,3.70361328125
0.11,-0.38037109375,-6.14599609375,4.54443359375
0.1105,-1.38134765625,-5.74560546875,5.22509765625
0.111,-2.62255859375,-4.78466796875,5.70556640625
0.1115,-3.82373046875,-3.58349609375,5.90576171875
0.112,-4.58447265625,-2.54248046875,5.90576171875
0.1125,-5.06494140625,-1.86181640625,5.90576171875
0.113,-5.26513671875,-1.10107421875,5.62548828125
0.1135,-5.26513671875,0.02001953125,4.90478515625
0.114,-5.26513671875,1.18115234375,4.06396484375
0.1145,-5.14501953125,2.34228515625,3.02294921875
0.115,-4.98486328125,3.22314453125,2.14208984375
0.1155,-4.70458984375,3.90380859375,1.30126953125
0.116,-4.14404296875,4.42431640625,0.46044921875
0.1165,-3.18310546875,4.78466796875,-0.86083984375
0.117,-2.10205078125,5.10498046875,-2.22216796875
0.1175,-1.18115234375,5.26513671875,-3.26318359375
0.118,-0.50048828125,5.50537109375,-4.18408203125
0.1185,0.46044921875,5.38525390625,-4.98486328125
0.119,1.58154296875,4.66455078125,-5.50537109375
0.1195,2.82275390625,3.66357421875,-5.90576171875
0.12,3.86376953125,2.46240234375,-6.10595703125
0.1205,4.54443359375,1.54150390625,-6.10595703125
0.121,4.94482421875,0.78076171875,-6.02587890625
0.1215,5.02490234375,0.02001953125,-5.62548828125
0.122,4.98486328125,-1.22119140625,-4.74462890625
0.1225,4.94482421875,-2.42236328125,-3.70361328125
0.123,4.78466796875,-3.54345703125,-2.66259765625
0.1235,4.58447265625,-4.38427734375,-1.78173828125
0.124,4.18408203125,-4.98486328125,-0.98095703125
0.1245,3.42333984375,-5.38525390625,0.18017578125
0.125,2.38232421875,-5.74560546875,1.50146484375
0.1255,1.18115234375,-5.90576171875,2.86279296875
0.126,0.38037109375,-6.10595703125,3.82373046875
0.1265,-0.42041015625,-6.22607421875,4.66455078125
0.127,-1.38134765625,-5.86572265625,5.38525390625
0.1275,-2.66259765625,-4.90478515625,5.86572265625
0.128,-3.90380859375,-3.70361328125,6.14599609375
0.1285,-4.82470703125,-2.54248046875,6.10595703125
0.129,-5.26513671875,-1.74169921875,6.06591796875
0.1295,-5.54541015625,-0.98095703125,5.74560546875
0.13,-5.50537109375,0.14013671875,5.10498046875
0.1305,-5.42529296875,1.30126953125,4.14404296875
0.131,-5.30517578125,2.62255859375,2.94287109375
0.1315,-5.06494140625,3.54345703125,1.94189453125
0.132,-4.78466796875,4.22412109375,1.14111328125
0.1325,-4.18408203125,4.70458984375,0.30029296875
0.133,-3.14306640625,4.94482421875,-1.02099609375
0.1335,-2.02197265625,5.30517578125,-2.42236328125
0.134,-0.94091796875,5.42529296875,-3.62353515625
0.1345,-0.26025390625,5.58544921875,-4.50439453125
0.135,0.62060546875,5.50537109375,-5.26513671875
0.1355,1.66162109375,4.94482421875,-5.82568359375
0.136,3.02294921875,3.74365234375,-6.26611328125
0.1365,4.18408203125,2.42236328125,-6.38623046875
0.137,4.86474609375,1.34130859375,-6.26611328125
0.1375,5.18505859375,0.58056640625,-6.18603515625
0.138,5.30517578125,-0.30029296875,-5.74560546875
0.1385,5.18505859375,-1.42138671875,-4.82470703125
0.139,5.10498046875,-2.66259765625,-3.70361328125
0.1395,4.90478515625,-3.86376953125,-2.54248046875
0.14,4.62451171875,-4.70458984375,-1.62158203125
0.1405,4.30419921875,-5.30517578125,-0.82080078125
0.141,3.54345703125,-5.70556640625,0.26025390625
0.1415,2.38232421875,-5.90576171875,1.58154296875
0.142,1.10107421875,-6.14599609375,3.06298828125
0.1425,0.14013671875,-6.26611328125,4.10400390625
0.143,-0.62060546875,-6.38623046875,4.98486328125
0.1435,-1.54150390625,-6.10595703125,5.70556640625
0.144,-2.82275390625,-5.10498046875,6.18603515625
0.1445,-4.14404296875,-3.90380859375,6.46630859375
0.145,-5.14501953125,-2.58251953125,6.46630859375
0.1455,-5.74560546875,-1.58154296875,6.34619140625
0.146,-5.90576171875,-0.78076171875,6.06591796875
0.1465,-5.86572265625,0.30029296875,5.42529296875
0.147,-5.70556640625,1.54150390625,4.26416015625
0.1475,-5.58544921875,2.90283203125,3.02294921875
0.148,-5.26513671875,3.98388671875,1.86181640625
0.1485,-4.94482421875,4.74462890625,0.98095703125
0.149,-4.34423828125,5.14501953125,0.06005859375
0.1495,-3.34326171875,5.38525390625,-1.14111328125
0.15,-1.98193359375,5.66552734375,-2.70263671875
0.1505,-0.66064453125,5.74560546875,-4.14404296875
0.151,0.22021484375,5.78564453125,-5.02490234375
0.1515,0.94091796875,5.74560546875,-5.74560546875
0.152,2.02197265625,5.10498046875,-6.38623046875
0.1525,3.46337890625,3.82373046875,-6.74658203125
0.153,4.66455078125,2.42236328125,-6.90673828125
0.1535,5.42529296875,1.14111328125,-6.74658203125
0.154,5.82568359375,0.30029296875,-6.54638671875
0.1545,5.86572265625,-0.66064453125,-6.02587890625
0.155,5.74560546875,-1.78173828125,-5.10498046875
0.1555,5.46533203125,-3.18310546875,-3.70361328125
0.156,5.22509765625,-4.50439453125,-2.38232421875
0.1565,4.82470703125,-5.42529296875,-1.26123046875
0.157,4.38427734375,-5.98583984375,-0.42041015625
0.1575,3.54345703125,-6.26611328125,0.66064453125
0.158,2.22216796875,-6.42626953125,2.10205078125
0.1585,0.78076171875,-6.58642578125,3.70361328125
0.159,-0.50048828125,-6.54638671875,4.86474609375
0.1595,-1.22119140625,-6.54638671875,5.62548828125
0.16,-1.98193359375,-6.26611328125,6.26611328125
0.1605,-3.18310546875,-5.38525390625,6.74658203125
0.161,-4.62451171875,-3.90380859375,6.98681640625
0.1615,-5.74560546875,-2.46240234375,6.90673828125
0.162,-6.26611328125,-1.22119140625,6.66650390625
0.1625,-6.42626953125,-0.38037109375,6.34619140625
0.163,-6.34619140625,0.66064453125,5.62548828125
0.1635,-6.06591796875,1.94189453125,4.38427734375
0.164,-5.78564453125,3.26318359375,2.98291015625
0.1645,-5.42529296875,4.46435546875,1.66162109375
0.165,-4.98486328125,5.14501953125,0.70068359375
0.1655,-4.42431640625,5.58544921875,-0.26025390625
0.166,-3.50341796875,5.78564453125,-1.26123046875
0.1665,-1.94189453125,5.86572265625,-2.82275390625
0.167,-0.62060546875,5.98583984375,-4.30419921875
0.1675,0.54052734375,5.86572265625,-5.30517578125
0.168,1.18115234375,5.86572265625,-6.02587890625
0.1685,2.06201171875,5.34521484375,-6.54638671875
0.169,3.34326171875,4.18408203125,-6.94677734375
0.1695,4.58447265625,2.74267578125,-7.10693359375
0.17,5.58544921875,1.38134765625,-6.98681640625
0.1705,5.98583984375,0.34033203125,-6.66650390625
0.171,6.06591796875,-0.54052734375,-6.26611328125
0.1715,5.90576171875,-1.50146484375,-5.50537109375
0.172,5.62548828125,-2.82275390625,-4.18408203125
0.1725,5.38525390625,-4.14404296875,-2.86279296875
0.173,4.98486328125,-5.18505859375,-1.62158203125
0.1735,4.58447265625,-5.86572265625,-0.74072265625
0.174,3.90380859375,-6.22607421875,0.30029296875
0.1745,2.86279296875,-6.42626953125,1.42138671875
0.175,1.42138671875,-6.54638671875,2.94287109375
0.1755,0.02001953125,-6.54638671875,4.38427734375
0.176,-0.94091796875,-6.54638671875,5.26513671875
0.1765,-1.58154296875,-6.50634765625,5.94580078125
0.177,-2.62255859375,-5.82568359375,6.50634765625
0.1775,-3.98388671875,-4.58447265625,6.82666015625
0.178,-5.18505859375,-3.18310546875,6.98681640625
0.1785,-5.98583984375,-1.78173828125,6.74658203125
0.179,-6.30615234375,-0.90087890625,6.54638671875
0.1795,-6.34619140625,0.02001953125,6.02587890625
0.18,-6.18603515625,1.06103515625,5.14501953125
0.1805,-5.90576171875,2.42236328125,3.82373046875
0.181,-5.62548828125,3.78369140625,2.42236328125
0.1815,-5.26513671875,4.70458984375,1.30126953125
0.182,-4.82470703125,5.30517578125,0.46044921875
0.1825,-4.02392578125,5.62548828125,-0.62060546875
0.183,-2.78271484375,5.74560546875,-1.94189453125
0.1835,-1.42138671875,5.94580078125,-3.50341796875
0.184,0.02001953125,5.90576171875,-4.78466796875
0.1845,0.70068359375,5.90576171875,-5.58544921875
0.185,1.42138671875,5.70556640625,-6.26611328125
0.1855,2.58251953125,4.86474609375,-6.74658203125
0.186,3.98388671875,3.50341796875,-7.02685546875
0.1865,5.14501953125,2.06201171875,-7.06689453125
0.187,5.82568359375,0.78076171875,-6.78662109375
0.1875,6.06591796875,0.02001953125,-6.54638671875
0.188,6.02587890625,-1.02099609375,-5.90576171875
0.1885,5.82568359375,-2.26220703125,-4.78466796875
0.189,5.58544921875,-3.66357421875,-3.42333984375
0.1895,5.22509765625,-4.94482421875,-2.06201171875
0.19,4.82470703125,-5.70556640625,-1.02099609375
0.1905,4.30419921875,-6.26611328125,0.02001953125
0.191,3.34326171875,-6.50634765625,1.02099609375
0.1915,1.90185546875,-6.62646484375,2.58251953125
0.192,0.42041015625,-6.70654296875,4.14404296875
0.1925,-0.74072265625,-6.66650390625,5.14501953125
0.193,-1.42138671875,-6.66650390625,5.90576171875
0.1935,-2.38232421875,-6.18603515625,6.46630859375
0.194,-3.70361328125,-4.98486328125,6.90673828125
0.1945,-4.98486328125,-3.54345703125,7.06689453125
0.195,-5.98583984375,-2.02197265625,6.90673828125
0.1955,-6.38623046875,-0.98095703125,6.58642578125
0.196,-6.46630859375,-0.14013671875,6.18603515625
0.1965,-6.34619140625,0.94091796875,5.42529296875
0.197,-6.06591796875,2.26220703125,4.06396484375
0.1975,-5.74560546875,3.58349609375,2.66259765625
0.198,-5.34521484375,4.62451171875,1.42138671875
0.1985,-4.86474609375,5.26513671875,0.54052734375
0.199,-4.18408203125,5.62548828125,-0.46044921875
0.1995,-3.10302734375,5.74560546875,-1.58154296875
