wavelength,x,y,z
0.0,-18.453002929688,14.859497070312,2.7276611328125
0.0005,-19.293823242188,12.817504882812,5.6104736328125
0.001,-19.894409179688,10.214965820312,8.8135986328125
0.0015,-19.894409179688,6.5714111328125,12.377075195312
0.002,-19.253784179688,3.0479736328125,15.339965820312
0.0025,-17.452026367188,-0.7957763671875,17.301879882812
0.003,-15.770385742188,-4.1990966796875,19.143676757812
0.0035,-13.448120117188,-7.1619873046875,19.784301757812
0.004,-10.244995117188,-10.285034179688,19.864379882812
0.0045,-6.1209716796875,-13.768432617188,19.263793945312
0.005,-1.5565185546875,-16.451049804688,17.702270507812
0.0055,2.6876220703125,-18.212768554688,15.500122070312
0.006,5.6104736328125,-19.173706054688,13.778442382812
0.0065,8.8536376953125,-19.694213867188,11.215942382812
0.007,12.296997070312,-19.293823242188,7.5323486328125
0.0075,15.299926757812,-18.453002929688,3.8487548828125
0.008,17.622192382812,-16.611206054688,-0.3153076171875
0.0085,19.504028320312,-14.649291992188,-4.1190185546875
0.009,19.984497070312,-12.206909179688,-7.0819091796875
0.0095,20.424926757812,-9.2840576171875,-10.285034179688
0.01,20.064575195312,-5.4002685546875,-13.848510742188
0.0105,19.023559570312,-1.6365966796875,-16.611206054688
0.011,16.861450195312,2.2872314453125,-18.332885742188
0.0115,15.019653320312,5.4102783203125,-19.694213867188
0.012,12.337036132812,8.4532470703125,-20.214721679688
0.0125,8.4532470703125,11.936645507812,-19.894409179688
0.013,4.4493408203125,14.899536132812,-19.053588867188
0.0135,-0.1951904296875,17.301879882812,-17.011596679688
0.014,-4.1190185546875,18.943481445312,-15.009643554688
0.0145,-6.9617919921875,19.383911132812,-12.847534179688
0.015,-10.004760742188,19.864379882812,-10.405151367188
0.0155,-13.808471679688,19.223754882812,-6.1209716796875
0.016,-16.531127929688,17.862426757812,-2.2772216796875
0.0165,-18.453002929688,15.860473632812,1.7667236328125
0.017,-20.094604492188,13.898559570312,5.2100830078125
0.0175,-20.414916992188,11.135864257812,8.3331298828125
0.018,-20.575073242188,7.8126220703125,11.856567382812
0.0185,-20.094604492188,4.1290283203125,15.019653320312
0.019,-18.653198242188,0.2052001953125,17.582153320312
0.0195,-16.531127929688,-3.6785888671875,19.303833007812
0.02,-14.409057617188,-6.5213623046875,20.104614257812
0.0205,-11.806518554688,-9.5643310546875,20.625122070312
0.021,-7.0819091796875,-13.488159179688,19.944458007812
0.0215,-2.9178466796875,-16.090698242188,18.623168945312
0.022,1.4464111328125,-18.012573242188,16.501098632812
0.0225,5.0899658203125,-19.614135742188,14.659301757812
0.023,8.0528564453125,-19.734252929688,12.016723632812
0.0235,11.175903320312,-19.854370117188,9.1739501953125
0.024,14.739379882812,-19.213745117188,5.0899658203125
0.0245,17.301879882812,-17.452026367188,0.8858642578125
0.025,19.063598632812,-15.410034179688,-2.9979248046875
0.0255,20.184692382812,-13.328002929688,-6.1209716796875
0.026,20.585083007812,-10.525268554688,-9.2840576171875
0.0265,20.384887695312,-6.4813232421875,-13.127807617188
0.027,19.664184570312,-3.1580810546875,-15.690307617188
0.0275,17.822387695312,0.9259033203125,-17.932495117188
0.028,15.860473632812,4.5694580078125,-19.694213867188
0.0285,13.177856445312,7.4122314453125,-19.934448242188
0.029,10.575317382812,10.415161132812,-20.454956054688
0.0295,5.6905517578125,14.298950195312,-19.574096679688
0.03,1.3262939453125,16.741333007812,-17.892456054688
0.0305,-2.6375732421875,18.382934570312,-15.810424804688
0.031,-6.0408935546875,19.744262695312,-14.048706054688
0.0315,-9.2039794921875,19.864379882812,-11.165893554688
0.032,-12.607299804688,19.504028320312,-7.6424560546875
0.0325,-15.690307617188,18.863403320312,-3.9588623046875
0.033,-18.132690429688,16.741333007812,0.4854736328125
0.0335,-19.854370117188,14.739379882812,4.1690673828125
0.034,-20.494995117188,12.216918945312,7.3321533203125
0.0345,-21.015502929688,9.6143798828125,10.415161132812
0.035,-20.575073242188,5.1300048828125,14.459106445312
0.0355,-19.413940429688,1.5264892578125,16.941528320312
0.036,-17.452026367188,-2.3172607421875,18.823364257812
0.0365,-15.650268554688,-5.8006591796875,20.545043945312
0.037,-12.447143554688,-8.9237060546875,20.545043945312
0.0375,-9.0838623046875,-12.206909179688,20.625122070312
0.038,-4.5194091796875,-15.650268554688,19.704223632812
0.0385,0.4854736328125,-18.052612304688,17.421997070312
0.039,4.1290283203125,-19.453979492188,15.380004882812
0.0395,7.3721923828125,-20.294799804688,13.217895507812
0.04,10.535278320312,-20.535034179688,10.495239257812
0.0405,14.459106445312,-19.814331054688,5.8907470703125
0.041,17.141723632812,-18.613159179688,2.1671142578125
0.0415,19.303833007812,-16.491088867188,-2.1971435546875
0.042,20.825317382812,-14.328979492188,-5.7205810546875
0.0425,21.105590820312,-11.245971679688,-9.0438232421875
0.043,21.385864257812,-8.3231201171875,-12.206909179688
0.0435,20.745239257812,-4.0389404296875,-15.890502929688
0.044,19.063598632812,0.1251220703125,-18.332885742188
0.0445,16.821411132812,3.8087158203125,-19.854370117188
0.045,14.739379882812,7.1319580078125,-21.175659179688
0.0455,11.456176757812,10.295043945312,-21.175659179688
0.046,6.8917236328125,14.098754882812,-20.535034179688
0.0465,2.8477783203125,16.901489257812,-19.453979492188
0.047,-2.1971435546875,19.143676757812,-16.971557617188
0.0475,-5.7205810546875,20.344848632812,-14.929565429688
0.048,-9.0438232421875,20.625122070312,-12.126831054688
0.0485,-12.126831054688,20.785278320312,-9.3641357421875
0.049,-16.090698242188,19.784301757812,-4.5194091796875
0.0495,-18.573120117188,17.862426757812,-0.2752685546875
0.05,-20.294799804688,15.700317382812,3.6885986328125
0.0505,-21.536010742188,13.418090820312,7.0919189453125
0.051,-21.616088867188,10.094848632812,10.495239257812
0.0515,-21.495971679688,6.4112548828125,14.098754882812
0.052,-20.695190429688,2.6475830078125,17.021606445312
0.0525,-18.573120117188,-1.7967529296875,19.383911132812
0.053,-16.330932617188,-5.2801513671875,20.665161132812
0.0535,-13.808471679688,-8.4832763671875,21.425903320312
0.054,-10.725463867188,-11.526245117188,21.546020507812
0.0545,-5.2801513671875,-15.530151367188,20.344848632812
0.055,-1.0360107421875,-17.852416992188,18.623168945312
0.0555,3.3682861328125,-19.694213867188,16.300903320312
0.056,6.7315673828125,-20.775268554688,14.258911132812
0.0565,10.214965820312,-20.735229492188,10.935668945312
0.057,13.338012695312,-20.575073242188,7.8126220703125
0.0575,16.741333007812,-19.574096679688,3.4884033203125
0.058,19.183715820312,-17.171752929688,-1.2362060546875
0.0585,20.505004882812,-15.089721679688,-4.6395263671875
0.059,21.385864257812,-12.567260742188,-8.0028076171875
0.0595,21.465942382812,-9.5242919921875,-11.085815429688
0.06,20.945434570312,-5.1600341796875,-14.969604492188
0.0605,19.864379882812,-1.5965576171875,-17.371948242188
0.061,17.742309570312,2.6475830078125,-19.534057617188
0.0615,15.540161132812,5.9708251953125,-20.775268554688
0.062,12.337036132812,9.2540283203125,-20.895385742188
0.0625,9.2540283203125,12.377075195312,-21.135620117188
0.063,4.0889892578125,16.060668945312,-19.894409179688
0.0635,-0.5955810546875,18.262817382812,-17.612182617188
0.064,-4.2391357421875,19.704223632812,-15.650268554688
0.0645,-7.6024169921875,20.665161132812,-13.488159179688
0.065,-10.925659179688,20.545043945312,-10.244995117188
0.0655,-14.489135742188,19.984497070312,-6.2811279296875
0.066,-17.452026367188,18.823364257812,-2.2772216796875
0.0665,-19.694213867188,16.421020507812,2.4073486328125
0.067,-20.855346679688,14.338989257812,5.6104736328125
0.0675,-21.495971679688,11.336059570312,9.1339111328125
0.068,-21.616088867188,8.2930908203125,12.296997070312
0.0685,-20.895385742188,3.8487548828125,16.060668945312
0.069,-19.213745117188,0.0050048828125,18.342895507812
0.0695,-17.171752929688,-3.9989013671875,20.184692382812
0.07,-15.009643554688,-7.2020263671875,21.345825195312
0.0705,-11.486206054688,-10.525268554688,21.185668945312
0.071,-7.5623779296875,-13.968627929688,20.985473632812
0.0715,-2.7576904296875,-17.171752929688,19.584106445312
0.072,2.2071533203125,-19.253784179688,16.941528320312
0.0725,5.4903564453125,-20.414916992188,15.019653320312
0.073,8.8936767578125,-21.095581054688,12.497192382812
0.0735,12.256958007812,-20.935424804688,9.1339111328125
0.074,15.860473632812,-19.934448242188,4.7696533203125
0.0745,18.503051757812,-18.252807617188,0.6055908203125
0.075,20.545043945312,-15.930541992188,-3.8387451171875
0.0755,21.425903320312,-13.608276367188,-7.0018310546875
0.076,21.746215820312,-10.244995117188,-10.605346679688
0.0765,21.626098632812,-6.8416748046875,-13.968627929688
0.077,20.745239257812,-2.7176513671875,-17.211791992188
0.0775,18.503051757812,1.7266845703125,-19.293823242188
0.078,16.340942382812,5.1700439453125,-20.735229492188
0.0785,13.898559570312,8.4932861328125,-21.656127929688
0.079,10.174926757812,11.816528320312,-21.415893554688
0.0795,5.6104736328125,15.380004882812,-20.575073242188
0.08,1.0860595703125,18.062622070312,-18.973510742188
0.0805,-3.7586669921875,19.984497070312,-16.411010742188
0.081,-6.8416748046875,20.785278320312,-14.328979492188
0.0815,-10.365112304688,21.105590820312,-11.406127929688
0.082,-13.808471679688,20.825317382812,-7.7625732421875
0.0825,-17.211791992188,19.664184570312,-3.3582763671875
0.083,-19.534057617188,17.462036132812,1.1260986328125
0.0835,-21.295776367188,15.219848632812,5.0899658203125
0.084,-21.936401367188,12.577270507812,8.3331298828125
0.0845,-22.056518554688,9.0938720703125,11.976684570312
0.085,-21.536010742188,5.1300048828125,15.420043945312
0.0855,-20.374877929688,1.2061767578125,18.262817382812
0.086,-18.012573242188,-3.2381591796875,20.344848632812
0.0865,-15.730346679688,-6.4412841796875,21.305786132812
0.087,-12.967651367188,-9.7645263671875,21.906372070312
0.0875,-8.9637451171875,-13.287963867188,21.546020507812
0.088,-4.1190185546875,-16.531127929688,20.184692382812
0.0885,0.5655517578125,-18.853393554688,18.062622070312
0.089,4.7696533203125,-20.615112304688,15.860473632812
0.0895,7.8526611328125,-21.095581054688,13.418090820312
0.09,11.255981445312,-21.095581054688,10.335083007812
0.0905,14.859497070312,-20.494995117188,6.3712158203125
0.091,17.822387695312,-19.093627929688,2.0469970703125
0.0915,19.864379882812,-16.691284179688,-2.4373779296875
0.092,21.185668945312,-14.609252929688,-5.7606201171875
0.0925,21.746215820312,-11.726440429688,-9.1639404296875
0.093,21.666137695312,-8.1229248046875,-12.687377929688
0.0935,20.985473632812,-4.1990966796875,-15.890502929688
0.094,19.383911132812,-0.2752685546875,-18.292846679688
0.0945,17.221801757812,3.9288330078125,-20.294799804688
0.095,14.739379882812,6.9718017578125,-20.895385742188
0.0955,11.816528320312,10.134887695312,-21.295776367188
0.096,7.4923095703125,13.858520507812,-20.855346679688
0.0965,2.8477783203125,16.781372070312,-19.453979492188
0.097,-1.7166748046875,18.703247070312,-17.051635742188
0.0975,-5.2801513671875,20.224731445312,-15.209838867188
0.098,-8.4432373046875,20.625122070312,-12.647338867188
0.0985,-11.806518554688,20.464965820312,-9.3240966796875
0.099,-15.249877929688,19.864379882812,-5.4002685546875
0.0995,-17.972534179688,18.102661132812,-0.9959716796875
0.1,-19.974487304688,15.820434570312,3.2481689453125
0.1005,-20.855346679688,13.538208007812,6.3712158203125
0.101,-21.415893554688,10.695434570312,9.8145751953125
0.1015,-21.295776367188,6.8516845703125,13.498168945312
0.102,-20.454956054688,3.0479736328125,16.501098632812
0.1025,-18.533081054688,-0.9959716796875,18.543090820312
0.103,-16.611206054688,-4.7996826171875,20.464965820312
0.1035,-13.968627929688,-7.8026123046875,20.985473632812
0.104,-10.765502929688,-11.045776367188,21.065551757812
0.1045,-6.3612060546875,-14.689331054688,20.424926757812
0.105,-1.5965576171875,-17.572143554688,18.703247070312
0.1055,2.8878173828125,-19.293823242188,16.300903320312
0.106,5.9708251953125,-20.334838867188,14.419067382812
0.1065,9.4141845703125,-20.735229492188,11.696411132812
0.107,12.977661132812,-20.294799804688,7.8526611328125
0.1075,16.100708007812,-19.453979492188,4.0889892578125
0.108,18.543090820312,-17.452026367188,-0.3553466796875
0.1085,20.505004882812,-15.329956054688,-4.4393310546875
0.109,20.985473632812,-12.687377929688,-7.4822998046875
0.1095,21.465942382812,-9.7645263671875,-10.845581054688
0.11,21.065551757812,-5.6405029296875,-14.609252929688
0.1105,19.984497070312,-1.7967529296875,-17.411987304688
0.111,17.782348632812,2.2872314453125,-19.213745117188
0.1115,15.860473632812,5.7305908203125,-20.815307617188
0.112,12.937622070312,8.9737548828125,-21.175659179688
0.1125,8.9737548828125,12.457153320312,-20.975463867188
0.113,4.6895751953125,15.620239257812,-20.054565429688
0.1135,-0.1951904296875,18.182739257812,-18.052612304688
0.114,-4.3592529296875,19.944458007812,-15.770385742188
0.1145,-7.4022216796875,20.464965820312,-13.488159179688
0.115,-10.645385742188,20.945434570312,-10.885620117188
0.1155,-14.649291992188,20.184692382812,-6.2811279296875
0.116,-17.411987304688,18.903442382812,-2.3973388671875
0.1165,-19.534057617188,16.741333007812,1.9268798828125
0.117,-21.295776367188,14.659301757812,5.6905517578125
0.1175,-21.616088867188,11.616333007812,8.9337158203125
0.118,-21.776245117188,8.2930908203125,12.497192382812
0.1185,-21.175659179688,4.2891845703125,15.900512695312
0.119,-19.654174804688,0.0850830078125,18.583129882812
0.1195,-17.331909179688,-3.9188232421875,20.304809570312
0.12,-15.089721679688,-7.0819091796875,21.265747070312
0.1205,-12.206909179688,-10.285034179688,21.746215820312
0.121,-7.3621826171875,-14.248901367188,21.025512695312
0.1215,-3.1580810546875,-16.971557617188,19.664184570312
0.122,1.5665283203125,-19.053588867188,17.341918945312
0.1225,5.4903564453125,-20.695190429688,15.339965820312
0.123,8.6134033203125,-20.775268554688,12.497192382812
0.1235,11.776489257812,-20.975463867188,9.6944580078125
0.124,15.620239257812,-20.134643554688,5.1700439453125
0.1245,18.302856445312,-18.252807617188,0.8057861328125
0.125,20.104614257812,-16.010620117188,-3.2381591796875
0.1255,21.225708007812,-13.888549804688,-6.5614013671875
0.126,21.586059570312,-10.845581054688,-9.8846435546875
0.1265,21.385864257812,-6.8817138671875,-13.728393554688
0.127,20.625122070312,-3.3582763671875,-16.411010742188
0.1275,18.743286132812,0.9659423828125,-18.853393554688
0.128,16.541137695312,4.8096923828125,-20.494995117188
0.1285,13.778442382812,7.7325439453125,-20.855346679688
0.129,11.175903320312,10.855590820312,-21.335815429688
0.1295,5.8907470703125,14.859497070312,-20.454956054688
0.13,1.4864501953125,17.341918945312,-18.733276367188
0.1305,-2.6375732421875,19.063598632812,-16.491088867188
0.131,-6.1610107421875,20.464965820312,-14.609252929688
0.1315,-9.4041748046875,20.464965820312,-11.566284179688
0.132,-12.767456054688,20.224731445312,-8.1629638671875
0.1325,-16.010620117188,19.463989257812,-4.2791748046875
0.133,-18.533081054688,17.301879882812,0.2852783203125
0.1335,-20.054565429688,15.219848632812,4.0489501953125
0.134,-21.015502929688,12.697387695312,7.2921142578125
0.1345,-21.375854492188,10.014770507812,10.415161132812
0.135,-20.975463867188,5.4903564453125,14.539184570312
0.1355,-19.894409179688,1.9669189453125,16.981567382812
0.136,-17.972534179688,-1.9569091796875,18.943481445312
0.1365,-16.010620117188,-5.6405029296875,20.705200195312
0.137,-12.887573242188,-8.6834716796875,20.705200195312
0.1375,-9.7645263671875,-11.846557617188,20.905395507812
0.138,-5.1199951171875,-15.490112304688,19.984497070312
0.1385,-0.1551513671875,-17.852416992188,17.782348632812
0.139,3.6085205078125,-19.293823242188,15.740356445312
0.1395,6.8116455078125,-20.334838867188,13.738403320312
0.14,9.9747314453125,-20.494995117188,10.935668945312
0.1405,13.898559570312,-19.814331054688,6.5313720703125
0.141,16.621215820312,-18.853393554688,2.9278564453125
0.1415,18.823364257812,-16.651245117188,-1.3563232421875
0.142,20.384887695312,-14.729370117188,-4.9598388671875
0.1425,20.705200195312,-11.766479492188,-8.2030029296875
0.143,21.105590820312,-9.0037841796875,-11.286010742188
0.1435,20.585083007812,-4.6795654296875,-15.089721679688
0.144,19.103637695312,-0.7156982421875,-17.572143554688
0.1445,16.941528320312,2.9678955078125,-19.133666992188
0.145,15.179809570312,6.3311767578125,-20.695190429688
0.1455,11.936645507812,9.4542236328125,-20.775268554688
0.146,7.6925048828125,13.097778320312,-20.374877929688
0.1465,3.6885986328125,16.060668945312,-19.413940429688
0.147,-1.2762451171875,18.302856445312,-17.051635742188
0.1475,-4.7996826171875,19.704223632812,-15.089721679688
0.148,-8.0428466796875,20.104614257812,-12.607299804688
0.1485,-11.045776367188,20.464965820312,-9.9647216796875
0.149,-15.089721679688,19.504028320312,-5.2401123046875
0.1495,-17.572143554688,17.942504882812,-1.1561279296875
0.15,-19.494018554688,15.820434570312,2.7276611328125
0.1505,-20.815307617188,13.778442382812,6.1710205078125
0.151,-21.015502929688,10.575317382812,9.4542236328125
0.1515,-21.055541992188,7.1719970703125,12.937622070312
0.152,-20.494995117188,3.3682861328125,16.100708007812
0.1525,-18.573120117188,-0.9158935546875,18.543090820312
0.153,-16.411010742188,-4.5594482421875,19.864379882812
0.1535,-14.168823242188,-7.5623779296875,20.865356445312
0.154,-11.125854492188,-10.565307617188,21.065551757812
0.1545,-5.9608154296875,-14.609252929688,20.024536132812
0.155,-1.9168701171875,-17.051635742188,18.543090820312
0.1555,2.5675048828125,-18.973510742188,16.380981445312
0.156,6.0108642578125,-20.214721679688,14.379028320312
0.1565,9.1739501953125,-20.334838867188,11.336059570312
0.157,12.296997070312,-20.214721679688,8.3731689453125
0.1575,15.940551757812,-19.253784179688,4.1290283203125
0.158,18.302856445312,-17.171752929688,-0.5155029296875
0.1585,19.824340820312,-15.129760742188,-3.9188232421875
0.159,20.785278320312,-12.807495117188,-7.2020263671875
0.1595,20.945434570312,-9.8446044921875,-10.244995117188
0.16,20.585083007812,-5.6405029296875,-14.048706054688
0.1605,19.704223632812,-2.3172607421875,-16.651245117188
0.161,17.622192382812,1.8468017578125,-18.773315429688
0.1615,15.580200195312,5.3302001953125,-20.014526367188
0.162,12.737426757812,8.3331298828125,-20.374877929688
0.1625,9.6944580078125,11.496215820312,-20.655151367188
0.163,4.6495361328125,15.219848632812,-19.494018554688
0.1635,0.2052001953125,17.421997070312,-17.452026367188
0.164,-3.5184326171875,18.943481445312,-15.530151367188
0.1645,-6.7615966796875,20.064575195312,-13.448120117188
0.165,-9.9647216796875,19.864379882812,-10.565307617188
0.1655,-13.448120117188,19.383911132812,-6.7615966796875
0.166,-16.370971679688,18.503051757812,-2.9578857421875
0.1665,-18.573120117188,16.220825195312,1.5264892578125
0.167,-19.854370117188,14.258911132812,4.6495361328125
0.1675,-20.494995117188,11.576293945312,7.9327392578125
0.168,-20.615112304688,8.7735595703125,11.015747070312
0.1685,-20.174682617188,4.4893798828125,14.739379882812
0.169,-18.773315429688,0.8057861328125,17.021606445312
0.1695,-16.971557617188,-2.8377685546875,18.903442382812
0.17,-15.009643554688,-6.0408935546875,20.184692382812
0.1705,-11.806518554688,-9.0438232421875,20.144653320312
0.171,-8.2030029296875,-12.487182617188,20.064575195312
0.1715,-3.7586669921875,-15.690307617188,18.943481445312
0.172,1.1260986328125,-17.652221679688,16.581176757812
0.1725,4.2091064453125,-18.853393554688,14.859497070312
0.173,7.3721923828125,-19.814331054688,12.657348632812
0.1735,10.455200195312,-19.854370117188,9.7344970703125
0.174,14.138793945312,-18.973510742188,5.5303955078125
0.1745,16.661254882812,-17.652221679688,1.7667236328125
0.175,18.703247070312,-15.650268554688,-2.3172607421875
0.1755,19.744262695312,-13.568237304688,-5.3602294921875
0.176,19.984497070312,-10.725463867188,-8.6033935546875
0.1765,20.224731445312,-7.6824951171875,-11.846557617188
0.177,19.664184570312,-3.8387451171875,-15.089721679688
0.1775,17.782348632812,0.2852783203125,-17.291870117188
0.178,16.020629882812,3.5684814453125,-18.813354492188
