wavelength,x,y,z
0.0,-21.48095703125,10.83056640625,9.66943359375
0.0005,-20.92041015625,6.70654296875,13.39306640625
0.001,-20.15966796875,2.70263671875,16.51611328125
0.0015,-18.55810546875,-1.34130859375,19.03857421875
0.002,-16.51611328125,-5.26513671875,20.88037109375
0.0025,-13.75341796875,-8.18798828125,21.08056640625
0.003,-10.39013671875,-11.31103515625,21.00048828125
0.0035,-5.74560546875,-14.99462890625,20.19970703125
0.004,-0.94091796875,-18.11767578125,18.71826171875
0.0045,3.54345703125,-19.99951171875,16.47607421875
0.005,6.70654296875,-20.88037109375,14.39404296875
0.0055,9.90966796875,-21.12060546875,11.63134765625
0.006,13.39306640625,-20.43994140625,7.66748046875
0.0065,16.47607421875,-19.67919921875,4.02392578125
0.007,19.19873046875,-17.95751953125,-0.34033203125
0.0075,21.00048828125,-15.71533203125,-4.34423828125
0.008,21.20068359375,-13.11279296875,-7.30712890625
0.0085,21.28076171875,-9.94970703125,-10.51025390625
0.009,20.60009765625,-5.62548828125,-14.11376953125
0.0095,19.71923828125,-1.66162109375,-17.23681640625
0.01,17.75732421875,2.38232421875,-19.23876953125
0.0105,15.67529296875,5.78564453125,-20.72021484375
0.011,12.67236328125,8.90869140625,-20.88037109375
0.0115,8.70849609375,12.35205078125,-20.47998046875
0.012,4.50439453125,15.63525390625,-19.67919921875
0.0125,-0.42041015625,18.51806640625,-17.87744140625
0.013,-4.50439453125,20.19970703125,-15.75537109375
0.0135,-7.38720703125,20.52001953125,-13.43310546875
0.014,-10.55029296875,20.68017578125,-10.71044921875
0.0145,-14.23388671875,19.87939453125,-6.34619140625
0.015,-17.03662109375,18.87841796875,-2.62255859375
0.0155,-19.27880859375,17.03662109375,1.38134765625
0.016,-20.80029296875,14.75439453125,4.94482421875
0.0165,-20.80029296875,11.91162109375,7.94775390625
0.017,-20.80029296875,8.46826171875,11.35107421875
0.0175,-20.15966796875,4.54443359375,14.75439453125
0.018,-19.07861328125,0.34033203125,17.83740234375
0.0185,-16.95654296875,-3.54345703125,19.67919921875
0.019,-14.83447265625,-6.50634765625,20.52001953125
0.0195,-11.95166015625,-9.62939453125,20.88037109375
0.02,-7.26708984375,-13.43310546875,20.03955078125
0.0205,-3.18310546875,-16.35595703125,19.11865234375
0.021,1.54150390625,-18.83837890625,17.15673828125
0.0215,5.38525390625,-20.43994140625,15.15478515625
0.022,8.26806640625,-20.43994140625,12.51220703125
0.0225,11.39111328125,-20.52001953125,9.66943359375
0.023,15.11474609375,-19.79931640625,5.42529296875
0.0235,17.95751953125,-18.39794921875,1.26123046875
0.024,19.87939453125,-16.51611328125,-2.58251953125
0.0245,20.92041015625,-14.23388671875,-5.90576171875
0.025,20.84033203125,-11.23095703125,-9.02880859375
0.0255,20.56005859375,-7.14697265625,-12.79248046875
0.026,20.03955078125,-3.46337890625,-15.83544921875
0.0265,18.59814453125,0.86083984375,-18.59814453125
0.027,16.35595703125,4.78466796875,-20.35986328125
0.0275,13.63330078125,7.74755859375,-20.60009765625
0.028,10.75048828125,10.87060546875,-21.08056640625
0.0285,5.50537109375,14.95458984375,-20.03955078125
0.029,1.10107421875,17.75732421875,-18.59814453125
0.0295,-3.14306640625,19.71923828125,-16.63623046875
0.03,-6.70654296875,21.04052734375,-14.59423828125
0.0305,-9.82958984375,20.80029296875,-11.51123046875
0.031,-13.19287109375,20.43994140625,-7.90771484375
0.0315,-16.51611328125,19.75927734375,-4.10400390625
0.032,-19.19873046875,17.91748046875,0.50048828125
0.0325,-20.84033203125,15.67529296875,4.26416015625
0.033,-21.44091796875,13.03271484375,7.38720703125
0.0335,-21.48095703125,9.98974609375,10.55029296875
0.034,-20.80029296875,5.26513671875,14.67431640625
0.0345,-19.87939453125,1.54150390625,17.47705078125
0.035,-18.19775390625,-2.54248046875,19.87939453125
0.0355,-15.99560546875,-6.26611328125,21.44091796875
0.036,-12.71240234375,-9.26904296875,21.20068359375
0.0365,-9.26904296875,-12.63232421875,21.24072265625
0.037,-4.30419921875,-16.47607421875,20.23974609375
0.0375,0.82080078125,-19.19873046875,18.19775390625
0.038,4.62451171875,-20.68017578125,16.15576171875
0.0385,7.98779296875,-21.56103515625,13.83349609375
0.039,11.19091796875,-21.32080078125,10.71044921875
0.0395,14.95458984375,-20.47998046875,6.22607421875
0.04,17.91748046875,-19.59912109375,2.50244140625
0.0405,20.35986328125,-17.63720703125,-1.94189453125
0.041,21.60107421875,-15.23486328125,-5.50537109375
0.0415,21.64111328125,-12.11181640625,-8.66845703125
0.042,21.68115234375,-8.86865234375,-11.99169921875
0.0425,20.92041015625,-4.18408203125,-15.91552734375
0.043,19.47900390625,0.06005859375,-18.71826171875
0.0435,17.35693359375,3.86376953125,-20.43994140625
0.044,15.11474609375,7.34716796875,-21.72119140625
0.0445,11.47119140625,10.51025390625,-21.40087890625
0.045,7.10693359375,14.23388671875,-20.76025390625
0.0455,2.74267578125,17.47705078125,-19.87939453125
0.046,-2.46240234375,19.99951171875,-17.47705078125
0.0465,-5.98583984375,21.08056640625,-15.35498046875
0.047,-9.14892578125,21.36083984375,-12.59228515625
0.0475,-12.23193359375,21.24072265625,-9.58935546875
0.048,-16.11572265625,20.11962890625,-4.82470703125
0.0485,-18.83837890625,18.59814453125,-0.70068359375
0.049,-20.76025390625,16.55615234375,3.18310546875
0.0495,-21.72119140625,14.15380859375,6.58642578125
0.05,-21.44091796875,10.67041015625,9.78955078125
0.0505,-21.20068359375,7.06689453125,13.23291015625
0.051,-20.52001953125,2.94287109375,16.71630859375
0.0515,-18.79833984375,-1.58154296875,19.43896484375
0.052,-16.51611328125,-5.10498046875,20.76025390625
0.0525,-14.11376953125,-8.26806640625,21.64111328125
0.053,-10.71044921875,-11.47119140625,21.44091796875
0.0535,-5.42529296875,-15.39501953125,20.23974609375
0.054,-1.14111328125,-18.19775390625,19.03857421875
0.0545,3.46337890625,-20.35986328125,16.87646484375
0.055,6.90673828125,-21.32080078125,14.67431640625
0.0555,10.22998046875,-21.16064453125,11.39111328125
0.056,13.35302734375,-21.00048828125,8.18798828125
0.0565,16.95654296875,-20.03955078125,3.86376953125
0.057,19.59912109375,-18.07763671875,-0.78076171875
0.0575,21.00048828125,-15.91552734375,-4.18408203125
0.058,21.72119140625,-13.39306640625,-7.46728515625
0.0585,21.44091796875,-9.94970703125,-10.63037109375
0.059,20.80029296875,-5.58544921875,-14.35400390625
0.0595,19.99951171875,-1.78173828125,-17.35693359375
0.06,18.19775390625,2.62255859375,-19.87939453125
0.0605,15.63525390625,6.14599609375,-20.96044921875
0.061,12.63232421875,9.26904296875,-21.20068359375
0.0615,9.18896484375,12.59228515625,-21.16064453125
0.062,3.86376953125,16.51611328125,-19.91943359375
0.0625,-0.90087890625,19.03857421875,-17.99755859375
0.063,-4.66455078125,20.64013671875,-16.03564453125
0.0635,-7.98779296875,21.36083984375,-13.71337890625
0.064,-11.31103515625,20.92041015625,-10.18994140625
0.0645,-14.63427734375,20.31982421875,-6.42626953125
0.065,-17.79736328125,19.31884765625,-2.46240234375
0.0655,-20.19970703125,17.15673828125,2.18212890625
0.066,-21.12060546875,14.79443359375,5.34521484375
0.0665,-21.52099609375,11.99169921875,8.66845703125
0.067,-21.32080078125,8.54833984375,11.83154296875
0.0675,-20.52001953125,4.02392578125,15.63525390625
0.068,-19.31884765625,0.06005859375,18.35791015625
0.0685,-17.43701171875,-3.86376953125,20.43994140625
0.069,-15.03466796875,-7.10693359375,21.32080078125
0.0695,-11.51123046875,-10.27001953125,21.08056640625
0.07,-7.62744140625,-13.75341796875,20.76025390625
0.0705,-2.70263671875,-17.31689453125,19.51904296875
0.071,2.30224609375,-19.59912109375,17.19677734375
0.0715,5.54541015625,-20.68017578125,15.23486328125
0.072,8.78857421875,-21.28076171875,12.79248046875
0.0725,12.03173828125,-20.84033203125,9.30908203125
0.073,15.51513671875,-19.99951171875,5.14501953125
0.0735,18.35791015625,-18.67822265625,1.14111328125
0.074,20.47998046875,-16.55615234375,-3.14306640625
0.0745,21.08056640625,-14.11376953125,-6.10595703125
0.075,21.16064453125,-10.87060546875,-9.46923828125
0.0755,20.88037109375,-7.42724609375,-12.75244140625
0.076,20.23974609375,-3.18310546875,-16.27587890625
0.0765,18.47802734375,1.10107421875,-18.71826171875
0.077,16.43603515625,4.62451171875,-20.23974609375
0.0775,13.99365234375,7.78759765625,-21.08056640625
0.078,10.22998046875,11.03076171875,-20.64013671875
0.0785,5.78564453125,14.59423828125,-19.91943359375
0.079,1.30126953125,17.75732421875,-18.75830078125
0.0795,-3.38330078125,19.87939453125,-16.39599609375
0.08,-6.42626953125,20.52001953125,-14.31396484375
0.0805,-9.66943359375,20.76025390625,-11.59130859375
0.081,-12.95263671875,20.31982421875,-8.06787109375
0.0815,-16.27587890625,19.39892578125,-3.94384765625
0.082,-18.83837890625,17.71728515625,0.26025390625
0.0825,-20.47998046875,15.63525390625,3.98388671875
0.083,-21.00048828125,13.11279296875,7.02685546875
0.0835,-20.84033203125,9.62939453125,10.22998046875
0.084,-20.35986328125,5.74560546875,13.75341796875
0.0845,-19.63916015625,1.78173828125,16.99658203125
0.085,-17.75732421875,-2.50244140625,19.35888671875
0.0855,-15.55517578125,-5.58544921875,20.31982421875
0.086,-12.99267578125,-8.70849609375,20.96044921875
0.0865,-9.06884765625,-12.11181640625,20.47998046875
0.087,-4.38427734375,-15.51513671875,19.47900390625
0.0875,0.18017578125,-18.23779296875,17.79736328125
0.088,4.34423828125,-20.11962890625,15.83544921875
0.0885,7.22705078125,-20.56005859375,13.51318359375
0.089,10.51025390625,-20.56005859375,10.51025390625
0.0895,13.95361328125,-19.99951171875,6.70654296875
0.09,17.15673828125,-18.99853515625,2.70263671875
0.0905,19.39892578125,-17.07666015625,-1.58154296875
0.091,20.64013671875,-14.95458984375,-4.82470703125
0.0915,20.92041015625,-12.35205078125,-7.98779296875
0.092,20.80029296875,-8.54833984375,-11.39111328125
0.0925,20.15966796875,-4.62451171875,-14.75439453125
0.093,19.07861328125,-0.62060546875,-17.67724609375
0.0935,17.11669921875,3.54345703125,-19.87939453125
0.094,14.59423828125,6.58642578125,-20.39990234375
0.0945,11.67138671875,9.74951171875,-20.80029296875
0.095,7.34716796875,13.43310546875,-20.23974609375
0.0955,2.74267578125,16.67626953125,-19.07861328125
0.096,-1.86181640625,18.91845703125,-17.03662109375
0.0965,-5.54541015625,20.47998046875,-15.11474609375
0.097,-8.46826171875,20.64013671875,-12.59228515625
0.0975,-11.79150390625,20.39990234375,-9.18896484375
0.098,-15.15478515625,19.79931640625,-5.42529296875
0.0985,-18.19775390625,18.43798828125,-1.14111328125
0.099,-20.19970703125,16.27587890625,3.06298828125
0.0995,-20.88037109375,13.91357421875,6.06591796875
0.1,-21.20068359375,10.91064453125,9.30908203125
0.1005,-20.76025390625,6.90673828125,12.99267578125
0.101,-20.03955078125,2.98291015625,16.19580078125
0.1015,-18.51806640625,-1.14111328125,18.71826171875
0.102,-16.51611328125,-4.98486328125,20.64013671875
0.1025,-13.79345703125,-7.90771484375,20.92041015625
0.103,-10.47021484375,-11.07080078125,20.88037109375
0.1035,-5.90576171875,-14.79443359375,20.15966796875
0.104,-1.10107421875,-17.95751953125,18.71826171875
0.1045,3.38330078125,-19.87939453125,16.51611328125
0.105,6.54638671875,-20.88037109375,14.47412109375
0.1055,9.74951171875,-21.04052734375,11.71142578125
0.106,13.27294921875,-20.43994140625,7.78759765625
0.1065,16.39599609375,-19.71923828125,4.14404296875
0.107,19.15869140625,-18.07763671875,-0.30029296875
0.1075,21.00048828125,-15.87548828125,-4.30419921875
0.108,21.24072265625,-13.15283203125,-7.22705078125
0.1085,21.44091796875,-9.98974609375,-10.55029296875
0.109,20.84033203125,-5.70556640625,-14.35400390625
0.1095,19.91943359375,-1.70166015625,-17.47705078125
0.11,17.95751953125,2.42236328125,-19.55908203125
0.1105,15.87548828125,5.94580078125,-21.08056640625
0.111,12.79248046875,9.10888671875,-21.20068359375
0.1115,8.70849609375,12.67236328125,-20.80029296875
0.112,4.42431640625,15.99560546875,-19.99951171875
0.1125,-0.66064453125,18.91845703125,-18.11767578125
0.113,-4.82470703125,20.56005859375,-15.91552734375
0.1135,-7.70751953125,20.96044921875,-13.59326171875
0.114,-10.91064453125,21.12060546875,-10.75048828125
0.1145,-14.75439453125,20.23974609375,-6.26611328125
0.115,-17.63720703125,19.19873046875,-2.42236328125
0.1155,-19.91943359375,17.31689453125,1.74169921875
0.116,-21.44091796875,15.03466796875,5.50537109375
0.1165,-21.40087890625,11.95166015625,8.50830078125
0.117,-21.40087890625,8.42822265625,12.03173828125
0.1175,-20.72021484375,4.34423828125,15.51513671875
0.118,-19.47900390625,0.02001953125,18.55810546875
0.1185,-17.23681640625,-3.98388671875,20.35986328125
0.119,-15.07470703125,-6.98681640625,21.28076171875
0.1195,-11.99169921875,-10.22998046875,21.48095703125
0.12,-7.06689453125,-14.07373046875,20.56005859375
0.1205,-2.90283203125,-17.07666015625,19.51904296875
0.121,1.94189453125,-19.59912109375,17.47705078125
0.1215,5.82568359375,-21.08056640625,15.39501953125
0.122,8.78857421875,-21.00048828125,12.59228515625
0.1225,11.91162109375,-21.08056640625,9.66943359375
0.123,15.71533203125,-20.19970703125,5.26513671875
0.1235,18.59814453125,-18.71826171875,0.98095703125
0.124,20.43994140625,-16.71630859375,-2.94287109375
0.1245,21.48095703125,-14.39404296875,-6.22607421875
0.125,21.44091796875,-11.19091796875,-9.34912109375
0.1255,21.08056640625,-7.02685546875,-13.23291015625
0.126,20.43994140625,-3.34326171875,-16.23583984375
0.1265,18.87841796875,1.02099609375,-19.07861328125
0.127,16.51611328125,4.94482421875,-20.68017578125
0.1275,13.79345703125,7.86767578125,-20.92041015625
0.128,10.83056640625,11.03076171875,-21.24072265625
0.1285,5.50537109375,15.07470703125,-20.19970703125
0.129,1.14111328125,17.87744140625,-18.71826171875
0.1295,-3.10302734375,19.87939453125,-16.71630859375
0.13,-6.70654296875,21.12060546875,-14.63427734375
0.1305,-9.74951171875,20.84033203125,-11.51123046875
0.131,-13.11279296875,20.47998046875,-8.02783203125
0.1315,-16.43603515625,19.79931640625,-4.18408203125
0.132,-19.15869140625,17.95751953125,0.38037109375
0.1325,-20.64013671875,15.67529296875,4.06396484375
0.133,-21.20068359375,13.15283203125,7.10693359375
0.1335,-21.28076171875,10.10986328125,10.22998046875
0.134,-20.64013671875,5.42529296875,14.27392578125
0.1345,-19.71923828125,1.78173828125,17.03662109375
0.135,-18.07763671875,-2.22216796875,19.39892578125
0.1355,-15.87548828125,-5.90576171875,21.00048828125
0.136,-12.71240234375,-8.82861328125,20.76025390625
0.1365,-9.46923828125,-12.11181640625,20.84033203125
0.137,-4.50439453125,-15.91552734375,19.87939453125
0.1375,0.50048828125,-18.55810546875,17.95751953125
0.138,4.18408203125,-20.11962890625,15.95556640625
0.1385,7.46728515625,-21.04052734375,13.79345703125
0.139,10.59033203125,-20.88037109375,10.79052734375
0.1395,14.31396484375,-20.11962890625,6.46630859375
0.14,17.27685546875,-19.31884765625,2.86279296875
0.1405,19.71923828125,-17.43701171875,-1.46142578125
0.141,21.00048828125,-15.11474609375,-4.98486328125
0.1415,21.08056640625,-12.15185546875,-8.06787109375
0.142,21.24072265625,-9.10888671875,-11.27099609375
0.1425,20.56005859375,-4.50439453125,-15.23486328125
0.143,19.23876953125,-0.38037109375,-18.03759765625
0.1435,17.23681640625,3.38330078125,-19.79931640625
0.144,15.07470703125,6.86669921875,-21.12060546875
0.1445,11.51123046875,9.98974609375,-20.88037109375
0.145,7.22705078125,13.63330078125,-20.43994140625
0.1455,3.02294921875,16.95654296875,-19.59912109375
0.146,-2.18212890625,19.51904296875,-17.31689453125
0.1465,-5.66552734375,20.72021484375,-15.23486328125
0.147,-8.82861328125,21.04052734375,-12.63232421875
0.1475,-11.91162109375,21.00048828125,-9.70947265625
0.148,-15.83544921875,19.95947265625,-4.94482421875
0.1485,-18.55810546875,18.55810546875,-0.90087890625
0.149,-20.47998046875,16.55615234375,3.02294921875
0.1495,-21.48095703125,14.15380859375,6.38623046875
0.15,-21.28076171875,10.75048828125,9.62939453125
0.1505,-21.12060546875,7.14697265625,13.07275390625
0.151,-20.47998046875,3.02294921875,16.55615234375
0.1515,-18.75830078125,-1.46142578125,19.27880859375
0.152,-16.43603515625,-5.02490234375,20.60009765625
0.1525,-14.07373046875,-8.14794921875,21.44091796875
0.153,-10.71044921875,-11.31103515625,21.20068359375
0.1535,-5.46533203125,-15.19482421875,20.11962890625
0.154,-1.22119140625,-18.03759765625,18.91845703125
0.1545,3.42333984375,-20.19970703125,16.71630859375
0.155,6.82666015625,-21.12060546875,14.51416015625
0.1555,10.06982421875,-21.00048828125,11.35107421875
0.156,13.15283203125,-20.80029296875,8.26806640625
0.1565,16.75634765625,-19.87939453125,3.86376953125
0.157,19.43896484375,-17.95751953125,-0.66064453125
0.1575,20.80029296875,-15.87548828125,-4.06396484375
0.158,21.48095703125,-13.35302734375,-7.30712890625
0.1585,21.20068359375,-9.94970703125,-10.39013671875
0.159,20.60009765625,-5.62548828125,-14.11376953125
0.1595,19.87939453125,-1.94189453125,-17.11669921875
0.16,18.03759765625,2.38232421875,-19.59912109375
0.1605,15.59521484375,5.82568359375,-20.68017578125
0.161,12.63232421875,8.94873046875,-20.92041015625
0.1615,9.26904296875,12.23193359375,-20.88037109375
0.162,4.02392578125,16.07568359375,-19.71923828125
0.1625,-0.62060546875,18.63818359375,-17.87744140625
0.163,-4.34423828125,20.23974609375,-15.95556640625
0.1635,-7.62744140625,21.00048828125,-13.71337890625
0.164,-10.83056640625,20.60009765625,-10.27001953125
0.1645,-14.11376953125,19.99951171875,-6.58642578125
0.165,-17.23681640625,19.07861328125,-2.70263671875
0.1655,-19.63916015625,16.95654296875,1.78173828125
0.166,-20.52001953125,14.75439453125,4.86474609375
0.1665,-21.00048828125,12.03173828125,8.06787109375
0.167,-20.80029296875,8.74853515625,11.15087890625
0.1675,-19.99951171875,4.34423828125,14.95458984375
0.168,-18.91845703125,0.38037109375,17.63720703125
0.1685,-17.15673828125,-3.46337890625,19.71923828125
0.169,-14.87451171875,-6.70654296875,20.68017578125
0.1695,-11.51123046875,-9.74951171875,20.47998046875
0.17,-7.78759765625,-13.11279296875,20.31982421875
0.1705,-3.02294921875,-16.67626953125,19.23876953125
0.171,1.94189453125,-19.07861328125,16.95654296875
0.1715,5.10498046875,-20.19970703125,15.11474609375
0.172,8.30810546875,-20.80029296875,12.79248046875
0.1725,11.47119140625,-20.47998046875,9.50927734375
0.173,14.99462890625,-19.67919921875,5.38525390625
0.1735,17.83740234375,-18.51806640625,1.46142578125
0.174,19.99951171875,-16.47607421875,-2.70263671875
0.1745,20.56005859375,-14.11376953125,-5.62548828125
0.175,20.68017578125,-10.95068359375,-8.90869140625
0.1755,20.47998046875,-7.58740234375,-12.07177734375
0.176,19.87939453125,-3.46337890625,-15.67529296875
0.1765,18.19775390625,0.82080078125,-18.23779296875
0.177,16.23583984375,4.26416015625,-19.79931640625
0.1775,13.83349609375,7.50732421875,-20.64013671875
0.178,10.22998046875,10.71044921875,-20.31982421875
0.1785,5.82568359375,14.31396484375,-19.63916015625
0.179,1.42138671875,17.35693359375,-18.55810546875
0.1795,-3.26318359375,19.51904296875,-16.31591796875
0.18,-6.22607421875,20.23974609375,-14.23388671875
0.1805,-9.42919921875,20.47998046875,-11.51123046875
0.181,-12.63232421875,20.15966796875,-8.14794921875
0.1815,-15.99560546875,19.23876953125,-3.98388671875
0.182,-18.55810546875,17.59716796875,0.18017578125
0.1825,-20.23974609375,15.51513671875,3.86376953125
0.183,-20.76025390625,12.99267578125,6.86669921875
0.1835,-20.64013671875,9.62939453125,10.10986328125
0.184,-20.15966796875,5.74560546875,13.47314453125
0.1845,-19.43896484375,1.86181640625,16.75634765625
0.185,-17.59716796875,-2.42236328125,19.07861328125
0.1855,-15.39501953125,-5.42529296875,20.03955078125
0.186,-12.87255859375,-8.54833984375,20.68017578125
0.1865,-9.06884765625,-11.87158203125,20.31982421875
0.187,-4.42431640625,-15.39501953125,19.23876953125
0.1875,0.14013671875,-17.95751953125,17.63720703125
0.188,4.22412109375,-19.87939453125,15.67529296875
0.1885,7.10693359375,-20.31982421875,13.43310546875
0.189,10.31005859375,-20.27978515625,10.43017578125
0.1895,13.63330078125,-19.79931640625,6.78662109375
0.19,16.79638671875,-18.83837890625,2.78271484375
0.1905,19.11865234375,-16.87646484375,-1.46142578125
0.191,20.23974609375,-14.75439453125,-4.62451171875
0.1915,20.72021484375,-12.11181640625,-7.74755859375
