wavelength,x,y,z
0.0,8.2530517578125,-22.737182617188,14.859497070312
0.0005,11.496215820312,-22.176635742188,11.135864257812
0.001,14.739379882812,-21.415893554688,7.1719970703125
0.0015,18.262817382812,-19.934448242188,2.3272705078125
0.002,21.425903320312,-17.812377929688,-2.8778076171875
0.0025,22.426879882812,-15.770385742188,-5.8807373046875
0.003,22.787231445312,-12.967651367188,-9.0037841796875
0.0035,22.066528320312,-8.9637451171875,-12.206909179688
0.004,20.865356445312,-3.9188232421875,-16.050659179688
0.0045,19.544067382812,0.4454345703125,-19.013549804688
0.005,18.062622070312,4.6094970703125,-21.736206054688
0.0055,15.540161132812,7.8526611328125,-22.617065429688
0.006,11.856567382812,10.975708007812,-22.216674804688
0.0065,7.7325439453125,14.459106445312,-21.776245117188
0.007,2.1671142578125,18.182739257812,-20.174682617188
0.0075,-3.1981201171875,21.225708007812,-18.132690429688
0.008,-6.5213623046875,22.546997070312,-16.411010742188
0.0085,-9.7645263671875,23.147583007812,-14.048706054688
0.009,-13.167846679688,22.266723632812,-9.8846435546875
0.0095,-16.651245117188,20.945434570312,-5.1600341796875
0.01,-19.894409179688,19.423950195312,-0.4754638671875
0.0105,-22.657104492188,17.261840820312,4.4893798828125
0.011,-23.137573242188,14.739379882812,7.4122314453125
0.0115,-23.017456054688,11.296020507812,10.655395507812
0.012,-22.176635742188,6.9718017578125,14.138793945312
0.0125,-20.775268554688,1.9669189453125,17.782348632812
0.013,-19.093627929688,-2.7176513671875,20.705200195312
0.0135,-17.331909179688,-6.2811279296875,22.627075195312
0.014,-14.769409179688,-9.4041748046875,23.267700195312
0.0145,-10.365112304688,-12.687377929688,22.346801757812
0.015,-5.7606201171875,-16.170776367188,21.425903320312
0.0155,-0.4354248046875,-19.534057617188,19.704223632812
0.016,4.7296142578125,-22.216674804688,17.582153320312
0.0165,7.6524658203125,-22.937377929688,15.540161132812
0.017,10.895629882812,-23.137573242188,12.737426757812
0.0175,14.338989257812,-22.176635742188,8.3731689453125
0.018,17.782348632812,-20.494995117188,3.4083251953125
0.0185,20.865356445312,-18.733276367188,-1.4364013671875
0.019,22.987426757812,-16.691284179688,-5.4803466796875
0.0195,23.187622070312,-13.888549804688,-8.4031982421875
0.02,22.587036132812,-9.9647216796875,-11.806518554688
0.0205,21.666137695312,-5.5604248046875,-15.209838867188
0.021,20.344848632812,-0.9158935546875,-18.533081054688
0.0215,18.503051757812,3.8087158203125,-21.295776367188
0.022,16.380981445312,6.9718017578125,-22.456909179688
0.0225,13.578247070312,10.054809570312,-22.897338867188
0.023,8.8936767578125,13.458129882812,-21.856323242188
0.0235,3.8487548828125,16.941528320312,-20.535034179688
0.024,-1.2362060546875,20.184692382812,-18.973510742188
0.0245,-5.6405029296875,22.426879882812,-17.051635742188
0.025,-8.4832763671875,22.707153320312,-14.689331054688
0.0255,-11.726440429688,22.466918945312,-11.446166992188
0.026,-15.209838867188,21.465942382812,-7.0819091796875
0.0265,-18.493041992188,19.784301757812,-2.1170654296875
0.027,-21.415893554688,17.782348632812,2.7276611328125
0.0275,-22.777221679688,15.660278320312,6.0909423828125
0.028,-22.817260742188,12.737426757812,9.0938720703125
0.0285,-22.016479492188,8.3731689453125,12.617309570312
0.029,-20.855346679688,3.8887939453125,15.940551757812
0.0295,-19.574096679688,-0.6356201171875,19.183715820312
0.03,-17.892456054688,-4.9197998046875,21.746215820312
0.0305,-15.410034179688,-7.7625732421875,22.266723632812
0.031,-12.367065429688,-10.805541992188,22.426879882812
0.0315,-7.5623779296875,-14.449096679688,21.465942382812
0.032,-2.4373779296875,-17.692260742188,19.824340820312
0.0325,2.4473876953125,-20.575073242188,18.062622070312
0.033,6.1309814453125,-22.376831054688,16.380981445312
0.0335,9.0538330078125,-22.496948242188,13.778442382812
0.034,12.377075195312,-21.816284179688,9.9747314453125
0.0345,15.860473632812,-20.775268554688,5.6104736328125
0.035,19.143676757812,-19.133666992188,0.7657470703125
0.0355,21.706176757812,-17.171752929688,-3.7987060546875
0.036,22.426879882812,-14.889526367188,-6.7215576171875
0.0365,22.426879882812,-11.766479492188,-9.7645263671875
0.037,21.465942382812,-7.0819091796875,-13.488159179688
0.0375,20.224731445312,-2.7977294921875,-16.531127929688
0.038,18.863403320312,1.6065673828125,-19.574096679688
0.0385,17.181762695312,5.4503173828125,-21.776245117188
0.039,14.338989257812,8.3331298828125,-21.936401367188
0.0395,10.775512695312,11.496215820312,-21.656127929688
0.04,5.8907470703125,15.299926757812,-20.815307617188
0.0405,0.7657470703125,18.543090820312,-19.173706054688
0.041,-3.8787841796875,20.985473632812,-17.331909179688
0.0415,-7.0018310546875,22.146606445312,-15.650268554688
0.042,-9.9647216796875,22.266723632812,-12.807495117188
0.0425,-13.448120117188,21.265747070312,-8.4832763671875
0.043,-16.651245117188,20.024536132812,-4.1990966796875
0.0435,-19.934448242188,18.302856445312,0.8057861328125
0.044,-21.976440429688,16.300903320312,4.7696533203125
0.0445,-22.136596679688,13.658325195312,7.5323486328125
0.045,-21.936401367188,10.214965820312,10.775512695312
0.0455,-20.935424804688,5.3702392578125,14.499145507812
0.046,-19.614135742188,1.0860595703125,17.582153320312
0.0465,-18.092651367188,-3.1580810546875,20.224731445312
0.047,-16.370971679688,-6.4813232421875,21.906372070312
0.0475,-13.408081054688,-9.3240966796875,21.826293945312
0.048,-9.2039794921875,-12.567260742188,21.105590820312
0.0485,-4.5594482421875,-16.010620117188,20.144653320312
0.049,0.7657470703125,-19.293823242188,18.382934570312
0.0495,4.7696533203125,-21.335815429688,16.621215820312
0.05,7.5723876953125,-21.816284179688,14.579223632812
0.0505,10.695434570312,-21.776245117188,11.576293945312
0.051,14.379028320312,-20.575073242188,6.8516845703125
0.0515,17.301879882812,-19.253784179688,2.6475830078125
0.052,20.264770507812,-17.572143554688,-1.9569091796875
0.0525,21.826293945312,-15.650268554688,-5.4403076171875
0.053,21.626098632812,-12.687377929688,-8.0828857421875
0.0535,21.185668945312,-8.9237060546875,-11.446166992188
0.054,20.184692382812,-4.4393310546875,-14.889526367188
0.0545,18.943481445312,0.0050048828125,-18.052612304688
0.055,17.301879882812,3.8487548828125,-20.254760742188
0.0555,15.219848632812,6.8516845703125,-21.295776367188
0.056,12.216918945312,9.7344970703125,-21.295776367188
0.0565,7.2921142578125,13.458129882812,-20.334838867188
0.057,3.0479736328125,16.461059570312,-19.213745117188
0.0575,-1.9569091796875,19.504028320312,-17.652221679688
0.058,-5.5604248046875,21.225708007812,-16.010620117188
0.0585,-8.2030029296875,21.265747070312,-13.528198242188
0.059,-11.245971679688,21.065551757812,-10.485229492188
0.0595,-15.009643554688,19.864379882812,-5.6405029296875
0.06,-17.972534179688,18.302856445312,-1.1961669921875
0.0605,-20.374877929688,16.661254882812,2.8477783203125
0.061,-21.495971679688,14.579223632812,5.9708251953125
0.0615,-21.135620117188,11.456176757812,8.7735595703125
0.062,-20.454956054688,7.0518798828125,12.417114257812
0.0625,-19.453979492188,3.0880126953125,15.380004882812
0.063,-18.292846679688,-1.3963623046875,18.623168945312
0.0635,-16.611206054688,-4.8797607421875,20.505004882812
0.064,-14.248901367188,-7.5623779296875,20.905395507812
0.0645,-11.205932617188,-10.525268554688,20.905395507812
0.065,-5.9207763671875,-14.409057617188,19.784301757812
0.0655,-1.4364013671875,-17.331909179688,18.342895507812
0.066,2.8477783203125,-19.774291992188,16.941528320312
0.0665,6.0909423828125,-21.135620117188,15.299926757812
0.067,8.8536376953125,-20.895385742188,12.457153320312
0.0675,12.016723632812,-20.374877929688,8.8936767578125
0.068,15.500122070312,-19.333862304688,4.4893798828125
0.0685,18.623168945312,-17.692260742188,-0.3153076171875
0.069,20.464965820312,-16.010620117188,-3.7186279296875
0.0695,21.065551757812,-13.728393554688,-6.5614013671875
0.07,20.785278320312,-10.525268554688,-9.4842529296875
0.0705,19.904418945312,-5.7606201171875,-13.328002929688
0.071,18.863403320312,-1.9569091796875,-16.050659179688
0.0715,17.662231445312,2.1671142578125,-18.973510742188
0.072,15.940551757812,5.4903564453125,-20.615112304688
0.0725,12.977661132812,8.1729736328125,-20.494995117188
0.073,9.5743408203125,11.255981445312,-20.334838867188
0.0735,4.4893798828125,15.059692382812,-19.333862304688
0.074,-0.4754638671875,18.222778320312,-17.732299804688
0.0745,-3.9989013671875,20.104614257812,-16.290893554688
0.075,-7.0418701171875,21.105590820312,-14.529174804688
0.0755,-9.9246826171875,20.785278320312,-11.446166992188
0.076,-13.488159179688,19.864379882812,-7.0819091796875
0.0765,-16.451049804688,18.703247070312,-3.0780029296875
0.077,-19.494018554688,17.021606445312,1.6065673828125
0.0775,-20.815307617188,15.179809570312,4.7696533203125
0.078,-20.775268554688,12.377075195312,7.4122314453125
0.0785,-20.494995117188,8.9737548828125,10.535278320312
0.079,-19.494018554688,4.1290283203125,14.379028320312
0.0795,-18.252807617188,0.0450439453125,17.301879882812
0.08,-16.931518554688,-3.5584716796875,19.504028320312
0.0805,-15.209838867188,-6.6414794921875,20.865356445312
0.081,-11.846557617188,-9.3641357421875,20.384887695312
0.0815,-7.6424560546875,-12.807495117188,19.744262695312
0.082,-3.1981201171875,-15.970581054688,18.703247070312
0.0825,1.7667236328125,-18.933471679688,17.061645507812
0.083,4.9298095703125,-20.254760742188,15.500122070312
0.0835,7.6925048828125,-20.695190429688,13.338012695312
0.084,10.615356445312,-20.374877929688,10.255004882812
0.0845,14.379028320312,-19.173706054688,5.4102783203125
0.085,17.221801757812,-17.892456054688,1.2862548828125
0.0855,19.584106445312,-16.370971679688,-2.5574951171875
0.086,20.545043945312,-14.409057617188,-5.4403076171875
0.0865,20.104614257812,-11.286010742188,-8.0028076171875
0.087,19.584106445312,-7.5223388671875,-11.326049804688
0.0875,18.703247070312,-3.3582763671875,-14.569213867188
0.088,17.542114257812,0.9259033203125,-17.612182617188
0.0885,15.980590820312,4.0089111328125,-19.173706054688
0.089,13.938598632812,6.7716064453125,-20.094604492188
0.0895,10.695434570312,9.6143798828125,-19.734252929688
0.09,5.7305908203125,13.418090820312,-18.733276367188
0.0905,1.6065673828125,16.260864257812,-17.692260742188
0.091,-2.5975341796875,18.863403320312,-16.330932617188
0.0915,-5.5203857421875,19.984497070312,-14.769409179688
0.092,-8.1229248046875,19.824340820312,-12.206909179688
0.0925,-11.045776367188,19.504028320312,-9.0838623046875
0.093,-14.529174804688,18.302856445312,-4.5194091796875
0.0935,-17.452026367188,16.781372070312,0.0050048828125
0.094,-19.093627929688,15.339965820312,2.9678955078125
0.0945,-19.814331054688,13.257934570312,5.6905517578125
0.095,-19.293823242188,10.094848632812,8.3331298828125
0.0955,-18.613159179688,5.8106689453125,11.856567382812
0.096,-17.812377929688,2.1270751953125,14.739379882812
0.0965,-16.851440429688,-1.7967529296875,17.662231445312
0.097,-15.169799804688,-4.7596435546875,18.983520507812
0.0975,-12.807495117188,-7.2420654296875,19.183715820312
0.098,-9.7244873046875,-10.084838867188,19.103637695312
0.0985,-4.6795654296875,-13.808471679688,17.982543945312
0.099,-0.3153076171875,-16.651245117188,16.701293945312
0.0995,2.9278564453125,-18.573120117188,15.620239257812
0.1,5.7305908203125,-19.574096679688,14.058715820312
0.1005,8.4532470703125,-19.213745117188,11.095825195312
0.101,11.656372070312,-18.613159179688,7.4122314453125
0.1015,14.779418945312,-17.692260742188,3.4884033203125
0.102,17.662231445312,-16.250854492188,-0.7957763671875
0.1025,18.783325195312,-14.729370117188,-3.3983154296875
0.103,19.143676757812,-12.367065429688,-6.0408935546875
0.1035,18.823364257812,-9.2440185546875,-8.8436279296875
0.104,18.022583007812,-4.7996826171875,-12.487182617188
0.1045,17.141723632812,-1.0760498046875,-15.369995117188
0.105,16.260864257812,2.2471923828125,-17.772338867188
0.1055,14.539184570312,5.1300048828125,-18.973510742188
0.106,11.536254882812,7.8126220703125,-18.733276367188
0.1065,7.9327392578125,11.055786132812,-18.533081054688
0.107,3.4083251953125,14.459106445312,-17.652221679688
0.1075,-1.2762451171875,17.421997070312,-16.170776367188
0.108,-3.9989013671875,18.823364257812,-15.009643554688
0.1085,-6.7215576171875,19.504028320312,-13.167846679688
0.109,-9.6043701171875,19.103637695312,-10.124877929688
0.1095,-13.047729492188,18.102661132812,-5.7606201171875
0.11,-16.010620117188,17.101684570312,-1.8367919921875
0.1105,-18.453002929688,15.660278320312,1.9669189453125
0.111,-19.213745117188,13.778442382812,4.6094970703125
0.1115,-19.093627929688,10.935668945312,7.2520751953125
0.112,-18.653198242188,7.4122314453125,10.335083007812
0.1125,-17.892456054688,3.2081298828125,13.738403320312
0.113,-16.771362304688,-0.9959716796875,16.741333007812
0.1135,-15.530151367188,-3.8387451171875,18.422973632812
0.114,-13.768432617188,-6.5213623046875,19.463989257812
0.1145,-10.285034179688,-9.2840576171875,18.903442382812
0.115,-5.9608154296875,-12.767456054688,18.182739257812
0.1155,-1.7166748046875,-15.850463867188,17.261840820312
0.116,2.6075439453125,-18.453002929688,15.820434570312
0.1165,5.1300048828125,-19.333862304688,14.338989257812
0.117,7.8927001953125,-19.534057617188,11.976684570312
0.1175,10.895629882812,-19.093627929688,8.6534423828125
0.118,14.258911132812,-17.932495117188,4.2091064453125
0.1185,17.261840820312,-16.611206054688,0.0050048828125
0.119,18.983520507812,-15.169799804688,-3.1580810546875
0.1195,19.504028320312,-13.087768554688,-5.7606201171875
0.12,19.063598632812,-9.7645263671875,-8.5633544921875
0.1205,18.382934570312,-5.8807373046875,-11.806518554688
0.121,17.622192382812,-2.0369873046875,-14.889526367188
0.1215,16.461059570312,2.0469970703125,-17.772338867188
0.122,14.739379882812,4.8096923828125,-18.813354492188
0.1225,12.537231445312,7.4122314453125,-19.373901367188
0.123,8.9337158203125,10.495239257812,-18.893432617188
0.1235,4.1690673828125,13.938598632812,-17.852416992188
0.124,-0.1951904296875,16.901489257812,-16.691284179688
0.1245,-3.7186279296875,18.943481445312,-15.410034179688
0.125,-6.3211669921875,19.584106445312,-13.648315429688
0.1255,-9.1639404296875,19.343872070312,-10.725463867188
0.126,-12.246948242188,18.703247070312,-7.0819091796875
0.1265,-15.410034179688,17.502075195312,-2.8778076171875
0.127,-18.212768554688,15.900512695312,1.5264892578125
0.1275,-19.253784179688,14.298950195312,4.1290283203125
0.128,-19.574096679688,11.856567382812,6.7716064453125
0.1285,-18.973510742188,8.2530517578125,9.7745361328125
0.129,-18.092651367188,4.0889892578125,13.057739257812
0.1295,-17.211791992188,0.2452392578125,15.980590820312
0.13,-16.090698242188,-3.2781982421875,18.503051757812
0.1305,-14.168823242188,-5.9207763671875,19.223754882812
0.131,-11.406127929688,-8.5233154296875,19.223754882812
0.1315,-7.5623779296875,-11.846557617188,18.783325195312
0.132,-2.8377685546875,-15.089721679688,17.542114257812
0.1325,1.6065673828125,-17.812377929688,16.140747070312
0.133,4.4493408203125,-19.253784179688,14.939575195312
0.1335,7.1719970703125,-19.774291992188,12.897583007812
0.134,10.134887695312,-19.213745117188,9.5343017578125
0.1345,13.297973632812,-18.332885742188,5.5704345703125
0.135,16.340942382812,-17.171752929688,1.4464111328125
0.1355,18.863403320312,-15.650268554688,-2.5574951171875
0.136,19.423950195312,-13.728393554688,-4.9998779296875
0.1365,19.463989257812,-11.005737304688,-7.7625732421875
0.137,18.863403320312,-7.1219482421875,-11.045776367188
0.1375,17.942504882812,-3.1180419921875,-14.128784179688
0.138,16.821411132812,0.9659423828125,-16.971557617188
0.1385,15.620239257812,4.0489501953125,-18.933471679688
0.139,13.418090820312,6.7716064453125,-19.494018554688
0.1395,9.9346923828125,9.6544189453125,-19.093627929688
0.14,5.7706298828125,13.057739257812,-18.493041992188
0.1405,1.2061767578125,16.260864257812,-17.331909179688
0.141,-3.0780029296875,18.743286132812,-15.770385742188
0.1415,-5.6405029296875,19.664184570312,-14.369018554688
0.142,-8.4031982421875,19.904418945312,-12.006713867188
0.1425,-11.646362304688,19.183715820312,-8.2030029296875
0.143,-14.729370117188,18.022583007812,-4.0389404296875
0.1435,-17.692260742188,16.661254882812,0.2852783203125
0.144,-19.614135742188,15.059692382812,3.7686767578125
0.1445,-19.854370117188,12.697387695312,6.2510986328125
0.145,-19.534057617188,9.4141845703125,9.2540283203125
0.1455,-18.773315429688,5.2501220703125,12.537231445312
0.146,-17.852416992188,1.2862548828125,15.660278320312
0.1465,-16.531127929688,-2.6776123046875,18.262817382812
0.147,-15.009643554688,-5.4403076171875,19.544067382812
0.1475,-12.567260742188,-8.1229248046875,19.904418945312
0.148,-8.4832763671875,-11.286010742188,19.183715820312
0.1485,-4.1990966796875,-14.449096679688,18.222778320312
0.149,0.4854736328125,-17.532104492188,16.941528320312
0.1495,4.2091064453125,-19.574096679688,15.460083007812
0.15,6.6915283203125,-19.974487304688,13.578247070312
0.1505,9.6143798828125,-19.974487304688,10.815551757812
0.151,13.057739257812,-19.093627929688,6.5714111328125
0.1515,15.980590820312,-17.812377929688,2.4473876953125
0.152,18.743286132812,-16.370971679688,-1.7567138671875
0.1525,20.104614257812,-14.649291992188,-4.7596435546875
0.153,20.064575195312,-12.006713867188,-7.3621826171875
0.1535,19.544067382812,-8.2030029296875,-10.645385742188
0.154,18.623168945312,-4.1590576171875,-13.688354492188
0.1545,17.662231445312,0.0050048828125,-16.811401367188
0.155,16.260864257812,3.6885986328125,-19.093627929688
0.1555,14.178833007812,6.3311767578125,-19.814331054688
0.156,11.456176757812,9.1339111328125,-20.014526367188
0.1565,6.7315673828125,12.777465820312,-19.173706054688
0.157,2.4473876953125,15.740356445312,-17.972534179688
0.1575,-2.0770263671875,18.543090820312,-16.651245117188
0.158,-5.4002685546875,20.264770507812,-15.169799804688
0.1585,-8.0028076171875,20.304809570312,-12.807495117188
0.159,-10.965698242188,19.984497070312,-9.6444091796875
0.1595,-14.449096679688,18.943481445312,-5.2401123046875
0.16,-17.492065429688,17.462036132812,-0.7957763671875
0.1605,-19.734252929688,15.820434570312,3.0880126953125
0.161,-20.535034179688,13.778442382812,5.8907470703125
0.1615,-20.374877929688,10.775512695312,8.6934814453125
0.162,-19.694213867188,6.3712158203125,12.296997070312
0.1625,-18.613159179688,2.5274658203125,15.179809570312
0.163,-17.532104492188,-1.7567138671875,18.222778320312
0.1635,-15.970581054688,-5.1600341796875,20.184692382812
0.164,-13.448120117188,-7.7225341796875,20.344848632812
0.1645,-10.285034179688,-10.605346679688,20.224731445312
0.165,-5.2801513671875,-14.409057617188,19.223754882812
0.1655,-0.5955810546875,-17.371948242188,17.742309570312
0.166,3.4483642578125,-19.654174804688,16.300903320312
0.1665,6.4913330078125,-20.895385742188,14.699340820312
0.167,9.2940673828125,-20.735229492188,11.856567382812
0.1675,12.617309570312,-20.014526367188,7.9727783203125
0.168,15.780395507812,-18.933471679688,3.7686767578125
0.1685,18.943481445312,-17.371948242188,-0.9959716796875
0.169,20.665161132812,-15.650268554688,-4.3592529296875
0.1695,20.945434570312,-13.087768554688,-7.0819091796875
0.17,20.705200195312,-9.8045654296875,-10.124877929688
0.1705,19.784301757812,-4.9998779296875,-13.928588867188
0.171,18.583129882812,-1.0360107421875,-16.731323242188
0.1715,17.301879882812,2.9278564453125,-19.373901367188
0.172,15.540161132812,6.2510986328125,-20.975463867188
0.1725,12.337036132812,8.9737548828125,-20.695190429688
0.173,8.5733642578125,12.216918945312,-20.334838867188
0.1735,3.7286376953125,15.860473632812,-19.293823242188
0.174,-1.4764404296875,19.063598632812,-17.652221679688
0.1745,-5.0399169921875,20.825317382812,-16.050659179688
0.175,-8.0028076171875,21.586059570312,-14.048706054688
0.1755,-11.045776367188,21.265747070312,-10.885620117188
0.176,-14.729370117188,20.104614257812,-6.1209716796875
0.1765,-17.652221679688,18.743286132812,-1.9569091796875
0.177,-20.575073242188,17.021606445312,2.6876220703125
0.1775,-21.776245117188,14.979614257812,5.9307861328125
0.178,-21.536010742188,11.816528320312,8.7335205078125
