wavelength,x,y,z
0.0,-6.7215576171875,20.985473632812,-14.449096679688
0.0005,-9.8846435546875,20.865356445312,-11.526245117188
0.001,-13.127807617188,20.665161132812,-8.2030029296875
0.0015,-16.651245117188,19.544067382812,-3.8387451171875
0.002,-19.373901367188,17.502075195312,0.9659423828125
0.0025,-20.494995117188,15.580200195312,3.8887939453125
0.003,-21.055541992188,13.297973632812,6.8917236328125
0.0035,-21.015502929688,10.255004882812,9.8145751953125
0.004,-20.334838867188,5.4903564453125,13.938598632812
0.0045,-19.213745117188,1.5665283203125,16.701293945312
0.005,-17.692260742188,-2.2772216796875,19.063598632812
0.0055,-15.530151367188,-5.4403076171875,20.184692382812
0.006,-12.527221679688,-8.5233154296875,20.224731445312
0.0065,-8.9237060546875,-12.126831054688,20.304809570312
0.007,-3.5985107421875,-15.970581054688,19.063598632812
0.0075,1.3663330078125,-18.533081054688,17.101684570312
0.008,4.3692626953125,-20.054565429688,15.620239257812
0.0085,7.3721923828125,-20.935424804688,13.738403320312
0.009,10.455200195312,-20.895385742188,10.855590820312
0.0095,14.138793945312,-20.254760742188,6.5714111328125
0.01,17.221801757812,-18.973510742188,2.5274658203125
0.0105,19.704223632812,-17.011596679688,-1.8768310546875
0.011,20.424926757812,-14.969604492188,-4.5194091796875
0.0115,20.825317382812,-12.327026367188,-7.6424560546875
0.012,20.745239257812,-9.0438232421875,-10.885620117188
0.0125,19.904418945312,-4.4393310546875,-14.769409179688
0.013,18.422973632812,-0.2752685546875,-17.411987304688
0.0135,16.821411132812,3.1680908203125,-19.213745117188
0.014,14.619262695312,6.3712158203125,-20.254760742188
0.0145,11.255981445312,9.6143798828125,-20.134643554688
0.015,6.7716064453125,13.458129882812,-19.734252929688
0.0155,1.9669189453125,16.901489257812,-18.453002929688
0.016,-2.6375732421875,19.263793945312,-16.531127929688
0.0165,-5.4803466796875,20.184692382812,-14.889526367188
0.017,-8.4832763671875,20.825317382812,-12.807495117188
0.0175,-11.726440429688,20.745239257812,-9.6844482421875
0.018,-15.490112304688,19.744262695312,-5.0399169921875
0.0185,-18.292846679688,18.142700195312,-0.7957763671875
0.019,-20.334838867188,16.260864257812,3.0479736328125
0.0195,-20.815307617188,14.018676757812,5.7706298828125
0.02,-20.855346679688,11.015747070312,8.9737548828125
0.0205,-20.575073242188,7.1319580078125,12.537231445312
0.021,-19.734252929688,2.8477783203125,15.940551757812
0.0215,-17.972534179688,-1.4764404296875,18.503051757812
0.022,-16.050659179688,-4.5594482421875,19.704223632812
0.0225,-13.848510742188,-7.6424560546875,20.545043945312
0.023,-10.044799804688,-11.005737304688,20.304809570312
0.0235,-5.1600341796875,-14.769409179688,19.263793945312
0.024,-0.5155029296875,-17.692260742188,17.862426757812
0.0245,3.7686767578125,-19.854370117188,15.980590820312
0.025,6.4112548828125,-20.494995117188,14.178833007812
0.0255,9.4542236328125,-20.815307617188,11.616333007812
0.026,12.937622070312,-20.494995117188,8.1729736328125
0.0265,16.180786132812,-19.293823242188,3.8087158203125
0.027,18.703247070312,-17.492065429688,-0.6356201171875
0.0275,20.104614257812,-15.690307617188,-3.7186279296875
0.028,20.625122070312,-13.207885742188,-6.4412841796875
0.0285,20.464965820312,-9.9647216796875,-9.6043701171875
0.029,19.864379882812,-5.7606201171875,-13.207885742188
0.0295,18.823364257812,-1.8367919921875,-16.210815429688
0.03,17.141723632812,2.2471923828125,-18.493041992188
0.0305,15.099731445312,5.0899658203125,-19.213745117188
0.031,12.457153320312,8.0528564453125,-19.814331054688
0.0315,8.4132080078125,11.656372070312,-19.494018554688
0.032,3.6485595703125,15.059692382812,-18.332885742188
0.0325,-0.7957763671875,17.662231445312,-16.691284179688
0.033,-4.1590576171875,19.303833007812,-15.249877929688
0.0335,-6.8016357421875,19.824340820312,-13.408081054688
0.034,-9.7244873046875,19.984497070312,-10.765502929688
0.0345,-13.207885742188,19.504028320312,-6.9617919921875
0.035,-16.370971679688,18.222778320312,-2.8377685546875
0.0355,-18.653198242188,16.380981445312,1.3262939453125
0.036,-19.494018554688,14.579223632812,4.0089111328125
0.0365,-20.014526367188,12.176879882812,6.8917236328125
0.037,-19.894409179688,8.8135986328125,10.174926757812
0.0375,-19.173706054688,4.6495361328125,13.618286132812
0.038,-17.972534179688,0.7657470703125,16.380981445312
0.0385,-16.491088867188,-2.8377685546875,18.382934570312
0.039,-14.328979492188,-5.5604248046875,19.023559570312
0.0395,-11.726440429688,-8.5633544921875,19.343872070312
0.04,-7.2420654296875,-12.286987304688,19.023559570312
0.0405,-2.5975341796875,-15.610229492188,17.742309570312
0.041,1.6466064453125,-17.932495117188,16.020629882812
0.0415,4.4893798828125,-19.253784179688,14.699340820312
0.042,7.2921142578125,-19.734252929688,12.737426757812
0.0425,10.415161132812,-19.734252929688,9.7745361328125
0.043,13.778442382812,-19.133666992188,5.8106689453125
0.0435,16.701293945312,-17.772338867188,1.7266845703125
0.044,18.863403320312,-16.010620117188,-2.0770263671875
0.0445,19.383911132812,-14.008666992188,-4.5594482421875
0.045,19.824340820312,-11.446166992188,-7.6024169921875
0.0455,19.504028320312,-7.5223388671875,-11.245971679688
0.046,18.703247070312,-3.5985107421875,-14.409057617188
0.0465,17.341918945312,0.4454345703125,-16.811401367188
0.047,15.820434570312,3.5284423828125,-18.613159179688
0.0475,13.378051757812,6.4112548828125,-19.173706054688
0.048,10.094848632812,9.6944580078125,-19.213745117188
0.0485,5.7305908203125,13.378051757812,-18.613159179688
0.049,0.9659423828125,16.581176757812,-17.251831054688
0.0495,-3.0780029296875,18.543090820312,-15.530151367188
0.05,-5.4403076171875,19.504028320312,-14.048706054688
0.0505,-8.5633544921875,20.024536132812,-11.846557617188
0.051,-12.006713867188,19.704223632812,-8.2030029296875
0.0515,-15.129760742188,18.743286132812,-4.3592529296875
0.052,-17.892456054688,17.141723632812,-0.1151123046875
0.0525,-19.614135742188,15.380004882812,3.4083251953125
0.053,-19.934448242188,13.097778320312,5.9708251953125
0.0535,-20.254760742188,10.214965820312,9.1339111328125
0.054,-19.734252929688,5.8907470703125,12.937622070312
0.0545,-18.573120117188,2.0069580078125,16.060668945312
0.055,-17.171752929688,-1.9969482421875,18.222778320312
0.0555,-15.249877929688,-5.0399169921875,19.423950195312
0.056,-12.727416992188,-8.0028076171875,19.984497070312
0.0565,-8.5233154296875,-11.726440429688,19.584106445312
0.057,-4.1190185546875,-15.049682617188,18.623168945312
0.0575,0.7657470703125,-18.012573242188,16.941528320312
0.058,4.1690673828125,-19.814331054688,15.299926757812
0.0585,7.0518798828125,-20.134643554688,13.378051757812
0.059,10.094848632812,-20.655151367188,11.015747070312
0.0595,13.938598632812,-19.894409179688,6.6915283203125
0.06,16.821411132812,-18.693237304688,2.5675048828125
0.0605,19.143676757812,-16.931518554688,-1.4364013671875
0.061,20.464965820312,-15.009643554688,-4.6395263671875
0.0615,20.545043945312,-12.447143554688,-7.4822998046875
0.062,20.545043945312,-8.8436279296875,-11.045776367188
0.0625,19.864379882812,-4.5594482421875,-14.328979492188
0.063,18.703247070312,-0.3553466796875,-17.492065429688
0.0635,16.741333007812,3.4083251953125,-19.253784179688
0.064,14.419067382812,6.2510986328125,-19.894409179688
0.0645,11.776489257812,9.3341064453125,-20.454956054688
0.065,6.5714111328125,13.578247070312,-19.614135742188
0.0655,2.2471923828125,16.461059570312,-18.453002929688
0.066,-2.3572998046875,19.023559570312,-16.571166992188
0.0665,-5.6805419921875,20.464965820312,-15.049682617188
0.067,-8.2030029296875,20.464965820312,-12.727416992188
0.0675,-11.406127929688,20.745239257812,-9.9647216796875
0.068,-15.329956054688,19.904418945312,-5.4002685546875
0.0685,-18.252807617188,18.182739257812,-0.8358154296875
0.069,-20.094604492188,16.340942382812,2.8477783203125
0.0695,-20.895385742188,14.178833007812,5.7706298828125
0.07,-21.095581054688,11.376098632812,8.7735595703125
0.0705,-20.815307617188,7.0518798828125,12.817504882812
0.071,-19.614135742188,3.2081298828125,15.700317382812
0.0715,-18.212768554688,-1.1160888671875,18.422973632812
0.072,-16.210815429688,-4.6795654296875,20.104614257812
0.0725,-13.608276367188,-7.4822998046875,20.224731445312
0.073,-10.645385742188,-10.605346679688,20.625122070312
0.0735,-5.2801513671875,-14.729370117188,19.544067382812
0.074,-0.3953857421875,-17.572143554688,17.782348632812
0.0745,3.3282470703125,-19.373901367188,16.220825195312
0.075,6.2110595703125,-20.855346679688,14.579223632812
0.0755,9.4542236328125,-20.815307617188,11.816528320312
0.076,12.777465820312,-20.575073242188,8.3731689453125
0.0765,16.140747070312,-19.734252929688,4.2891845703125
0.077,18.903442382812,-17.812377929688,-0.3553466796875
0.0775,20.464965820312,-16.050659179688,-3.8387451171875
0.078,20.945434570312,-13.488159179688,-6.5614013671875
0.0785,21.185668945312,-10.525268554688,-9.5242919921875
0.079,20.464965820312,-5.7205810546875,-13.848510742188
0.0795,19.263793945312,-1.9168701171875,-16.651245117188
0.08,17.662231445312,2.0069580078125,-18.853393554688
0.0805,15.700317382812,5.4102783203125,-20.374877929688
0.081,12.497192382812,8.3731689453125,-20.254760742188
0.0815,8.8936767578125,11.776489257812,-20.454956054688
0.082,4.1290283203125,15.820434570312,-19.373901367188
0.0825,-1.1561279296875,18.743286132812,-17.291870117188
0.083,-4.7596435546875,20.024536132812,-15.690307617188
0.0835,-7.4422607421875,20.985473632812,-13.808471679688
0.084,-10.485229492188,21.145629882812,-11.205932617188
0.0845,-14.409057617188,20.304809570312,-6.6014404296875
0.085,-17.291870117188,19.143676757812,-2.6776123046875
0.0855,-20.174682617188,17.261840820312,1.7667236328125
0.086,-21.135620117188,15.179809570312,5.0499267578125
0.0865,-21.215698242188,12.176879882812,7.8126220703125
0.087,-21.175659179688,9.2540283203125,11.255981445312
0.0875,-20.535034179688,4.3292236328125,15.299926757812
0.088,-19.013549804688,0.0050048828125,18.102661132812
0.0885,-17.131713867188,-3.5584716796875,19.824340820312
0.089,-15.249877929688,-6.9217529296875,21.105590820312
0.0895,-11.726440429688,-10.084838867188,20.865356445312
0.09,-6.7215576171875,-13.768432617188,20.224731445312
0.0905,-2.3572998046875,-17.051635742188,19.183715820312
0.091,2.5675048828125,-20.014526367188,17.141723632812
0.0915,5.7706298828125,-21.015502929688,15.299926757812
0.092,8.8135986328125,-21.415893554688,12.897583007812
0.0925,11.896606445312,-21.576049804688,10.255004882812
0.093,15.980590820312,-20.374877929688,5.2100830078125
0.0935,18.903442382812,-18.573120117188,0.8858642578125
0.094,20.865356445312,-16.811401367188,-3.0379638671875
0.0945,21.546020507812,-14.809448242188,-6.0408935546875
0.095,21.666137695312,-11.366088867188,-9.2440185546875
0.0955,21.265747070312,-7.5623779296875,-12.927612304688
0.096,20.464965820312,-3.1981201171875,-16.370971679688
0.0965,18.583129882812,1.2862548828125,-19.173706054688
0.097,16.260864257812,4.5294189453125,-20.454956054688
0.0975,13.938598632812,7.8526611328125,-21.095581054688
0.098,10.535278320312,11.015747070312,-21.295776367188
0.0985,4.8497314453125,15.339965820312,-20.014526367188
0.099,0.6055908203125,18.382934570312,-18.533081054688
0.0995,-3.8387451171875,20.464965820312,-16.651245117188
0.1,-6.9617919921875,21.425903320312,-14.729370117188
0.1005,-10.204956054688,21.505981445312,-11.726440429688
0.101,-13.328002929688,21.305786132812,-8.8836669921875
0.1015,-17.011596679688,20.184692382812,-3.9188232421875
0.102,-19.894409179688,17.942504882812,0.9659423828125
0.1025,-21.415893554688,16.140747070312,4.4093017578125
0.103,-21.976440429688,13.738403320312,7.3721923828125
0.1035,-21.816284179688,10.335083007812,10.495239257812
0.104,-21.215698242188,5.6905517578125,14.579223632812
0.1045,-19.894409179688,1.6466064453125,17.542114257812
0.105,-18.533081054688,-2.8778076171875,20.144653320312
0.1055,-15.970581054688,-6.1209716796875,21.105590820312
0.106,-12.967651367188,-9.1239013671875,21.465942382812
0.1065,-9.3641357421875,-12.887573242188,21.305786132812
0.107,-3.5985107421875,-16.691284179688,19.864379882812
0.1075,1.3262939453125,-19.534057617188,17.902465820312
0.108,4.9698486328125,-21.135620117188,16.180786132812
0.1085,8.0128173828125,-21.816284179688,14.178833007812
0.109,11.456176757812,-21.936401367188,10.735473632812
0.1095,14.979614257812,-21.495971679688,6.8516845703125
0.11,18.222778320312,-19.974487304688,2.4073486328125
0.1105,20.825317382812,-17.612182617188,-2.2371826171875
0.111,21.786254882812,-15.329956054688,-5.2801513671875
0.1115,22.026489257812,-12.727416992188,-8.4031982421875
0.112,21.866333007812,-9.2440185546875,-11.686401367188
0.1125,20.785278320312,-4.3992919921875,-15.730346679688
0.113,19.504028320312,0.0450439453125,-18.493041992188
0.1135,17.421997070312,3.7686767578125,-20.454956054688
0.114,15.019653320312,7.1719970703125,-21.255737304688
0.1145,11.696411132812,10.375122070312,-21.215698242188
0.115,7.1719970703125,14.098754882812,-20.855346679688
0.1155,2.0469970703125,17.702270507812,-19.413940429688
0.116,-2.9979248046875,20.184692382812,-17.211791992188
0.1165,-5.9608154296875,21.425903320312,-15.289916992188
0.117,-9.0438232421875,21.906372070312,-13.207885742188
0.1175,-12.327026367188,21.746215820312,-10.004760742188
0.118,-16.170776367188,20.625122070312,-5.4403076171875
0.1185,-19.253784179688,19.063598632812,-0.9959716796875
0.119,-21.495971679688,16.941528320312,3.5284423828125
0.1195,-21.856323242188,14.579223632812,6.3712158203125
0.12,-22.016479492188,11.376098632812,9.6944580078125
0.1205,-21.536010742188,7.6925048828125,13.137817382812
0.121,-20.895385742188,2.8477783203125,16.861450195312
0.1215,-18.893432617188,-1.5965576171875,19.383911132812
0.122,-16.931518554688,-5.0799560546875,20.905395507812
0.1225,-14.489135742188,-8.3231201171875,21.706176757812
0.123,-10.445190429688,-11.566284179688,21.385864257812
0.1235,-5.7205810546875,-15.530151367188,20.545043945312
0.124,-0.5955810546875,-18.733276367188,18.943481445312
0.1245,4.1290283203125,-21.215698242188,16.741333007812
0.125,7.0118408203125,-21.656127929688,14.859497070312
0.1255,10.295043945312,-22.176635742188,12.176879882812
0.126,13.738403320312,-21.856323242188,8.6134033203125
0.1265,17.582153320312,-20.374877929688,3.9288330078125
0.127,20.144653320312,-18.653198242188,-0.7957763671875
0.1275,21.946411132812,-16.531127929688,-4.5194091796875
0.128,22.346801757812,-13.888549804688,-7.4822998046875
0.1285,22.066528320312,-10.645385742188,-10.965698242188
0.129,21.626098632812,-5.9608154296875,-14.489135742188
0.1295,20.424926757812,-1.6766357421875,-17.812377929688
0.13,18.302856445312,2.8077392578125,-20.615112304688
0.1305,16.220825195312,6.1710205078125,-21.335815429688
0.131,13.297973632812,9.4141845703125,-21.856323242188
0.1315,8.8536376953125,13.137817382812,-21.415893554688
0.132,3.6485595703125,16.741333007812,-20.134643554688
0.1325,-1.2362060546875,19.704223632812,-18.132690429688
0.133,-5.3602294921875,21.586059570312,-16.330932617188
0.1335,-8.1629638671875,21.906372070312,-14.048706054688
0.134,-11.486206054688,22.186645507812,-11.165893554688
0.1345,-15.369995117188,21.546020507812,-7.0819091796875
0.135,-18.533081054688,20.024536132812,-2.3973388671875
0.1355,-20.975463867188,17.822387695312,2.2471923828125
0.136,-22.056518554688,15.660278320312,5.5303955078125
0.1365,-22.536987304688,12.777465820312,8.6134033203125
0.137,-22.296752929688,9.0938720703125,12.417114257812
0.1375,-21.455932617188,4.4893798828125,15.980590820312
0.138,-19.974487304688,0.2452392578125,19.143676757812
0.1385,-18.012573242188,-4.1590576171875,21.145629882812
0.139,-15.410034179688,-7.1619873046875,21.626098632812
0.1395,-12.367065429688,-10.445190429688,22.066528320312
0.14,-7.4422607421875,-14.769409179688,21.305786132812
0.1405,-2.3572998046875,-17.852416992188,19.704223632812
0.141,2.4473876953125,-20.414916992188,17.782348632812
0.1415,6.1309814453125,-21.976440429688,15.940551757812
0.142,9.0938720703125,-22.136596679688,13.498168945312
0.1425,12.296997070312,-22.216674804688,10.214965820312
0.143,16.180786132812,-21.295776367188,5.7305908203125
0.1435,19.423950195312,-19.373901367188,1.0460205078125
0.144,21.505981445312,-17.171752929688,-3.1981201171875
0.1445,22.146606445312,-15.049682617188,-6.2811279296875
0.145,22.426879882812,-12.046752929688,-9.3641357421875
0.1455,21.906372070312,-7.6424560546875,-13.287963867188
0.146,20.825317382812,-3.3582763671875,-16.451049804688
0.1465,18.983520507812,0.9259033203125,-19.293823242188
0.147,17.141723632812,4.9298095703125,-21.215698242188
0.1475,14.178833007812,7.8526611328125,-21.415893554688
0.148,11.055786132812,11.175903320312,-21.776245117188
0.1485,5.7706298828125,15.420043945312,-20.695190429688
0.149,0.6856689453125,18.543090820312,-18.933471679688
0.1495,-3.7186279296875,20.625122070312,-16.931518554688
0.15,-6.8817138671875,21.786254882812,-15.209838867188
0.1505,-9.9647216796875,21.946411132812,-12.567260742188
0.151,-13.408081054688,21.626098632812,-8.8436279296875
0.1515,-16.811401367188,20.665161132812,-4.5194091796875
0.152,-20.014526367188,18.543090820312,0.2852783203125
0.1525,-21.736206054688,16.461059570312,4.3292236328125
0.153,-22.016479492188,13.858520507812,7.0919189453125
0.1535,-22.336791992188,10.815551757812,10.495239257812
0.154,-21.736206054688,5.8907470703125,14.539184570312
0.1545,-20.374877929688,1.9268798828125,17.622192382812
0.155,-18.573120117188,-2.3572998046875,19.944458007812
0.1555,-16.330932617188,-5.9608154296875,21.505981445312
0.156,-13.408081054688,-8.8436279296875,21.706176757812
0.1565,-9.5242919921875,-12.607299804688,21.425903320312
0.157,-4.5594482421875,-16.370971679688,20.344848632812
0.1575,0.7657470703125,-19.453979492188,18.422973632812
0.158,4.7696533203125,-21.135620117188,16.421020507812
0.1585,7.7325439453125,-21.856323242188,14.338989257812
0.159,10.935668945312,-22.176635742188,11.696411132812
0.1595,14.699340820312,-21.616088867188,7.1719970703125
0.16,17.862426757812,-20.214721679688,2.8077392578125
0.1605,20.505004882812,-18.092651367188,-1.5965576171875
0.161,21.946411132812,-16.010620117188,-5.1199951171875
0.1615,21.906372070312,-13.007690429688,-7.9227294921875
0.162,22.066528320312,-9.9647216796875,-11.646362304688
0.1625,21.265747070312,-4.9998779296875,-15.450073242188
0.163,19.824340820312,-0.5155029296875,-18.453002929688
0.1635,17.822387695312,3.5684814453125,-20.134643554688
0.164,15.540161132812,6.5714111328125,-21.415893554688
0.1645,12.417114257812,9.8946533203125,-21.576049804688
0.165,7.4923095703125,13.978637695312,-20.855346679688
0.1655,3.0079345703125,17.141723632812,-19.574096679688
0.166,-2.1170654296875,19.904418945312,-18.092651367188
0.1665,-5.7606201171875,21.505981445312,-15.770385742188
0.167,-8.6434326171875,21.626098632812,-13.448120117188
0.1675,-11.566284179688,22.106567382812,-10.765502929688
0.168,-15.890502929688,20.945434570312,-5.6805419921875
0.1685,-18.733276367188,19.223754882812,-1.4364013671875
0.169,-20.855346679688,17.301879882812,2.6475830078125
0.1695,-22.096557617188,15.059692382812,5.7706298828125
0.17,-22.096557617188,11.896606445312,8.8936767578125
0.1705,-21.896362304688,8.0528564453125,12.777465820312
0.171,-20.975463867188,3.7686767578125,16.180786132812
0.1715,-19.373901367188,-0.9158935546875,19.063598632812
0.172,-17.171752929688,-4.5194091796875,20.705200195312
0.1725,-14.689331054688,-7.5223388671875,21.305786132812
0.173,-11.726440429688,-10.765502929688,21.706176757812
0.1735,-6.0008544921875,-15.209838867188,20.545043945312
0.174,-1.3563232421875,-17.972534179688,19.023559570312
0.1745,3.1680908203125,-20.454956054688,17.181762695312
0.175,6.4112548828125,-21.776245117188,15.380004882812
0.1755,9.6143798828125,-21.776245117188,12.417114257812
0.176,12.817504882812,-21.816284179688,9.5343017578125
0.1765,16.781372070312,-20.815307617188,4.7696533203125
0.177,19.784301757812,-18.773315429688,-0.1951904296875
0.1775,21.305786132812,-16.891479492188,-3.7987060546875
0.178,22.066528320312,-14.449096679688,-6.6014404296875
