wavelength,x,y,z
0.0,-19.253784179688,-0.6356201171875,18.903442382812
0.0005,-17.652221679688,-4.2791748046875,21.145629882812
0.001,-15.650268554688,-7.5223388671875,22.266723632812
0.0015,-12.126831054688,-10.405151367188,21.746215820312
0.002,-7.9627685546875,-13.968627929688,21.225708007812
0.0025,-2.5574951171875,-17.532104492188,19.664184570312
0.003,3.0479736328125,-20.454956054688,17.341918945312
0.0035,6.1309814453125,-21.576049804688,15.620239257812
0.004,9.0938720703125,-22.096557617188,13.378051757812
0.0045,12.096801757812,-21.736206054688,10.214965820312
0.005,16.140747070312,-20.374877929688,4.9698486328125
0.0055,19.343872070312,-18.733276367188,0.2852783203125
0.006,21.826293945312,-16.731323242188,-4.1590576171875
0.0065,22.667114257812,-14.609252929688,-7.1219482421875
0.007,22.426879882812,-11.245971679688,-10.204956054688
0.0075,22.026489257812,-7.6824951171875,-13.528198242188
0.008,20.865356445312,-2.8377685546875,-17.251831054688
0.0085,18.903442382812,2.0469970703125,-20.214721679688
0.009,17.021606445312,5.4903564453125,-21.736206054688
0.0095,14.699340820312,8.5333251953125,-22.456909179688
0.01,10.855590820312,11.616333007812,-21.856323242188
0.0105,5.5704345703125,15.660278320312,-20.655151367188
0.011,0.6055908203125,18.823364257812,-19.093627929688
0.0115,-4.4393310546875,21.385864257812,-16.891479492188
0.012,-7.2020263671875,22.066528320312,-15.009643554688
0.0125,-10.365112304688,22.066528320312,-12.206909179688
0.013,-13.528198242188,21.505981445312,-8.7235107421875
0.0135,-17.371948242188,19.904418945312,-3.4383544921875
0.014,-20.494995117188,17.862426757812,1.6866455078125
0.0145,-22.296752929688,15.980590820312,5.2901611328125
0.015,-22.817260742188,13.578247070312,8.2130126953125
0.0155,-22.376831054688,10.054809570312,11.336059570312
0.016,-21.576049804688,5.6104736328125,15.059692382812
0.0165,-20.254760742188,1.0460205078125,18.262817382812
0.017,-18.372924804688,-3.6385498046875,21.065551757812
0.0175,-16.250854492188,-6.6414794921875,21.986450195312
0.018,-13.648315429688,-9.4842529296875,22.266723632812
0.0185,-9.6844482421875,-12.687377929688,21.706176757812
0.019,-3.9188232421875,-16.531127929688,19.984497070312
0.0195,1.1661376953125,-19.494018554688,18.102661132812
0.02,5.1700439453125,-21.656127929688,16.340942382812
0.0205,8.0128173828125,-22.016479492188,14.218872070312
0.021,11.055786132812,-21.656127929688,11.135864257812
0.0215,14.539184570312,-20.975463867188,7.0919189453125
0.022,18.022583007812,-19.373901367188,2.1671142578125
0.0225,20.905395507812,-17.251831054688,-2.7977294921875
0.023,22.066528320312,-15.329956054688,-5.8406982421875
0.0235,22.426879882812,-12.727416992188,-8.7235107421875
0.024,21.906372070312,-9.1639404296875,-11.926635742188
0.0245,20.865356445312,-4.4393310546875,-15.690307617188
0.025,19.343872070312,0.0050048828125,-18.613159179688
0.0255,17.702270507812,4.2491455078125,-21.095581054688
0.026,15.380004882812,7.1319580078125,-21.696166992188
0.0265,12.296997070312,10.054809570312,-21.736206054688
0.027,7.9727783203125,13.738403320312,-21.135620117188
0.0275,2.4874267578125,17.301879882812,-19.453979492188
0.028,-2.6375732421875,19.984497070312,-17.331909179688
0.0285,-5.8807373046875,21.465942382812,-15.770385742188
0.029,-8.8035888671875,21.866333007812,-13.528198242188
0.0295,-11.926635742188,21.345825195312,-10.124877929688
0.03,-15.690307617188,20.304809570312,-5.4403076171875
0.0305,-19.093627929688,18.663208007812,-0.5155029296875
0.031,-21.495971679688,16.621215820312,3.9688720703125
0.0315,-22.256713867188,14.459106445312,6.7315673828125
0.032,-22.376831054688,11.576293945312,9.8546142578125
0.0325,-21.856323242188,7.3721923828125,13.458129882812
0.033,-20.695190429688,2.6475830078125,16.981567382812
0.0335,-18.933471679688,-1.9168701171875,19.864379882812
0.034,-17.331909179688,-5.5203857421875,21.906372070312
0.0345,-14.769409179688,-8.2830810546875,22.266723632812
0.035,-11.165893554688,-11.486206054688,21.826293945312
0.0355,-6.2410888671875,-15.289916992188,20.945434570312
0.036,-0.7957763671875,-18.773315429688,19.103637695312
0.0365,4.1290283203125,-21.135620117188,16.941528320312
0.037,6.9718017578125,-22.016479492188,15.219848632812
0.0375,10.094848632812,-22.296752929688,12.657348632812
0.038,13.618286132812,-21.455932617188,8.5333251953125
0.0385,17.141723632812,-20.214721679688,3.7686767578125
0.039,20.424926757812,-18.252807617188,-1.3162841796875
0.0395,22.546997070312,-16.330932617188,-5.2801513671875
0.04,22.747192382812,-13.808471679688,-8.0028076171875
0.0405,22.747192382812,-10.485229492188,-11.366088867188
0.041,21.906372070312,-5.9608154296875,-15.249877929688
0.0415,20.625122070312,-1.1561279296875,-18.573120117188
0.042,18.623168945312,3.4083251953125,-21.095581054688
0.0425,16.621215820312,6.6514892578125,-22.536987304688
0.043,13.738403320312,9.7344970703125,-22.737182617188
0.0435,9.2540283203125,13.378051757812,-21.976440429688
0.044,4.1290283203125,16.901489257812,-20.695190429688
0.0445,-1.4364013671875,20.224731445312,-18.653198242188
0.045,-5.7606201171875,22.226684570312,-16.611206054688
0.0455,-8.4832763671875,22.466918945312,-14.409057617188
0.046,-11.606323242188,22.546997070312,-11.606323242188
0.0465,-15.570190429688,21.425903320312,-6.6815185546875
0.047,-18.973510742188,19.704223632812,-1.6766357421875
0.0475,-21.856323242188,17.622192382812,3.1680908203125
0.048,-23.377807617188,15.540161132812,6.7315673828125
0.0485,-23.297729492188,12.537231445312,9.6544189453125
0.049,-23.017456054688,8.6534423828125,13.217895507812
0.0495,-21.776245117188,3.9688720703125,16.781372070312
0.05,-20.214721679688,-1.0360107421875,20.104614257812
0.0505,-17.972534179688,-5.1600341796875,22.266723632812
0.051,-15.770385742188,-8.0428466796875,22.907348632812
0.0515,-12.767456054688,-11.125854492188,23.067504882812
0.052,-7.2821044921875,-15.169799804688,21.826293945312
0.0525,-2.1971435546875,-18.332885742188,20.064575195312
0.053,3.0079345703125,-21.135620117188,17.942504882812
0.0535,6.7315673828125,-22.737182617188,16.100708007812
0.054,9.5343017578125,-22.496948242188,13.418090820312
0.0545,12.617309570312,-22.296752929688,10.375122070312
0.055,16.581176757812,-21.015502929688,5.2100830078125
0.0555,19.984497070312,-19.093627929688,-0.1551513671875
0.056,22.106567382812,-17.011596679688,-4.1990966796875
0.0565,23.027465820312,-14.809448242188,-7.2420654296875
0.057,22.907348632812,-11.846557617188,-10.244995117188
0.0575,22.266723632812,-7.1619873046875,-14.128784179688
0.058,21.065551757812,-2.8377685546875,-17.171752929688
0.0585,19.343872070312,1.8468017578125,-20.254760742188
0.059,17.341918945312,5.6905517578125,-22.216674804688
0.0595,14.499145507812,8.4532470703125,-22.176635742188
0.06,11.496215820312,11.496215820312,-22.296752929688
0.0605,5.8106689453125,15.660278320312,-21.015502929688
0.061,0.5655517578125,18.823364257812,-19.053588867188
0.0615,-3.8387451171875,20.985473632812,-17.131713867188
0.062,-7.0819091796875,22.266723632812,-15.490112304688
0.0625,-9.9246826171875,22.026489257812,-12.607299804688
0.063,-13.328002929688,21.305786132812,-8.6834716796875
0.0635,-16.891479492188,20.104614257812,-4.1190185546875
0.064,-20.134643554688,18.062622070312,1.1661376953125
0.0645,-22.016479492188,16.060668945312,4.9298095703125
0.065,-22.416870117188,13.658325195312,7.6524658203125
0.0655,-22.416870117188,10.815551757812,10.655395507812
0.066,-21.536010742188,5.6505126953125,14.859497070312
0.0665,-20.134643554688,1.3262939453125,17.902465820312
0.067,-18.412963867188,-2.8778076171875,20.344848632812
0.0675,-16.691284179688,-6.2811279296875,22.106567382812
0.068,-13.608276367188,-8.9637451171875,21.786254882812
0.0685,-9.9647216796875,-12.327026367188,21.505981445312
0.069,-4.6395263671875,-16.090698242188,20.184692382812
0.0695,0.8458251953125,-19.293823242188,18.182739257812
0.07,4.6895751953125,-20.935424804688,16.340942382812
0.0705,7.5323486328125,-21.776245117188,14.459106445312
0.071,10.415161132812,-21.736206054688,11.776489257812
0.0715,14.379028320312,-20.655151367188,6.8917236328125
0.072,17.622192382812,-19.293823242188,2.5274658203125
0.0725,20.464965820312,-17.452026367188,-2.1971435546875
0.073,22.026489257812,-15.530151367188,-5.6405029296875
0.0735,21.986450195312,-12.767456054688,-8.3231201171875
0.074,21.946411132812,-9.5643310546875,-11.486206054688
0.0745,20.985473632812,-4.6395263671875,-15.530151367188
0.075,19.504028320312,0.2852783203125,-18.573120117188
0.0755,17.622192382812,3.8087158203125,-20.575073242188
0.076,15.700317382812,6.8917236328125,-21.856323242188
0.0765,12.537231445312,9.7344970703125,-21.736206054688
0.077,7.6124267578125,13.738403320312,-20.815307617188
0.0775,2.9278564453125,16.941528320312,-19.574096679688
0.078,-2.3973388671875,19.984497070312,-17.452026367188
0.0785,-5.8406982421875,21.345825195312,-15.730346679688
0.079,-8.5233154296875,21.465942382812,-13.328002929688
0.0795,-11.486206054688,21.465942382812,-10.645385742188
0.08,-15.690307617188,20.024536132812,-5.2000732421875
0.0805,-18.733276367188,18.222778320312,-0.4754638671875
0.081,-21.015502929688,16.461059570312,3.5284423828125
0.0815,-22.176635742188,14.499145507812,6.5714111328125
0.082,-21.816284179688,11.456176757812,9.2940673828125
0.0825,-21.495971679688,7.4522705078125,13.017700195312
0.083,-20.374877929688,3.0479736328125,16.380981445312
0.0835,-18.733276367188,-1.7166748046875,19.504028320312
0.084,-16.851440429688,-5.1199951171875,21.105590820312
0.0845,-14.689331054688,-7.8426513671875,21.626098632812
0.085,-11.686401367188,-10.725463867188,21.626098632812
0.0855,-5.7606201171875,-14.889526367188,20.104614257812
0.086,-0.9959716796875,-17.892456054688,18.503051757812
0.0865,3.4083251953125,-20.214721679688,16.701293945312
0.087,6.5313720703125,-21.415893554688,15.059692382812
0.0875,9.2540283203125,-21.055541992188,12.176879882812
0.088,12.337036132812,-20.815307617188,9.0137939453125
0.0885,16.180786132812,-19.534057617188,4.0889892578125
0.089,19.223754882812,-17.492065429688,-0.9959716796875
0.0895,20.865356445312,-15.690307617188,-4.1990966796875
0.09,21.505981445312,-13.608276367188,-7.0418701171875
0.0905,21.305786132812,-10.765502929688,-9.6844482421875
0.091,20.545043945312,-5.9608154296875,-13.768432617188
0.0915,19.343872070312,-1.9168701171875,-16.651245117188
0.092,17.942504882812,2.3673095703125,-19.373901367188
0.0925,15.980590820312,5.5303955078125,-20.735229492188
0.093,13.137817382812,8.2130126953125,-20.575073242188
0.0935,10.014770507812,11.215942382812,-20.655151367188
0.094,4.4893798828125,15.299926757812,-19.253784179688
0.0945,-0.7156982421875,18.222778320312,-17.331909179688
0.095,-4.1190185546875,19.864379882812,-15.810424804688
0.0955,-6.9617919921875,20.785278320312,-14.128784179688
0.096,-9.6444091796875,20.464965820312,-11.366088867188
0.0965,-13.328002929688,19.664184570312,-7.0819091796875
0.097,-16.611206054688,18.422973632812,-2.7576904296875
0.0975,-19.453979492188,16.581176757812,1.9669189453125
0.098,-20.655151367188,14.859497070312,4.8497314453125
0.0985,-20.855346679688,12.417114257812,7.5323486328125
0.099,-20.815307617188,9.5343017578125,10.375122070312
0.0995,-19.894409179688,4.5294189453125,14.419067382812
0.1,-18.533081054688,0.2452392578125,17.341918945312
0.1005,-17.051635742188,-3.2781982421875,19.463989257812
0.101,-15.410034179688,-6.1610107421875,20.745239257812
0.1015,-12.206909179688,-8.8836669921875,20.344848632812
0.102,-8.1629638671875,-12.407104492188,19.904418945312
0.1025,-3.1580810546875,-15.930541992188,18.623168945312
0.103,1.9268798828125,-18.733276367188,16.661254882812
0.1035,4.8096923828125,-20.014526367188,15.219848632812
0.104,7.5323486328125,-20.535034179688,13.257934570312
0.1045,10.214965820312,-20.374877929688,10.535278320312
0.105,14.218872070312,-19.133666992188,5.4903564453125
0.1055,17.341918945312,-17.732299804688,1.1260986328125
0.106,19.664184570312,-16.050659179688,-2.7576904296875
0.1065,20.585083007812,-14.248901367188,-5.4403076171875
0.107,20.464965820312,-11.486206054688,-8.2030029296875
0.1075,20.224731445312,-7.9627685546875,-11.486206054688
0.108,19.343872070312,-3.5184326171875,-15.009643554688
0.1085,17.782348632812,0.9259033203125,-17.972534179688
0.109,16.140747070312,4.0889892578125,-19.453979492188
0.1095,14.258911132812,6.8116455078125,-20.374877929688
0.11,11.135864257812,9.6143798828125,-20.054565429688
0.1105,5.9708251953125,13.578247070312,-18.933471679688
0.111,1.4063720703125,16.621215820312,-17.692260742188
0.1115,-2.9979248046875,19.023559570312,-16.010620117188
0.112,-5.7205810546875,19.904418945312,-14.369018554688
0.1125,-8.4031982421875,19.904418945312,-12.006713867188
0.113,-11.366088867188,19.664184570312,-9.0438232421875
0.1135,-15.089721679688,18.422973632812,-4.1590576171875
0.114,-18.012573242188,16.661254882812,0.6055908203125
0.1145,-19.734252929688,15.099731445312,3.6885986328125
0.115,-20.414916992188,13.137817382812,6.2911376953125
0.1155,-20.174682617188,10.214965820312,8.9737548828125
0.116,-19.574096679688,6.0909423828125,12.657348632812
0.1165,-18.573120117188,1.9268798828125,15.780395507812
0.117,-17.171752929688,-2.2772216796875,18.543090820312
0.1175,-15.410034179688,-4.9998779296875,19.584106445312
0.118,-13.127807617188,-7.6024169921875,19.904418945312
0.1185,-9.8446044921875,-10.565307617188,19.664184570312
0.119,-4.4393310546875,-14.369018554688,18.262817382812
0.1195,0.2852783203125,-17.211791992188,16.701293945312
0.12,3.7686767578125,-19.013549804688,15.299926757812
0.1205,6.2510986328125,-19.854370117188,13.658325195312
0.121,8.8135986328125,-19.574096679688,11.055786132812
0.1215,12.296997070312,-18.973510742188,7.2120361328125
0.122,15.540161132812,-17.772338867188,2.8477783203125
0.1225,18.342895507812,-16.010620117188,-1.6365966796875
0.123,19.463989257812,-14.449096679688,-4.1990966796875
0.1235,19.864379882812,-12.286987304688,-6.7615966796875
0.124,19.624145507812,-9.2440185546875,-9.4842529296875
0.1245,18.823364257812,-4.8397216796875,-13.167846679688
0.125,17.622192382812,-0.8358154296875,-16.130737304688
0.1255,16.380981445312,2.6876220703125,-18.372924804688
0.126,14.579223632812,5.3702392578125,-19.213745117188
0.1265,11.896606445312,7.9327392578125,-19.173706054688
0.127,8.0128173828125,11.376098632812,-18.853393554688
0.1275,3.1280517578125,14.859497070312,-17.572143554688
0.128,-1.5565185546875,17.421997070312,-15.850463867188
0.1285,-4.1590576171875,18.743286132812,-14.609252929688
0.129,-6.8016357421875,19.263793945312,-12.887573242188
0.1295,-9.4442138671875,18.983520507812,-10.124877929688
0.13,-13.127807617188,17.982543945312,-5.8406982421875
0.1305,-16.090698242188,16.821411132812,-1.5565185546875
0.131,-18.453002929688,15.259887695312,2.3673095703125
0.1315,-19.213745117188,13.618286132812,4.6495361328125
0.132,-19.373901367188,11.175903320312,7.3721923828125
0.1325,-19.093627929688,7.8126220703125,10.415161132812
0.133,-18.252807617188,3.5284423828125,13.898559570312
0.1335,-16.891479492188,-0.5955810546875,16.621215820312
0.134,-15.690307617188,-3.4783935546875,18.342895507812
0.1345,-13.888549804688,-5.9608154296875,19.063598632812
0.135,-10.885620117188,-8.6033935546875,18.783325195312
0.1355,-6.4412841796875,-12.166870117188,18.062622070312
0.136,-1.7967529296875,-15.329956054688,16.781372070312
0.1365,2.4073486328125,-17.772338867188,15.179809570312
0.137,4.6895751953125,-18.613159179688,13.938598632812
0.1375,7.2921142578125,-18.973510742188,11.896606445312
0.138,10.255004882812,-18.653198242188,8.8135986328125
0.1385,13.738403320312,-17.612182617188,4.4893798828125
0.139,16.621215820312,-16.170776367188,0.2852783203125
0.1395,18.543090820312,-14.849487304688,-2.9979248046875
0.14,19.103637695312,-12.927612304688,-5.3201904296875
0.1405,19.103637695312,-10.285034179688,-8.0428466796875
0.141,18.663208007812,-6.4012451171875,-11.526245117188
0.1415,17.862426757812,-2.4373779296875,-14.729370117188
0.142,16.461059570312,1.5665283203125,-17.291870117188
0.1425,15.019653320312,4.1690673828125,-18.493041992188
0.143,12.937622070312,6.7716064453125,-19.053588867188
0.1435,9.3341064453125,9.9346923828125,-18.613159179688
0.144,4.6495361328125,13.338012695312,-17.652221679688
0.1445,0.1651611328125,16.340942382812,-16.210815429688
0.145,-3.5584716796875,18.302856445312,-14.929565429688
0.1455,-5.8006591796875,18.863403320312,-13.328002929688
0.146,-8.4832763671875,19.023559570312,-11.045776367188
0.1465,-12.006713867188,18.422973632812,-7.0819091796875
0.147,-15.249877929688,17.221801757812,-2.7576904296875
0.1475,-17.852416992188,15.620239257812,1.4464111328125
0.148,-19.253784179688,14.138793945312,4.1690673828125
0.1485,-19.614135742188,11.976684570312,6.7315673828125
0.149,-19.453979492188,8.7735595703125,9.7745361328125
0.1495,-18.653198242188,4.6094970703125,13.177856445312
0.15,-17.612182617188,0.5255126953125,16.260864257812
0.1505,-16.210815429688,-3.1981201171875,18.543090820312
0.151,-14.409057617188,-5.6004638671875,19.183715820312
0.1515,-12.006713867188,-8.2030029296875,19.504028320312
0.152,-7.6424560546875,-11.846557617188,18.903442382812
0.1525,-2.8377685546875,-15.089721679688,17.421997070312
0.153,1.5665283203125,-17.652221679688,15.860473632812
0.1535,4.6495361328125,-19.213745117188,14.619262695312
0.154,7.0919189453125,-19.453979492188,12.617309570312
0.1545,9.9346923828125,-19.253784179688,9.8145751953125
0.155,13.458129882812,-18.453002929688,5.5704345703125
0.1555,16.661254882812,-16.931518554688,1.0860595703125
0.156,18.903442382812,-15.410034179688,-2.7176513671875
0.1565,19.704223632812,-13.608276367188,-5.2000732421875
0.157,19.904418945312,-11.205932617188,-7.9227294921875
0.1575,19.504028320312,-7.2821044921875,-11.486206054688
0.158,18.543090820312,-3.2781982421875,-14.489135742188
0.1585,17.181762695312,0.8057861328125,-17.211791992188
0.159,15.780395507812,4.1290283203125,-19.213745117188
0.1595,13.418090820312,6.6915283203125,-19.333862304688
0.16,10.615356445312,9.3741455078125,-19.373901367188
0.1605,5.8907470703125,13.177856445312,-18.573120117188
0.161,0.9659423828125,16.300903320312,-17.051635742188
0.1615,-3.0379638671875,18.422973632812,-15.410034179688
0.162,-5.6405029296875,19.504028320312,-14.088745117188
0.1625,-8.2830810546875,19.664184570312,-11.846557617188
0.163,-11.486206054688,19.063598632812,-8.2030029296875
0.1635,-14.729370117188,17.942504882812,-4.1190185546875
0.164,-17.652221679688,16.340942382812,0.4854736328125
0.1645,-19.574096679688,14.739379882812,3.7686767578125
0.165,-19.894409179688,12.617309570312,6.3311767578125
0.1655,-19.854370117188,10.054809570312,9.0538330078125
0.166,-19.293823242188,5.6104736328125,12.817504882812
0.1665,-18.172729492188,1.5264892578125,15.820434570312
0.167,-16.651245117188,-2.2772216796875,18.062622070312
0.1675,-15.249877929688,-5.1199951171875,19.584106445312
0.168,-12.727416992188,-7.7225341796875,19.664184570312
0.1685,-9.0838623046875,-10.845581054688,19.223754882812
0.169,-4.5194091796875,-14.208862304688,18.142700195312
0.1695,0.4854736328125,-17.211791992188,16.501098632812
0.17,3.9688720703125,-18.973510742188,14.979614257812
0.1705,6.3311767578125,-19.494018554688,13.338012695312
0.171,8.9337158203125,-19.694213867188,11.135864257812
0.1715,12.697387695312,-18.773315429688,6.6915283203125
0.172,15.660278320312,-17.532104492188,2.5675048828125
0.1725,18.222778320312,-15.890502929688,-1.4764404296875
0.173,19.824340820312,-14.449096679688,-4.5194091796875
0.1735,19.784301757812,-12.126831054688,-7.0018310546875
0.174,19.744262695312,-8.9237060546875,-10.084838867188
0.1745,18.943481445312,-4.6795654296875,-13.448120117188
0.175,17.782348632812,-0.4754638671875,-16.651245117188
0.1755,16.180786132812,3.0479736328125,-18.573120117188
0.176,14.459106445312,5.6104736328125,-19.373901367188
0.1765,12.016723632812,8.2530517578125,-19.694213867188
0.177,7.1719970703125,12.136840820312,-18.853393554688
0.1775,2.8477783203125,15.099731445312,-17.652221679688
0.178,-1.6766357421875,17.782348632812,-16.090698242188
