wavelength,x,y,z
0.0,-22.617065429688,13.458129882812,8.2130126953125
0.0005,-22.536987304688,10.094848632812,11.135864257812
0.001,-21.696166992188,5.4102783203125,15.500122070312
0.0015,-20.695190429688,1.0860595703125,18.663208007812
0.002,-18.973510742188,-3.2381591796875,21.185668945312
0.0025,-16.651245117188,-6.6014404296875,22.266723632812
0.003,-13.408081054688,-9.5643310546875,22.066528320312
0.0035,-9.9246826171875,-12.927612304688,22.066528320312
0.004,-3.9989013671875,-17.171752929688,20.625122070312
0.0045,1.4063720703125,-20.094604492188,18.503051757812
0.005,4.9698486328125,-21.495971679688,16.621215820312
0.0055,8.1729736328125,-22.296752929688,14.379028320312
0.006,11.536254882812,-21.856323242188,10.935668945312
0.0065,15.540161132812,-21.015502929688,6.2510986328125
0.007,19.023559570312,-19.814331054688,1.6466064453125
0.0075,21.706176757812,-17.652221679688,-3.1981201171875
0.008,22.426879882812,-15.410034179688,-6.1209716796875
0.0085,22.546997070312,-12.487182617188,-9.1639404296875
0.009,22.587036132812,-8.9637451171875,-12.487182617188
0.0095,21.586059570312,-3.9989013671875,-16.651245117188
0.01,20.104614257812,0.6055908203125,-19.694213867188
0.0105,18.142700195312,4.2091064453125,-21.455932617188
0.011,15.820434570312,7.3721923828125,-22.416870117188
0.0115,12.136840820312,10.575317382812,-22.016479492188
0.012,7.5323486328125,14.499145507812,-21.495971679688
0.0125,2.3673095703125,18.182739257812,-20.254760742188
0.013,-3.0379638671875,20.825317382812,-17.812377929688
0.0135,-5.9608154296875,21.746215820312,-15.930541992188
0.014,-9.2039794921875,22.146606445312,-13.328002929688
0.0145,-12.647338867188,21.906372070312,-9.7645263671875
0.015,-16.811401367188,20.585083007812,-4.6395263671875
0.0155,-20.054565429688,18.943481445312,0.2452392578125
0.016,-22.096557617188,16.861450195312,4.2891845703125
0.0165,-22.777221679688,14.379028320312,7.0518798828125
0.017,-22.697143554688,11.095825195312,10.535278320312
0.0175,-22.296752929688,7.2120361328125,14.098754882812
0.018,-21.455932617188,2.5274658203125,17.902465820312
0.0185,-19.534057617188,-2.2772216796875,20.785278320312
0.019,-17.331909179688,-5.5203857421875,21.906372070312
0.0195,-14.929565429688,-8.5233154296875,22.667114257812
0.02,-11.045776367188,-11.886596679688,22.146606445312
0.0205,-5.6405029296875,-15.970581054688,20.985473632812
0.021,-0.6356201171875,-19.213745117188,19.504028320312
0.0215,4.1290283203125,-21.415893554688,17.301879882812
0.022,7.0518798828125,-21.936401367188,15.099731445312
0.0225,10.455200195312,-22.056518554688,12.016723632812
0.023,14.058715820312,-21.576049804688,8.1729736328125
0.0235,17.942504882812,-20.294799804688,3.1280517578125
0.024,20.865356445312,-18.252807617188,-1.8768310546875
0.0245,22.346801757812,-16.170776367188,-5.2000732421875
0.025,22.667114257812,-13.608276367188,-8.1629638671875
0.0255,22.426879882812,-9.9647216796875,-11.526245117188
0.026,21.626098632812,-5.4803466796875,-15.249877929688
0.0265,20.745239257812,-1.2362060546875,-18.613159179688
0.027,18.743286132812,3.2481689453125,-21.135620117188
0.0275,16.300903320312,6.2510986328125,-21.736206054688
0.028,13.498168945312,9.3341064453125,-22.136596679688
0.0285,9.2940673828125,13.057739257812,-21.656127929688
0.029,3.8487548828125,16.861450195312,-20.294799804688
0.0295,-1.2362060546875,19.704223632812,-18.332885742188
0.03,-4.9998779296875,21.385864257812,-16.571166992188
0.0305,-7.8826904296875,21.746215820312,-14.248901367188
0.031,-11.245971679688,21.505981445312,-10.925659179688
0.0315,-15.089721679688,20.785278320312,-6.4813232421875
0.032,-18.613159179688,19.383911132812,-1.6365966796875
0.0325,-21.215698242188,17.181762695312,2.9678955078125
0.033,-22.056518554688,15.179809570312,5.8907470703125
0.0335,-22.416870117188,12.457153320312,8.9337158203125
0.034,-22.096557617188,8.6134033203125,12.497192382812
0.0345,-21.215698242188,4.0489501953125,16.260864257812
0.035,-19.894409179688,-0.3153076171875,19.223754882812
0.0355,-18.052612304688,-4.1990966796875,21.305786132812
0.036,-15.570190429688,-7.0819091796875,21.746215820312
0.0365,-12.407104492188,-10.084838867188,21.786254882812
0.037,-7.8426513671875,-13.968627929688,21.185668945312
0.0375,-2.4774169921875,-17.572143554688,19.704223632812
0.038,2.3673095703125,-20.014526367188,17.502075195312
0.0385,5.4503173828125,-21.135620117188,15.780395507812
0.039,8.5333251953125,-21.536010742188,13.297973632812
0.0395,12.016723632812,-21.135620117188,9.6143798828125
0.04,15.820434570312,-20.254760742188,5.0899658203125
0.0405,19.143676757812,-18.653198242188,0.3653564453125
0.041,21.185668945312,-16.611206054688,-3.7186279296875
0.0415,21.666137695312,-14.328979492188,-6.3612060546875
0.042,21.826293945312,-11.406127929688,-9.5242919921875
0.0425,21.465942382812,-7.3221435546875,-13.287963867188
0.043,20.625122070312,-3.0379638671875,-16.811401367188
0.0435,18.903442382812,1.3262939453125,-19.373901367188
0.044,17.101684570312,4.6495361328125,-20.895385742188
0.0445,14.539184570312,7.5323486328125,-21.616088867188
0.045,10.855590820312,10.855590820312,-21.055541992188
0.0455,6.0909423828125,14.659301757812,-20.214721679688
0.046,1.0059814453125,18.102661132812,-18.853393554688
0.0465,-3.3983154296875,20.104614257812,-16.731323242188
0.047,-6.1209716796875,20.745239257812,-14.889526367188
0.0475,-9.2440185546875,21.065551757812,-12.286987304688
0.048,-12.967651367188,20.424926757812,-8.1629638671875
0.0485,-16.491088867188,19.383911132812,-3.7186279296875
0.049,-19.373901367188,17.622192382812,0.8858642578125
0.0495,-21.135620117188,15.740356445312,4.5294189453125
0.05,-21.415893554688,13.297973632812,7.1319580078125
0.0505,-21.576049804688,10.094848632812,10.495239257812
0.051,-21.015502929688,5.7706298828125,14.258911132812
0.0515,-20.134643554688,1.4864501953125,17.702270507812
0.052,-18.252807617188,-2.5975341796875,19.904418945312
0.0525,-16.170776367188,-5.4403076171875,20.905395507812
0.053,-13.728393554688,-8.4031982421875,21.385864257812
0.0535,-9.3240966796875,-12.246948242188,20.785278320312
0.054,-4.6395263671875,-15.650268554688,19.704223632812
0.0545,0.3253173828125,-18.573120117188,18.022583007812
0.055,4.2091064453125,-20.374877929688,16.180786132812
0.0555,6.8516845703125,-20.695190429688,14.018676757812
0.056,10.014770507812,-20.895385742188,11.255981445312
0.0565,14.058715820312,-20.134643554688,6.5714111328125
0.057,17.421997070312,-18.733276367188,2.1671142578125
0.0575,19.824340820312,-17.011596679688,-2.0770263671875
0.058,20.985473632812,-15.089721679688,-5.0399169921875
0.0585,21.185668945312,-12.487182617188,-7.8426513671875
0.059,21.025512695312,-8.6834716796875,-11.526245117188
0.0595,20.344848632812,-4.6395263671875,-14.889526367188
0.06,19.223754882812,-0.3953857421875,-18.092651367188
0.0605,17.341918945312,3.3682861328125,-19.934448242188
0.061,15.059692382812,6.0509033203125,-20.254760742188
0.0615,12.497192382812,8.9737548828125,-20.775268554688
0.062,7.4923095703125,13.057739257812,-19.974487304688
0.0625,2.8477783203125,16.300903320312,-18.733276367188
0.063,-1.5965576171875,18.583129882812,-16.931518554688
0.0635,-4.8397216796875,20.024536132812,-15.329956054688
0.064,-7.5623779296875,20.104614257812,-12.847534179688
0.0645,-10.845581054688,20.064575195312,-9.8045654296875
0.065,-14.689331054688,19.263793945312,-5.4403076171875
0.0655,-17.852416992188,17.782348632812,-0.7957763671875
0.066,-19.814331054688,16.020629882812,2.8878173828125
0.0665,-20.494995117188,14.018676757812,5.4903564453125
0.067,-20.815307617188,11.376098632812,8.4532470703125
0.0675,-20.414916992188,7.0518798828125,12.377075195312
0.068,-19.734252929688,3.2481689453125,15.620239257812
0.0685,-18.412963867188,-0.7957763671875,18.182739257812
0.069,-16.611206054688,-4.1190185546875,19.904418945312
0.0695,-14.328979492188,-6.7215576171875,20.024536132812
0.07,-11.245971679688,-9.6844482421875,20.184692382812
0.0705,-6.3612060546875,-13.608276367188,19.343872070312
0.071,-1.4364013671875,-16.811401367188,17.902465820312
0.0715,2.4473876953125,-18.733276367188,16.140747070312
0.072,5.2100830078125,-19.854370117188,14.459106445312
0.0725,8.1329345703125,-19.934448242188,12.056762695312
0.073,11.816528320312,-19.373901367188,7.9727783203125
0.0735,15.099731445312,-18.613159179688,4.1690673828125
0.074,17.982543945312,-17.091674804688,-0.1951904296875
0.0745,19.584106445312,-15.410034179688,-3.4783935546875
0.075,19.864379882812,-13.127807617188,-5.8807373046875
0.0755,20.184692382812,-10.445190429688,-8.9237060546875
0.076,19.704223632812,-6.0408935546875,-12.887573242188
0.0765,18.903442382812,-2.0770263671875,-16.010620117188
0.077,17.381958007812,1.5264892578125,-18.132690429688
0.0775,15.780395507812,4.4893798828125,-19.494018554688
0.078,13.137817382812,7.2120361328125,-19.654174804688
0.0785,9.2540283203125,10.735473632812,-19.373901367188
0.079,5.0098876953125,14.138793945312,-18.733276367188
0.0795,0.1651611328125,17.141723632812,-17.131713867188
0.08,-3.1981201171875,18.743286132812,-15.490112304688
0.0805,-5.7606201171875,19.183715820312,-13.768432617188
0.081,-8.6834716796875,19.624145507812,-11.406127929688
0.0815,-12.847534179688,18.823364257812,-6.6414794921875
0.082,-15.970581054688,17.782348632812,-2.6375732421875
0.0825,-18.252807617188,16.300903320312,1.1260986328125
0.083,-19.614135742188,14.659301757812,4.1290283203125
0.0835,-19.734252929688,12.176879882812,6.6915283203125
0.084,-19.894409179688,8.9337158203125,10.134887695312
0.0845,-19.494018554688,4.8497314453125,13.698364257812
0.085,-18.453002929688,0.7257080078125,16.821411132812
0.0855,-16.731323242188,-2.6375732421875,18.543090820312
0.086,-14.969604492188,-5.2000732421875,19.343872070312
0.0865,-12.487182617188,-8.0428466796875,19.784301757812
0.087,-7.6024169921875,-12.046752929688,19.023559570312
0.0875,-3.4783935546875,-15.089721679688,18.062622070312
0.088,0.8858642578125,-17.652221679688,16.501098632812
0.0885,4.0489501953125,-19.053588867188,14.979614257812
0.089,6.4913330078125,-19.213745117188,12.777465820312
0.0895,9.7344970703125,-19.333862304688,10.014770507812
0.09,13.778442382812,-18.613159179688,5.4503173828125
0.0905,16.781372070312,-17.251831054688,1.1260986328125
0.091,18.543090820312,-15.690307617188,-2.1170654296875
0.0915,19.504028320312,-13.968627929688,-4.7596435546875
0.092,19.664184570312,-11.326049804688,-7.4422607421875
0.0925,19.463989257812,-7.3221435546875,-11.406127929688
0.093,18.943481445312,-3.7586669921875,-14.409057617188
0.0935,17.782348632812,0.2452392578125,-17.251831054688
0.094,16.060668945312,3.4083251953125,-18.733276367188
0.0945,13.738403320312,5.8907470703125,-18.933471679688
0.095,11.175903320312,8.8936767578125,-19.413940429688
0.0955,5.9708251953125,12.977661132812,-18.573120117188
0.096,1.4864501953125,15.980590820312,-17.211791992188
0.0965,-2.0770263671875,17.782348632812,-15.730346679688
0.097,-4.9998779296875,19.063598632812,-14.248901367188
0.0975,-7.7225341796875,19.063598632812,-11.766479492188
0.098,-11.286010742188,18.783325195312,-8.0828857421875
0.0985,-14.769409179688,18.182739257812,-4.1590576171875
0.099,-17.652221679688,16.581176757812,0.2852783203125
0.0995,-19.053588867188,14.979614257812,3.2081298828125
0.1,-19.574096679688,12.857543945312,5.7706298828125
0.1005,-19.854370117188,10.255004882812,8.6134033203125
0.101,-19.373901367188,5.6905517578125,12.777465820312
0.1015,-18.573120117188,1.9268798828125,15.780395507812
0.102,-17.211791992188,-1.5965576171875,17.902465820312
0.1025,-15.610229492188,-4.5194091796875,19.263793945312
0.103,-12.807495117188,-7.1219482421875,19.183715820312
0.1035,-9.4442138671875,-10.485229492188,19.183715820312
0.104,-4.7196044921875,-14.328979492188,18.382934570312
0.1045,0.1251220703125,-17.051635742188,16.581176757812
0.105,3.1680908203125,-18.412963867188,15.139770507812
0.1055,5.8907470703125,-19.173706054688,13.418090820312
0.106,8.7335205078125,-19.253784179688,10.895629882812
0.1065,12.777465820312,-18.533081054688,6.2510986328125
0.107,15.860473632812,-17.572143554688,2.4073486328125
0.1075,18.142700195312,-16.050659179688,-1.3563232421875
0.108,19.143676757812,-14.409057617188,-3.9989013671875
0.1085,19.223754882812,-11.926635742188,-6.6014404296875
0.109,19.383911132812,-8.9637451171875,-9.6844482421875
0.1095,18.943481445312,-4.7196044921875,-13.448120117188
0.11,17.782348632812,-0.7156982421875,-16.370971679688
0.1105,16.260864257812,2.2872314453125,-17.812377929688
0.111,14.579223632812,5.0899658203125,-18.933471679688
0.1115,11.856567382812,7.6925048828125,-18.933471679688
0.112,7.3721923828125,11.536254882812,-18.412963867188
0.1125,3.2081298828125,14.739379882812,-17.652221679688
0.113,-1.1160888671875,17.181762695312,-16.010620117188
0.1135,-3.8787841796875,18.302856445312,-14.569213867188
0.114,-6.4412841796875,18.583129882812,-12.447143554688
0.1145,-9.4442138671875,18.823364257812,-9.8846435546875
0.115,-13.448120117188,17.982543945312,-5.2000732421875
0.1155,-16.451049804688,16.781372070312,-0.8358154296875
0.116,-18.132690429688,15.219848632812,2.0469970703125
0.1165,-19.093627929688,13.578247070312,4.6094970703125
0.117,-19.093627929688,11.015747070312,7.2520751953125
0.1175,-19.013549804688,7.3321533203125,10.855590820312
0.118,-18.613159179688,3.6085205078125,14.138793945312
0.1185,-17.371948242188,-0.3953857421875,16.901489257812
0.119,-15.690307617188,-3.2381591796875,18.102661132812
0.1195,-13.808471679688,-5.8006591796875,18.783325195312
0.12,-11.085815429688,-8.7235107421875,19.023559570312
0.1205,-5.9608154296875,-12.767456054688,18.062622070312
0.121,-1.6365966796875,-15.690307617188,16.941528320312
0.1215,1.9268798828125,-17.652221679688,15.500122070312
0.122,4.7296142578125,-18.613159179688,14.018676757812
0.1225,7.5323486328125,-18.693237304688,11.456176757812
0.123,10.935668945312,-18.573120117188,8.0928955078125
0.1235,14.379028320312,-17.932495117188,3.9688720703125
0.124,17.301879882812,-16.210815429688,-0.3553466796875
0.1245,18.543090820312,-14.609252929688,-2.9578857421875
0.125,19.063598632812,-12.807495117188,-5.4803466796875
0.1255,19.183715820312,-10.124877929688,-8.2830810546875
0.126,18.743286132812,-5.8006591796875,-12.166870117188
0.1265,18.102661132812,-2.1971435546875,-15.169799804688
0.127,16.861450195312,1.3262939453125,-17.452026367188
0.1275,15.059692382812,4.0889892578125,-18.493041992188
0.128,12.497192382812,6.7716064453125,-18.653198242188
0.1285,9.1739501953125,10.174926757812,-18.853393554688
0.129,4.3292236328125,14.018676757812,-17.972534179688
0.1295,-0.3153076171875,16.741333007812,-16.290893554688
0.13,-3.1981201171875,18.102661132812,-15.009643554688
0.1305,-5.8406982421875,18.943481445312,-13.408081054688
0.131,-8.7635498046875,18.903442382812,-10.645385742188
0.1315,-12.687377929688,18.302856445312,-6.2811279296875
0.132,-15.890502929688,17.421997070312,-2.3172607421875
0.1325,-18.252807617188,15.740356445312,1.8468017578125
0.133,-19.133666992188,14.058715820312,4.1690673828125
0.1335,-19.494018554688,11.616333007812,7.0118408203125
0.134,-19.574096679688,8.6134033203125,10.094848632812
0.1345,-19.053588867188,4.3292236328125,13.898559570312
0.135,-17.852416992188,0.2852783203125,16.701293945312
0.1355,-16.411010742188,-2.8778076171875,18.382934570312
0.136,-14.569213867188,-5.5604248046875,19.303833007812
0.1365,-11.606323242188,-8.3631591796875,19.183715820312
0.137,-7.4022216796875,-12.046752929688,18.783325195312
0.1375,-2.7176513671875,-15.530151367188,17.822387695312
0.138,1.8868408203125,-17.892456054688,15.900512695312
0.1385,4.4893798828125,-18.773315429688,14.379028320312
0.139,7.2921142578125,-19.333862304688,12.296997070312
0.1395,10.415161132812,-19.213745117188,9.2139892578125
0.14,14.218872070312,-18.292846679688,4.6895751953125
0.1405,17.261840820312,-16.971557617188,0.4854736328125
0.141,19.063598632812,-15.329956054688,-2.9578857421875
0.1415,19.584106445312,-13.408081054688,-5.4002685546875
0.142,19.704223632812,-10.565307617188,-8.3231201171875
0.1425,19.463989257812,-6.8817138671875,-11.806518554688
0.143,18.983520507812,-3.0780029296875,-15.410034179688
0.1435,17.341918945312,1.1661376953125,-17.692260742188
0.144,15.580200195312,3.8487548828125,-18.853393554688
0.1445,13.498168945312,6.6514892578125,-19.534057617188
0.145,10.094848632812,9.7745361328125,-19.333862304688
0.1455,5.3702392578125,13.498168945312,-18.453002929688
0.146,0.8858642578125,16.621215820312,-17.251831054688
0.1465,-3.0780029296875,18.543090820312,-15.530151367188
0.147,-5.5203857421875,19.143676757812,-13.808471679688
0.1475,-8.4832763671875,19.303833007812,-11.286010742188
0.148,-12.046752929688,18.943481445312,-7.5623779296875
0.1485,-15.530151367188,17.942504882812,-3.1981201171875
0.149,-18.172729492188,16.300903320312,1.0860595703125
0.1495,-19.494018554688,14.659301757812,3.9688720703125
0.15,-19.974487304688,12.497192382812,6.5313720703125
0.1505,-19.974487304688,9.3741455078125,9.6544189453125
0.151,-19.373901367188,5.2501220703125,13.257934570312
0.1515,-18.693237304688,1.3262939453125,16.461059570312
0.152,-17.051635742188,-2.5174560546875,18.703247070312
0.1525,-15.169799804688,-5.1199951171875,19.343872070312
0.153,-12.807495117188,-7.8026123046875,19.824340820312
0.1535,-8.8436279296875,-11.366088867188,19.504028320312
0.154,-3.9188232421875,-14.889526367188,18.342895507812
0.1545,0.6456298828125,-17.532104492188,16.661254882812
0.155,3.9288330078125,-19.133666992188,15.219848632812
0.1555,6.5714111328125,-19.574096679688,13.177856445312
0.156,9.6544189453125,-19.534057617188,10.295043945312
0.1565,13.418090820312,-18.933471679688,6.1309814453125
0.157,16.701293945312,-17.772338867188,1.8067626953125
0.1575,18.943481445312,-16.010620117188,-2.1971435546875
0.158,19.704223632812,-14.208862304688,-4.6795654296875
0.1585,20.104614257812,-11.766479492188,-7.4822998046875
0.159,19.944458007812,-8.1229248046875,-10.925659179688
0.1595,19.343872070312,-4.1590576171875,-14.449096679688
0.16,18.142700195312,-0.1951904296875,-17.251831054688
0.1605,16.501098632812,3.2882080078125,-19.173706054688
0.161,14.258911132812,5.9708251953125,-19.534057617188
0.1615,11.496215820312,8.8936767578125,-19.734252929688
0.162,7.0118408203125,12.777465820312,-19.253784179688
0.1625,2.2471923828125,16.140747070312,-18.052612304688
0.163,-2.0770263671875,18.302856445312,-16.210815429688
0.1635,-4.8797607421875,19.343872070312,-14.689331054688
0.164,-7.7225341796875,19.744262695312,-12.447143554688
0.1645,-11.125854492188,19.463989257812,-8.9637451171875
0.165,-14.769409179688,18.663208007812,-4.6395263671875
0.1655,-17.932495117188,17.261840820312,-0.1551513671875
0.166,-19.854370117188,15.420043945312,3.5284423828125
0.1665,-20.294799804688,13.378051757812,6.0108642578125
0.167,-20.535034179688,10.655395507812,9.0538330078125
0.1675,-20.214721679688,6.4112548828125,12.857543945312
0.168,-19.494018554688,2.4073486328125,16.220825195312
0.1685,-17.932495117188,-1.6365966796875,18.583129882812
0.169,-16.210815429688,-4.7596435546875,20.104614257812
0.1695,-13.728393554688,-7.4422607421875,20.344848632812
0.17,-10.124877929688,-10.765502929688,20.144653320312
0.1705,-5.4403076171875,-14.409057617188,19.263793945312
0.171,-0.3953857421875,-17.692260742188,17.782348632812
0.1715,3.6485595703125,-19.494018554688,15.820434570312
0.172,6.2510986328125,-20.014526367188,13.938598632812
0.1725,9.2940673828125,-20.334838867188,11.456176757812
0.173,13.137817382812,-19.614135742188,7.0518798828125
0.1735,16.461059570312,-18.573120117188,2.8477783203125
0.174,19.143676757812,-16.931518554688,-1.4764404296875
0.1745,20.585083007812,-15.089721679688,-4.6795654296875
0.175,20.625122070312,-12.527221679688,-7.2020263671875
0.1755,20.785278320312,-9.4442138671875,-10.525268554688
0.176,20.144653320312,-5.1199951171875,-14.248901367188
0.1765,19.143676757812,-0.9959716796875,-17.492065429688
0.177,17.301879882812,2.8878173828125,-19.373901367188
0.1775,15.339965820312,5.6905517578125,-20.214721679688
0.178,12.657348632812,8.5733642578125,-20.535034179688
