wavelength,x,y,z
0.0,0.6156005859375,-6.3511962890625,3.5784912109375
0.0005,-0.5855712890625,-6.4312744140625,4.7796630859375
0.001,-1.1461181640625,-6.5513916015625,5.5804443359375
0.0015,-1.9869384765625,-6.3111572265625,6.1810302734375
0.002,-3.1480712890625,-5.3101806640625,6.5814208984375
0.0025,-4.3892822265625,-3.8687744140625,6.7015380859375
0.003,-5.4302978515625,-2.3873291015625,6.5814208984375
0.0035,-6.1109619140625,-1.3463134765625,6.5013427734375
0.004,-6.2711181640625,-0.6656494140625,6.3411865234375
0.0045,-6.1510009765625,0.2552490234375,5.7406005859375
0.005,-5.9107666015625,1.3363037109375,4.6595458984375
0.0055,-5.5103759765625,2.6976318359375,3.2181396484375
0.006,-5.2701416015625,3.9388427734375,1.8968505859375
0.0065,-4.9898681640625,4.7396240234375,0.9759521484375
0.007,-4.5093994140625,5.2200927734375,0.1751708984375
0.0075,-3.6685791015625,5.5003662109375,-0.9459228515625
0.008,-2.2672119140625,5.6204833984375,-2.3472900390625
0.0085,-0.8658447265625,5.6204833984375,-3.7886962890625
0.009,0.1351318359375,5.7406005859375,-4.8697509765625
0.0095,0.7357177734375,5.8607177734375,-5.7105712890625
0.01,1.7366943359375,5.4202880859375,-6.2711181640625
0.0105,2.9378662109375,4.3392333984375,-6.5914306640625
0.011,4.1390380859375,2.8577880859375,-6.6314697265625
0.0115,5.1800537109375,1.4564208984375,-6.5513916015625
0.012,5.6204833984375,0.6156005859375,-6.4713134765625
0.0125,5.7406005859375,-0.2252197265625,-6.2310791015625
0.013,5.6204833984375,-1.0660400390625,-5.5504150390625
0.0135,5.3402099609375,-2.2672119140625,-4.3092041015625
0.014,4.9798583984375,-3.6285400390625,-2.8677978515625
0.0145,4.7796630859375,-4.7496337890625,-1.7066650390625
0.015,4.4993896484375,-5.4302978515625,-0.9459228515625
0.0155,3.8587646484375,-5.7906494140625,0.0150146484375
0.016,2.8577880859375,-6.0308837890625,1.1361083984375
0.0165,1.5364990234375,-6.1510009765625,2.5374755859375
0.017,0.2552490234375,-6.2711181640625,3.8587646484375
0.0175,-0.5855712890625,-6.4312744140625,4.7796630859375
0.018,-1.2662353515625,-6.3912353515625,5.5804443359375
0.0185,-2.1871337890625,-5.7906494140625,6.1009521484375
0.019,-3.5484619140625,-4.5093994140625,6.3812255859375
0.0195,-4.6695556640625,-3.0679931640625,6.3411865234375
0.02,-5.5103759765625,-1.9068603515625,6.3411865234375
0.0205,-5.8306884765625,-1.2261962890625,6.2611083984375
0.021,-5.9107666015625,-0.4654541015625,5.9007568359375
0.0215,-5.7506103515625,0.5755615234375,5.0999755859375
0.022,-5.4302978515625,1.7767333984375,3.8587646484375
0.0225,-5.1500244140625,3.0579833984375,2.4573974609375
0.023,-4.9498291015625,4.0189208984375,1.4964599609375
0.0235,-4.6295166015625,4.6595458984375,0.7757568359375
0.024,-4.0689697265625,5.0599365234375,-0.1451416015625
0.0245,-2.9478759765625,5.1800537109375,-1.4263916015625
0.025,-1.6265869140625,5.3001708984375,-2.8277587890625
0.0255,-0.6256103515625,5.4202880859375,-4.0289306640625
0.026,0.1351318359375,5.7406005859375,-4.8697509765625
0.0265,0.9359130859375,5.5804443359375,-5.6304931640625
0.027,1.9769287109375,4.8597412109375,-6.0709228515625
0.0275,3.1781005859375,3.5784912109375,-6.2711181640625
0.028,4.3392333984375,2.1771240234375,-6.2711181640625
0.0285,5.0198974609375,1.2562255859375,-6.2711181640625
0.029,5.3001708984375,0.5755615234375,-6.2310791015625
0.0295,5.3802490234375,-0.3052978515625,-5.7906494140625
0.03,5.1800537109375,-1.2662353515625,-4.9097900390625
0.0305,4.8597412109375,-2.5074462890625,-3.6685791015625
0.031,4.6995849609375,-3.7086181640625,-2.5074462890625
0.0315,4.5794677734375,-4.5494384765625,-1.6666259765625
0.032,4.2191162109375,-5.1500244140625,-0.9058837890625
0.0325,3.5384521484375,-5.5103759765625,0.1351318359375
0.033,2.4573974609375,-5.7506103515625,1.3363037109375
0.0335,1.1761474609375,-5.9107666015625,2.6976318359375
0.034,0.3753662109375,-6.1109619140625,3.7786865234375
0.0345,-0.3853759765625,-6.3511962890625,4.6195068359375
0.035,-1.2662353515625,-6.0709228515625,5.3402099609375
0.0355,-2.3873291015625,-5.1900634765625,5.7406005859375
0.036,-3.5484619140625,-3.9888916015625,5.9407958984375
0.0365,-4.6295166015625,-2.7076416015625,5.9808349609375
0.037,-5.1900634765625,-1.9468994140625,6.1009521484375
0.0375,-5.4703369140625,-1.3062744140625,6.0208740234375
0.038,-5.5103759765625,-0.5855712890625,5.5804443359375
0.0385,-5.3502197265625,0.6156005859375,4.6195068359375
0.039,-5.1500244140625,1.8568115234375,3.3782958984375
0.0395,-4.9898681640625,3.0179443359375,2.3773193359375
0.04,-4.8697509765625,3.8187255859375,1.5765380859375
0.0405,-4.4693603515625,4.3392333984375,0.8157958984375
0.041,-3.7086181640625,4.6595458984375,-0.3052978515625
0.0415,-2.6275634765625,4.9398193359375,-1.5865478515625
0.042,-1.4664306640625,5.1800537109375,-2.8677978515625
0.0425,-0.7457275390625,5.5003662109375,-3.8687744140625
0.043,0.0150146484375,5.6605224609375,-4.7896728515625
0.0435,0.9359130859375,5.3402099609375,-5.4302978515625
0.044,2.1370849609375,4.3392333984375,-5.7906494140625
0.0445,3.3382568359375,3.0579833984375,-5.9107666015625
0.045,4.2591552734375,1.9368896484375,-6.0709228515625
0.0455,4.7796630859375,1.2562255859375,-6.1510009765625
0.046,5.0198974609375,0.5755615234375,-5.9508056640625
0.0465,4.9798583984375,-0.3853759765625,-5.3902587890625
0.047,4.8197021484375,-1.4664306640625,-4.3892822265625
0.0475,4.6995849609375,-2.7476806640625,-3.2281494140625
0.048,4.6195068359375,-3.7886962890625,-2.3072509765625
0.0485,4.4993896484375,-4.5894775390625,-1.5865478515625
0.049,4.0189208984375,-5.1099853515625,-0.7857666015625
0.0495,3.0980224609375,-5.4703369140625,0.4554443359375
0.05,1.9368896484375,-5.6304931640625,1.7767333984375
0.0505,0.9759521484375,-5.9107666015625,3.0179443359375
0.051,0.3353271484375,-6.2711181640625,3.9788818359375
0.0515,-0.5855712890625,-6.2711181640625,4.8197021484375
0.052,-1.6265869140625,-5.6304931640625,5.4202880859375
0.0525,-2.8677978515625,-4.5494384765625,5.7406005859375
0.053,-4.0689697265625,-3.2281494140625,5.9007568359375
0.0535,-4.8697509765625,-2.3072509765625,6.0208740234375
0.054,-5.2701416015625,-1.6666259765625,6.0609130859375
0.0545,-5.4302978515625,-0.9459228515625,5.7406005859375
0.055,-5.3902587890625,0.1351318359375,4.9798583984375
0.0555,-5.1500244140625,1.3363037109375,3.8587646484375
0.056,-5.0299072265625,2.6175537109375,2.6976318359375
0.0565,-4.9498291015625,3.4984130859375,1.8568115234375
0.057,-4.6295166015625,4.1390380859375,1.0960693359375
0.0575,-4.0689697265625,4.5794677734375,0.1351318359375
0.058,-2.9478759765625,4.9398193359375,-1.1861572265625
0.0585,-1.7867431640625,5.0999755859375,-2.5875244140625
0.059,-0.9459228515625,5.4202880859375,-3.7086181640625
0.0595,-0.3052978515625,5.6605224609375,-4.6295166015625
0.06,0.7357177734375,5.4202880859375,-5.3101806640625
0.0605,1.9368896484375,4.5394287109375,-5.7906494140625
0.061,3.0980224609375,3.3382568359375,-5.9508056640625
0.0615,4.1790771484375,2.0570068359375,-6.0709228515625
0.062,4.8197021484375,1.2562255859375,-6.1510009765625
0.0625,5.0999755859375,0.5755615234375,-6.0308837890625
0.063,5.0999755859375,-0.3052978515625,-5.5904541015625
0.0635,4.9398193359375,-1.4263916015625,-4.5494384765625
0.064,4.7396240234375,-2.7076416015625,-3.3082275390625
0.0645,4.6195068359375,-3.8687744140625,-2.2672119140625
0.065,4.4993896484375,-4.6695556640625,-1.5064697265625
0.0655,3.9788818359375,-5.1900634765625,-0.7056884765625
0.066,3.1781005859375,-5.4703369140625,0.4554443359375
0.0665,2.0570068359375,-5.7105712890625,1.7366943359375
0.067,0.9359130859375,-5.9107666015625,3.0579833984375
0.0675,0.2152099609375,-6.1910400390625,4.0189208984375
0.068,-0.6256103515625,-6.2711181640625,4.9398193359375
0.0685,-1.5865478515625,-5.8306884765625,5.5404052734375
0.069,-2.8677978515625,-4.7496337890625,5.9007568359375
0.0695,-4.0689697265625,-3.3883056640625,5.9808349609375
0.07,-4.9898681640625,-2.2672119140625,6.0609130859375
0.0705,-5.4302978515625,-1.5865478515625,6.1009521484375
0.071,-5.5904541015625,-0.9058837890625,5.8206787109375
0.0715,-5.4703369140625,0.1751708984375,5.0999755859375
0.072,-5.3101806640625,1.2962646484375,4.0189208984375
0.0725,-5.1099853515625,2.6175537109375,2.7376708984375
0.073,-4.9898681640625,3.5784912109375,1.8167724609375
0.0735,-4.7496337890625,4.2591552734375,1.0159912109375
0.074,-4.1890869140625,4.7796630859375,0.2152099609375
0.0745,-3.1480712890625,5.0198974609375,-1.1461181640625
0.075,-1.8668212890625,5.2200927734375,-2.5474853515625
0.0755,-0.8658447265625,5.4202880859375,-3.7886962890625
0.076,-0.1851806640625,5.7005615234375,-4.7095947265625
0.0765,0.7357177734375,5.5404052734375,-5.4302978515625
0.077,1.8568115234375,4.8197021484375,-5.9508056640625
0.0775,3.1380615234375,3.5784912109375,-6.2310791015625
0.078,4.2991943359375,2.1771240234375,-6.2711181640625
0.0785,4.9798583984375,1.2161865234375,-6.2711181640625
0.079,5.3001708984375,0.4954833984375,-6.1910400390625
0.0795,5.3402099609375,-0.3453369140625,-5.7506103515625
0.08,5.1400146484375,-1.4263916015625,-4.7896728515625
0.0805,4.8997802734375,-2.7076416015625,-3.5084228515625
0.081,4.7396240234375,-3.9888916015625,-2.3072509765625
0.0815,4.4993896484375,-4.8697509765625,-1.4664306640625
0.082,4.1390380859375,-5.3502197265625,-0.6656494140625
0.0825,3.3782958984375,-5.6705322265625,0.4154052734375
0.083,2.2171630859375,-5.8707275390625,1.7767333984375
0.0835,0.8958740234375,-6.0308837890625,3.1781005859375
0.084,0.0550537109375,-6.2711181640625,4.2591552734375
0.0845,-0.7056884765625,-6.3912353515625,5.0999755859375
0.085,-1.7066650390625,-5.9508056640625,5.7406005859375
0.0855,-2.9478759765625,-4.9498291015625,6.1810302734375
0.086,-4.1890869140625,-3.5484619140625,6.3011474609375
0.0865,-5.2701416015625,-2.2271728515625,6.3011474609375
0.087,-5.7506103515625,-1.3863525390625,6.3011474609375
0.0875,-5.9107666015625,-0.6656494140625,6.0609130859375
0.088,-5.8306884765625,0.2952880859375,5.4202880859375
0.0885,-5.6304931640625,1.5364990234375,4.1390380859375
0.089,-5.3101806640625,2.8978271484375,2.6976318359375
0.0895,-5.1500244140625,4.0189208984375,1.5765380859375
0.09,-4.8297119140625,4.7796630859375,0.7757568359375
0.0905,-4.1890869140625,5.1800537109375,-0.1851806640625
0.091,-3.1480712890625,5.4202880859375,-1.3863525390625
0.0915,-1.7467041015625,5.5804443359375,-2.9078369140625
0.092,-0.5054931640625,5.6605224609375,-4.2691650390625
0.0925,0.2952880859375,5.8607177734375,-5.1900634765625
0.093,1.0960693359375,5.7406005859375,-5.9508056640625
0.0935,2.1771240234375,5.0599365234375,-6.4713134765625
0.094,3.5384521484375,3.6585693359375,-6.7515869140625
0.0945,4.7796630859375,2.0570068359375,-6.7115478515625
0.095,5.5804443359375,0.8558349609375,-6.5914306640625
0.0955,5.8206787109375,0.0950927734375,-6.4312744140625
0.096,5.8206787109375,-0.8258056640625,-5.9107666015625
0.0965,5.6204833984375,-1.9468994140625,-4.8697509765625
0.097,5.2601318359375,-3.3482666015625,-3.3883056640625
0.0975,4.8997802734375,-4.6295166015625,-2.0269775390625
0.098,4.6595458984375,-5.4703369140625,-1.0260009765625
0.0985,4.2191162109375,-6.0308837890625,-0.2252197265625
0.099,3.3382568359375,-6.2711181640625,0.8157958984375
0.0995,1.9769287109375,-6.3511962890625,2.2572021484375
0.1,0.4954833984375,-6.3912353515625,3.7786865234375
0.1005,-0.6256103515625,-6.4713134765625,4.9398193359375
0.101,-1.2662353515625,-6.5513916015625,5.7406005859375
0.1015,-2.1871337890625,-6.1510009765625,6.3812255859375
0.102,-3.4683837890625,-5.0699462890625,6.7415771484375
0.1025,-4.7095947265625,-3.5484619140625,6.8216552734375
0.103,-5.7506103515625,-2.0269775390625,6.7015380859375
0.1035,-6.3111572265625,-1.0260009765625,6.5413818359375
0.104,-6.3912353515625,-0.3052978515625,6.2611083984375
0.1045,-6.2711181640625,0.6956787109375,5.5003662109375
0.105,-5.9107666015625,1.8968505859375,4.2591552734375
0.1055,-5.5904541015625,3.1781005859375,2.6976318359375
0.106,-5.1900634765625,4.4993896484375,1.4163818359375
0.1065,-4.8297119140625,5.1800537109375,0.4954833984375
0.107,-4.2291259765625,5.6204833984375,-0.4254150390625
0.1075,-3.2281494140625,5.7406005859375,-1.4664306640625
0.108,-1.7467041015625,5.8206787109375,-3.0679931640625
0.1085,-0.3052978515625,5.8206787109375,-4.4693603515625
0.109,0.6156005859375,5.9007568359375,-5.4703369140625
0.1095,1.2962646484375,5.9007568359375,-6.1910400390625
0.11,2.2972412109375,5.2601318359375,-6.7515869140625
0.1105,3.5784912109375,3.9788818359375,-6.9918212890625
0.111,4.8197021484375,2.4173583984375,-6.9918212890625
0.1115,5.7406005859375,0.9759521484375,-6.7916259765625
0.112,6.1009521484375,0.1351318359375,-6.6314697265625
0.1125,6.1009521484375,-0.7857666015625,-6.2711181640625
0.113,5.9007568359375,-1.7066650390625,-5.4302978515625
0.1135,5.5003662109375,-3.0679931640625,-3.9888916015625
0.114,5.0999755859375,-4.3892822265625,-2.4273681640625
0.1145,4.8197021484375,-5.4703369140625,-1.1861572265625
0.115,4.4193115234375,-6.0709228515625,-0.3853759765625
0.1155,3.6585693359375,-6.3511962890625,0.6156005859375
0.116,2.4974365234375,-6.4713134765625,1.8568115234375
0.1165,0.9759521484375,-6.5113525390625,3.3782958984375
0.117,-0.4254150390625,-6.5113525390625,4.7396240234375
0.1175,-1.1461181640625,-6.5914306640625,5.6204833984375
0.118,-1.9068603515625,-6.4713134765625,6.3011474609375
0.1185,-2.9478759765625,-5.7105712890625,6.7415771484375
0.119,-4.3492431640625,-4.2291259765625,6.9017333984375
0.1195,-5.4703369140625,-2.6275634765625,6.8216552734375
0.12,-6.2711181640625,-1.3062744140625,6.7015380859375
0.1205,-6.4713134765625,-0.6256103515625,6.4613037109375
0.121,-6.3912353515625,0.2952880859375,5.9007568359375
0.1215,-6.1910400390625,1.3763427734375,4.8597412109375
0.122,-5.7506103515625,2.7376708984375,3.3782958984375
0.1225,-5.3902587890625,4.0989990234375,1.9368896484375
0.123,-5.0699462890625,4.9798583984375,0.8558349609375
0.1235,-4.5894775390625,5.5003662109375,0.0550537109375
0.124,-3.7886962890625,5.7406005859375,-0.9859619140625
0.1245,-2.3472900390625,5.8206787109375,-2.4273681640625
0.125,-0.8658447265625,5.8607177734375,-3.9488525390625
0.1255,0.3753662109375,5.9007568359375,-5.1900634765625
0.126,0.9759521484375,6.0208740234375,-5.9508056640625
0.1265,1.8568115234375,5.6204833984375,-6.5914306640625
0.127,3.0579833984375,4.6195068359375,-6.9918212890625
0.1275,4.3792724609375,3.0579833984375,-7.0318603515625
0.128,5.4603271484375,1.4564208984375,-6.9117431640625
0.1285,6.0609130859375,0.3753662109375,-6.7515869140625
0.129,6.1810302734375,-0.5054931640625,-6.4713134765625
0.1295,5.9407958984375,-1.4263916015625,-5.7906494140625
0.13,5.7005615234375,-2.5474853515625,-4.5093994140625
0.1305,5.2601318359375,-3.8687744140625,-2.9478759765625
0.131,4.9398193359375,-5.1500244140625,-1.5865478515625
0.1315,4.6195068359375,-5.9107666015625,-0.6656494140625
0.132,4.0189208984375,-6.3511962890625,0.2952880859375
0.1325,3.0579833984375,-6.5113525390625,1.2962646484375
0.133,1.5364990234375,-6.5914306640625,2.8978271484375
0.1335,0.0150146484375,-6.5513916015625,4.4193115234375
0.134,-0.9859619140625,-6.6715087890625,5.4202880859375
0.1345,-1.6265869140625,-6.6715087890625,6.1409912109375
0.135,-2.6275634765625,-6.0308837890625,6.7015380859375
0.1355,-3.9888916015625,-4.7095947265625,7.0218505859375
0.136,-5.2301025390625,-3.1881103515625,6.9818115234375
0.1365,-6.1910400390625,-1.6666259765625,6.7816162109375
0.137,-6.5513916015625,-0.7857666015625,6.6614990234375
0.1375,-6.5914306640625,0.0550537109375,6.1810302734375
0.138,-6.3912353515625,1.0960693359375,5.3802490234375
0.1385,-6.0308837890625,2.4173583984375,3.8988037109375
0.139,-5.5504150390625,3.8587646484375,2.2572021484375
0.1395,-5.2301025390625,4.9798583984375,1.0159912109375
0.14,-4.8297119140625,5.5804443359375,0.1751708984375
0.1405,-3.9888916015625,5.8206787109375,-0.8258056640625
0.141,-2.7877197265625,5.9808349609375,-2.1070556640625
0.1415,-1.2261962890625,6.0208740234375,-3.6685791015625
0.142,0.2552490234375,5.9407958984375,-5.0699462890625
0.1425,0.9359130859375,6.0208740234375,-5.8707275390625
0.143,1.6566162109375,5.8206787109375,-6.5513916015625
0.1435,2.7376708984375,5.0198974609375,-7.0318603515625
0.144,4.1390380859375,3.4984130859375,-7.1519775390625
0.1445,5.2601318359375,1.8167724609375,-7.0318603515625
0.145,6.0208740234375,0.5355224609375,-6.7916259765625
0.1455,6.2210693359375,-0.3853759765625,-6.6314697265625
0.146,6.1009521484375,-1.1060791015625,-5.9908447265625
0.1465,5.7806396484375,-2.1470947265625,-4.9498291015625
0.147,5.3402099609375,-3.4683837890625,-3.4283447265625
0.1475,4.9798583984375,-4.7496337890625,-1.9468994140625
0.148,4.6195068359375,-5.6304931640625,-0.9459228515625
0.1485,4.1790771484375,-6.1510009765625,0.0150146484375
0.149,3.3782958984375,-6.3912353515625,0.8958740234375
0.1495,2.0570068359375,-6.4312744140625,2.2171630859375
0.15,0.4954833984375,-6.3912353515625,3.7386474609375
0.1505,-0.6656494140625,-6.4312744140625,4.8997802734375
0.151,-1.2662353515625,-6.5513916015625,5.7005615234375
0.1515,-2.0670166015625,-6.2711181640625,6.3411865234375
0.152,-3.1881103515625,-5.3101806640625,6.7015380859375
0.1525,-4.5093994140625,-3.8687744140625,6.7816162109375
0.153,-5.6304931640625,-2.3472900390625,6.6614990234375
0.1535,-6.1910400390625,-1.3062744140625,6.5013427734375
0.154,-6.3511962890625,-0.5855712890625,6.3812255859375
0.1545,-6.2711181640625,0.3753662109375,5.7406005859375
0.155,-5.9107666015625,1.4163818359375,4.6195068359375
0.1555,-5.5103759765625,2.7777099609375,3.1781005859375
0.156,-5.2701416015625,4.0589599609375,1.7767333984375
0.1565,-4.9898681640625,4.8597412109375,0.8958740234375
0.157,-4.5093994140625,5.3402099609375,0.0950927734375
0.1575,-3.6285400390625,5.6204833984375,-0.9859619140625
0.158,-2.2672119140625,5.7005615234375,-2.4273681640625
0.1585,-0.7857666015625,5.7005615234375,-3.9088134765625
0.159,0.2552490234375,5.8206787109375,-4.9898681640625
0.1595,0.8558349609375,5.9407958984375,-5.7506103515625
0.16,1.7767333984375,5.4603271484375,-6.3912353515625
0.1605,3.0179443359375,4.3392333984375,-6.7115478515625
0.161,4.2191162109375,2.8577880859375,-6.7115478515625
0.1615,5.2601318359375,1.4163818359375,-6.7115478515625
0.162,5.7406005859375,0.5755615234375,-6.5513916015625
0.1625,5.8206787109375,-0.2652587890625,-6.2711181640625
0.163,5.7406005859375,-1.1060791015625,-5.6304931640625
0.1635,5.3802490234375,-2.3072509765625,-4.3492431640625
0.164,5.0198974609375,-3.6685791015625,-2.8677978515625
0.1645,4.7796630859375,-4.7896728515625,-1.6666259765625
0.165,4.4993896484375,-5.4703369140625,-0.9058837890625
0.1655,3.8988037109375,-5.8306884765625,0.0550537109375
0.166,2.8978271484375,-6.0709228515625,1.1361083984375
0.1665,1.5364990234375,-6.1510009765625,2.5374755859375
0.167,0.2952880859375,-6.1910400390625,3.8587646484375
0.1675,-0.5855712890625,-6.3912353515625,4.8197021484375
0.168,-1.2662353515625,-6.3912353515625,5.6204833984375
0.1685,-2.1871337890625,-5.8707275390625,6.1009521484375
0.169,-3.5084228515625,-4.6295166015625,6.3812255859375
0.1695,-4.6295166015625,-3.1881103515625,6.3411865234375
0.17,-5.4703369140625,-1.9468994140625,6.3411865234375
0.1705,-5.8306884765625,-1.2261962890625,6.3011474609375
0.171,-5.9107666015625,-0.5054931640625,5.9407958984375
0.1715,-5.7506103515625,0.4954833984375,5.1800537109375
0.172,-5.4302978515625,1.6566162109375,3.9388427734375
0.1725,-5.1500244140625,2.9779052734375,2.5775146484375
0.173,-4.9898681640625,3.9788818359375,1.5765380859375
0.1735,-4.7095947265625,4.6195068359375,0.8157958984375
0.174,-4.1490478515625,4.9798583984375,0.0150146484375
0.1745,-3.0679931640625,5.1800537109375,-1.3062744140625
0.175,-1.7867431640625,5.3402099609375,-2.6275634765625
0.1755,-0.6656494140625,5.4603271484375,-3.9088134765625
0.176,0.0550537109375,5.7406005859375,-4.8297119140625
0.1765,0.8157958984375,5.5804443359375,-5.5504150390625
0.177,1.8568115234375,4.9398193359375,-6.1109619140625
0.1775,3.0179443359375,3.6585693359375,-6.2310791015625
0.178,4.2191162109375,2.2972412109375,-6.2711181640625
