wavelength,x,y,z
0.0,-5.435302734375,-15.244873046875,20.429931640625
0.0005,-0.710693359375,-17.967529296875,18.468017578125
0.001,3.453369140625,-20.449951171875,16.906494140625
0.0015,8.778564453125,-22.892333984375,14.063720703125
0.002,11.581298828125,-23.172607421875,11.661376953125
0.0025,15.385009765625,-22.091552734375,6.776611328125
0.003,16.666259765625,-20.690185546875,4.093994140625
0.0035,19.829345703125,-18.808349609375,-0.990966796875
0.004,22.071533203125,-17.006591796875,-5.155029296875
0.0045,22.752197265625,-13.363037109375,-9.479248046875
0.005,23.593017578125,-11.080810546875,-12.562255859375
0.0055,21.150634765625,-6.156005859375,-15.004638671875
0.006,19.468994140625,-2.512451171875,-17.166748046875
0.0065,17.787353515625,2.092041015625,-19.929443359375
0.007,15.184814453125,7.497314453125,-22.692138671875
0.0075,11.901611328125,10.820556640625,-22.812255859375
0.008,7.937744140625,14.464111328125,-22.531982421875
0.0085,3.893798828125,15.945556640625,-20.129638671875
0.009,-1.351318359375,19.068603515625,-18.167724609375
0.0095,-5.315185546875,21.350830078125,-16.486083984375
0.01,-10.560302734375,23.152587890625,-13.122802734375
0.0105,-13.162841796875,23.352783203125,-10.720458984375
0.011,-16.365966796875,21.591064453125,-5.755615234375
0.0115,-17.967529296875,19.869384765625,-2.392333984375
0.012,-20.970458984375,18.307861328125,2.252197265625
0.0125,-22.772216796875,15.625244140625,6.816650390625
0.013,-23.012451171875,12.181884765625,10.500244140625
0.0135,-23.092529296875,8.978759765625,13.783447265625
0.014,-20.530029296875,4.614501953125,15.545166015625
0.0145,-18.768310546875,0.170166015625,18.307861328125
0.015,-17.006591796875,-4.033935546875,20.710205078125
0.0155,-14.003662109375,-9.399169921875,23.032470703125
0.016,-10.760498046875,-12.322021484375,22.752197265625
0.0165,-6.196044921875,-15.605224609375,21.510986328125
0.017,-2.072021484375,-17.046630859375,18.948486328125
0.0175,2.972900390625,-20.329833984375,17.266845703125
0.018,7.217041015625,-21.971435546875,14.824462890625
0.0185,11.541259765625,-23.252685546875,11.821533203125
0.019,14.384033203125,-22.852294921875,8.538330078125
0.0195,16.946533203125,-21.010498046875,4.134033203125
0.02,19.068603515625,-19.208740234375,0.130126953125
0.0205,21.591064453125,-17.687255859375,-3.913818359375
0.021,23.112548828125,-14.604248046875,-8.598388671875
0.0215,22.872314453125,-11.321044921875,-11.641357421875
0.022,22.271728515625,-7.677490234375,-14.724365234375
0.0225,19.589111328125,-3.353271484375,-16.325927734375
0.023,18.227783203125,1.251220703125,-19.529052734375
0.0235,15.745361328125,5.455322265625,-21.290771484375
0.024,12.942626953125,10.300048828125,-23.372802734375
0.0245,9.218994140625,13.222900390625,-22.572021484375
0.025,4.814697265625,15.825439453125,-20.850341796875
0.0255,0.450439453125,17.627197265625,-18.407958984375
0.026,-4.073974609375,20.950439453125,-17.326904296875
0.0265,-8.598388671875,22.271728515625,-14.163818359375
0.027,-12.121826171875,23.072509765625,-11.481201171875
0.0275,-15.044677734375,22.151611328125,-7.717529296875
0.028,-17.206787109375,20.189697265625,-3.513427734375
0.0285,-19.769287109375,18.548095703125,0.890869140625
0.029,-21.611083984375,16.506103515625,4.654541015625
0.0295,-23.132568359375,13.543212890625,9.218994140625
0.03,-22.491943359375,9.899658203125,12.261962890625
0.0305,-21.571044921875,6.416259765625,14.784423828125
0.031,-18.928466796875,1.971923828125,16.586181640625
0.0315,-17.967529296875,-2.472412109375,20.029541015625
0.032,-14.684326171875,-6.876708984375,21.150634765625
0.0325,-12.322021484375,-10.920654296875,22.872314453125
0.033,-7.997802734375,-13.963623046875,21.631103515625
0.0335,-3.633544921875,-16.285888671875,19.549072265625
0.034,0.970947265625,-18.447998046875,17.346923828125
0.0345,5.255126953125,-21.290771484375,16.025634765625
0.035,9.659423828125,-22.451904296875,12.822509765625
0.0355,12.942626953125,-22.612060546875,9.779541015625
0.036,15.385009765625,-21.651123046875,6.336181640625
0.0365,17.787353515625,-19.489013671875,1.771728515625
0.037,20.710205078125,-18.247802734375,-2.512451171875
0.0375,21.711181640625,-15.405029296875,-6.396240234375
0.038,23.312744140625,-13.002685546875,-10.239990234375
0.0385,22.071533203125,-8.678466796875,-13.443115234375
0.039,20.830322265625,-5.315185546875,-15.685302734375
0.0395,18.267822265625,-0.590576171875,-17.807373046875
0.04,17.226806640625,3.973876953125,-21.250732421875
0.0405,13.463134765625,8.338134765625,-21.971435546875
0.041,10.860595703125,12.101806640625,-23.052490234375
0.0415,6.696533203125,14.584228515625,-21.490966796875
0.042,1.771728515625,17.106689453125,-19.168701171875
0.0425,-2.712646484375,19.669189453125,-17.326904296875
0.043,-7.317138671875,22.071533203125,-15.204833984375
0.0435,-11.080810546875,23.312744140625,-12.802490234375
0.044,-14.524169921875,22.311767578125,-8.278076171875
0.0445,-16.446044921875,21.310791015625,-5.435302734375
0.045,-19.088623046875,18.948486328125,-0.310302734375
0.0455,-22.131591796875,17.667236328125,4.053955078125
0.046,-22.451904296875,13.943603515625,8.097900390625
0.0465,-23.813232421875,11.821533203125,11.661376953125
0.047,-21.891357421875,7.056884765625,14.464111328125
0.0475,-20.289794921875,3.213134765625,16.746337890625
0.048,-17.967529296875,-1.591552734375,19.148681640625
0.0485,-16.205810546875,-6.516357421875,22.271728515625
0.049,-12.802490234375,-10.480224609375,22.832275390625
0.0495,-8.958740234375,-14.243896484375,22.752197265625
0.05,-5.275146484375,-15.925537109375,20.950439453125
0.0505,0.290283203125,-18.688232421875,18.307861328125
0.051,4.734619140625,-21.410888671875,16.706298828125
0.0515,9.619384765625,-22.892333984375,13.343017578125
0.052,12.622314453125,-24.053466796875,11.541259765625
0.0525,16.185791015625,-22.091552734375,5.975830078125
0.053,17.947509765625,-20.970458984375,3.052978515625
0.0535,20.670166015625,-18.568115234375,-2.072021484375
0.054,23.392822265625,-16.806396484375,-6.716552734375
0.0545,23.232666015625,-12.802490234375,-10.520263671875
0.055,24.033447265625,-10.239990234375,-13.843505859375
0.0555,21.591064453125,-5.795654296875,-15.845458984375
0.056,19.589111328125,-1.151123046875,-18.528076171875
0.0565,17.587158203125,3.373291015625,-21.050537109375
0.057,14.704345703125,8.658447265625,-23.452880859375
0.0575,11.941650390625,11.821533203125,-23.973388671875
0.058,6.896728515625,15.585205078125,-22.612060546875
0.0585,3.413330078125,17.026611328125,-20.690185546875
0.059,-2.312255859375,20.149658203125,-18.207763671875
0.0595,-6.756591796875,22.752197265625,-16.486083984375
0.06,-11.481201171875,23.512939453125,-12.522216796875
0.0605,-14.283935546875,24.353759765625,-10.560302734375
0.061,-17.286865234375,21.911376953125,-5.114990234375
0.0615,-19.408935546875,20.349853515625,-1.391357421875
0.062,-21.851318359375,18.267822265625,3.173095703125
0.0625,-24.093505859375,15.625244140625,8.177978515625
0.063,-23.693115234375,11.941650390625,11.341064453125
0.0635,-23.693115234375,8.258056640625,15.064697265625
0.064,-21.290771484375,4.534423828125,16.385986328125
0.0645,-19.168701171875,-0.830810546875,19.509033203125
0.065,-17.086669921875,-5.195068359375,21.831298828125
0.0655,-13.603271484375,-10.440185546875,23.673095703125
0.066,-11.040771484375,-13.242919921875,23.953369140625
0.0665,-5.515380859375,-16.526123046875,21.751220703125
0.067,-1.671630859375,-18.087646484375,19.549072265625
0.0675,3.653564453125,-21.130615234375,17.467041015625
0.068,8.498291015625,-23.653076171875,15.144775390625
0.0685,12.502197265625,-23.853271484375,11.501220703125
0.069,15.665283203125,-24.013427734375,8.458251953125
0.0695,17.907470703125,-21.571044921875,3.773681640625
0.07,20.670166015625,-19.809326171875,-0.910888671875
0.0705,22.752197265625,-17.967529296875,-4.914794921875
0.071,24.674072265625,-14.684326171875,-9.999755859375
0.0715,24.073486328125,-11.401123046875,-12.762451171875
0.072,23.152587890625,-6.916748046875,-16.365966796875
0.0725,20.670166015625,-3.072998046875,-17.647216796875
0.073,18.788330078125,2.292236328125,-21.170654296875
0.0735,16.025634765625,6.976806640625,-23.172607421875
0.074,12.622314453125,11.901611328125,-24.573974609375
0.0745,9.339111328125,14.864501953125,-24.293701171875
0.075,3.893798828125,17.587158203125,-21.651123046875
0.0755,-0.750732421875,19.669189453125,-19.208740234375
0.076,-5.435302734375,22.592041015625,-17.607177734375
0.0765,-10.720458984375,24.593994140625,-14.364013671875
0.077,-13.963623046875,24.473876953125,-11.040771484375
0.0775,-17.206787109375,23.673095703125,-6.916748046875
0.078,-19.248779296875,21.190673828125,-2.352294921875
0.0785,-22.411865234375,19.348876953125,2.692626953125
0.079,-23.773193359375,16.786376953125,6.656494140625
0.0795,-25.414794921875,13.383056640625,11.701416015625
0.08,-24.413818359375,9.619384765625,14.464111328125
0.0805,-22.932373046875,5.094970703125,17.427001953125
0.081,-20.049560546875,0.610595703125,19.108642578125
0.0815,-18.648193359375,-4.514404296875,22.712158203125
0.082,-14.884521484375,-9.399169921875,23.953369140625
0.0825,-11.681396484375,-13.523193359375,24.914306640625
0.083,-7.557373046875,-16.526123046875,23.753173828125
0.0835,-2.112060546875,-18.968505859375,20.910400390625
0.084,2.972900390625,-21.290771484375,18.267822265625
0.0845,7.537353515625,-23.773193359375,16.345947265625
0.085,12.582275390625,-25.254638671875,12.822509765625
0.0855,15.665283203125,-24.614013671875,9.018798828125
0.086,18.427978515625,-23.372802734375,5.054931640625
0.0865,20.710205078125,-20.610107421875,0.010009765625
0.087,23.833251953125,-19.088623046875,-4.834716796875
0.0875,24.473876953125,-15.565185546875,-8.958740234375
0.088,25.875244140625,-12.682373046875,-13.282958984375
0.0885,24.193603515625,-8.197998046875,-16.165771484375
0.089,22.231689453125,-3.793701171875,-18.608154296875
0.0895,19.268798828125,1.251220703125,-20.650146484375
0.09,17.787353515625,6.256103515625,-24.053466796875
0.0905,13.663330078125,11.060791015625,-24.854248046875
0.091,10.179931640625,14.864501953125,-25.134521484375
0.0915,5.895751953125,17.226806640625,-23.372802734375
0.092,0.330322265625,19.789306640625,-20.369873046875
0.0925,-4.634521484375,22.431884765625,-18.247802734375
0.093,-9.439208984375,24.393798828125,-15.445068359375
0.0935,-13.523193359375,25.795166015625,-12.762451171875
0.094,-16.846435546875,24.033447265625,-7.717529296875
0.0945,-18.968505859375,22.752197265625,-4.274169921875
0.095,-21.490966796875,19.869384765625,1.211181640625
0.0955,-24.654052734375,18.387939453125,5.895751953125
0.096,-24.614013671875,14.143798828125,10.099853515625
0.0965,-25.775146484375,11.501220703125,13.863525390625
0.097,-23.572998046875,6.696533203125,16.466064453125
0.0975,-21.450927734375,2.092041015625,18.908447265625
0.098,-18.848388671875,-2.872802734375,21.270751953125
0.0985,-16.646240234375,-7.997802734375,24.193603515625
0.099,-13.122802734375,-12.161865234375,24.994384765625
0.0995,-8.638427734375,-15.885498046875,24.153564453125
0.1,-4.834716796875,-17.647216796875,22.271728515625
0.1005,1.211181640625,-20.369873046875,19.148681640625
0.101,6.015869140625,-23.372802734375,17.427001953125
0.1015,10.940673828125,-24.373779296875,13.503173828125
0.102,14.183837890625,-25.775146484375,11.781494140625
0.1025,17.467041015625,-23.252685546875,5.895751953125
0.103,19.589111328125,-22.011474609375,2.492431640625
0.1035,22.271728515625,-19.368896484375,-2.872802734375
0.104,25.114501953125,-17.487060546875,-7.717529296875
0.1045,24.794189453125,-13.282958984375,-11.641357421875
0.105,25.354736328125,-10.119873046875,-15.324951171875
0.1055,23.032470703125,-6.035888671875,-17.166748046875
0.106,20.550048828125,-0.630615234375,-20.009521484375
0.1065,18.387939453125,4.134033203125,-22.612060546875
0.107,15.104736328125,9.579345703125,-24.694091796875
0.1075,12.382080078125,13.062744140625,-25.574951171875
0.108,6.736572265625,16.746337890625,-23.653076171875
0.1085,3.253173828125,18.307861328125,-21.771240234375
0.109,-2.872802734375,21.350830078125,-18.928466796875
0.1095,-7.757568359375,24.473876953125,-17.166748046875
0.11,-12.602294921875,24.794189453125,-12.722412109375
0.1105,-15.645263671875,25.835205078125,-10.720458984375
0.111,-18.367919921875,22.952392578125,-5.155029296875
0.1115,-20.810302734375,21.270751953125,-0.950927734375
0.112,-23.372802734375,18.908447265625,4.093994140625
0.1125,-25.775146484375,16.065673828125,9.259033203125
0.113,-25.334716796875,12.221923828125,12.622314453125
0.1135,-25.014404296875,8.017822265625,16.506103515625
0.114,-22.572021484375,4.494384765625,17.707275390625
0.1145,-20.009521484375,-1.431396484375,21.110595703125
0.115,-17.807373046875,-6.316162109375,23.673095703125
0.1155,-13.803466796875,-11.761474609375,25.194580078125
0.116,-11.281005859375,-14.724365234375,25.675048828125
0.1165,-5.195068359375,-17.967529296875,22.912353515625
0.117,-1.111083984375,-19.689208984375,20.590087890625
0.1175,4.654541015625,-22.772216796875,18.107666015625
0.118,10.059814453125,-25.534912109375,15.585205078125
0.1185,14.143798828125,-25.454833984375,11.421142578125
0.119,17.346923828125,-25.494873046875,8.218017578125
0.1195,19.509033203125,-22.732177734375,3.333251953125
0.12,22.471923828125,-20.690185546875,-1.871826171875
0.1205,24.674072265625,-18.447998046875,-6.356201171875
0.121,26.595947265625,-14.884521484375,-11.801513671875
0.1215,25.875244140625,-11.441162109375,-14.564208984375
0.122,24.553955078125,-6.436279296875,-18.207763671875
0.1225,21.791259765625,-2.472412109375,-19.368896484375
0.123,19.509033203125,3.413330078125,-23.012451171875
0.1235,16.506103515625,8.618408203125,-25.054443359375
0.124,12.502197265625,13.543212890625,-26.135498046875
0.1245,9.259033203125,16.506103515625,-25.895263671875
0.125,3.413330078125,19.228759765625,-22.772216796875
0.1255,-1.591552734375,21.390869140625,-20.169677734375
0.126,-6.556396484375,24.273681640625,-18.127685546875
0.1265,-12.241943359375,26.315673828125,-14.604248046875
0.127,-15.525146484375,25.875244140625,-10.960693359375
0.1275,-18.848388671875,24.994384765625,-6.676513671875
0.128,-20.770263671875,22.231689453125,-1.951904296875
0.1285,-23.973388671875,20.029541015625,3.453369140625
0.129,-25.334716796875,17.106689453125,7.817626953125
0.1295,-26.896240234375,13.383056640625,13.062744140625
0.13,-25.815185546875,9.619384765625,15.825439453125
0.1305,-23.893310546875,4.814697265625,18.708251953125
0.131,-20.890380859375,0.330322265625,20.229736328125
0.1315,-19.208740234375,-5.074951171875,23.833251953125
0.132,-15.284912109375,-10.400146484375,25.314697265625
0.1325,-11.681396484375,-14.524169921875,25.915283203125
0.133,-7.637451171875,-17.406982421875,24.794189453125
0.1335,-2.031982421875,-19.649169921875,21.510986328125
0.134,3.293212890625,-22.171630859375,18.868408203125
0.1345,7.937744140625,-24.654052734375,16.826416015625
0.135,13.343017578125,-26.415771484375,13.222900390625
0.1355,16.345947265625,-25.454833984375,9.259033203125
0.136,19.148681640625,-24.093505859375,5.094970703125
0.1365,21.190673828125,-21.290771484375,0.130126953125
0.137,24.593994140625,-19.689208984375,-4.954833984375
0.1375,25.314697265625,-16.125732421875,-9.319091796875
0.138,26.595947265625,-12.922607421875,-13.763427734375
0.1385,25.034423828125,-8.478271484375,-16.606201171875
0.139,22.752197265625,-3.833740234375,-18.968505859375
0.1395,19.949462890625,1.131103515625,-21.090576171875
0.14,18.227783203125,6.256103515625,-24.493896484375
0.1405,14.103759765625,11.501220703125,-25.655029296875
0.141,10.420166015625,15.184814453125,-25.655029296875
0.1415,6.216064453125,17.747314453125,-24.093505859375
0.142,0.530517578125,20.109619140625,-20.930419921875
0.1425,-4.674560546875,23.032470703125,-18.768310546875
0.143,-9.479248046875,24.914306640625,-15.885498046875
0.1435,-14.043701171875,26.595947265625,-13.122802734375
0.144,-17.246826171875,24.794189453125,-8.037841796875
0.1445,-19.569091796875,23.432861328125,-4.354248046875
0.145,-22.051513671875,20.469970703125,1.131103515625
0.1455,-25.334716796875,18.868408203125,6.015869140625
0.146,-25.494873046875,14.544189453125,10.580322265625
0.1465,-26.615966796875,11.661376953125,14.504150390625
0.147,-24.453857421875,6.976806640625,17.146728515625
0.1475,-22.131591796875,2.092041015625,19.669189453125
0.148,-19.448974609375,-3.032958984375,22.071533203125
0.1485,-16.966552734375,-8.318115234375,24.914306640625
0.149,-13.403076171875,-12.962646484375,26.075439453125
0.1495,-8.598388671875,-16.646240234375,24.994384765625
0.15,-4.794677734375,-18.488037109375,23.072509765625
0.1505,1.491455078125,-21.290771484375,19.709228515625
0.151,6.536376953125,-24.413818359375,17.947509765625
0.1515,11.781494140625,-25.414794921875,13.743408203125
0.152,15.224853515625,-26.896240234375,11.821533203125
0.1525,18.548095703125,-24.253662109375,5.735595703125
0.153,20.670166015625,-22.812255859375,2.132080078125
0.1535,23.352783203125,-19.969482421875,-3.553466796875
0.154,26.395751953125,-17.887451171875,-8.558349609375
0.1545,26.075439453125,-13.403076171875,-12.802490234375
0.155,26.475830078125,-9.999755859375,-16.526123046875
0.1555,23.913330078125,-5.715576171875,-18.247802734375
0.156,21.190673828125,0.010009765625,-21.210693359375
0.1565,18.828369140625,5.014892578125,-23.773193359375
0.157,15.304931640625,10.620361328125,-25.975341796875
0.1575,12.422119140625,14.384033203125,-26.816162109375
0.158,6.416259765625,18.067626953125,-24.654052734375
0.1585,2.812744140625,19.509033203125,-22.572021484375
0.159,-3.593505859375,22.552001953125,-19.408935546875
0.1595,-8.838623046875,25.755126953125,-17.447021484375
0.16,-13.803466796875,25.955322265625,-12.682373046875
0.1605,-16.886474609375,26.916259765625,-10.600341796875
0.161,-19.529052734375,23.673095703125,-4.754638671875
0.1615,-22.051513671875,21.831298828125,-0.390380859375
0.162,-24.493896484375,19.228759765625,4.814697265625
0.1625,-26.936279296875,16.305908203125,10.260009765625
0.163,-26.375732421875,12.302001953125,13.743408203125
0.1635,-25.775146484375,7.817626953125,17.587158203125
0.164,-23.172607421875,4.134033203125,18.628173828125
0.1645,-20.449951171875,-1.991943359375,22.031494140625
0.165,-18.047607421875,-6.996826171875,24.634033203125
0.1655,-13.923583984375,-12.522216796875,26.075439453125
0.166,-11.281005859375,-15.565185546875,26.595947265625
0.1665,-4.994873046875,-18.648193359375,23.392822265625
0.167,-0.910888671875,-20.209716796875,21.030517578125
0.1675,4.934814453125,-23.332763671875,18.427978515625
0.168,10.460205078125,-26.135498046875,15.785400390625
0.1685,14.504150390625,-25.975341796875,11.581298828125
0.169,17.867431640625,-26.055419921875,8.218017578125
0.1695,19.789306640625,-23.212646484375,3.453369140625
0.17,22.792236328125,-21.010498046875,-1.791748046875
0.1705,24.834228515625,-18.608154296875,-6.276123046875
0.171,26.716064453125,-15.004638671875,-11.721435546875
0.1715,26.115478515625,-11.681396484375,-14.524169921875
0.172,24.433837890625,-6.476318359375,-18.087646484375
0.1725,21.911376953125,-2.872802734375,-19.088623046875
0.173,19.549072265625,3.052978515625,-22.652099609375
0.1735,16.666259765625,8.258056640625,-25.014404296875
0.174,12.662353515625,13.102783203125,-25.895263671875
0.1745,9.619384765625,16.145751953125,-25.895263671875
0.175,3.853759765625,18.548095703125,-22.612060546875
0.1755,-0.910888671875,20.750244140625,-20.169677734375
0.176,-5.795654296875,23.552978515625,-18.247802734375
0.1765,-11.561279296875,25.915283203125,-14.884521484375
0.177,-14.764404296875,25.514892578125,-11.401123046875
0.1775,-18.087646484375,24.593994140625,-7.076904296875
0.178,-19.689208984375,21.991455078125,-2.872802734375
0.1785,-23.052490234375,20.069580078125,2.532470703125
0.179,-24.734130859375,17.427001953125,6.976806640625
0.1795,-26.215576171875,13.663330078125,12.101806640625
0.18,-25.614990234375,10.219970703125,15.024658203125
0.1805,-23.412841796875,5.255126953125,17.707275390625
