wavelength,x,y,z
0.0,4.414306640625,-5.114990234375,0.170166015625
0.0005,4.414306640625,-4.234130859375,-0.790771484375
0.001,4.654541015625,-3.993896484375,-1.271240234375
0.0015,4.654541015625,-2.712646484375,-2.512451171875
0.002,4.654541015625,-2.272216796875,-2.912841796875
0.0025,4.414306640625,-1.151123046875,-3.713623046875
0.003,3.893798828125,-0.270263671875,-4.154052734375
0.0035,3.133056640625,0.810791015625,-4.354248046875
0.004,2.612548828125,1.651611328125,-4.634521484375
0.0045,1.651611328125,2.812744140625,-4.794677734375
0.005,1.131103515625,3.173095703125,-4.634521484375
0.0055,0.130126953125,4.013916015625,-4.434326171875
0.006,-0.830810546875,4.174072265625,-3.673583984375
0.0065,-1.471435546875,4.534423828125,-3.393310546875
0.007,-2.752685546875,4.694580078125,-2.272216796875
0.0075,-3.473388671875,4.814697265625,-1.751708984375
0.008,-3.953857421875,4.494384765625,-0.910888671875
0.0085,-4.474365234375,4.214111328125,-0.190185546875
0.009,-4.514404296875,3.373291015625,0.650634765625
0.0095,-4.754638671875,3.133056640625,1.211181640625
0.01,-4.834716796875,2.052001953125,2.332275390625
0.0105,-4.754638671875,1.571533203125,2.692626953125
0.011,-4.554443359375,0.570556640625,3.533447265625
0.0115,-3.913818359375,-0.390380859375,3.773681640625
0.012,-3.473388671875,-1.271240234375,4.134033203125
0.0125,-2.712646484375,-2.112060546875,4.294189453125
0.013,-2.112060546875,-3.072998046875,4.494384765625
0.0135,-1.391357421875,-3.473388671875,4.134033203125
0.014,-0.590576171875,-4.194091796875,4.093994140625
0.0145,0.330322265625,-4.314208984375,3.373291015625
0.015,0.970947265625,-4.794677734375,3.173095703125
0.0155,2.172119140625,-4.914794921875,2.092041015625
0.016,2.652587890625,-5.034912109375,1.771728515625
0.0165,3.253173828125,-4.794677734375,0.890869140625
0.017,3.613525390625,-4.514404296875,0.290283203125
0.0175,3.813720703125,-3.873779296875,-0.510498046875
0.018,3.973876953125,-3.393310546875,-1.111083984375
0.0185,4.214111328125,-2.712646484375,-2.072021484375
0.019,3.973876953125,-2.072021484375,-2.472412109375
0.0195,3.973876953125,-1.151123046875,-3.273193359375
0.02,3.173095703125,-0.190185546875,-3.473388671875
0.0205,2.932861328125,0.610595703125,-3.993896484375
0.021,2.092041015625,1.571533203125,-4.114013671875
0.0215,1.771728515625,2.252197265625,-4.434326171875
0.022,0.890869140625,2.812744140625,-4.033935546875
0.0225,0.210205078125,3.413330078125,-3.913818359375
0.023,-0.630615234375,3.573486328125,-3.273193359375
0.0235,-1.391357421875,4.013916015625,-2.992919921875
0.024,-2.512451171875,4.214111328125,-2.072021484375
0.0245,-2.872802734375,4.174072265625,-1.711669921875
0.025,-3.553466796875,3.973876953125,-0.910888671875
0.0255,-3.713623046875,3.533447265625,-0.270263671875
0.026,-4.033935546875,3.173095703125,0.410400390625
0.0265,-4.114013671875,2.532470703125,1.131103515625
0.027,-4.474365234375,2.092041015625,1.891845703125
0.0275,-4.114013671875,1.291259765625,2.332275390625
0.028,-4.114013671875,0.610595703125,3.012939453125
0.0285,-3.353271484375,-0.430419921875,3.213134765625
0.029,-3.233154296875,-1.031005859375,3.733642578125
0.0295,-2.392333984375,-2.072021484375,3.853759765625
0.03,-2.112060546875,-2.552490234375,4.053955078125
0.0305,-1.231201171875,-3.193115234375,3.773681640625
0.031,-0.630615234375,-3.633544921875,3.573486328125
0.0315,0.170166015625,-3.953857421875,3.133056640625
0.032,1.010986328125,-4.314208984375,2.692626953125
0.0325,1.931884765625,-4.634521484375,2.052001953125
0.033,2.252197265625,-4.514404296875,1.571533203125
0.0335,2.892822265625,-4.434326171875,0.970947265625
0.034,3.012939453125,-3.873779296875,0.290283203125
0.0345,3.453369140625,-3.713623046875,-0.270263671875
0.035,3.533447265625,-2.952880859375,-1.151123046875
0.0355,3.853759765625,-2.672607421875,-1.711669921875
0.036,3.533447265625,-1.751708984375,-2.272216796875
0.0365,3.453369140625,-1.111083984375,-2.832763671875
0.037,2.732666015625,0.010009765625,-3.193115234375
0.0375,2.612548828125,0.570556640625,-3.593505859375
0.038,1.971923828125,1.531494140625,-3.873779296875
0.0385,1.571533203125,1.931884765625,-3.873779296875
0.039,0.810791015625,2.612548828125,-3.793701171875
0.0395,0.130126953125,2.892822265625,-3.393310546875
0.04,-0.630615234375,3.373291015625,-3.153076171875
0.0405,-1.551513671875,3.613525390625,-2.512451171875
0.041,-2.272216796875,3.893798828125,-2.112060546875
0.0415,-2.592529296875,3.693603515625,-1.431396484375
0.042,-3.153076171875,3.693603515625,-0.990966796875
0.0425,-3.273193359375,3.093017578125,-0.190185546875
0.043,-3.713623046875,2.972900390625,0.290283203125
0.0435,-3.873779296875,2.252197265625,1.171142578125
0.044,-4.033935546875,1.971923828125,1.571533203125
0.0445,-3.833740234375,1.051025390625,2.292236328125
0.045,-3.593505859375,0.410400390625,2.692626953125
0.0455,-3.193115234375,-0.510498046875,3.133056640625
0.046,-2.832763671875,-1.191162109375,3.453369140625
0.0465,-2.392333984375,-2.031982421875,3.853759765625
0.047,-1.791748046875,-2.432373046875,3.653564453125
0.0475,-1.231201171875,-3.153076171875,3.693603515625
0.048,-0.390380859375,-3.393310546875,3.173095703125
0.0485,0.290283203125,-3.993896484375,3.012939453125
0.049,1.291259765625,-4.234130859375,2.252197265625
0.0495,1.851806640625,-4.434326171875,2.011962890625
0.05,2.292236328125,-4.194091796875,1.291259765625
0.0505,2.692626953125,-4.114013671875,0.850830078125
0.051,3.012939453125,-3.593505859375,0.050048828125
0.0515,3.253173828125,-3.353271484375,-0.510498046875
0.052,3.613525390625,-2.752685546875,-1.391357421875
0.0525,3.493408203125,-2.192138671875,-1.831787109375
0.053,3.453369140625,-1.351318359375,-2.552490234375
0.0535,2.892822265625,-0.510498046875,-2.872802734375
0.054,2.692626953125,0.210205078125,-3.353271484375
0.0545,2.132080078125,1.091064453125,-3.593505859375
0.055,1.811767578125,1.771728515625,-3.913818359375
0.0555,1.010986328125,2.212158203125,-3.593505859375
0.056,0.410400390625,2.692626953125,-3.633544921875
0.0565,-0.350341796875,3.012939453125,-3.072998046875
0.057,-1.111083984375,3.453369140625,-2.832763671875
0.0575,-2.072021484375,3.813720703125,-2.072021484375
0.058,-2.552490234375,3.773681640625,-1.631591796875
0.0585,-3.072998046875,3.573486328125,-0.990966796875
0.059,-3.233154296875,3.253173828125,-0.470458984375
0.0595,-3.553466796875,2.892822265625,0.250244140625
0.06,-3.793701171875,2.412353515625,0.930908203125
0.0605,-4.114013671875,1.971923828125,1.651611328125
0.061,-3.713623046875,1.211181640625,2.052001953125
0.0615,-3.793701171875,0.570556640625,2.732666015625
0.062,-3.072998046875,-0.430419921875,2.972900390625
0.0625,-2.992919921875,-1.031005859375,3.453369140625
0.063,-2.272216796875,-1.991943359375,3.693603515625
0.0635,-1.911865234375,-2.512451171875,3.773681640625
0.064,-1.231201171875,-3.072998046875,3.613525390625
0.0645,-0.590576171875,-3.553466796875,3.373291015625
0.065,0.290283203125,-3.833740234375,2.852783203125
0.0655,1.091064453125,-4.154052734375,2.492431640625
0.066,2.011962890625,-4.514404296875,1.891845703125
0.0665,2.332275390625,-4.194091796875,1.291259765625
0.067,2.892822265625,-4.194091796875,0.730712890625
0.0675,3.052978515625,-3.673583984375,0.050048828125
0.068,3.373291015625,-3.353271484375,-0.590576171875
0.0685,3.533447265625,-2.712646484375,-1.391357421875
0.069,3.773681640625,-2.272216796875,-2.031982421875
0.0695,3.333251953125,-1.271240234375,-2.552490234375
0.07,3.253173828125,-0.630615234375,-3.072998046875
0.0705,2.532470703125,0.330322265625,-3.273193359375
0.071,2.332275390625,1.010986328125,-3.753662109375
0.0715,1.651611328125,1.971923828125,-4.033935546875
0.072,1.010986328125,2.492431640625,-3.753662109375
0.0725,0.330322265625,2.932861328125,-3.713623046875
0.073,-0.470458984375,3.253173828125,-3.273193359375
0.0735,-1.271240234375,3.653564453125,-2.712646484375
0.074,-2.192138671875,3.893798828125,-2.152099609375
0.0745,-2.952880859375,4.134033203125,-1.551513671875
0.075,-3.233154296875,3.573486328125,-0.790771484375
0.0755,-3.753662109375,3.653564453125,-0.310302734375
0.076,-3.793701171875,2.852783203125,0.490478515625
0.0765,-4.073974609375,2.532470703125,1.131103515625
0.077,-4.234130859375,1.771728515625,2.052001953125
0.0775,-4.194091796875,1.211181640625,2.532470703125
0.078,-3.713623046875,0.170166015625,3.052978515625
0.0785,-3.513427734375,-0.510498046875,3.453369140625
0.079,-2.752685546875,-1.431396484375,3.653564453125
0.0795,-2.432373046875,-2.152099609375,3.973876953125
0.08,-1.591552734375,-3.072998046875,4.134033203125
0.0805,-0.870849609375,-3.513427734375,3.653564453125
0.081,-0.190185546875,-3.953857421875,3.613525390625
0.0815,0.690673828125,-4.194091796875,2.892822265625
0.082,1.451416015625,-4.514404296875,2.412353515625
0.0825,2.372314453125,-4.754638671875,1.731689453125
0.083,3.093017578125,-4.754638671875,1.131103515625
0.0835,3.293212890625,-4.154052734375,0.330322265625
0.084,3.693603515625,-4.114013671875,-0.150146484375
0.0845,3.773681640625,-3.193115234375,-1.111083984375
0.085,3.973876953125,-2.832763671875,-1.671630859375
0.0855,4.174072265625,-1.991943359375,-2.712646484375
0.086,3.813720703125,-1.151123046875,-3.153076171875
0.0865,3.373291015625,-0.150146484375,-3.633544921875
0.087,2.852783203125,0.690673828125,-3.913818359375
0.0875,2.092041015625,1.611572265625,-4.154052734375
0.088,1.691650390625,2.412353515625,-4.434326171875
0.0885,0.810791015625,3.213134765625,-4.434326171875
0.089,0.010009765625,3.533447265625,-3.873779296875
0.0895,-0.710693359375,4.053955078125,-3.673583984375
0.09,-1.991943359375,4.254150390625,-2.592529296875
0.0905,-2.672607421875,4.454345703125,-2.112060546875
0.091,-3.593505859375,4.494384765625,-1.271240234375
0.0915,-4.114013671875,4.294189453125,-0.590576171875
0.092,-4.314208984375,3.613525390625,0.290283203125
0.0925,-4.594482421875,3.333251953125,0.810791015625
0.093,-4.634521484375,2.292236328125,1.931884765625
0.0935,-4.674560546875,1.851806640625,2.412353515625
0.094,-4.794677734375,0.930908203125,3.373291015625
0.0945,-4.114013671875,-0.150146484375,3.693603515625
0.095,-3.793701171875,-0.990966796875,4.134033203125
0.0955,-2.912841796875,-1.991943359375,4.334228515625
0.096,-2.192138671875,-2.992919921875,4.414306640625
0.0965,-1.551513671875,-3.593505859375,4.494384765625
0.097,-0.630615234375,-4.554443359375,4.294189453125
0.0975,0.290283203125,-4.554443359375,3.613525390625
0.098,0.970947265625,-5.034912109375,3.453369140625
0.0985,2.332275390625,-5.155029296875,2.252197265625
0.099,2.892822265625,-5.275146484375,1.731689453125
0.0995,3.773681640625,-5.155029296875,0.810791015625
0.1,4.174072265625,-4.794677734375,0.010009765625
0.1005,4.294189453125,-4.154052734375,-0.750732421875
0.101,4.534423828125,-3.633544921875,-1.471435546875
0.1015,4.614501953125,-2.592529296875,-2.552490234375
0.102,4.494384765625,-1.951904296875,-3.032958984375
0.1025,4.494384765625,-0.990966796875,-3.993896484375
0.103,3.573486328125,0.170166015625,-4.194091796875
0.1035,3.213134765625,1.010986328125,-4.554443359375
0.104,2.172119140625,2.132080078125,-4.794677734375
0.1045,1.451416015625,3.052978515625,-4.914794921875
0.105,0.610595703125,3.573486328125,-4.674560546875
0.1055,-0.310302734375,4.454345703125,-4.474365234375
0.106,-1.271240234375,4.494384765625,-3.593505859375
0.1065,-2.031982421875,4.974853515625,-3.233154296875
0.107,-3.513427734375,5.054931640625,-1.911865234375
0.1075,-3.993896484375,4.974853515625,-1.351318359375
0.108,-4.794677734375,4.734619140625,-0.350341796875
0.1085,-5.074951171875,4.134033203125,0.490478515625
0.109,-5.114990234375,3.453369140625,1.251220703125
0.1095,-5.275146484375,2.732666015625,2.092041015625
0.11,-5.315185546875,1.651611328125,3.173095703125
0.1105,-4.954833984375,0.930908203125,3.533447265625
0.111,-4.874755859375,-0.070068359375,4.454345703125
0.1115,-3.833740234375,-1.271240234375,4.494384765625
0.112,-3.473388671875,-2.072021484375,4.854736328125
0.1125,-2.272216796875,-3.353271484375,4.854736328125
0.113,-1.591552734375,-4.154052734375,4.974853515625
0.1135,-0.590576171875,-4.634521484375,4.494384765625
0.114,0.330322265625,-5.275146484375,4.254150390625
0.1145,1.251220703125,-5.275146484375,3.333251953125
0.115,2.052001953125,-5.635498046875,2.892822265625
0.1155,3.493408203125,-5.755615234375,1.571533203125
0.116,3.893798828125,-5.475341796875,0.970947265625
0.1165,4.614501953125,-5.155029296875,0.010009765625
0.117,4.814697265625,-4.514404296875,-0.830810546875
0.1175,4.814697265625,-3.873779296875,-1.551513671875
0.118,4.934814453125,-2.952880859375,-2.472412109375
0.1185,5.054931640625,-2.072021484375,-3.473388671875
0.119,4.494384765625,-1.151123046875,-3.833740234375
0.1195,4.414306640625,-0.150146484375,-4.634521484375
0.12,3.173095703125,1.051025390625,-4.674560546875
0.1205,2.852783203125,1.771728515625,-4.994873046875
0.121,1.611572265625,3.093017578125,-5.114990234375
0.1215,0.970947265625,3.813720703125,-5.114990234375
0.122,-0.150146484375,4.334228515625,-4.514404296875
0.1225,-0.990966796875,4.934814453125,-4.234130859375
0.123,-1.951904296875,4.894775390625,-3.273193359375
0.1235,-2.832763671875,5.175048828125,-2.712646484375
0.124,-4.234130859375,5.375244140625,-1.431396484375
0.1245,-4.554443359375,4.894775390625,-0.710693359375
0.125,-5.235107421875,4.614501953125,0.290283203125
0.1255,-5.275146484375,3.813720703125,1.131103515625
0.126,-5.355224609375,3.133056640625,1.811767578125
0.1265,-5.355224609375,2.092041015625,2.812744140625
0.127,-5.475341796875,1.291259765625,3.733642578125
0.1275,-4.754638671875,0.210205078125,3.973876953125
0.128,-4.554443359375,-0.790771484375,4.734619140625
0.1285,-3.393310546875,-1.951904296875,4.654541015625
0.129,-3.032958984375,-2.592529296875,4.934814453125
0.1295,-1.791748046875,-3.913818359375,5.014892578125
0.13,-1.071044921875,-4.434326171875,4.814697265625
0.1305,0.010009765625,-4.954833984375,4.214111328125
0.131,0.810791015625,-5.315185546875,3.853759765625
0.1315,1.731689453125,-5.355224609375,3.012939453125
0.132,2.612548828125,-5.555419921875,2.292236328125
0.1325,3.853759765625,-5.755615234375,1.291259765625
0.133,4.093994140625,-5.114990234375,0.450439453125
0.1335,4.654541015625,-4.914794921875,-0.350341796875
0.134,4.614501953125,-3.993896484375,-1.191162109375
0.1345,4.774658203125,-3.553466796875,-1.791748046875
0.135,4.774658203125,-2.432373046875,-2.872802734375
0.1355,4.814697265625,-1.751708984375,-3.553466796875
0.136,4.093994140625,-0.630615234375,-3.993896484375
0.1365,3.853759765625,0.250244140625,-4.554443359375
0.137,2.732666015625,1.331298828125,-4.554443359375
0.1375,2.412353515625,2.052001953125,-4.834716796875
0.138,1.331298828125,3.333251953125,-4.994873046875
0.1385,0.570556640625,3.693603515625,-4.594482421875
0.139,-0.390380859375,4.294189453125,-4.194091796875
0.1395,-1.231201171875,4.534423828125,-3.633544921875
0.14,-2.072021484375,4.694580078125,-2.952880859375
0.1405,-3.072998046875,4.854736328125,-2.112060546875
0.141,-4.114013671875,5.014892578125,-1.271240234375
0.1415,-4.314208984375,4.294189453125,-0.390380859375
0.142,-4.874755859375,4.174072265625,0.290283203125
0.1425,-4.794677734375,3.173095703125,1.171142578125
0.143,-4.954833984375,2.772705078125,1.771728515625
0.1435,-5.034912109375,1.771728515625,2.812744140625
0.144,-4.914794921875,1.091064453125,3.293212890625
0.1445,-4.274169921875,-0.150146484375,3.813720703125
0.145,-3.953857421875,-0.950927734375,4.214111328125
0.1455,-3.032958984375,-1.871826171875,4.334228515625
0.146,-2.592529296875,-2.552490234375,4.534423828125
0.1465,-1.631591796875,-3.713623046875,4.654541015625
0.147,-0.830810546875,-3.953857421875,4.134033203125
0.1475,-0.070068359375,-4.554443359375,3.973876953125
0.148,0.810791015625,-4.674560546875,3.213134765625
0.1485,1.531494140625,-4.954833984375,2.732666015625
0.149,2.572509765625,-5.074951171875,1.931884765625
0.1495,3.333251953125,-5.155029296875,1.251220703125
0.15,3.573486328125,-4.514404296875,0.370361328125
0.1505,4.013916015625,-4.434326171875,-0.150146484375
0.151,3.973876953125,-3.553466796875,-1.031005859375
0.1515,4.174072265625,-3.193115234375,-1.591552734375
0.152,4.334228515625,-2.312255859375,-2.592529296875
0.1525,4.053955078125,-1.631591796875,-2.952880859375
0.153,3.693603515625,-0.630615234375,-3.633544921875
0.1535,3.133056640625,0.290283203125,-3.833740234375
0.154,2.572509765625,1.131103515625,-4.154052734375
0.1545,2.052001953125,1.931884765625,-4.354248046875
0.155,1.331298828125,2.852783203125,-4.514404296875
0.1555,0.450439453125,3.133056640625,-3.913818359375
0.156,-0.150146484375,3.813720703125,-3.953857421875
0.1565,-1.151123046875,3.853759765625,-3.072998046875
0.157,-1.831787109375,4.254150390625,-2.752685546875
0.1575,-2.912841796875,4.454345703125,-1.871826171875
0.158,-3.433349609375,4.334228515625,-1.271240234375
0.1585,-3.833740234375,3.853759765625,-0.430419921875
0.159,-4.114013671875,3.613525390625,0.090087890625
0.1595,-4.194091796875,2.852783203125,0.930908203125
0.16,-4.434326171875,2.412353515625,1.531494140625
0.1605,-4.634521484375,1.651611328125,2.492431640625
0.161,-4.154052734375,0.850830078125,2.732666015625
0.1615,-3.993896484375,0.010009765625,3.493408203125
0.162,-3.233154296875,-0.910888671875,3.573486328125
0.1625,-2.912841796875,-1.591552734375,3.973876953125
0.163,-2.272216796875,-2.512451171875,4.093994140625
0.1635,-1.631591796875,-3.153076171875,4.134033203125
0.164,-0.790771484375,-3.513427734375,3.613525390625
0.1645,-0.270263671875,-3.993896484375,3.613525390625
0.165,0.730712890625,-4.154052734375,2.812744140625
0.1655,1.411376953125,-4.514404296875,2.532470703125
0.166,2.372314453125,-4.714599609375,1.731689453125
0.1665,2.692626953125,-4.434326171875,1.171142578125
0.167,3.173095703125,-4.234130859375,0.490478515625
0.1675,3.333251953125,-3.793701171875,-0.070068359375
0.168,3.573486328125,-3.393310546875,-0.830810546875
0.1685,3.693603515625,-2.832763671875,-1.471435546875
0.169,3.973876953125,-2.312255859375,-2.272216796875
0.1695,3.373291015625,-1.311279296875,-2.552490234375
0.17,3.413330078125,-0.630615234375,-3.193115234375
0.1705,2.612548828125,0.330322265625,-3.353271484375
0.171,2.492431640625,0.970947265625,-3.873779296875
0.1715,1.811767578125,1.891845703125,-4.033935546875
0.172,1.251220703125,2.372314453125,-3.953857421875
0.1725,0.450439453125,2.852783203125,-3.673583984375
0.173,-0.190185546875,3.253173828125,-3.473388671875
0.1735,-1.111083984375,3.533447265625,-2.832763671875
0.174,-1.871826171875,3.893798828125,-2.432373046875
0.1745,-2.712646484375,4.093994140625,-1.791748046875
0.175,-2.912841796875,3.693603515625,-1.111083984375
0.1755,-3.513427734375,3.693603515625,-0.630615234375
0.176,-3.553466796875,2.932861328125,0.130126953125
0.1765,-3.913818359375,2.692626953125,0.730712890625
0.177,-3.993896484375,2.052001953125,1.491455078125
0.1775,-4.154052734375,1.611572265625,2.052001953125
0.178,-3.633544921875,0.610595703125,2.532470703125
0.1785,-3.633544921875,0.050048828125,3.052978515625
0.179,-2.872802734375,-0.950927734375,3.253173828125
0.1795,-2.752685546875,-1.551513671875,3.693603515625
0.18,-2.031982421875,-2.392333984375,3.853759765625
0.1805,-1.431396484375,-2.752685546875,3.573486328125
0.181,-0.830810546875,-3.313232421875,3.533447265625
0.1815,-0.070068359375,-3.593505859375,3.052978515625
0.182,0.690673828125,-3.993896484375,2.692626953125
0.1825,1.451416015625,-4.234130859375,2.172119140625
0.183,2.092041015625,-4.434326171875,1.731689453125
0.1835,2.412353515625,-3.993896484375,1.010986328125
0.184,2.852783203125,-4.154052734375,0.610595703125
0.1845,3.052978515625,-3.473388671875,-0.190185546875
0.185,3.413330078125,-3.273193359375,-0.750732421875
0.1855,3.573486328125,-2.552490234375,-1.591552734375
0.186,3.533447265625,-1.991943359375,-2.031982421875
0.1865,3.173095703125,-1.031005859375,-2.632568359375
0.187,2.892822265625,-0.350341796875,-3.072998046875
0.1875,2.492431640625,0.490478515625,-3.393310546875
0.188,2.212158203125,1.211181640625,-3.793701171875
