wavelength,x,y,z
0.0,-4.634521484375,4.734619140625,0.650634765625
0.0005,-3.913818359375,5.054931640625,-0.350341796875
0.001,-2.872802734375,5.255126953125,-1.551513671875
0.0015,-1.791748046875,5.535400390625,-2.832763671875
0.002,-0.590576171875,5.415283203125,-3.993896484375
0.0025,0.250244140625,5.575439453125,-4.834716796875
0.003,0.970947265625,5.455322265625,-5.595458984375
0.0035,1.971923828125,4.814697265625,-6.115966796875
0.004,3.213134765625,3.693603515625,-6.396240234375
0.0045,4.214111328125,2.412353515625,-6.436279296875
0.005,4.894775390625,1.291259765625,-6.276123046875
0.0055,5.255126953125,0.610595703125,-6.196044921875
0.006,5.255126953125,-0.350341796875,-5.635498046875
0.0065,5.094970703125,-1.311279296875,-4.834716796875
0.007,5.014892578125,-2.432373046875,-3.833740234375
0.0075,4.734619140625,-3.633544921875,-2.592529296875
0.008,4.494384765625,-4.514404296875,-1.631591796875
0.0085,4.134033203125,-5.155029296875,-0.830810546875
0.009,3.493408203125,-5.515380859375,0.130126953125
0.0095,2.452392578125,-5.835693359375,1.371337890625
0.01,1.291259765625,-5.955810546875,2.692626953125
0.0105,0.330322265625,-6.035888671875,3.693603515625
0.011,-0.430419921875,-6.236083984375,4.614501953125
0.0115,-1.311279296875,-5.955810546875,5.255126953125
0.012,-2.392333984375,-5.275146484375,5.775634765625
0.0125,-3.513427734375,-4.274169921875,6.135986328125
0.013,-4.514404296875,-2.952880859375,6.095947265625
0.0135,-5.114990234375,-2.031982421875,6.055908203125
0.014,-5.435302734375,-1.271240234375,5.895751953125
0.0145,-5.475341796875,-0.470458984375,5.415283203125
0.015,-5.395263671875,0.690673828125,4.534423828125
0.0155,-5.275146484375,1.931884765625,3.533447265625
0.016,-4.994873046875,2.932861328125,2.372314453125
0.0165,-4.834716796875,3.813720703125,1.531494140625
0.017,-4.354248046875,4.334228515625,0.690673828125
0.0175,-3.673583984375,4.734619140625,-0.430419921875
0.018,-2.712646484375,5.094970703125,-1.631591796875
0.0185,-1.471435546875,5.175048828125,-2.912841796875
0.019,-0.670654296875,5.375244140625,-3.873779296875
0.0195,0.130126953125,5.495361328125,-4.794677734375
0.02,1.091064453125,5.094970703125,-5.435302734375
0.0205,2.252197265625,4.214111328125,-5.835693359375
0.021,3.293212890625,3.213134765625,-6.115966796875
0.0215,4.134033203125,2.052001953125,-6.075927734375
0.022,4.694580078125,1.251220703125,-6.075927734375
0.0225,4.934814453125,0.450439453125,-5.755615234375
0.023,4.974853515625,-0.510498046875,-5.235107421875
0.0235,4.854736328125,-1.551513671875,-4.354248046875
0.024,4.734619140625,-2.752685546875,-3.273193359375
0.0245,4.494384765625,-3.713623046875,-2.272216796875
0.025,4.374267578125,-4.594482421875,-1.551513671875
0.0255,3.813720703125,-4.994873046875,-0.630615234375
0.026,3.012939453125,-5.355224609375,0.530517578125
0.0265,2.052001953125,-5.755615234375,1.771728515625
0.027,0.970947265625,-5.755615234375,2.852783203125
0.0275,0.290283203125,-6.035888671875,3.853759765625
0.028,-0.590576171875,-6.075927734375,4.614501953125
0.0285,-1.591552734375,-5.595458984375,5.255126953125
0.029,-2.752685546875,-4.674560546875,5.735595703125
0.0295,-3.833740234375,-3.553466796875,5.895751953125
0.03,-4.594482421875,-2.512451171875,5.855712890625
0.0305,-5.034912109375,-1.871826171875,5.895751953125
0.031,-5.195068359375,-1.031005859375,5.535400390625
0.0315,-5.235107421875,0.010009765625,4.854736328125
0.032,-5.195068359375,1.091064453125,4.093994140625
0.0325,-4.994873046875,2.252197265625,2.932861328125
0.033,-4.834716796875,3.133056640625,2.011962890625
0.0335,-4.594482421875,3.853759765625,1.211181640625
0.034,-4.033935546875,4.374267578125,0.330322265625
0.0345,-3.153076171875,4.734619140625,-0.950927734375
0.035,-2.152099609375,5.094970703125,-2.192138671875
0.0355,-1.151123046875,5.175048828125,-3.233154296875
0.036,-0.510498046875,5.455322265625,-4.194091796875
0.0365,0.490478515625,5.255126953125,-4.994873046875
0.037,1.571533203125,4.654541015625,-5.555419921875
0.0375,2.692626953125,3.693603515625,-5.915771484375
0.038,3.693603515625,2.532470703125,-5.915771484375
0.0385,4.414306640625,1.571533203125,-5.995849609375
0.039,4.774658203125,0.850830078125,-5.875732421875
0.0395,4.854736328125,0.050048828125,-5.435302734375
0.04,4.814697265625,-1.111083984375,-4.634521484375
0.0405,4.774658203125,-2.272216796875,-3.673583984375
0.041,4.534423828125,-3.353271484375,-2.632568359375
0.0415,4.454345703125,-4.194091796875,-1.871826171875
0.042,3.973876953125,-4.794677734375,-0.990966796875
0.0425,3.333251953125,-5.195068359375,0.130126953125
0.043,2.452392578125,-5.595458984375,1.291259765625
0.0435,1.291259765625,-5.755615234375,2.572509765625
0.044,0.490478515625,-5.955810546875,3.573486328125
0.0445,-0.310302734375,-6.115966796875,4.494384765625
0.045,-1.311279296875,-5.755615234375,5.135009765625
0.0455,-2.512451171875,-4.874755859375,5.615478515625
0.046,-3.593505859375,-3.833740234375,5.935791015625
0.0465,-4.474365234375,-2.632568359375,5.895751953125
0.047,-5.034912109375,-1.871826171875,5.935791015625
0.0475,-5.275146484375,-1.071044921875,5.615478515625
0.048,-5.275146484375,-0.190185546875,5.014892578125
0.0485,-5.235107421875,0.970947265625,4.174072265625
0.049,-5.114990234375,2.212158203125,3.012939453125
0.0495,-4.834716796875,3.173095703125,1.971923828125
0.05,-4.714599609375,3.973876953125,1.251220703125
0.0505,-4.114013671875,4.454345703125,0.330322265625
0.051,-3.193115234375,4.814697265625,-0.950927734375
0.0515,-2.232177734375,5.175048828125,-2.232177734375
0.052,-1.071044921875,5.255126953125,-3.353271484375
0.0525,-0.390380859375,5.455322265625,-4.314208984375
0.053,0.530517578125,5.375244140625,-5.074951171875
0.0535,1.571533203125,4.814697265625,-5.675537109375
0.054,2.812744140625,3.773681640625,-6.115966796875
0.0545,3.893798828125,2.532470703125,-6.196044921875
0.055,4.574462890625,1.451416015625,-6.115966796875
0.0555,4.974853515625,0.730712890625,-6.075927734375
0.056,5.054931640625,-0.230224609375,-5.555419921875
0.0565,4.974853515625,-1.311279296875,-4.674560546875
0.057,4.934814453125,-2.472412109375,-3.713623046875
0.0575,4.654541015625,-3.633544921875,-2.552490234375
0.058,4.414306640625,-4.514404296875,-1.591552734375
0.0585,4.093994140625,-5.114990234375,-0.790771484375
0.059,3.333251953125,-5.435302734375,0.290283203125
0.0595,2.292236328125,-5.755615234375,1.531494140625
0.06,1.171142578125,-5.955810546875,2.852783203125
0.0605,0.250244140625,-6.035888671875,3.853759765625
0.061,-0.510498046875,-6.236083984375,4.734619140625
0.0615,-1.471435546875,-5.835693359375,5.415283203125
0.062,-2.672607421875,-4.954833984375,5.895751953125
0.0625,-3.833740234375,-3.873779296875,6.216064453125
0.063,-4.754638671875,-2.592529296875,6.135986328125
0.0635,-5.315185546875,-1.671630859375,6.055908203125
0.064,-5.515380859375,-0.910888671875,5.775634765625
0.0645,-5.515380859375,0.050048828125,5.175048828125
0.065,-5.395263671875,1.171142578125,4.134033203125
0.0655,-5.275146484375,2.452392578125,3.012939453125
0.066,-4.994873046875,3.453369140625,1.931884765625
0.0665,-4.714599609375,4.254150390625,1.091064453125
0.067,-4.114013671875,4.654541015625,0.170166015625
0.0675,-3.273193359375,4.974853515625,-0.990966796875
0.068,-2.192138671875,5.335205078125,-2.312255859375
0.0685,-0.990966796875,5.375244140625,-3.553466796875
0.069,-0.190185546875,5.495361328125,-4.514404296875
0.0695,0.610595703125,5.495361328125,-5.275146484375
0.07,1.651611328125,4.974853515625,-5.915771484375
0.0705,2.972900390625,3.853759765625,-6.276123046875
0.071,4.093994140625,2.692626953125,-6.476318359375
0.0715,4.814697265625,1.451416015625,-6.316162109375
0.072,5.255126953125,0.610595703125,-6.276123046875
0.0725,5.295166015625,-0.310302734375,-5.755615234375
0.073,5.255126953125,-1.351318359375,-4.994873046875
0.0735,5.094970703125,-2.552490234375,-3.873779296875
0.074,4.854736328125,-3.833740234375,-2.552490234375
0.0745,4.574462890625,-4.714599609375,-1.551513671875
0.075,4.294189453125,-5.435302734375,-0.750732421875
0.0755,3.533447265625,-5.755615234375,0.330322265625
0.076,2.412353515625,-6.035888671875,1.611572265625
0.0765,1.211181640625,-6.276123046875,3.052978515625
0.077,0.050048828125,-6.236083984375,4.134033203125
0.0775,-0.750732421875,-6.356201171875,5.054931640625
0.078,-1.631591796875,-6.075927734375,5.735595703125
0.0785,-2.872802734375,-5.275146484375,6.336181640625
0.079,-4.154052734375,-3.993896484375,6.616455078125
0.0795,-5.195068359375,-2.592529296875,6.576416015625
0.08,-5.755615234375,-1.471435546875,6.376220703125
0.0805,-6.035888671875,-0.710693359375,6.176025390625
0.081,-5.955810546875,0.330322265625,5.415283203125
0.0815,-5.755615234375,1.571533203125,4.214111328125
0.082,-5.635498046875,2.892822265625,3.093017578125
0.0825,-5.235107421875,4.093994140625,1.731689453125
0.083,-4.834716796875,4.854736328125,0.730712890625
0.0835,-4.234130859375,5.295166015625,-0.270263671875
0.084,-3.313232421875,5.575439453125,-1.351318359375
0.0845,-1.911865234375,5.735595703125,-2.872802734375
0.085,-0.630615234375,5.815673828125,-4.314208984375
0.0855,0.450439453125,5.735595703125,-5.195068359375
0.086,1.131103515625,5.735595703125,-5.955810546875
0.0865,2.252197265625,5.054931640625,-6.516357421875
0.087,3.533447265625,3.853759765625,-6.916748046875
0.0875,4.614501953125,2.612548828125,-7.076904296875
0.088,5.495361328125,1.131103515625,-6.756591796875
0.0885,5.855712890625,0.170166015625,-6.476318359375
0.089,5.895751953125,-0.790771484375,-6.035888671875
0.0895,5.735595703125,-1.791748046875,-5.114990234375
0.09,5.375244140625,-3.153076171875,-3.713623046875
0.0905,5.135009765625,-4.434326171875,-2.432373046875
0.091,4.654541015625,-5.315185546875,-1.191162109375
0.0915,4.294189453125,-5.995849609375,-0.310302734375
0.092,3.453369140625,-6.236083984375,0.730712890625
0.0925,2.332275390625,-6.436279296875,1.931884765625
0.093,0.970947265625,-6.556396484375,3.453369140625
0.0935,-0.470458984375,-6.436279296875,4.654541015625
0.094,-1.231201171875,-6.396240234375,5.455322265625
0.0945,-1.951904296875,-6.276123046875,6.135986328125
0.095,-3.113037109375,-5.395263671875,6.656494140625
0.0955,-4.434326171875,-4.033935546875,6.896728515625
0.096,-5.435302734375,-2.792724609375,6.976806640625
0.0965,-6.075927734375,-1.431396484375,6.576416015625
0.097,-6.356201171875,-0.630615234375,6.376220703125
0.0975,-6.276123046875,0.370361328125,5.695556640625
0.098,-6.075927734375,1.451416015625,4.734619140625
0.0985,-5.755615234375,2.732666015625,3.373291015625
0.099,-5.395263671875,4.013916015625,1.931884765625
0.0995,-4.914794921875,4.814697265625,0.850830078125
0.1,-4.514404296875,5.415283203125,0.010009765625
0.1005,-3.593505859375,5.615478515625,-1.111083984375
0.101,-2.272216796875,5.775634765625,-2.512451171875
0.1015,-1.031005859375,5.975830078125,-3.873779296875
0.102,0.290283203125,5.775634765625,-4.994873046875
0.1025,0.970947265625,5.775634765625,-5.755615234375
0.103,1.811767578125,5.415283203125,-6.396240234375
0.1035,3.012939453125,4.534423828125,-6.836669921875
0.104,4.254150390625,3.173095703125,-7.036865234375
0.1045,5.255126953125,1.731689453125,-6.916748046875
0.105,5.735595703125,0.570556640625,-6.596435546875
0.1055,5.935791015625,-0.350341796875,-6.356201171875
0.106,5.775634765625,-1.271240234375,-5.555419921875
0.1065,5.575439453125,-2.552490234375,-4.354248046875
0.107,5.335205078125,-3.793701171875,-3.153076171875
0.1075,4.894775390625,-4.914794921875,-1.791748046875
0.108,4.494384765625,-5.635498046875,-0.790771484375
0.1085,3.933837890625,-6.115966796875,0.210205078125
0.109,2.972900390625,-6.356201171875,1.291259765625
0.1095,1.571533203125,-6.516357421875,2.732666015625
0.11,0.250244140625,-6.556396484375,4.134033203125
0.1105,-0.830810546875,-6.436279296875,5.135009765625
0.111,-1.471435546875,-6.476318359375,5.895751953125
0.1115,-2.552490234375,-5.835693359375,6.416259765625
0.112,-3.833740234375,-4.674560546875,6.856689453125
0.1125,-4.994873046875,-3.393310546875,7.016845703125
0.113,-5.835693359375,-1.991943359375,6.696533203125
0.1135,-6.276123046875,-0.990966796875,6.456298828125
0.114,-6.356201171875,0.010009765625,6.055908203125
0.1145,-6.156005859375,1.010986328125,5.135009765625
0.115,-5.915771484375,2.372314453125,3.853759765625
0.1155,-5.635498046875,3.693603515625,2.452392578125
0.116,-5.155029296875,4.654541015625,1.211181640625
0.1165,-4.754638671875,5.375244140625,0.290283203125
0.117,-3.913818359375,5.695556640625,-0.790771484375
0.1175,-2.792724609375,5.895751953125,-2.112060546875
0.118,-1.431396484375,6.055908203125,-3.593505859375
0.1185,0.090087890625,5.895751953125,-4.914794921875
0.119,0.890869140625,5.895751953125,-5.755615234375
0.1195,1.611572265625,5.735595703125,-6.436279296875
0.12,2.812744140625,4.814697265625,-6.916748046875
0.1205,4.174072265625,3.453369140625,-7.197021484375
0.121,5.255126953125,2.011962890625,-7.197021484375
0.1215,5.815673828125,0.650634765625,-6.796630859375
0.122,6.095947265625,-0.270263671875,-6.556396484375
0.1225,6.015869140625,-1.231201171875,-5.835693359375
0.123,5.775634765625,-2.392333984375,-4.674560546875
0.1235,5.455322265625,-3.713623046875,-3.353271484375
0.124,5.094970703125,-4.954833984375,-1.911865234375
0.1245,4.534423828125,-5.755615234375,-0.790771484375
0.125,4.134033203125,-6.276123046875,0.130126953125
0.1255,3.133056640625,-6.436279296875,1.211181640625
0.126,1.771728515625,-6.596435546875,2.612548828125
0.1265,0.410400390625,-6.676513671875,4.093994140625
0.127,-0.870849609375,-6.436279296875,5.094970703125
0.1275,-1.551513671875,-6.436279296875,5.815673828125
0.128,-2.432373046875,-6.035888671875,6.416259765625
0.1285,-3.593505859375,-4.994873046875,6.776611328125
0.129,-4.794677734375,-3.713623046875,7.016845703125
0.1295,-5.755615234375,-2.272216796875,6.776611328125
0.13,-6.236083984375,-1.111083984375,6.456298828125
0.1305,-6.316162109375,-0.350341796875,6.176025390625
0.131,-6.156005859375,0.690673828125,5.415283203125
0.1315,-5.915771484375,1.931884765625,4.174072265625
0.132,-5.635498046875,3.133056640625,2.972900390625
0.1325,-5.155029296875,4.174072265625,1.611572265625
0.133,-4.754638671875,4.934814453125,0.610595703125
0.1335,-4.194091796875,5.375244140625,-0.310302734375
0.134,-3.313232421875,5.615478515625,-1.311279296875
0.1345,-2.031982421875,5.735595703125,-2.712646484375
0.135,-0.670654296875,5.735595703125,-4.073974609375
0.1355,0.370361328125,5.695556640625,-4.994873046875
0.136,1.010986328125,5.735595703125,-5.755615234375
0.1365,1.971923828125,5.255126953125,-6.356201171875
0.137,3.173095703125,4.134033203125,-6.676513671875
0.1375,4.214111328125,2.932861328125,-6.876708984375
0.138,5.094970703125,1.571533203125,-6.676513671875
0.1385,5.615478515625,0.610595703125,-6.476318359375
0.139,5.695556640625,-0.310302734375,-6.115966796875
0.1395,5.575439453125,-1.191162109375,-5.435302734375
0.14,5.375244140625,-2.392333984375,-4.274169921875
0.1405,5.094970703125,-3.713623046875,-2.952880859375
0.141,4.734619140625,-4.674560546875,-1.791748046875
0.1415,4.494384765625,-5.435302734375,-0.950927734375
0.142,3.813720703125,-5.835693359375,0.130126953125
0.1425,2.852783203125,-6.115966796875,1.211181640625
0.143,1.651611328125,-6.356201171875,2.572509765625
0.1435,0.290283203125,-6.276123046875,3.893798828125
0.144,-0.630615234375,-6.356201171875,4.814697265625
0.1445,-1.311279296875,-6.356201171875,5.575439453125
0.145,-2.352294921875,-5.755615234375,6.135986328125
0.1455,-3.673583984375,-4.554443359375,6.496337890625
0.146,-4.754638671875,-3.273193359375,6.616455078125
0.1465,-5.475341796875,-2.031982421875,6.376220703125
0.147,-5.875732421875,-1.191162109375,6.256103515625
0.1475,-5.915771484375,-0.310302734375,5.735595703125
0.148,-5.795654296875,0.770751953125,4.934814453125
0.1485,-5.635498046875,1.971923828125,3.853759765625
0.149,-5.275146484375,3.253173828125,2.412353515625
0.1495,-4.914794921875,4.134033203125,1.371337890625
0.15,-4.634521484375,4.814697265625,0.570556640625
0.1505,-3.873779296875,5.135009765625,-0.510498046875
0.151,-2.712646484375,5.375244140625,-1.791748046875
0.1515,-1.591552734375,5.615478515625,-3.153076171875
0.152,-0.390380859375,5.495361328125,-4.234130859375
0.1525,0.410400390625,5.615478515625,-5.114990234375
0.153,1.211181640625,5.375244140625,-5.755615234375
0.1535,2.292236328125,4.614501953125,-6.276123046875
0.154,3.493408203125,3.493408203125,-6.516357421875
0.1545,4.494384765625,2.132080078125,-6.476318359375
0.155,5.094970703125,1.091064453125,-6.276123046875
0.1555,5.375244140625,0.330322265625,-6.156005859375
0.156,5.335205078125,-0.630615234375,-5.555419921875
0.1565,5.135009765625,-1.751708984375,-4.514404296875
0.157,5.014892578125,-2.832763671875,-3.553466796875
0.1575,4.654541015625,-3.953857421875,-2.272216796875
0.158,4.414306640625,-4.794677734375,-1.311279296875
0.1585,3.973876953125,-5.355224609375,-0.510498046875
0.159,3.253173828125,-5.675537109375,0.490478515625
0.1595,2.172119140625,-5.915771484375,1.771728515625
0.16,0.970947265625,-6.035888671875,3.052978515625
0.1605,0.050048828125,-6.035888671875,3.973876953125
0.161,-0.670654296875,-6.276123046875,4.854736328125
0.1615,-1.591552734375,-5.915771484375,5.495361328125
0.162,-2.712646484375,-4.994873046875,5.895751953125
0.1625,-3.793701171875,-3.993896484375,6.256103515625
0.163,-4.754638671875,-2.712646484375,6.095947265625
0.1635,-5.275146484375,-1.791748046875,6.095947265625
0.164,-5.515380859375,-1.031005859375,5.815673828125
0.1645,-5.555419921875,-0.270263671875,5.335205078125
0.165,-5.395263671875,0.970947265625,4.374267578125
0.1655,-5.275146484375,2.172119140625,3.253173828125
0.166,-4.954833984375,3.173095703125,2.212158203125
0.1665,-4.794677734375,4.013916015625,1.331298828125
0.167,-4.234130859375,4.494384765625,0.490478515625
0.1675,-3.513427734375,4.854736328125,-0.630615234375
0.168,-2.552490234375,5.215087890625,-1.871826171875
0.1685,-1.271240234375,5.255126953125,-3.153076171875
0.169,-0.510498046875,5.375244140625,-4.073974609375
0.1695,0.290283203125,5.455322265625,-4.914794921875
0.17,1.251220703125,5.094970703125,-5.555419921875
0.1705,2.452392578125,4.134033203125,-5.955810546875
0.171,3.493408203125,3.093017578125,-6.196044921875
0.1715,4.294189453125,1.931884765625,-6.075927734375
0.172,4.814697265625,1.131103515625,-6.115966796875
0.1725,4.974853515625,0.330322265625,-5.755615234375
0.173,5.014892578125,-0.670654296875,-5.155029296875
0.1735,4.934814453125,-1.751708984375,-4.274169921875
0.174,4.734619140625,-2.952880859375,-3.072998046875
0.1745,4.494384765625,-3.873779296875,-2.152099609375
0.175,4.334228515625,-4.674560546875,-1.351318359375
0.1755,3.773681640625,-5.114990234375,-0.510498046875
0.176,2.892822265625,-5.435302734375,0.730712890625
0.1765,1.931884765625,-5.795654296875,1.971923828125
0.177,0.810791015625,-5.835693359375,3.052978515625
0.1775,0.130126953125,-6.115966796875,4.013916015625
0.178,-0.790771484375,-6.035888671875,4.814697265625
0.1785,-1.791748046875,-5.515380859375,5.415283203125
0.179,-2.912841796875,-4.554443359375,5.815673828125
0.1795,-3.993896484375,-3.353271484375,5.895751953125
0.18,-4.674560546875,-2.352294921875,5.895751953125
0.1805,-5.155029296875,-1.631591796875,5.895751953125
0.181,-5.275146484375,-0.830810546875,5.455322265625
0.1815,-5.235107421875,0.250244140625,4.734619140625
0.182,-5.195068359375,1.331298828125,3.893798828125
0.1825,-4.954833984375,2.452392578125,2.732666015625
0.183,-4.794677734375,3.333251953125,1.851806640625
0.1835,-4.514404296875,4.013916015625,1.010986328125
0.184,-3.913818359375,4.494384765625,0.130126953125
0.1845,-2.992919921875,4.854736328125,-1.151123046875
0.185,-1.951904296875,5.094970703125,-2.432373046875
0.1855,-1.031005859375,5.215087890625,-3.473388671875
0.186,-0.350341796875,5.495361328125,-4.394287109375
0.1865,0.690673828125,5.255126953125,-5.114990234375
0.187,1.771728515625,4.494384765625,-5.635498046875
0.1875,2.892822265625,3.613525390625,-6.035888671875
0.188,3.853759765625,2.372314453125,-5.995849609375
