wavelength,x,y,z
0.0,-4.404296875,2.0419921875,1.8818359375
0.0005,-4.5244140625,1.6015625,2.3623046875
0.001,-4.2041015625,0.6806640625,2.9228515625
0.0015,-3.923828125,0.0,3.443359375
0.002,-3.1630859375,-1.12109375,3.6435546875
0.0025,-2.7626953125,-1.921875,4.0439453125
0.003,-2.001953125,-2.9228515625,4.2841796875
0.0035,-1.361328125,-3.283203125,3.9638671875
0.004,-0.640625,-3.8837890625,3.84375
0.0045,0.2001953125,-4.083984375,3.203125
0.005,1.0009765625,-4.4443359375,2.7626953125
0.0055,2.1220703125,-4.64453125,1.921875
0.006,2.8828125,-4.8447265625,1.28125
0.0065,3.203125,-4.3642578125,0.5205078125
0.007,3.7236328125,-4.244140625,0.0
0.0075,3.7236328125,-3.4033203125,-0.880859375
0.008,4.00390625,-3.0830078125,-1.5615234375
0.0085,4.2841796875,-2.2822265625,-2.6025390625
0.009,4.1240234375,-1.7216796875,-3.04296875
0.0095,3.8037109375,-0.720703125,-3.5634765625
0.01,3.283203125,0.1201171875,-3.84375
0.0105,2.5625,1.0810546875,-4.083984375
0.011,2.0419921875,1.921875,-4.3642578125
0.0115,1.3212890625,2.9228515625,-4.64453125
0.012,0.48046875,3.203125,-4.083984375
0.0125,-0.2001953125,3.84375,-4.00390625
0.013,-1.1611328125,3.9638671875,-3.1630859375
0.0135,-2.0419921875,4.32421875,-2.642578125
0.014,-3.203125,4.5244140625,-1.7216796875
0.0145,-3.923828125,4.564453125,-1.041015625
0.015,-4.244140625,3.9638671875,-0.1201171875
0.0155,-4.724609375,3.8037109375,0.48046875
0.016,-4.7646484375,2.8427734375,1.44140625
0.0165,-4.96484375,2.2822265625,2.162109375
0.017,-5.2451171875,1.4013671875,3.2431640625
0.0175,-4.7646484375,0.6005859375,3.68359375
0.018,-4.3642578125,-0.4404296875,4.2041015625
0.0185,-3.68359375,-1.4013671875,4.484375
0.019,-2.8427734375,-2.4423828125,4.6044921875
0.0195,-2.162109375,-3.283203125,4.8046875
0.02,-1.28125,-4.32421875,4.8447265625
0.0205,-0.240234375,-4.5244140625,4.00390625
0.021,0.400390625,-5.044921875,3.9638671875
0.0215,1.681640625,-5.125,2.7626953125
0.022,2.482421875,-5.28515625,2.162109375
0.0225,3.5634765625,-5.4453125,1.2412109375
0.023,4.1240234375,-5.1650390625,0.4404296875
0.0235,4.32421875,-4.4443359375,-0.5205078125
0.024,4.64453125,-4.1240234375,-1.1611328125
0.0245,4.64453125,-3.04296875,-2.2822265625
0.025,4.724609375,-2.5224609375,-2.8427734375
0.0255,4.96484375,-1.5615234375,-3.923828125
0.026,4.1240234375,-0.5205078125,-4.1640625
0.0265,3.8037109375,0.400390625,-4.6044921875
0.027,2.8427734375,1.44140625,-4.7646484375
0.0275,2.08203125,2.4423828125,-4.884765625
0.028,1.4013671875,3.2431640625,-5.0048828125
0.0285,0.48046875,4.1240234375,-4.96484375
0.029,-0.6005859375,4.2841796875,-4.00390625
0.0295,-1.28125,4.8046875,-3.8837890625
0.03,-2.72265625,4.884765625,-2.5625
0.0305,-3.36328125,5.0048828125,-2.0419921875
0.031,-4.4443359375,5.0849609375,-1.041015625
0.0315,-4.9248046875,4.64453125,-0.16015625
0.032,-5.125,3.9638671875,0.7607421875
0.0325,-5.4453125,3.443359375,1.4814453125
0.033,-5.4853515625,2.2822265625,2.6826171875
0.0335,-5.4453125,1.76171875,3.1630859375
0.034,-5.60546875,0.7607421875,4.32421875
0.0345,-4.64453125,-0.4404296875,4.484375
0.035,-4.244140625,-1.3212890625,4.96484375
0.0355,-3.0830078125,-2.642578125,5.0849609375
0.036,-2.322265625,-3.5634765625,5.1650390625
0.0365,-1.521484375,-4.2841796875,5.0849609375
0.037,-0.5205078125,-5.125,4.884765625
0.0375,0.6005859375,-5.1650390625,3.84375
0.038,1.3212890625,-5.6455078125,3.603515625
0.0385,2.9228515625,-5.7255859375,2.08203125
0.039,3.4033203125,-5.7255859375,1.6416015625
0.0395,4.4443359375,-5.60546875,0.6005859375
0.04,4.724609375,-5.044921875,-0.3203125
0.0405,4.8447265625,-4.32421875,-1.1611328125
0.041,5.0849609375,-3.68359375,-2.08203125
0.0415,5.125,-2.482421875,-3.203125
0.042,4.96484375,-1.9619140625,-3.5634765625
0.0425,4.96484375,-0.9609375,-4.5244140625
0.043,3.8837890625,0.2802734375,-4.6044921875
0.0435,3.5234375,1.12109375,-5.0048828125
0.044,2.2822265625,2.4423828125,-5.125
0.0445,1.681640625,3.1630859375,-5.205078125
0.045,0.8408203125,3.8837890625,-5.0048828125
0.0455,-0.2001953125,4.6044921875,-4.6845703125
0.046,-1.2412109375,4.64453125,-3.763671875
0.0465,-2.08203125,5.0849609375,-3.36328125
0.047,-3.5634765625,5.1650390625,-1.9619140625
0.0475,-3.923828125,5.125,-1.5615234375
0.048,-4.884765625,5.0048828125,-0.400390625
0.0485,-5.1650390625,4.2841796875,0.4404296875
0.049,-5.365234375,3.68359375,1.201171875
0.0495,-5.5654296875,2.8427734375,2.2421875
0.05,-5.685546875,1.921875,3.2431640625
0.0505,-5.4052734375,1.201171875,3.68359375
0.051,-5.3251953125,0.240234375,4.564453125
0.0515,-4.1640625,-1.0810546875,4.6044921875
0.052,-3.84375,-1.921875,5.0849609375
0.0525,-2.5224609375,-3.3232421875,5.125
0.053,-2.001953125,-3.8837890625,5.205078125
0.0535,-0.9609375,-4.564453125,4.8046875
0.054,0.0400390625,-5.1650390625,4.4443359375
0.0545,1.041015625,-5.205078125,3.4833984375
0.055,1.921875,-5.60546875,2.962890625
0.0555,3.3232421875,-5.685546875,1.681640625
0.056,3.603515625,-5.6455078125,1.12109375
0.0565,4.4443359375,-5.3251953125,0.2001953125
0.057,4.564453125,-4.5244140625,-0.720703125
0.0575,4.7646484375,-3.923828125,-1.4013671875
0.058,4.8447265625,-2.962890625,-2.482421875
0.0585,5.0048828125,-2.322265625,-3.203125
0.059,4.6044921875,-1.4814453125,-3.68359375
0.0595,4.484375,-0.6005859375,-4.404296875
0.06,3.3232421875,0.640625,-4.4443359375
0.0605,3.04296875,1.361328125,-4.8447265625
0.061,1.841796875,2.7626953125,-4.9248046875
0.0615,1.521484375,3.1630859375,-5.0048828125
0.062,0.4404296875,3.84375,-4.564453125
0.0625,-0.5205078125,4.32421875,-4.1640625
0.063,-1.44140625,4.484375,-3.36328125
0.0635,-2.40234375,4.8046875,-2.72265625
0.064,-3.6435546875,4.9248046875,-1.681640625
0.0645,-3.8837890625,4.6044921875,-1.201171875
0.065,-4.64453125,4.484375,-0.3203125
0.0655,-4.6845703125,3.68359375,0.6005859375
0.066,-5.044921875,3.3232421875,1.28125
0.0665,-5.125,2.2421875,2.40234375
0.067,-5.28515625,1.841796875,3.0029296875
0.0675,-4.8447265625,0.80078125,3.5234375
0.068,-4.64453125,0.0,4.1240234375
0.0685,-3.5634765625,-1.28125,4.2841796875
0.069,-3.283203125,-2.001953125,4.6044921875
0.0695,-2.2021484375,-3.2431640625,4.7646484375
0.07,-1.8017578125,-3.5634765625,4.64453125
0.0705,-0.720703125,-4.244140625,4.2841796875
0.071,0.1201171875,-4.5244140625,3.7236328125
0.0715,0.9609375,-4.8046875,3.1630859375
0.072,2.08203125,-4.96484375,2.322265625
0.0725,2.8828125,-5.28515625,1.6416015625
0.073,3.3232421875,-4.7646484375,0.9609375
0.0735,3.84375,-4.6845703125,0.2802734375
0.074,3.84375,-3.8037109375,-0.640625
0.0745,4.2041015625,-3.5634765625,-1.201171875
0.075,4.32421875,-2.6025390625,-2.2822265625
0.0755,4.4443359375,-2.2822265625,-2.642578125
0.076,4.083984375,-1.28125,-3.283203125
0.0765,3.763671875,-0.560546875,-3.68359375
0.077,2.9228515625,0.6005859375,-3.923828125
0.0775,2.5625,1.28125,-4.2841796875
0.078,1.8818359375,2.2822265625,-4.5244140625
0.0785,1.4013671875,2.5625,-4.3642578125
0.079,0.48046875,3.3232421875,-4.2041015625
0.0795,-0.400390625,3.5234375,-3.5234375
0.08,-1.1611328125,3.923828125,-3.203125
0.0805,-2.2822265625,4.1240234375,-2.2822265625
0.081,-3.0029296875,4.2841796875,-1.9619140625
0.0815,-3.36328125,4.0439453125,-1.0810546875
0.082,-3.923828125,3.9638671875,-0.48046875
0.0825,-4.0439453125,3.1630859375,0.48046875
0.083,-4.4443359375,2.9228515625,1.041015625
0.0835,-4.64453125,2.1220703125,2.0419921875
0.084,-4.6044921875,1.7216796875,2.40234375
0.0845,-4.404296875,0.7607421875,3.123046875
0.085,-3.84375,-0.1201171875,3.36328125
0.0855,-3.283203125,-1.0810546875,3.84375
0.086,-2.72265625,-1.921875,4.00390625
0.0865,-2.2822265625,-2.72265625,4.32421875
0.087,-1.6015625,-2.962890625,3.923828125
0.0875,-0.9208984375,-3.68359375,3.8837890625
0.088,0.0,-3.8837890625,3.0830078125
0.0885,0.7607421875,-4.32421875,2.8427734375
0.089,1.681640625,-4.5244140625,2.08203125
0.0895,2.2421875,-4.6044921875,1.76171875
0.09,2.72265625,-4.244140625,0.9609375
0.0905,3.04296875,-4.083984375,0.48046875
0.091,3.283203125,-3.5234375,-0.400390625
0.0915,3.5634765625,-3.1630859375,-1.0009765625
0.092,3.8837890625,-2.72265625,-1.8017578125
0.0925,3.7236328125,-2.162109375,-2.08203125
0.093,3.7236328125,-1.4013671875,-2.8427734375
0.0935,3.0029296875,-0.5205078125,-3.0029296875
0.094,2.8427734375,0.2802734375,-3.5634765625
0.0945,2.2421875,1.12109375,-3.8037109375
0.095,2.08203125,1.6416015625,-4.1640625
0.0955,1.2412109375,2.162109375,-3.763671875
0.096,0.6806640625,2.6826171875,-3.8037109375
0.0965,-0.3603515625,3.0029296875,-3.0830078125
0.097,-1.0009765625,3.5234375,-2.8828125
0.0975,-2.001953125,3.84375,-2.2021484375
0.098,-2.40234375,3.84375,-1.8818359375
0.0985,-3.0830078125,3.7236328125,-1.12109375
0.099,-3.283203125,3.36328125,-0.5205078125
0.0995,-3.8037109375,3.04296875,0.2802734375
0.1,-4.00390625,2.5224609375,1.0009765625
0.1005,-4.404296875,2.2421875,1.681640625
0.101,-4.0439453125,1.44140625,2.08203125
0.1015,-4.083984375,0.80078125,2.7626953125
0.102,-3.2431640625,-0.3203125,3.04296875
0.1025,-3.203125,-1.0009765625,3.603515625
0.103,-2.5224609375,-1.8818359375,3.84375
0.1035,-2.2421875,-2.2822265625,3.8837890625
0.104,-1.361328125,-2.8828125,3.5634765625
0.1045,-0.80078125,-3.283203125,3.36328125
0.105,0.1201171875,-3.68359375,2.8427734375
0.1055,0.880859375,-4.00390625,2.482421875
0.106,1.7216796875,-4.32421875,1.9619140625
0.1065,1.9619140625,-4.083984375,1.44140625
0.107,2.5625,-4.1240234375,0.9208984375
0.1075,2.6826171875,-3.5234375,0.2001953125
0.108,3.1630859375,-3.36328125,-0.4404296875
0.1085,3.4033203125,-2.8427734375,-1.1611328125
0.109,3.6435546875,-2.6025390625,-1.6416015625
0.1095,3.3232421875,-1.7216796875,-2.1220703125
0.11,3.283203125,-1.2412109375,-2.5625
0.1105,2.6025390625,-0.16015625,-2.962890625
0.111,2.5224609375,0.48046875,-3.4833984375
0.1115,2.08203125,1.28125,-3.84375
0.112,1.76171875,1.5615234375,-3.763671875
0.1125,1.0009765625,2.2421875,-3.7236328125
0.113,0.240234375,2.5625,-3.2431640625
0.1135,-0.6005859375,3.1630859375,-2.9228515625
0.114,-1.4013671875,3.4833984375,-2.4423828125
0.1145,-2.1220703125,3.8037109375,-2.1220703125
0.115,-2.482421875,3.5234375,-1.44140625
0.1155,-3.0830078125,3.6435546875,-1.0009765625
0.116,-3.36328125,3.0029296875,-0.1201171875
0.1165,-3.84375,2.8427734375,0.5205078125
0.117,-4.1240234375,2.2822265625,1.361328125
0.1175,-4.1640625,1.921875,1.8017578125
0.118,-3.923828125,0.9609375,2.482421875
0.1185,-3.6435546875,0.2001953125,2.8828125
0.119,-3.123046875,-0.7607421875,3.3232421875
0.1195,-2.802734375,-1.4814453125,3.68359375
0.12,-2.322265625,-2.322265625,3.9638671875
0.1205,-1.6416015625,-2.642578125,3.5634765625
0.121,-1.041015625,-3.283203125,3.6435546875
0.1215,-0.16015625,-3.4833984375,2.9228515625
0.122,0.640625,-3.923828125,2.642578125
0.1225,1.5615234375,-4.2041015625,2.001953125
0.123,2.162109375,-4.32421875,1.5615234375
0.1235,2.5224609375,-3.923828125,0.8408203125
0.124,2.8427734375,-3.84375,0.3603515625
0.1245,3.0830078125,-3.203125,-0.48046875
0.125,3.443359375,-2.962890625,-1.041015625
0.1255,3.763671875,-2.4423828125,-1.8818359375
0.126,3.4833984375,-1.8017578125,-2.2421875
0.1265,3.3232421875,-1.041015625,-2.8427734375
0.127,2.7626953125,-0.16015625,-3.0830078125
0.1275,2.482421875,0.6005859375,-3.5234375
0.128,2.0419921875,1.3212890625,-3.84375
0.1285,1.5615234375,1.9619140625,-4.0439453125
0.129,0.7607421875,2.322265625,-3.5634765625
0.1295,0.240234375,2.9228515625,-3.5634765625
0.13,-0.80078125,3.1630859375,-2.802734375
0.1305,-1.521484375,3.68359375,-2.5625
0.131,-2.5224609375,3.923828125,-1.841796875
0.1315,-2.9228515625,3.8037109375,-1.28125
0.132,-3.4033203125,3.5634765625,-0.6005859375
0.1325,-3.7236328125,3.203125,0.0400390625
0.133,-4.00390625,2.6826171875,0.880859375
0.1335,-4.2841796875,2.2421875,1.5615234375
0.134,-4.564453125,1.6416015625,2.40234375
0.1345,-4.00390625,0.720703125,2.802734375
0.135,-3.9638671875,0.0,3.443359375
0.1355,-3.0830078125,-1.12109375,3.5634765625
0.136,-2.7626953125,-1.921875,4.00390625
0.1365,-2.08203125,-2.7626953125,4.1640625
0.137,-1.44140625,-3.4033203125,4.083984375
0.1375,-0.6005859375,-3.68359375,3.5634765625
0.138,0.1201171875,-4.1640625,3.36328125
0.1385,1.28125,-4.3642578125,2.40234375
0.139,1.921875,-4.64453125,2.0419921875
0.1395,2.9228515625,-4.8046875,1.2412109375
0.14,3.203125,-4.32421875,0.5205078125
0.1405,3.5634765625,-4.00390625,-0.1201171875
0.141,3.763671875,-3.4033203125,-0.9208984375
0.1415,3.9638671875,-2.802734375,-1.7216796875
0.142,4.0439453125,-2.2421875,-2.3623046875
0.1425,4.1640625,-1.5615234375,-3.1630859375
0.143,3.36328125,-0.5205078125,-3.36328125
0.1435,3.2431640625,0.16015625,-3.84375
0.144,2.2421875,1.28125,-3.9638671875
0.1445,1.9619140625,1.8818359375,-4.32421875
0.145,1.2412109375,2.72265625,-4.4443359375
0.1455,0.4404296875,3.2431640625,-4.0439453125
0.146,-0.3603515625,3.5234375,-3.5634765625
0.1465,-1.2412109375,3.9638671875,-3.1630859375
0.147,-2.40234375,4.1240234375,-2.162109375
0.1475,-2.9228515625,4.32421875,-1.8017578125
0.148,-3.84375,4.4443359375,-1.0009765625
0.1485,-4.083984375,3.8037109375,-0.16015625
0.149,-4.484375,3.5634765625,0.48046875
0.1495,-4.6845703125,2.6826171875,1.521484375
0.15,-4.884765625,2.162109375,2.2421875
0.1505,-4.8447265625,1.4013671875,2.9228515625
0.151,-4.8447265625,0.6005859375,3.68359375
0.1515,-3.923828125,-0.560546875,3.8837890625
0.152,-3.7236328125,-1.361328125,4.404296875
0.1525,-2.482421875,-2.72265625,4.484375
0.153,-2.162109375,-3.2431640625,4.64453125
0.1535,-1.201171875,-4.1240234375,4.6044921875
0.154,-0.2802734375,-4.5244140625,4.083984375
0.1545,0.6005859375,-4.7646484375,3.4833984375
0.155,1.7216796875,-5.1650390625,2.802734375
0.1555,2.8828125,-5.28515625,1.76171875
0.156,3.3232421875,-5.1650390625,1.201171875
0.1565,4.1640625,-5.125,0.3203125
0.157,4.244140625,-4.244140625,-0.6005859375
0.1575,4.5244140625,-3.8837890625,-1.2412109375
0.158,4.64453125,-2.7626953125,-2.482421875
0.1585,4.724609375,-2.2421875,-3.0830078125
0.159,4.484375,-1.3212890625,-3.7236328125
0.1595,4.2841796875,-0.4404296875,-4.32421875
0.16,3.203125,0.640625,-4.3642578125
0.1605,2.8427734375,1.44140625,-4.8046875
0.161,1.6015625,2.8427734375,-4.8447265625
0.1615,1.28125,3.2431640625,-4.8447265625
0.162,0.240234375,4.083984375,-4.564453125
0.1625,-0.7607421875,4.3642578125,-3.923828125
0.163,-1.5615234375,4.5244140625,-3.3232421875
0.1635,-2.8427734375,4.8447265625,-2.482421875
0.164,-3.84375,4.96484375,-1.5615234375
0.1645,-4.244140625,4.64453125,-0.80078125
0.165,-5.0048828125,4.564453125,0.0400390625
0.1655,-5.044921875,3.603515625,0.9609375
0.166,-5.28515625,3.203125,1.6015625
0.1665,-5.4453125,2.0419921875,2.962890625
0.167,-5.4453125,1.4814453125,3.5234375
0.1675,-5.0849609375,0.4404296875,4.1240234375
0.168,-4.724609375,-0.6005859375,4.6845703125
0.1685,-3.603515625,-1.8017578125,4.724609375
0.169,-3.1630859375,-2.6826171875,5.0849609375
0.1695,-1.8818359375,-4.00390625,5.205078125
0.17,-1.28125,-4.32421875,4.9248046875
0.1705,-0.2001953125,-5.0849609375,4.564453125
0.171,0.7607421875,-5.3251953125,3.84375
0.1715,1.6416015625,-5.4853515625,3.1630859375
0.172,2.962890625,-5.765625,2.1220703125
0.1725,4.00390625,-5.8056640625,1.201171875
0.173,4.32421875,-5.2451171875,0.3203125
0.1735,5.0048828125,-5.044921875,-0.560546875
0.174,4.884765625,-3.9638671875,-1.521484375
0.1745,5.0849609375,-3.4833984375,-2.162109375
0.175,5.205078125,-2.2421875,-3.5234375
0.1755,5.0849609375,-1.6015625,-4.00390625
0.176,4.484375,-0.48046875,-4.5244140625
0.1765,4.00390625,0.48046875,-4.96484375
0.177,2.8828125,1.5615234375,-4.9248046875
0.1775,2.322265625,2.5224609375,-5.1650390625
0.178,1.2412109375,3.763671875,-5.3251953125
0.1785,0.48046875,4.00390625,-4.8447265625
0.179,-0.560546875,4.6845703125,-4.484375
0.1795,-1.521484375,4.8046875,-3.603515625
0.18,-2.40234375,4.96484375,-2.962890625
0.1805,-3.68359375,5.1650390625,-1.8818359375
0.181,-4.564453125,5.2451171875,-1.041015625
0.1815,-4.8447265625,4.484375,-0.080078125
0.182,-5.4853515625,4.32421875,0.6806640625
0.1825,-5.365234375,3.203125,1.6416015625
0.183,-5.525390625,2.7626953125,2.322265625
0.1835,-5.765625,1.6015625,3.603515625
0.184,-5.4453125,0.880859375,4.00390625
0.1845,-4.884765625,-0.3603515625,4.564453125
0.185,-4.2841796875,-1.3212890625,4.96484375
0.1855,-3.2431640625,-2.40234375,5.0048828125
0.186,-2.6025390625,-3.283203125,5.205078125
0.1865,-1.6015625,-4.5244140625,5.365234375
0.187,-0.640625,-4.724609375,4.6044921875
0.1875,0.2802734375,-5.4052734375,4.404296875
0.188,1.28125,-5.4052734375,3.4033203125
0.1885,2.2021484375,-5.6455078125,2.72265625
0.189,3.443359375,-5.765625,1.6416015625
0.1895,4.244140625,-5.7255859375,0.80078125
0.19,4.484375,-4.884765625,-0.240234375
0.1905,4.96484375,-4.64453125,-0.9208984375
0.191,4.8046875,-3.5634765625,-1.8818359375
0.1915,4.96484375,-2.962890625,-2.5625
0.192,5.125,-2.001953125,-3.763671875
0.1925,4.64453125,-1.1611328125,-4.00390625
0.193,4.1240234375,-0.080078125,-4.64453125
0.1935,3.4033203125,0.9609375,-4.7646484375
0.194,2.5625,1.921875,-4.8447265625
0.1945,1.921875,2.7626953125,-5.0048828125
0.195,1.041015625,3.8037109375,-5.1650390625
0.1955,0.0,3.9638671875,-4.2841796875
0.196,-0.720703125,4.564453125,-4.2041015625
0.1965,-1.8818359375,4.564453125,-3.0830078125
0.197,-2.6025390625,4.8447265625,-2.6025390625
0.1975,-3.8037109375,4.96484375,-1.6015625
0.198,-4.404296875,4.8046875,-0.80078125
0.1985,-4.724609375,4.1240234375,0.16015625
0.199,-5.0849609375,3.84375,0.80078125
0.1995,-5.125,2.8828125,1.76171875
0.2,-5.205078125,2.2822265625,2.40234375
0.2005,-5.4853515625,1.4013671875,3.5234375
0.201,-4.8447265625,0.48046875,3.763671875
0.2015,-4.5244140625,-0.5205078125,4.4443359375
0.202,-3.603515625,-1.5615234375,4.5244140625
0.2025,-3.0029296875,-2.4423828125,4.7646484375
0.203,-2.2021484375,-3.36328125,4.8447265625
0.2035,-1.361328125,-4.2041015625,4.8447265625
0.204,-0.3603515625,-4.3642578125,4.00390625
0.2045,0.2802734375,-4.96484375,3.9638671875
0.205,1.4814453125,-4.96484375,2.802734375
0.2055,2.2021484375,-5.2451171875,2.40234375
0.206,3.3232421875,-5.365234375,1.4013671875
0.2065,3.763671875,-5.0048828125,0.640625
0.207,4.1240234375,-4.484375,-0.240234375
0.2075,4.2841796875,-4.00390625,-0.9208984375
0.208,4.404296875,-3.203125,-1.8017578125
0.2085,4.484375,-2.642578125,-2.4423828125
0.209,4.64453125,-1.921875,-3.36328125
0.2095,3.8837890625,-0.880859375,-3.5234375
0.21,3.763671875,-0.080078125,-4.1240234375
0.2105,2.72265625,0.9609375,-4.1240234375
0.211,2.40234375,1.6416015625,-4.484375
0.2115,1.6416015625,2.5625,-4.564453125
0.212,0.9609375,3.123046875,-4.4443359375
0.2125,0.0,3.443359375,-3.84375
0.213,-0.640625,3.8837890625,-3.603515625
0.2135,-1.681640625,4.00390625,-2.6826171875
0.214,-2.3623046875,4.32421875,-2.40234375
0.2145,-3.4033203125,4.484375,-1.4814453125
0.215,-3.68359375,4.00390625,-0.80078125
0.2155,-4.2041015625,3.84375,-0.080078125
0.216,-4.3642578125,3.1630859375,0.640625
0.2165,-4.64453125,2.6826171875,1.4013671875
0.217,-4.724609375,2.0419921875,2.162109375
0.2175,-4.884765625,1.4814453125,2.9228515625
0.218,-4.1240234375,0.400390625,3.203125
0.2185,-4.083984375,-0.3603515625,3.84375
0.219,-3.0830078125,-1.44140625,3.923828125
0.2195,-2.8828125,-2.08203125,4.32421875
0.22,-2.001953125,-3.04296875,4.404296875
0.2205,-1.361328125,-3.4033203125,4.083984375
0.221,-0.5205078125,-3.8837890625,3.7236328125
0.2215,0.2802734375,-4.2041015625,3.283203125
0.222,1.28125,-4.4443359375,2.5224609375
0.2225,1.921875,-4.6845703125,2.162109375
0.223,2.802734375,-4.8046875,1.4013671875
0.2235,2.962890625,-4.2041015625,0.6005859375
0.224,3.443359375,-4.1640625,0.080078125
0.2245,3.5234375,-3.36328125,-0.80078125
0.225,3.84375,-3.123046875,-1.4013671875
0.2255,3.9638671875,-2.40234375,-2.1220703125
0.226,3.923828125,-1.8818359375,-2.6025390625
0.2265,3.3232421875,-0.8408203125,-2.962890625
0.227,3.1630859375,-0.2001953125,-3.4033203125
0.2275,2.40234375,0.7607421875,-3.603515625
0.228,2.2822265625,1.28125,-4.00390625
0.2285,1.5615234375,2.162109375,-4.1240234375
0.229,0.9609375,2.40234375,-3.7236328125
0.2295,0.2802734375,2.962890625,-3.603515625
