wavelength,x,y,z
0.0,-13.523193359375,-9.279052734375,22.471923828125
0.0005,-10.720458984375,-11.961669921875,22.271728515625
0.001,-6.236083984375,-15.445068359375,21.390869140625
0.0015,-2.912841796875,-16.966552734375,19.589111328125
0.002,1.851806640625,-19.328857421875,17.467041015625
0.0025,6.576416015625,-21.010498046875,14.504150390625
0.003,10.740478515625,-21.490966796875,10.860595703125
0.0035,14.063720703125,-21.931396484375,7.977783203125
0.004,16.706298828125,-20.489990234375,3.893798828125
0.0045,19.068603515625,-19.088623046875,0.050048828125
0.005,20.469970703125,-16.806396484375,-3.673583984375
0.0055,22.351806640625,-13.803466796875,-8.598388671875
0.006,21.991455078125,-10.560302734375,-11.481201171875
0.0065,22.111572265625,-7.076904296875,-15.124755859375
0.007,20.349853515625,-3.593505859375,-16.806396484375
0.0075,18.868408203125,0.770751953125,-19.649169921875
0.008,15.865478515625,5.094970703125,-21.010498046875
0.0085,12.582275390625,9.739501953125,-22.451904296875
0.009,9.659423828125,12.502197265625,-22.371826171875
0.0095,5.255126953125,15.545166015625,-21.050537109375
0.01,1.451416015625,17.427001953125,-19.168701171875
0.0105,-2.872802734375,19.589111328125,-17.166748046875
0.011,-8.037841796875,21.390869140625,-13.803466796875
0.0115,-11.521240234375,21.430908203125,-10.400146484375
0.012,-15.084716796875,21.791259765625,-7.197021484375
0.0125,-17.286865234375,20.029541015625,-3.233154296875
0.013,-19.729248046875,18.427978515625,0.930908203125
0.0135,-20.890380859375,15.825439453125,4.734619140625
0.014,-22.612060546875,12.702392578125,9.579345703125
0.0145,-22.171630859375,9.339111328125,12.502197265625
0.015,-21.851318359375,5.695556640625,15.785400390625
0.0155,-19.889404296875,1.891845703125,17.627197265625
0.016,-18.327880859375,-2.512451171875,20.389892578125
0.0165,-14.884521484375,-7.197021484375,21.631103515625
0.017,-11.681396484375,-11.240966796875,22.552001953125
0.0175,-8.398193359375,-14.243896484375,22.271728515625
0.018,-3.713623046875,-16.846435546875,20.349853515625
0.0185,0.650634765625,-18.928466796875,18.227783203125
0.019,4.974853515625,-20.810302734375,15.865478515625
0.0195,10.059814453125,-22.411865234375,12.422119140625
0.02,13.423095703125,-21.931396484375,8.618408203125
0.0205,16.786376953125,-22.011474609375,5.335205078125
0.021,19.148681640625,-19.849365234375,0.770751953125
0.0215,21.591064453125,-17.967529296875,-3.673583984375
0.022,22.351806640625,-14.724365234375,-7.717529296875
0.0225,23.713134765625,-11.801513671875,-12.001708984375
0.023,22.912353515625,-7.917724609375,-15.084716796875
0.0235,21.951416015625,-3.873779296875,-18.087646484375
0.024,19.509033203125,0.570556640625,-20.009521484375
0.0245,17.427001953125,5.135009765625,-22.612060546875
0.025,13.503173828125,9.779541015625,-23.412841796875
0.0255,10.019775390625,13.423095703125,-23.653076171875
0.026,6.416259765625,16.265869140625,-22.892333984375
0.0265,1.251220703125,18.908447265625,-20.449951171875
0.027,-3.473388671875,20.990478515625,-17.967529296875
0.0275,-8.197998046875,22.431884765625,-14.724365234375
0.028,-12.522216796875,23.673095703125,-11.641357421875
0.0285,-16.165771484375,22.552001953125,-6.916748046875
0.029,-18.768310546875,22.031494140625,-3.713623046875
0.0295,-21.010498046875,19.428955078125,1.171142578125
0.03,-23.292724609375,17.106689453125,5.815673828125
0.0305,-23.412841796875,13.062744140625,9.979736328125
0.031,-24.413818359375,10.260009765625,13.743408203125
0.0315,-23.132568359375,6.135986328125,16.626220703125
0.032,-21.691162109375,1.851806640625,19.468994140625
0.0325,-19.008544921875,-2.712646484375,21.270751953125
0.033,-16.285888671875,-7.677490234375,23.512939453125
0.0335,-12.522216796875,-11.801513671875,23.913330078125
0.034,-8.478271484375,-15.284912109375,23.472900390625
0.0345,-5.034912109375,-17.406982421875,22.271728515625
0.035,0.530517578125,-20.009521484375,19.509033203125
0.0355,5.094970703125,-22.011474609375,16.986572265625
0.036,10.059814453125,-22.932373046875,12.982666015625
0.0365,13.583251953125,-23.893310546875,10.500244140625
0.037,17.306884765625,-22.531982421875,5.415283203125
0.0375,19.629150390625,-21.571044921875,1.931884765625
0.038,21.711181640625,-18.888427734375,-2.872802734375
0.0385,23.993408203125,-16.406005859375,-7.597412109375
0.039,23.713134765625,-12.241943359375,-11.521240234375
0.0395,24.393798828125,-9.319091796875,-15.124755859375
0.04,22.872314453125,-5.475341796875,-17.366943359375
0.0405,21.070556640625,-0.790771484375,-20.369873046875
0.041,18.387939453125,3.693603515625,-22.131591796875
0.0415,15.024658203125,8.898681640625,-24.053466796875
0.042,11.901611328125,12.342041015625,-24.373779296875
0.0425,7.096923828125,16.105712890625,-23.372802734375
0.043,3.853759765625,17.867431640625,-21.931396484375
0.0435,-1.711669921875,20.469970703125,-19.168701171875
0.044,-6.476318359375,22.592041015625,-16.606201171875
0.0445,-11.401123046875,23.072509765625,-12.201904296875
0.045,-14.684326171875,23.833251953125,-9.679443359375
0.0455,-17.887451171875,22.271728515625,-4.954833984375
0.046,-20.289794921875,20.910400390625,-1.031005859375
0.0465,-22.011474609375,18.187744140625,3.493408203125
0.047,-24.213623046875,15.264892578125,8.538330078125
0.0475,-23.813232421875,11.381103515625,12.061767578125
0.048,-24.093505859375,7.737548828125,15.985595703125
0.0485,-22.451904296875,4.294189453125,17.747314453125
0.049,-20.489990234375,-0.790771484375,20.790283203125
0.0495,-17.647216796875,-5.315185546875,22.431884765625
0.05,-13.883544921875,-10.520263671875,23.993408203125
0.0505,-11.080810546875,-13.403076171875,24.193603515625
0.051,-5.995849609375,-16.966552734375,22.752197265625
0.0515,-2.272216796875,-18.688232421875,20.830322265625
0.052,2.892822265625,-21.130615234375,18.227783203125
0.0525,8.177978515625,-23.212646484375,15.104736328125
0.053,12.502197265625,-23.252685546875,10.860595703125
0.0535,15.985595703125,-23.693115234375,7.817626953125
0.054,18.748291015625,-21.971435546875,3.293212890625
0.0545,21.430908203125,-20.249755859375,-1.191162109375
0.055,22.752197265625,-17.447021484375,-5.315185546875
0.0555,24.674072265625,-14.163818359375,-10.600341796875
0.056,24.153564453125,-10.640380859375,-13.563232421875
0.0565,23.953369140625,-6.596435546875,-17.487060546875
0.057,21.831298828125,-2.832763671875,-19.168701171875
0.0575,19.869384765625,2.252197265625,-22.131591796875
0.058,16.466064453125,7.096923828125,-23.653076171875
0.0585,12.542236328125,12.101806640625,-24.694091796875
0.059,9.579345703125,14.824462890625,-24.614013671875
0.0595,4.334228515625,18.107666015625,-22.692138671875
0.06,0.050048828125,20.029541015625,-20.409912109375
0.0605,-4.754638671875,22.151611328125,-17.887451171875
0.061,-10.440185546875,24.113525390625,-14.203857421875
0.0615,-14.083740234375,23.713134765625,-10.199951171875
0.062,-17.727294921875,23.833251953125,-6.676513671875
0.0625,-20.129638671875,21.631103515625,-2.031982421875
0.063,-22.692138671875,19.629150390625,2.692626953125
0.0635,-23.693115234375,16.466064453125,6.896728515625
0.064,-25.334716796875,12.822509765625,12.181884765625
0.0645,-24.573974609375,9.058837890625,15.064697265625
0.065,-23.853271484375,4.854736328125,18.548095703125
0.0655,-21.370849609375,0.570556640625,20.349853515625
0.066,-19.368896484375,-4.274169921875,23.232666015625
0.0665,-15.405029296875,-9.319091796875,24.353759765625
0.067,-11.561279296875,-13.723388671875,24.954345703125
0.0675,-8.077880859375,-16.606201171875,24.473876953125
0.068,-2.712646484375,-19.448974609375,21.991455078125
0.0685,2.092041015625,-21.490966796875,19.348876953125
0.069,6.696533203125,-23.172607421875,16.586181640625
0.0695,12.261962890625,-24.854248046875,12.702392578125
0.07,15.665283203125,-23.973388671875,8.378173828125
0.0705,19.148681640625,-23.813232421875,4.814697265625
0.071,21.470947265625,-21.130615234375,-0.310302734375
0.0715,23.913330078125,-18.968505859375,-4.994873046875
0.072,24.473876953125,-15.244873046875,-9.279052734375
0.0725,25.795166015625,-12.001708984375,-13.883544921875
0.073,24.714111328125,-7.877685546875,-16.926513671875
0.0735,23.432861328125,-3.553466796875,-20.009521484375
0.074,20.630126953125,1.251220703125,-21.811279296875
0.0745,18.307861328125,6.095947265625,-24.413818359375
0.075,14.103759765625,11.100830078125,-25.214599609375
0.0755,10.219970703125,14.864501953125,-25.174560546875
0.076,6.496337890625,17.707275390625,-24.413818359375
0.0765,0.970947265625,20.309814453125,-21.611083984375
0.077,-3.993896484375,22.471923828125,-18.928466796875
0.0775,-8.798583984375,23.753173828125,-15.525146484375
0.078,-13.683349609375,25.234619140625,-12.161865234375
0.0785,-17.126708984375,23.833251953125,-7.237060546875
0.079,-19.969482421875,23.352783203125,-3.873779296875
0.0795,-22.131591796875,20.429931640625,1.331298828125
0.08,-24.533935546875,18.067626953125,6.095947265625
0.0805,-24.654052734375,13.743408203125,10.500244140625
0.081,-25.735107421875,10.660400390625,14.624267578125
0.0815,-24.453857421875,6.536376953125,17.467041015625
0.082,-22.812255859375,1.971923828125,20.429931640625
0.0825,-19.969482421875,-2.712646484375,22.271728515625
0.083,-17.206787109375,-7.757568359375,24.513916015625
0.0835,-13.242919921875,-12.322021484375,25.234619140625
0.084,-8.918701171875,-15.965576171875,24.593994140625
0.0845,-5.435302734375,-18.247802734375,23.552978515625
0.085,0.410400390625,-20.850341796875,20.429931640625
0.0855,5.175048828125,-23.052490234375,17.907470703125
0.086,10.300048828125,-23.853271484375,13.623291015625
0.0865,14.303955078125,-25.134521484375,10.980712890625
0.087,17.987548828125,-23.653076171875,5.735595703125
0.0875,20.550048828125,-22.612060546875,2.172119140625
0.088,22.672119140625,-19.689208984375,-3.032958984375
0.0885,25.034423828125,-17.286865234375,-7.837646484375
0.089,24.834228515625,-12.842529296875,-12.081787109375
0.0895,25.554931640625,-9.679443359375,-16.005615234375
0.09,24.033447265625,-5.755615234375,-18.287841796875
0.0905,22.071533203125,-0.670654296875,-21.410888671875
0.091,19.188720703125,4.093994140625,-23.212646484375
0.0915,15.665283203125,9.459228515625,-25.134521484375
0.092,12.302001953125,13.262939453125,-25.695068359375
0.0925,7.337158203125,17.106689453125,-24.573974609375
0.093,3.933837890625,18.908447265625,-23.132568359375
0.0935,-2.031982421875,21.671142578125,-20.009521484375
0.094,-7.076904296875,23.873291015625,-17.326904296875
0.0945,-12.281982421875,24.313720703125,-12.522216796875
0.095,-15.685302734375,25.154541015625,-9.999755859375
0.0955,-19.088623046875,23.472900390625,-4.954833984375
0.096,-21.531005859375,21.991455078125,-0.910888671875
0.0965,-23.372802734375,18.788330078125,4.134033203125
0.097,-25.614990234375,15.785400390625,9.419189453125
0.0975,-25.134521484375,11.541259765625,13.182861328125
0.098,-25.454833984375,7.857666015625,17.226806640625
0.0985,-23.613037109375,4.134033203125,19.028564453125
0.099,-21.450927734375,-1.271240234375,22.191650390625
0.0995,-18.247802734375,-6.075927734375,23.873291015625
0.1,-14.243896484375,-11.521240234375,25.434814453125
0.1005,-11.361083984375,-14.564208984375,25.594970703125
0.101,-5.915771484375,-18.247802734375,23.993408203125
0.1015,-2.152099609375,-19.889404296875,21.951416015625
0.102,3.533447265625,-22.451904296875,18.908447265625
0.1025,8.978759765625,-24.614013671875,15.745361328125
0.103,13.583251953125,-24.493896484375,11.020751953125
0.1035,17.066650390625,-25.014404296875,8.057861328125
0.104,19.989501953125,-23.092529296875,3.173095703125
0.1045,22.592041015625,-21.210693359375,-1.431396484375
0.105,23.993408203125,-18.087646484375,-6.035888671875
0.1055,26.075439453125,-14.724365234375,-11.481201171875
0.106,25.354736328125,-10.840576171875,-14.564208984375
0.1065,25.114501953125,-6.676513671875,-18.568115234375
0.107,22.912353515625,-2.752685546875,-20.169677734375
0.1075,20.670166015625,2.572509765625,-23.212646484375
0.108,17.066650390625,7.617431640625,-24.694091796875
0.1085,12.902587890625,12.822509765625,-25.775146484375
0.109,9.939697265625,15.625244140625,-25.695068359375
0.1095,4.494384765625,19.028564453125,-23.693115234375
0.11,0.210205078125,20.830322265625,-21.330810546875
0.1105,-4.994873046875,23.072509765625,-18.568115234375
0.111,-10.840576171875,25.114501953125,-14.804443359375
0.1115,-14.724365234375,24.593994140625,-10.440185546875
0.112,-18.327880859375,24.834228515625,-7.036865234375
0.1125,-20.810302734375,22.471923828125,-2.272216796875
0.113,-23.372802734375,20.349853515625,2.532470703125
0.1135,-24.373779296875,16.946533203125,7.056884765625
0.114,-26.175537109375,13.302978515625,12.502197265625
0.1145,-25.334716796875,9.459228515625,15.545166015625
0.115,-24.654052734375,5.175048828125,19.108642578125
0.1155,-22.171630859375,0.970947265625,20.790283203125
0.116,-20.009521484375,-4.154052734375,23.673095703125
0.1165,-16.005615234375,-9.359130859375,24.954345703125
0.117,-11.921630859375,-13.963623046875,25.554931640625
0.1175,-8.598388671875,-16.846435546875,25.194580078125
0.118,-3.113037109375,-19.729248046875,22.672119140625
0.1185,1.611572265625,-21.731201171875,20.069580078125
0.119,6.536376953125,-23.572998046875,17.146728515625
0.1195,12.302001953125,-25.374755859375,13.182861328125
0.12,15.825439453125,-24.413818359375,8.738525390625
0.1205,19.228759765625,-24.493896484375,5.295166015625
0.121,21.631103515625,-21.851318359375,0.210205078125
0.1215,24.193603515625,-19.649169921875,-4.674560546875
0.122,24.834228515625,-15.845458984375,-9.078857421875
0.1225,26.355712890625,-12.322021484375,-14.083740234375
0.123,25.314697265625,-8.318115234375,-17.006591796875
0.1235,24.033447265625,-3.873779296875,-20.169677734375
0.124,21.270751953125,0.770751953125,-21.971435546875
0.1245,18.908447265625,5.815673828125,-24.694091796875
0.125,14.584228515625,11.020751953125,-25.655029296875
0.1255,10.540283203125,15.024658203125,-25.614990234375
0.126,7.016845703125,17.867431640625,-25.054443359375
0.1265,1.331298828125,20.550048828125,-22.171630859375
0.127,-3.553466796875,22.632080078125,-19.529052734375
0.1275,-8.598388671875,24.073486328125,-16.005615234375
0.128,-13.803466796875,25.635009765625,-12.442138671875
0.1285,-17.246826171875,24.233642578125,-7.557373046875
0.129,-20.129638671875,23.833251953125,-4.274169921875
0.1295,-22.331787109375,20.870361328125,0.970947265625
0.13,-24.734130859375,18.508056640625,5.855712890625
0.1305,-24.934326171875,14.223876953125,10.340087890625
0.131,-26.095458984375,10.980712890625,14.744384765625
0.1315,-24.854248046875,6.856689453125,17.627197265625
0.132,-23.212646484375,2.252197265625,20.550048828125
0.1325,-20.409912109375,-2.352294921875,22.351806640625
0.133,-17.647216796875,-7.517333984375,24.714111328125
0.1335,-13.603271484375,-12.281982421875,25.514892578125
0.134,-9.198974609375,-15.965576171875,24.834228515625
0.1345,-5.835693359375,-18.287841796875,23.953369140625
0.135,0.010009765625,-20.890380859375,20.830322265625
0.1355,4.774658203125,-22.972412109375,18.307861328125
0.136,9.939697265625,-23.933349609375,14.063720703125
0.1365,14.143798828125,-25.334716796875,11.260986328125
0.137,17.787353515625,-23.813232421875,6.095947265625
0.1375,20.349853515625,-22.972412109375,2.612548828125
0.138,22.471923828125,-20.009521484375,-2.512451171875
0.1385,24.914306640625,-17.567138671875,-7.397216796875
0.139,24.754150390625,-13.162841796875,-11.641357421875
0.1395,25.554931640625,-9.959716796875,-15.685302734375
0.14,24.193603515625,-6.236083984375,-18.007568359375
0.1405,22.151611328125,-1.191162109375,-21.010498046875
0.141,19.428955078125,3.373291015625,-22.772216796875
0.1415,15.985595703125,8.698486328125,-24.694091796875
0.142,12.662353515625,12.742431640625,-25.534912109375
0.1425,7.697509765625,16.466064453125,-24.333740234375
0.143,4.574462890625,18.307861328125,-23.172607421875
0.1435,-1.271240234375,20.990478515625,-20.089599609375
0.144,-6.075927734375,23.192626953125,-17.607177734375
0.1445,-11.281005859375,23.633056640625,-12.882568359375
0.145,-14.844482421875,24.674072265625,-10.440185546875
0.1455,-18.087646484375,23.152587890625,-5.675537109375
0.146,-20.489990234375,21.831298828125,-1.751708984375
0.1465,-22.371826171875,18.908447265625,3.012939453125
0.147,-24.614013671875,16.065673828125,8.177978515625
0.1475,-24.413818359375,12.021728515625,12.021728515625
0.148,-24.774169921875,8.298095703125,16.065673828125
0.1485,-23.372802734375,5.135009765625,17.787353515625
0.149,-21.210693359375,-0.150146484375,20.910400390625
0.1495,-18.568115234375,-4.634521484375,22.752197265625
0.15,-14.564208984375,-10.039794921875,24.233642578125
0.1505,-11.921630859375,-13.322998046875,24.994384765625
0.151,-6.676513671875,-16.926513671875,23.352783203125
0.1515,-3.313232421875,-18.648193359375,21.791259765625
0.152,2.252197265625,-21.130615234375,18.908447265625
0.1525,7.417236328125,-23.452880859375,16.065673828125
0.153,12.141845703125,-23.572998046875,11.501220703125
0.1535,15.705322265625,-24.333740234375,8.618408203125
0.154,18.427978515625,-22.692138671875,4.374267578125
0.1545,21.190673828125,-21.010498046875,-0.230224609375
0.155,22.752197265625,-18.127685546875,-4.674560546875
0.1555,24.834228515625,-14.884521484375,-9.999755859375
0.156,24.593994140625,-11.401123046875,-13.282958984375
0.1565,24.433837890625,-7.156982421875,-17.326904296875
0.157,22.712158203125,-3.873779296875,-18.848388671875
0.1575,20.510009765625,1.451416015625,-21.931396484375
0.158,17.306884765625,6.456298828125,-23.773193359375
0.1585,13.102783203125,11.621337890625,-24.814208984375
0.159,10.540283203125,14.584228515625,-25.214599609375
0.1595,5.175048828125,17.867431640625,-23.252685546875
0.16,1.211181640625,19.789306640625,-21.250732421875
0.1605,-4.033935546875,21.951416015625,-18.528076171875
0.161,-9.759521484375,24.233642578125,-15.044677734375
0.1615,-13.723388671875,23.873291015625,-10.760498046875
0.162,-17.487060546875,24.273681640625,-7.317138671875
0.1625,-19.649169921875,22.231689453125,-3.072998046875
0.163,-22.451904296875,20.189697265625,1.811767578125
0.1635,-23.572998046875,16.946533203125,6.256103515625
0.164,-25.334716796875,13.302978515625,11.701416015625
0.1645,-24.854248046875,9.859619140625,14.624267578125
0.165,-24.133544921875,5.415283203125,18.307861328125
0.1655,-21.971435546875,1.651611328125,19.869384765625
0.166,-19.809326171875,-3.473388671875,22.792236328125
0.1665,-16.045654296875,-8.718505859375,24.353759765625
0.167,-11.961669921875,-13.282958984375,24.834228515625
0.1675,-8.958740234375,-16.165771484375,24.874267578125
0.168,-3.593505859375,-18.928466796875,22.311767578125
0.1685,0.970947265625,-21.010498046875,19.909423828125
0.169,5.775634765625,-22.772216796875,17.026611328125
0.1695,11.541259765625,-24.734130859375,13.222900390625
0.17,14.864501953125,-23.853271484375,9.098876953125
0.1705,18.548095703125,-23.893310546875,5.455322265625
0.171,20.630126953125,-21.490966796875,0.970947265625
0.1715,23.232666015625,-19.288818359375,-3.953857421875
0.172,23.993408203125,-15.845458984375,-8.238037109375
0.1725,25.354736328125,-12.281982421875,-13.122802734375
0.173,24.714111328125,-8.718505859375,-16.045654296875
0.1735,23.352783203125,-4.234130859375,-19.168701171875
0.174,20.990478515625,-0.190185546875,-20.810302734375
0.1745,18.628173828125,4.734619140625,-23.372802734375
0.175,14.704345703125,9.979736328125,-24.734130859375
0.1755,10.700439453125,13.743408203125,-24.533935546875
0.176,7.417236328125,16.746337890625,-24.373779296875
0.1765,2.252197265625,18.948486328125,-21.611083984375
0.177,-2.472412109375,21.190673828125,-19.208740234375
0.1775,-7.036865234375,22.511962890625,-16.005615234375
0.178,-12.362060546875,24.353759765625,-12.522216796875
0.1785,-15.525146484375,23.192626953125,-8.278076171875
0.179,-18.568115234375,22.912353515625,-4.834716796875
0.1795,-20.369873046875,20.429931640625,-0.550537109375
0.18,-22.812255859375,18.187744140625,4.294189453125
0.1805,-23.372802734375,14.384033203125,8.618408203125
